 LCModel (Version 6.3-1L) Copyright: S.W. Provencher.          Ref.: Magn. Reson. Med. 30:672-679 (1993).                
 Slice#1 Row#5 Col#4  PD_05_press_2_raw_act
 36 lines in following concentration table = NCONC+1
    Conc.  %SD /Cr+PCr  Metabolite                                         
 2.46E+03  20%   1.585 Ala                                                 
  372.478 112%   0.240 Asp                                                 
 1.55E+03  11%   1.000 Cr                                                  
    0.000 999%   0.000 PCr                                                 
   43.589 604% 2.8E-02 GABA                                                
  182.978 142%   0.118 Glc                                                 
 1.15E+03  87%   0.740 Gln                                                 
 2.87E+03  39%   1.852 Glu                                                 
  465.370 132%   0.300 GPC                                                 
  303.805 202%   0.196 PCh                                                 
  288.441  92%   0.186 GSH                                                 
 1.81E+03  49%   1.165 Ins                                                 
    0.000 999%   0.000 Lac                                                 
 3.07E+03  11%   1.978 NAA                                                 
  101.634 383% 6.6E-02 NAAG                                                
   57.590 117% 3.7E-02 Scyllo                                              
  141.073 298% 9.1E-02 Tau                                                 
    0.000 999%   0.000 -CrCH2                                              
  769.175   9%   0.496 GPC+PCh                                             
 3.17E+03   8%   2.044 NAA+NAAG                                            
 1.55E+03  11%   1.000 Cr+PCr                                              
 4.02E+03  44%   2.593 Glu+Gln                                             
    0.000 999%   0.000 Lip13a                                              
 2.68E+03  27%   1.732 Lip13b                                              
  144.393 405% 9.3E-02 Lip09                                               
 3.89E+03  17%   2.510 MM09                                                
  750.417  59%   0.484 Lip20                                               
 7.77E+03  15%   5.013 MM20                                                
 1.47E+03  30%   0.950 MM12                                                
    0.000 999%   0.000 MM14                                                
 2.30E+03  18%   1.482 MM17                                                
 2.68E+03  27%   1.732 Lip13a+Lip13b                                       
 4.16E+03  17%   2.683 MM14+Lip13a+Lip13b+MM12                             
 4.03E+03  14%   2.603 MM09+Lip09                                          
 8.52E+03  13%   5.498 MM20+Lip20                                          
   6 lines in following misc. output table
  FWHM = 0.069 ppm    S/N =   5                                            
  Data shift = 0.015 ppm                                                   
  Ph:   1 deg       8.2 deg/ppm                                            
  alphaB,S = 6.0E-01,   1.8E+02                                            
   14 spline knots.   Ns = 8(1)                                            
  (14) 2 infls.   (15) 1 extrs.                                            
  498 points on ppm-axis = NY
      4.000000     3.992357     3.984714     3.977070     3.969427     3.961784     3.954141     3.946497     3.938854     3.931211
      3.923568     3.915925     3.908281     3.900638     3.892995     3.885352     3.877708     3.870065     3.862422     3.854779
      3.847136     3.839492     3.831849     3.824206     3.816563     3.808919     3.801276     3.793633     3.785990     3.778347
      3.770703     3.763060     3.755417     3.747774     3.740130     3.732487     3.724844     3.717201     3.709558     3.701914
      3.694271     3.686628     3.678985     3.671341     3.663698     3.656055     3.648412     3.640769     3.633125     3.625482
      3.617839     3.610196     3.602552     3.594909     3.587266     3.579623     3.571980     3.564336     3.556693     3.549050
      3.541407     3.533763     3.526120     3.518477     3.510834     3.503191     3.495547     3.487904     3.480261     3.472618
      3.464974     3.457331     3.449688     3.442045     3.434402     3.426758     3.419115     3.411472     3.403829     3.396185
      3.388542     3.380899     3.373256     3.365613     3.357969     3.350326     3.342683     3.335040     3.327396     3.319753
      3.312110     3.304467     3.296824     3.289180     3.281537     3.273894     3.266251     3.258607     3.250964     3.243321
      3.235678     3.228034     3.220391     3.212748     3.205105     3.197462     3.189818     3.182175     3.174532     3.166889
      3.159245     3.151602     3.143959     3.136316     3.128673     3.121029     3.113386     3.105743     3.098100     3.090456
      3.082813     3.075170     3.067527     3.059884     3.052240     3.044597     3.036954     3.029311     3.021667     3.014024
      3.006381     2.998738     2.991095     2.983451     2.975808     2.968165     2.960522     2.952878     2.945235     2.937592
      2.929949     2.922306     2.914662     2.907019     2.899376     2.891733     2.884089     2.876446     2.868803     2.861160
      2.853517     2.845873     2.838230     2.830587     2.822944     2.815300     2.807657     2.800014     2.792371     2.784728
      2.777084     2.769441     2.761798     2.754155     2.746511     2.738868     2.731225     2.723582     2.715939     2.708295
      2.700652     2.693009     2.685366     2.677722     2.670079     2.662436     2.654793     2.647150     2.639506     2.631863
      2.624220     2.616577     2.608933     2.601290     2.593647     2.586004     2.578361     2.570717     2.563074     2.555431
      2.547788     2.540144     2.532501     2.524858     2.517215     2.509572     2.501928     2.494285     2.486642     2.478999
      2.471355     2.463712     2.456069     2.448426     2.440783     2.433139     2.425496     2.417853     2.410210     2.402566
      2.394923     2.387280     2.379637     2.371994     2.364350     2.356707     2.349064     2.341421     2.333777     2.326134
      2.318491     2.310848     2.303205     2.295561     2.287918     2.280275     2.272632     2.264988     2.257345     2.249702
      2.242059     2.234416     2.226772     2.219129     2.211486     2.203843     2.196199     2.188556     2.180913     2.173270
      2.165627     2.157983     2.150340     2.142697     2.135054     2.127410     2.119767     2.112124     2.104481     2.096838
      2.089194     2.081551     2.073908     2.066265     2.058621     2.050978     2.043335     2.035692     2.028049     2.020405
      2.012762     2.005119     1.997476     1.989833     1.982190     1.974546     1.966903     1.959260     1.951617     1.943974
      1.936331     1.928688     1.921045     1.913402     1.905759     1.898115     1.890472     1.882829     1.875186     1.867543
      1.859900     1.852257     1.844614     1.836971     1.829327     1.821684     1.814041     1.806398     1.798755     1.791112
      1.783469     1.775826     1.768183     1.760540     1.752896     1.745253     1.737610     1.729967     1.722324     1.714681
      1.707038     1.699395     1.691752     1.684108     1.676465     1.668822     1.661179     1.653536     1.645893     1.638250
      1.630607     1.622964     1.615321     1.607677     1.600034     1.592391     1.584748     1.577105     1.569462     1.561819
      1.554176     1.546533     1.538890     1.531246     1.523603     1.515960     1.508317     1.500674     1.493031     1.485388
      1.477745     1.470102     1.462458     1.454815     1.447172     1.439529     1.431886     1.424243     1.416600     1.408957
      1.401314     1.393671     1.386027     1.378384     1.370741     1.363098     1.355455     1.347812     1.340169     1.332526
      1.324883     1.317240     1.309596     1.301953     1.294310     1.286667     1.279024     1.271381     1.263738     1.256095
      1.248452     1.240808     1.233165     1.225522     1.217879     1.210236     1.202593     1.194950     1.187307     1.179664
      1.172021     1.164377     1.156734     1.149091     1.141448     1.133805     1.126162     1.118519     1.110876     1.103233
      1.095590     1.087946     1.080303     1.072660     1.065017     1.057374     1.049731     1.042088     1.034445     1.026802
      1.019158     1.011515     1.003872     0.996229     0.988586     0.980943     0.973300     0.965657     0.958014     0.950371
      0.942727     0.935084     0.927441     0.919798     0.912155     0.904512     0.896869     0.889226     0.881583     0.873940
      0.866296     0.858653     0.851010     0.843367     0.835724     0.828081     0.820438     0.812795     0.805152     0.797508
      0.789865     0.782222     0.774579     0.766936     0.759293     0.751650     0.744007     0.736364     0.728721     0.721077
      0.713434     0.705791     0.698148     0.690505     0.682862     0.675219     0.667576     0.659933     0.652290     0.644646
      0.637003     0.629360     0.621717     0.614074     0.606431     0.598788     0.591145     0.583502     0.575858     0.568215
      0.560572     0.552929     0.545286     0.537643     0.530000     0.522357     0.514714     0.507071     0.499427     0.491784
      0.484141     0.476498     0.468855     0.461212     0.453569     0.445925     0.438282     0.430639     0.422996     0.415353
      0.407710     0.400067     0.392424     0.384780     0.377137     0.369494     0.361851     0.354208     0.346565     0.338922
      0.331278     0.323635     0.315992     0.308349     0.300706     0.293063     0.285420     0.277777     0.270133     0.262490
      0.254847     0.247204     0.239561     0.231918     0.224275     0.216631     0.208988     0.201345
 NY phased data points follow
  -2.07137E+00 -6.67851E+00  1.20736E+01  1.20059E+01  1.74047E+01  2.91091E+01  9.93497E+00  2.88359E+01  2.54653E+01  3.48528E+01
   3.77592E+01  4.40916E+01  3.46732E+01  2.67070E+01  2.15405E+01  2.60730E+01  1.46343E+01  1.02113E+01  8.55249E+00  1.40994E+01
   5.31896E-01  7.41295E+00  7.98551E+00  1.15189E+01  1.19304E+01  1.99158E+01  1.96821E+01 -3.73818E+00  1.24825E+01  3.40298E+00
  -2.25666E+00  1.49469E+01  2.32442E+01  4.23864E+00  1.14930E+01  1.70898E+01 -3.64205E-01  5.85694E+00  8.72966E+00  9.09845E+00
   4.73484E+00  4.43643E+00  1.01891E+01  4.89703E+00  5.22818E+00  2.27985E+01  2.89637E+01  2.35491E+01  2.39007E+01  1.66880E+01
   1.42576E+01  2.07296E+01  6.10052E+00  1.76635E+01  1.63135E+01  4.14311E+00  1.97639E+01  9.16465E+00  7.27143E+00  7.37341E+00
   1.56174E+01  6.30639E+00  3.28879E+00  6.44721E+00 -9.63650E-01  6.78315E+00 -4.30893E+00  1.97891E-01 -7.39530E+00  5.38718E+00
  -6.22854E-02 -1.09104E+01  1.46948E+00  1.21597E+01 -3.44114E+00  6.67525E+00  1.49940E+01  1.95051E+01  2.25263E+00  1.14855E+01
   8.74773E+00 -4.87626E+00  9.54422E-01  4.95542E+00  4.28376E+00  4.97394E+00 -2.93914E-01  8.39731E+00 -6.06914E-01 -1.28775E+00
   4.66082E+00  3.86630E+00 -1.67836E+00  1.65769E+01  1.26169E+01  1.82387E+01  1.62692E+01  2.89806E+01  2.50827E+01  3.54761E+01
   5.13363E+01  6.25512E+01  5.66787E+01  5.58857E+01  6.66282E+01  5.15004E+01  3.88204E+01  3.05818E+01  2.49928E+01  1.87512E+01
   1.31685E+01  7.81993E+00  1.20942E+01  2.54100E+00 -4.13593E-02 -4.38371E+00  3.41918E+00  6.33143E+00 -3.68879E+00 -3.94098E+00
   2.14392E+01  1.90697E+01  1.66399E+01  1.50724E+01  1.77868E+01  5.12710E+01  4.56731E+01  4.60066E+01  5.21409E+01  3.95015E+01
   4.35579E+01  2.79250E+01  1.98546E+01  1.48801E+01  9.11024E+00  5.50492E+00  1.43060E+01  4.98429E-01 -1.18321E+00  1.96619E+00
  -3.84695E+00  3.51342E+00 -4.31855E+00  3.42091E+00  4.61432E+00  3.27202E+00  1.84651E+00  1.94399E+01  2.46603E-01  3.16203E+00
   1.18642E+01 -4.59602E+00  1.96741E-02 -3.48081E+00 -1.16360E+01 -2.79219E+00 -3.77337E+00 -4.20570E+00  4.85354E+00  3.62963E+00
  -1.41246E+01 -5.66501E+00 -1.54407E+01  6.30704E+00 -1.76693E+01 -1.29207E+01 -4.05389E+00 -2.83044E+00 -8.17032E+00  6.90995E+00
  -6.12486E+00 -1.21279E+01 -1.15296E+01 -1.36541E+01 -5.09162E+00 -1.47106E+01 -2.87348E+00 -2.97251E+01 -1.37560E+01 -1.42060E+01
  -1.73268E+01 -5.77747E+00 -4.99227E-01 -1.22112E+01 -1.19084E+01 -1.06920E+01 -1.49792E+00 -1.14005E+01 -1.69850E+01  1.64774E+00
  -7.24818E+00 -5.80394E+00 -1.54972E+00  1.00469E+00 -1.25261E+01 -5.44537E+00 -9.94621E+00  8.10614E+00 -2.08478E+00 -1.06212E+00
  -9.29097E+00  5.26592E+00 -8.16876E-01  8.14616E+00  6.26784E+00 -1.12110E+01 -1.30068E+01 -4.34651E-01 -3.50953E+00 -7.60703E+00
  -1.43606E+01  1.24379E+01  1.80065E+01 -2.47310E+00  1.34020E+01  5.51126E+00 -1.08757E+00  1.01062E+01  4.93021E+00 -7.09033E-01
  -1.39473E+01 -1.52133E+00 -8.70807E+00 -8.17753E+00 -1.37080E+01  3.69667E+00  3.40564E+00  1.40580E+01  1.19115E+01  2.24925E+01
   1.37351E+01  7.52211E-01  9.57521E+00  1.20010E+01 -7.19468E+00 -1.41569E+01  3.65720E-01 -5.14723E+00  8.51309E+00  6.66690E-01
   1.12108E+00  1.86192E+00 -8.87702E+00  4.19844E+00  1.98049E+00  1.00544E+01  1.35538E+01  1.04984E+00  4.26316E+00  1.59255E+01
   2.21319E+01  1.79039E+01  1.94323E+01  4.20364E+01  3.41056E+01  7.01340E+01  5.91539E+01  7.70436E+01  7.79113E+01  9.01943E+01
   9.72721E+01  1.01539E+02  8.43031E+01  5.11996E+01  5.57233E+01  2.46171E+01  2.34161E+01  1.74880E+01  5.08621E-01  5.41135E-01
   2.49901E+01  1.18600E+01 -5.10579E+00 -3.94107E+00 -2.87707E+00 -6.09269E+00 -1.67237E+01 -3.55988E+00 -3.13052E+00 -1.84489E+00
  -2.20713E+00 -5.26595E+00 -1.99610E+01 -3.48323E+00 -9.48162E+00 -1.00775E+01 -2.44260E+01 -1.84860E+01 -5.18180E+00  6.50567E-01
  -5.58544E+00  5.81599E+00 -6.88710E+00 -1.12878E+01 -1.60935E+01 -1.53222E+01 -2.45585E+01 -2.08723E+01 -7.18038E+00 -1.77733E+01
  -7.40225E+00 -3.18849E+01 -7.67649E+00 -1.75618E+01 -1.37475E+01 -1.19795E+01  6.31576E+00  6.46019E+00 -6.12097E+00  7.86355E+00
   1.21204E+01  2.82834E+00  1.25282E+00  1.40708E+01  9.48778E+00 -2.54524E+00  4.47097E+00 -8.57845E+00 -1.23323E+01 -8.09094E+00
  -3.30281E+00 -1.40240E+01 -3.36692E+01 -4.94968E+01 -4.43481E+01 -6.17233E+01 -7.53934E+01 -8.33281E+01 -6.98169E+01 -5.98924E+01
  -6.45301E+01 -7.05107E+01 -5.86588E+01 -6.05242E+01 -4.54319E+01 -3.30056E+01 -4.42846E+01 -2.52631E+01 -3.37478E+01 -3.15022E+01
  -3.14607E+01 -1.05289E+01 -6.49498E+00 -1.20243E+01 -8.64938E+00 -2.13803E+01 -8.88186E+00  3.58721E+00  2.68448E-01  6.08037E+00
   1.69869E+01  9.45183E+00 -4.28150E+00  5.58773E+00  1.05405E+01  4.82413E+00  2.39951E+00  6.41885E+00  8.50581E+00 -3.69565E+00
  -8.23302E+00 -2.52821E-01  5.32531E+00  1.04167E+01 -4.24267E+00 -1.65193E+01 -9.35156E+00 -1.04669E+01 -1.77132E+01 -2.43786E+00
  -1.78960E+01 -1.12412E+01 -9.38745E+00 -2.88302E+01 -5.25323E+00 -1.10199E+01  4.28660E+00 -2.63056E+00 -1.67493E+01 -4.29882E+00
  -1.44623E+01 -7.60391E+00 -9.78701E+00 -1.77697E+01 -1.28733E+01 -1.50700E+01 -8.22895E+00 -8.60819E+00 -3.05494E+00 -1.00313E+01
  -1.17520E+01 -1.79521E+01 -3.53505E+00  8.72825E+00 -2.65780E+00  4.04920E+00  1.53973E+01  1.35422E+01 -7.54228E+00  1.03010E+01
   2.62881E+00 -1.87324E-01 -3.67017E+00 -1.24233E+01 -3.16513E+00 -7.71353E+00  2.11078E+00 -8.04692E-01 -3.99552E-01  3.22543E+00
   2.92409E+00 -1.31976E+00 -5.55107E+00 -1.22909E+01 -1.08429E+01 -2.07745E+00 -1.95792E+01 -1.48749E+01 -7.65125E+00 -9.69333E+00
  -1.22036E+01 -1.32011E+01 -1.21334E+01 -4.64292E+00 -7.75958E+00 -1.93457E+01 -1.66199E+00 -2.56523E+01 -1.62192E+01 -3.20207E+01
  -2.65606E+01 -1.61719E+01 -3.14267E+01 -5.28070E+00 -1.04528E+01 -5.62601E+00 -1.17970E+01 -1.83248E+01 -2.36298E+01 -2.68147E+00
  -1.11843E+01 -2.25328E+00 -1.16521E+01 -8.93157E+00 -1.65120E+01 -3.21992E+01 -1.54758E+01 -7.31138E+00 -9.12004E+00 -1.66604E+01
  -1.49073E+01  3.96473E+00 -2.07133E+01 -1.25849E+01  1.13049E+00 -2.15070E+01 -1.61146E+01 -5.51438E+00 -1.57602E+01 -2.30437E+01
  -1.05078E+01 -2.05497E+01 -1.93407E+00 -1.17829E+01 -1.06042E+01 -1.91536E+01 -3.43461E-01 -5.41225E+00 -2.88584E+00 -1.84966E+01
  -2.27064E+01 -6.27076E+00  3.37536E-01 -3.10681E+00 -7.50099E+00 -1.09240E+01 -7.40963E+00 -1.80804E+01 -3.00806E+00 -1.04535E+01
  -1.23126E+01 -2.25946E+01 -1.74750E+01 -1.18268E+01 -5.85856E+00 -1.00596E+01 -1.02922E+01 -1.28769E+01 -1.27100E+01 -1.94905E+00
  -9.98745E+00 -7.46658E+00 -1.56554E+01 -1.64591E+01 -7.90099E+00 -1.16042E+01 -1.52470E+01 -1.10704E+01
 NY points of the fit to the data follow
   9.67280E+00  9.43976E+00  9.63064E+00  1.08669E+01  1.38710E+01  1.79309E+01  2.21601E+01  2.60795E+01  2.95004E+01  3.22294E+01
   3.39717E+01  3.43353E+01  3.30567E+01  3.02659E+01  2.65586E+01  2.27631E+01  1.95194E+01  1.69215E+01  1.48674E+01  1.31671E+01
   1.15591E+01  1.00620E+01  8.74510E+00  7.31744E+00  6.18955E+00  5.77726E+00  6.19098E+00  7.36426E+00  9.14087E+00  1.13421E+01
   1.36323E+01  1.55121E+01  1.66438E+01  1.67805E+01  1.58555E+01  1.40747E+01  1.18629E+01  9.64901E+00  7.88559E+00  7.09138E+00
   7.50673E+00  8.83449E+00  1.06473E+01  1.25033E+01  1.41087E+01  1.52958E+01  1.59084E+01  1.58229E+01  1.49931E+01  1.35111E+01
   1.16353E+01  9.74277E+00  8.20522E+00  7.19929E+00  6.71786E+00  6.61223E+00  6.75717E+00  7.05911E+00  7.38347E+00  7.58094E+00
   7.55049E+00  7.28008E+00  6.81811E+00  6.26380E+00  5.80293E+00  5.54938E+00  5.51750E+00  5.68479E+00  6.01024E+00  6.42948E+00
   6.85344E+00  7.18971E+00  7.37558E+00  7.37431E+00  7.20343E+00  6.90639E+00  6.53365E+00  6.16025E+00  5.90562E+00  5.73665E+00
   5.51880E+00  5.18697E+00  4.78251E+00  4.34480E+00  3.89049E+00  3.41906E+00  2.94639E+00  2.51431E+00  2.22249E+00  2.16387E+00
   2.34559E+00  2.74708E+00  3.33371E+00  4.15352E+00  5.69139E+00  9.77871E+00  1.71066E+01  2.58988E+01  3.46833E+01  4.28457E+01
   5.01619E+01  5.61288E+01  5.98172E+01  6.02695E+01  5.70109E+01  5.04401E+01  4.17831E+01  3.24874E+01  2.37446E+01  1.63142E+01
   1.04626E+01  6.20279E+00  3.53127E+00  2.44463E+00  2.37761E+00  2.59882E+00  2.94341E+00  3.44432E+00  4.32330E+00  6.63126E+00
   1.14194E+01  1.76417E+01  2.41258E+01  3.02872E+01  3.59134E+01  4.07282E+01  4.41310E+01  4.53564E+01  4.39033E+01  3.98626E+01
   3.39767E+01  2.72927E+01  2.07334E+01  1.49300E+01  1.01565E+01  6.45172E+00  3.85654E+00  2.44669E+00  2.00071E+00  1.89200E+00
   1.85506E+00  1.80242E+00  1.69347E+00  1.51453E+00  1.25876E+00  9.18899E-01  5.04503E-01  3.68282E-02 -4.48244E-01 -9.09402E-01
  -1.32209E+00 -1.68654E+00 -2.05073E+00 -2.51834E+00 -3.08872E+00 -3.68356E+00 -4.22660E+00 -4.64832E+00 -5.00421E+00 -5.34321E+00
  -5.64466E+00 -5.86583E+00 -5.98989E+00 -6.05406E+00 -6.13303E+00 -6.29898E+00 -6.59490E+00 -7.03365E+00 -7.64034E+00 -8.37086E+00
  -9.06275E+00 -9.64480E+00 -1.01222E+01 -1.05776E+01 -1.10068E+01 -1.13107E+01 -1.14399E+01 -1.14124E+01 -1.13290E+01 -1.13228E+01
  -1.13478E+01 -1.12474E+01 -1.09411E+01 -1.04281E+01 -9.76429E+00 -9.03666E+00 -8.30982E+00 -7.57312E+00 -6.83780E+00 -6.18259E+00
  -5.77241E+00 -5.67730E+00 -5.82637E+00 -6.05727E+00 -6.20281E+00 -6.13648E+00 -5.76158E+00 -5.04651E+00 -4.02750E+00 -2.90520E+00
  -1.89842E+00 -1.27005E+00 -1.44396E+00 -2.44478E+00 -4.04710E+00 -6.09222E+00 -8.25421E+00 -1.00183E+01 -1.06912E+01 -1.01783E+01
  -8.73706E+00 -6.62134E+00 -4.15614E+00 -1.86822E+00 -5.14867E-01 -6.01821E-01 -1.99404E+00 -4.25504E+00 -6.97751E+00 -9.67002E+00
  -1.18223E+01 -1.28899E+01 -1.25806E+01 -1.10148E+01 -8.52219E+00 -5.52214E+00 -2.47121E+00  1.06177E-01  1.87159E+00  2.90712E+00
   3.46940E+00  3.74816E+00  3.85544E+00  3.99257E+00  4.30165E+00  4.63344E+00  4.97326E+00  5.39414E+00  5.86391E+00  6.28401E+00
   6.65585E+00  7.00080E+00  7.34205E+00  7.75334E+00  8.31969E+00  9.10192E+00  1.00768E+01  1.12375E+01  1.25940E+01  1.40777E+01
   1.56169E+01  1.77011E+01  2.27976E+01  3.24524E+01  4.44375E+01  5.65777E+01  6.78551E+01  7.78689E+01  8.60083E+01  9.11306E+01
   9.19080E+01  8.75195E+01  7.82556E+01  6.56082E+01  5.15224E+01  3.77485E+01  2.55186E+01  1.53360E+01  7.27693E+00  1.41769E+00
  -2.12253E+00 -3.97425E+00 -5.25119E+00 -6.31302E+00 -7.27061E+00 -8.20242E+00 -9.14666E+00 -1.01020E+01 -1.10618E+01 -1.20061E+01
  -1.29107E+01 -1.37534E+01 -1.45136E+01 -1.51724E+01 -1.57206E+01 -1.61603E+01 -1.64941E+01 -1.67192E+01 -1.68284E+01 -1.68124E+01
  -1.66629E+01 -1.63716E+01 -1.59292E+01 -1.53326E+01 -1.45854E+01 -1.36965E+01 -1.26814E+01 -1.15635E+01 -1.03735E+01 -9.14804E+00
  -7.92860E+00 -6.76064E+00 -5.69047E+00 -4.76290E+00 -4.01866E+00 -3.49084E+00 -3.20225E+00 -3.16354E+00 -3.37213E+00 -3.81187E+00
  -4.45288E+00 -5.25197E+00 -6.15253E+00 -7.08316E+00 -7.95329E+00 -8.63840E+00 -8.93093E+00 -8.37820E+00 -6.60490E+00 -4.83994E+00
  -4.18217E+00 -4.89590E+00 -6.94046E+00 -1.04115E+01 -1.56860E+01 -2.29154E+01 -3.05810E+01 -3.71118E+01 -4.17632E+01 -4.41202E+01
  -4.39635E+01 -4.12569E+01 -3.63564E+01 -3.00618E+01 -2.34064E+01 -1.74393E+01 -1.30053E+01 -1.06307E+01 -1.00649E+01 -1.06882E+01
  -1.19109E+01 -1.32994E+01 -1.45278E+01 -1.52473E+01 -1.50215E+01 -1.38412E+01 -1.19030E+01 -9.32432E+00 -6.22816E+00 -2.78403E+00
   7.82646E-01  4.20175E+00  7.18535E+00  9.46511E+00  1.08321E+01  1.11700E+01  1.04738E+01  8.84865E+00  6.48968E+00  3.64716E+00
   5.86086E-01 -2.45138E+00 -5.27350E+00 -7.75302E+00 -9.82789E+00 -1.14916E+01 -1.27776E+01 -1.37419E+01 -1.44486E+01 -1.49583E+01
  -1.53221E+01 -1.55788E+01 -1.57548E+01 -1.58655E+01 -1.59177E+01 -1.59119E+01 -1.58443E+01 -1.57085E+01 -1.54970E+01 -1.52017E+01
  -1.48148E+01 -1.43298E+01 -1.37413E+01 -1.30465E+01 -1.22444E+01 -1.13371E+01 -1.03296E+01 -9.23033E+00 -8.05135E+00 -6.80837E+00
  -5.52053E+00 -4.21007E+00 -2.90198E+00 -1.62334E+00 -4.02544E-01  7.31853E-01  1.75229E+00  2.63334E+00  3.35270E+00  3.89219E+00
   4.23858E+00  4.38430E+00  4.32781E+00  4.07351E+00  3.63139E+00  3.01641E+00  2.24781E+00  1.34817E+00  3.42320E-01 -7.43841E-01
  -1.88449E+00 -3.05486E+00 -4.23191E+00 -5.39501E+00 -6.52631E+00 -7.61121E+00 -8.63833E+00 -9.59942E+00 -1.04890E+01 -1.13042E+01
  -1.20442E+01 -1.27102E+01 -1.33047E+01 -1.38314E+01 -1.42945E+01 -1.46986E+01 -1.50486E+01 -1.53493E+01 -1.56057E+01 -1.58221E+01
  -1.60028E+01 -1.61515E+01 -1.62716E+01 -1.63665E+01 -1.64390E+01 -1.64914E+01 -1.65261E+01 -1.65447E+01 -1.65492E+01 -1.65409E+01
  -1.65214E+01 -1.64916E+01 -1.64525E+01 -1.64051E+01 -1.63501E+01 -1.62883E+01 -1.62203E+01 -1.61467E+01 -1.60679E+01 -1.59842E+01
  -1.58963E+01 -1.58045E+01 -1.57091E+01 -1.56103E+01 -1.55083E+01 -1.54034E+01 -1.52959E+01 -1.51860E+01 -1.50738E+01 -1.49593E+01
  -1.48428E+01 -1.47245E+01 -1.46045E+01 -1.44828E+01 -1.43596E+01 -1.42349E+01 -1.41088E+01 -1.39815E+01 -1.38530E+01 -1.37234E+01
  -1.35927E+01 -1.34610E+01 -1.33284E+01 -1.31949E+01 -1.30606E+01 -1.29256E+01 -1.27897E+01 -1.26532E+01 -1.25160E+01 -1.23783E+01
  -1.22401E+01 -1.21013E+01 -1.19619E+01 -1.18221E+01 -1.16819E+01 -1.15414E+01 -1.14005E+01 -1.12592E+01 -1.11176E+01 -1.09757E+01
  -1.08337E+01 -1.06915E+01 -1.05490E+01 -1.04064E+01 -1.02636E+01 -1.01208E+01 -9.97791E+00 -9.83503E+00
 NY background values follow
     8.931E-01    8.754E-01    8.577E-01    8.400E-01    8.223E-01    8.047E-01    7.870E-01    7.693E-01    7.516E-01    7.339E-01
     7.162E-01    6.984E-01    6.806E-01    6.627E-01    6.448E-01    6.269E-01    6.089E-01    5.908E-01    5.726E-01    5.544E-01
     5.361E-01    5.176E-01    4.991E-01    4.805E-01    4.618E-01    4.429E-01    4.239E-01    4.048E-01    3.856E-01    3.662E-01
     3.466E-01    3.269E-01    3.071E-01    2.870E-01    2.668E-01    2.464E-01    2.258E-01    2.051E-01    1.841E-01    1.629E-01
     1.415E-01    1.199E-01    9.810E-02    7.603E-02    5.373E-02    3.119E-02    8.389E-03   -1.466E-02   -3.798E-02   -6.157E-02
    -8.543E-02   -1.096E-01   -1.340E-01   -1.587E-01   -1.838E-01   -2.091E-01   -2.348E-01   -2.608E-01   -2.871E-01   -3.137E-01
    -3.407E-01   -3.681E-01   -3.957E-01   -4.238E-01   -4.522E-01   -4.810E-01   -5.102E-01   -5.398E-01   -5.697E-01   -6.001E-01
    -6.309E-01   -6.620E-01   -6.936E-01   -7.257E-01   -7.581E-01   -7.911E-01   -8.244E-01   -8.582E-01   -8.925E-01   -9.272E-01
    -9.624E-01   -9.981E-01   -1.034E+00   -1.071E+00   -1.108E+00   -1.146E+00   -1.184E+00   -1.223E+00   -1.262E+00   -1.302E+00
    -1.342E+00   -1.383E+00   -1.424E+00   -1.466E+00   -1.509E+00   -1.552E+00   -1.596E+00   -1.640E+00   -1.685E+00   -1.730E+00
    -1.776E+00   -1.823E+00   -1.871E+00   -1.919E+00   -1.967E+00   -2.017E+00   -2.067E+00   -2.117E+00   -2.169E+00   -2.221E+00
    -2.273E+00   -2.327E+00   -2.381E+00   -2.436E+00   -2.491E+00   -2.548E+00   -2.605E+00   -2.663E+00   -2.721E+00   -2.781E+00
    -2.841E+00   -2.902E+00   -2.964E+00   -3.026E+00   -3.090E+00   -3.154E+00   -3.219E+00   -3.285E+00   -3.351E+00   -3.419E+00
    -3.487E+00   -3.557E+00   -3.627E+00   -3.698E+00   -3.770E+00   -3.843E+00   -3.916E+00   -3.991E+00   -4.067E+00   -4.143E+00
    -4.221E+00   -4.299E+00   -4.378E+00   -4.459E+00   -4.540E+00   -4.622E+00   -4.705E+00   -4.789E+00   -4.874E+00   -4.960E+00
    -5.048E+00   -5.136E+00   -5.225E+00   -5.315E+00   -5.406E+00   -5.498E+00   -5.591E+00   -5.685E+00   -5.780E+00   -5.876E+00
    -5.974E+00   -6.072E+00   -6.171E+00   -6.272E+00   -6.373E+00   -6.476E+00   -6.579E+00   -6.684E+00   -6.790E+00   -6.896E+00
    -7.004E+00   -7.113E+00   -7.224E+00   -7.335E+00   -7.447E+00   -7.561E+00   -7.675E+00   -7.791E+00   -7.908E+00   -8.026E+00
    -8.145E+00   -8.266E+00   -8.387E+00   -8.510E+00   -8.634E+00   -8.759E+00   -8.885E+00   -9.012E+00   -9.140E+00   -9.269E+00
    -9.400E+00   -9.531E+00   -9.664E+00   -9.797E+00   -9.932E+00   -1.007E+01   -1.020E+01   -1.034E+01   -1.048E+01   -1.062E+01
    -1.076E+01   -1.090E+01   -1.104E+01   -1.119E+01   -1.133E+01   -1.148E+01   -1.162E+01   -1.177E+01   -1.192E+01   -1.207E+01
    -1.222E+01   -1.237E+01   -1.252E+01   -1.267E+01   -1.282E+01   -1.298E+01   -1.313E+01   -1.329E+01   -1.344E+01   -1.360E+01
    -1.376E+01   -1.392E+01   -1.408E+01   -1.424E+01   -1.440E+01   -1.456E+01   -1.472E+01   -1.488E+01   -1.505E+01   -1.521E+01
    -1.537E+01   -1.554E+01   -1.570E+01   -1.587E+01   -1.604E+01   -1.620E+01   -1.637E+01   -1.654E+01   -1.671E+01   -1.688E+01
    -1.705E+01   -1.721E+01   -1.738E+01   -1.755E+01   -1.772E+01   -1.789E+01   -1.806E+01   -1.823E+01   -1.840E+01   -1.858E+01
    -1.875E+01   -1.892E+01   -1.909E+01   -1.926E+01   -1.943E+01   -1.960E+01   -1.977E+01   -1.994E+01   -2.011E+01   -2.028E+01
    -2.045E+01   -2.061E+01   -2.078E+01   -2.095E+01   -2.112E+01   -2.129E+01   -2.145E+01   -2.162E+01   -2.179E+01   -2.195E+01
    -2.212E+01   -2.228E+01   -2.245E+01   -2.261E+01   -2.277E+01   -2.293E+01   -2.310E+01   -2.326E+01   -2.342E+01   -2.357E+01
    -2.373E+01   -2.389E+01   -2.404E+01   -2.420E+01   -2.435E+01   -2.450E+01   -2.465E+01   -2.480E+01   -2.495E+01   -2.509E+01
    -2.524E+01   -2.538E+01   -2.552E+01   -2.566E+01   -2.580E+01   -2.593E+01   -2.607E+01   -2.620E+01   -2.633E+01   -2.646E+01
    -2.658E+01   -2.671E+01   -2.683E+01   -2.695E+01   -2.706E+01   -2.718E+01   -2.729E+01   -2.740E+01   -2.751E+01   -2.761E+01
    -2.771E+01   -2.781E+01   -2.791E+01   -2.800E+01   -2.809E+01   -2.818E+01   -2.826E+01   -2.835E+01   -2.843E+01   -2.850E+01
    -2.857E+01   -2.864E+01   -2.871E+01   -2.878E+01   -2.884E+01   -2.889E+01   -2.895E+01   -2.900E+01   -2.905E+01   -2.910E+01
    -2.914E+01   -2.918E+01   -2.922E+01   -2.926E+01   -2.929E+01   -2.932E+01   -2.934E+01   -2.937E+01   -2.939E+01   -2.941E+01
    -2.942E+01   -2.944E+01   -2.945E+01   -2.945E+01   -2.946E+01   -2.946E+01   -2.946E+01   -2.945E+01   -2.945E+01   -2.944E+01
    -2.943E+01   -2.941E+01   -2.940E+01   -2.938E+01   -2.936E+01   -2.933E+01   -2.930E+01   -2.927E+01   -2.924E+01   -2.921E+01
    -2.917E+01   -2.913E+01   -2.909E+01   -2.904E+01   -2.900E+01   -2.895E+01   -2.889E+01   -2.884E+01   -2.878E+01   -2.872E+01
    -2.866E+01   -2.860E+01   -2.853E+01   -2.846E+01   -2.839E+01   -2.832E+01   -2.824E+01   -2.817E+01   -2.809E+01   -2.801E+01
    -2.792E+01   -2.784E+01   -2.775E+01   -2.766E+01   -2.757E+01   -2.748E+01   -2.739E+01   -2.729E+01   -2.719E+01   -2.709E+01
    -2.699E+01   -2.689E+01   -2.678E+01   -2.668E+01   -2.657E+01   -2.646E+01   -2.635E+01   -2.623E+01   -2.612E+01   -2.600E+01
    -2.589E+01   -2.577E+01   -2.565E+01   -2.553E+01   -2.540E+01   -2.528E+01   -2.516E+01   -2.503E+01   -2.490E+01   -2.477E+01
    -2.464E+01   -2.451E+01   -2.438E+01   -2.425E+01   -2.411E+01   -2.398E+01   -2.384E+01   -2.370E+01   -2.356E+01   -2.342E+01
    -2.328E+01   -2.314E+01   -2.300E+01   -2.286E+01   -2.271E+01   -2.257E+01   -2.242E+01   -2.228E+01   -2.213E+01   -2.198E+01
    -2.183E+01   -2.169E+01   -2.154E+01   -2.139E+01   -2.124E+01   -2.108E+01   -2.093E+01   -2.078E+01   -2.063E+01   -2.047E+01
    -2.032E+01   -2.017E+01   -2.001E+01   -1.986E+01   -1.970E+01   -1.955E+01   -1.939E+01   -1.923E+01   -1.908E+01   -1.892E+01
    -1.876E+01   -1.861E+01   -1.845E+01   -1.829E+01   -1.813E+01   -1.798E+01   -1.782E+01   -1.766E+01   -1.750E+01   -1.734E+01
    -1.719E+01   -1.703E+01   -1.687E+01   -1.671E+01   -1.655E+01   -1.639E+01   -1.624E+01   -1.608E+01   -1.592E+01   -1.576E+01
    -1.560E+01   -1.544E+01   -1.528E+01   -1.512E+01   -1.497E+01   -1.481E+01   -1.465E+01   -1.449E+01   -1.433E+01   -1.417E+01
    -1.401E+01   -1.385E+01   -1.369E+01   -1.353E+01   -1.338E+01   -1.322E+01   -1.306E+01   -1.290E+01   -1.274E+01   -1.258E+01
    -1.242E+01   -1.226E+01   -1.210E+01   -1.195E+01   -1.179E+01   -1.163E+01   -1.147E+01   -1.131E+01
 Ala      Conc. = 2.46E+03
