 LCModel (Version 6.3-1L) Copyright: S.W. Provencher.          Ref.: Magn. Reson. Med. 30:672-679 (1993).                
 Slice#3 Row#7 Col#5  PD_05_press_2_raw_act
 36 lines in following concentration table = NCONC+1
    Conc.  %SD /Cr+PCr  Metabolite                                         
  406.889  75%   0.150 Ala                                                 
  505.385 103%   0.186 Asp                                                 
    0.000 999%   0.000 Cr                                                  
 2.72E+03   6%   1.000 PCr                                                 
   14.450 999% 5.3E-03 GABA                                                
  613.266  56%   0.226 Glc                                                 
 1.07E+03  61%   0.396 Gln                                                 
 2.15E+03  35%   0.793 Glu                                                 
 1.39E+03   5%   0.513 GPC                                                 
    0.000 999%   0.000 PCh                                                 
 1.25E+03  17%   0.459 GSH                                                 
 4.07E+03  18%   1.498 Ins                                                 
    0.000 999%   0.000 Lac                                                 
 3.94E+03   7%   1.449 NAA                                                 
  546.338  59%   0.201 NAAG                                                
  434.799  17%   0.160 Scyllo                                              
 1.67E+03  30%   0.615 Tau                                                 
  847.464  33%   0.312 -CrCH2                                              
 1.39E+03   5%   0.513 GPC+PCh                                             
 4.48E+03   5%   1.650 NAA+NAAG                                            
 2.72E+03   6%   1.000 Cr+PCr                                              
 3.23E+03  33%   1.189 Glu+Gln                                             
    0.000 999%   0.000 Lip13a                                              
  726.718  67%   0.268 Lip13b                                              
  177.845 115% 6.5E-02 Lip09                                               
 1.93E+03  25%   0.711 MM09                                                
   95.394 138% 3.5E-02 Lip20                                               
 3.13E+03  28%   1.151 MM20                                                
  552.114  54%   0.203 MM12                                                
 2.19E+03  32%   0.806 MM14                                                
  683.995  76%   0.252 MM17                                                
  726.718  67%   0.268 Lip13a+Lip13b                                       
 3.47E+03  25%   1.276 MM14+Lip13a+Lip13b+MM12                             
 2.11E+03  22%   0.776 MM09+Lip09                                          
 3.22E+03  27%   1.186 MM20+Lip20                                          
   6 lines in following misc. output table
  FWHM = 0.054 ppm    S/N =   7                                            
  Data shift = 0.000 ppm                                                   
  Ph: -60 deg     -22.1 deg/ppm                                            
  alphaB,S = 9.4E-01,   1.7E+02                                            
   14 spline knots.   Ns = 7(1)                                            
  (12) 2 infls.   ( 7) 1 extrs.                                            
  498 points on ppm-axis = NY
      4.000000     3.992357     3.984714     3.977070     3.969427     3.961784     3.954141     3.946497     3.938854     3.931211
      3.923568     3.915925     3.908281     3.900638     3.892995     3.885352     3.877708     3.870065     3.862422     3.854779
      3.847136     3.839492     3.831849     3.824206     3.816563     3.808919     3.801276     3.793633     3.785990     3.778347
      3.770703     3.763060     3.755417     3.747774     3.740130     3.732487     3.724844     3.717201     3.709558     3.701914
      3.694271     3.686628     3.678985     3.671341     3.663698     3.656055     3.648412     3.640769     3.633125     3.625482
      3.617839     3.610196     3.602552     3.594909     3.587266     3.579623     3.571980     3.564336     3.556693     3.549050
      3.541407     3.533763     3.526120     3.518477     3.510834     3.503191     3.495547     3.487904     3.480261     3.472618
      3.464974     3.457331     3.449688     3.442045     3.434402     3.426758     3.419115     3.411472     3.403829     3.396185
      3.388542     3.380899     3.373256     3.365613     3.357969     3.350326     3.342683     3.335040     3.327396     3.319753
      3.312110     3.304467     3.296824     3.289180     3.281537     3.273894     3.266251     3.258607     3.250964     3.243321
      3.235678     3.228034     3.220391     3.212748     3.205105     3.197462     3.189818     3.182175     3.174532     3.166889
      3.159245     3.151602     3.143959     3.136316     3.128673     3.121029     3.113386     3.105743     3.098100     3.090456
      3.082813     3.075170     3.067527     3.059884     3.052240     3.044597     3.036954     3.029311     3.021667     3.014024
      3.006381     2.998738     2.991095     2.983451     2.975808     2.968165     2.960522     2.952878     2.945235     2.937592
      2.929949     2.922306     2.914662     2.907019     2.899376     2.891733     2.884089     2.876446     2.868803     2.861160
      2.853517     2.845873     2.838230     2.830587     2.822944     2.815300     2.807657     2.800014     2.792371     2.784728
      2.777084     2.769441     2.761798     2.754155     2.746511     2.738868     2.731225     2.723582     2.715939     2.708295
      2.700652     2.693009     2.685366     2.677722     2.670079     2.662436     2.654793     2.647150     2.639506     2.631863
      2.624220     2.616577     2.608933     2.601290     2.593647     2.586004     2.578361     2.570717     2.563074     2.555431
      2.547788     2.540144     2.532501     2.524858     2.517215     2.509572     2.501928     2.494285     2.486642     2.478999
      2.471355     2.463712     2.456069     2.448426     2.440783     2.433139     2.425496     2.417853     2.410210     2.402566
      2.394923     2.387280     2.379637     2.371994     2.364350     2.356707     2.349064     2.341421     2.333777     2.326134
      2.318491     2.310848     2.303205     2.295561     2.287918     2.280275     2.272632     2.264988     2.257345     2.249702
      2.242059     2.234416     2.226772     2.219129     2.211486     2.203843     2.196199     2.188556     2.180913     2.173270
      2.165627     2.157983     2.150340     2.142697     2.135054     2.127410     2.119767     2.112124     2.104481     2.096838
      2.089194     2.081551     2.073908     2.066265     2.058621     2.050978     2.043335     2.035692     2.028049     2.020405
      2.012762     2.005119     1.997476     1.989833     1.982190     1.974546     1.966903     1.959260     1.951617     1.943974
      1.936331     1.928688     1.921045     1.913402     1.905759     1.898115     1.890472     1.882829     1.875186     1.867543
      1.859900     1.852257     1.844614     1.836971     1.829327     1.821684     1.814041     1.806398     1.798755     1.791112
      1.783469     1.775826     1.768183     1.760540     1.752896     1.745253     1.737610     1.729967     1.722324     1.714681
      1.707038     1.699395     1.691752     1.684108     1.676465     1.668822     1.661179     1.653536     1.645893     1.638250
      1.630607     1.622964     1.615321     1.607677     1.600034     1.592391     1.584748     1.577105     1.569462     1.561819
      1.554176     1.546533     1.538890     1.531246     1.523603     1.515960     1.508317     1.500674     1.493031     1.485388
      1.477745     1.470102     1.462458     1.454815     1.447172     1.439529     1.431886     1.424243     1.416600     1.408957
      1.401314     1.393671     1.386027     1.378384     1.370741     1.363098     1.355455     1.347812     1.340169     1.332526
      1.324883     1.317240     1.309596     1.301953     1.294310     1.286667     1.279024     1.271381     1.263738     1.256095
      1.248452     1.240808     1.233165     1.225522     1.217879     1.210236     1.202593     1.194950     1.187307     1.179664
      1.172021     1.164377     1.156734     1.149091     1.141448     1.133805     1.126162     1.118519     1.110876     1.103233
      1.095590     1.087946     1.080303     1.072660     1.065017     1.057374     1.049731     1.042088     1.034445     1.026802
      1.019158     1.011515     1.003872     0.996229     0.988586     0.980943     0.973300     0.965657     0.958014     0.950371
      0.942727     0.935084     0.927441     0.919798     0.912155     0.904512     0.896869     0.889226     0.881583     0.873940
      0.866296     0.858653     0.851010     0.843367     0.835724     0.828081     0.820438     0.812795     0.805152     0.797508
      0.789865     0.782222     0.774579     0.766936     0.759293     0.751650     0.744007     0.736364     0.728721     0.721077
      0.713434     0.705791     0.698148     0.690505     0.682862     0.675219     0.667576     0.659933     0.652290     0.644646
      0.637003     0.629360     0.621717     0.614074     0.606431     0.598788     0.591145     0.583502     0.575858     0.568215
      0.560572     0.552929     0.545286     0.537643     0.530000     0.522357     0.514714     0.507071     0.499427     0.491784
      0.484141     0.476498     0.468855     0.461212     0.453569     0.445925     0.438282     0.430639     0.422996     0.415353
      0.407710     0.400067     0.392424     0.384780     0.377137     0.369494     0.361851     0.354208     0.346565     0.338922
      0.331278     0.323635     0.315992     0.308349     0.300706     0.293063     0.285420     0.277777     0.270133     0.262490
      0.254847     0.247204     0.239561     0.231918     0.224275     0.216631     0.208988     0.201345
 NY phased data points follow
  -2.11185E+02 -2.20213E+02 -2.13781E+02 -2.06460E+02 -1.88848E+02 -1.75751E+02 -1.62375E+02 -1.43999E+02 -1.35887E+02 -1.48731E+02
  -1.35854E+02 -1.53759E+02 -1.45546E+02 -1.56522E+02 -1.57671E+02 -1.74587E+02 -1.74338E+02 -1.77219E+02 -1.83406E+02 -1.84590E+02
  -1.67159E+02 -1.74651E+02 -1.62270E+02 -1.60027E+02 -1.56472E+02 -1.52097E+02 -1.34237E+02 -1.40658E+02 -1.38334E+02 -1.25914E+02
  -1.31657E+02 -1.18491E+02 -1.33619E+02 -1.33069E+02 -1.42241E+02 -1.46908E+02 -1.45192E+02 -1.44252E+02 -1.34503E+02 -1.30625E+02
  -1.35569E+02 -1.38661E+02 -1.26259E+02 -1.34728E+02 -1.22620E+02 -1.17849E+02 -1.13512E+02 -1.08772E+02 -9.06855E+01 -1.06118E+02
  -1.10615E+02 -1.15422E+02 -1.08221E+02 -1.36069E+02 -1.21271E+02 -1.18645E+02 -1.11248E+02 -1.14376E+02 -1.11657E+02 -1.13008E+02
  -1.08556E+02 -1.17701E+02 -1.09641E+02 -1.22042E+02 -1.24340E+02 -1.13294E+02 -1.10447E+02 -1.21888E+02 -9.93981E+01 -1.21413E+02
  -1.09735E+02 -1.13592E+02 -9.68952E+01 -9.58396E+01 -8.36222E+01 -1.05103E+02 -8.54830E+01 -9.62085E+01 -9.64791E+01 -7.44542E+01
  -7.71005E+01 -9.03118E+01 -7.66492E+01 -8.50534E+01 -7.96150E+01 -8.36948E+01 -7.99195E+01 -7.32374E+01 -6.87010E+01 -8.21925E+01
  -7.52983E+01 -7.03437E+01 -6.39485E+01 -7.15365E+01 -6.05039E+01 -6.69948E+01 -5.38447E+01 -5.04828E+01 -2.35858E+01 -1.40718E+01
  -7.16209E+00  2.39209E+01  4.28045E+01  4.15225E+01  3.06177E+01  1.25591E+01 -1.57631E+01 -3.31365E+01 -4.68519E+01 -6.10371E+01
  -5.43174E+01 -5.50045E+01 -5.32703E+01 -6.56452E+01 -5.42334E+01 -6.44322E+01 -6.53858E+01 -5.36826E+01 -6.56029E+01 -6.36082E+01
  -4.35416E+01 -5.05032E+01 -4.44402E+01 -3.27135E+01 -1.34957E+01  9.91519E+00  1.79144E+01  5.47685E+00  2.43916E+01  1.56171E+01
  -1.20932E+01 -1.68782E+01 -4.34199E+01 -4.49567E+01 -4.81037E+01 -6.32808E+01 -6.22559E+01 -6.25434E+01 -5.45319E+01 -6.47984E+01
  -6.10908E+01 -6.21937E+01 -5.67352E+01 -6.77290E+01 -6.40191E+01 -5.86465E+01 -5.92256E+01 -6.29643E+01 -4.88757E+01 -6.11348E+01
  -5.70871E+01 -3.86875E+01 -4.04897E+01 -5.90940E+01 -6.44115E+01 -6.23365E+01 -5.48924E+01 -5.06021E+01 -5.23791E+01 -4.71111E+01
  -5.10911E+01 -5.88867E+01 -5.19380E+01 -5.61783E+01 -5.26854E+01 -4.09951E+01 -5.17780E+01 -6.00017E+01 -3.65331E+01 -3.51252E+01
  -5.56697E+01 -5.06140E+01 -3.90704E+01 -6.37298E+01 -6.37623E+01 -4.26346E+01 -4.56005E+01 -5.21897E+01 -3.45176E+01 -5.24494E+01
  -6.07184E+01 -4.57394E+01 -4.97418E+01 -4.21692E+01 -3.21610E+01 -4.20278E+01 -3.32027E+01 -5.11439E+01 -3.51210E+01 -4.02496E+01
  -2.02332E+01 -2.56343E+01 -2.27085E+01 -6.66344E+00 -1.60999E+01 -1.77241E+01 -3.34779E+01 -3.82944E+01 -2.82402E+01 -2.14800E+01
  -3.15213E+01 -2.62904E+01 -2.00758E+01 -1.77567E+01 -2.66100E+01 -2.04506E+01 -1.78452E+01 -2.70158E+01 -2.48716E+01 -2.38124E+01
  -3.04667E+01 -2.14446E+01 -8.13513E+00 -3.77138E+00  2.77663E+00 -1.24283E+00  6.70603E-01 -1.27945E+01  4.03760E+00 -1.26703E+00
  -1.18967E+01 -7.81237E+00 -1.36742E+01 -1.84695E+01 -1.29952E+01 -2.38303E+00 -2.46016E+01 -9.52047E+00 -3.11716E+00 -3.88361E+00
  -1.00445E+01  1.27885E+01 -4.94826E+00  1.56718E+01  1.17458E+01 -1.10147E+01 -7.35366E+00 -2.08015E+00 -4.04728E+00  3.32171E-01
   5.87542E+00  4.75783E+00 -3.41147E+00  5.59426E+00 -1.42103E+00  5.23640E+00 -1.39928E+01  9.46899E+00  1.70363E+01  2.19589E+01
   1.59751E+01  2.19777E+01  3.10314E+01  3.78106E+01  4.20692E+01  7.78786E+01  6.29411E+01  9.31851E+01  1.05711E+02  1.27495E+02
   1.38380E+02  1.32934E+02  1.37027E+02  1.18152E+02  8.69217E+01  6.41616E+01  5.64578E+01  3.08436E+01  2.32332E+01  1.12502E+01
   1.88546E+01  1.51014E+01  1.91719E+01  1.61053E+01  1.74683E+01  2.30864E+01  1.26862E+01  2.61932E+01  3.06153E+01  8.86611E+00
   1.23012E+01  1.02201E+01  2.02859E+01  3.60880E+00  2.58209E+01  1.15710E+01  1.42558E+01  1.29746E+01  1.39529E+01  3.97796E+00
   1.87027E+01  4.98452E+00  6.33914E+00  1.75633E+01  2.00006E+01  1.58776E+01  1.85062E+01  2.06619E+01  2.09033E+01  2.39001E+01
   1.63473E+01  2.15984E+01  2.24052E+01  1.65063E+01  1.96169E+01  1.87175E+01  2.67655E+01  1.69108E+01  1.80569E+01  2.78449E+01
   2.63564E+01  2.80977E+01  1.19016E+01  3.19099E+01  5.80690E+00  2.28973E+01  2.11454E+01  2.23799E+01  3.55159E+01  3.44297E+01
   1.91576E+01  3.98980E+01  2.44978E+01  3.65072E+01  2.51764E+01  4.44854E+01  1.87329E+01  3.05928E+01  2.40947E+01  2.89519E+01
   2.13756E+01  1.66716E+01  3.43547E+01  3.04316E+01  3.88691E+01  3.29489E+01  4.07403E+01  4.39049E+01  2.92465E+01  3.61468E+01
   3.45701E+01  2.89827E+01  2.61300E+01  4.09254E+01  1.66479E+01  3.31799E+01  2.93484E+01  3.99208E+01  5.43367E+01  3.78638E+01
   3.68338E+01  4.54755E+01  4.68243E+01  3.53725E+01  3.71609E+01  3.12679E+01  3.73603E+01  3.10138E+01  4.50977E+01  3.31219E+01
   4.18877E+01  4.18865E+01  2.83798E+01  2.22867E+01  2.32594E+01  2.96960E+01  2.82758E+01  2.28573E+01  2.71567E+01  3.20954E+01
   3.49166E+01  2.45627E+01  3.31654E+01  2.13683E+01  3.63100E+01  2.09992E+01  2.51537E+01  3.73263E+01  1.42182E+01  3.69044E+01
   3.50045E+01  2.99600E+01  3.03650E+01  3.45846E+01  1.93761E+01  3.18424E+01  4.03066E+01  3.81721E+01  4.38797E+01  2.51144E+01
   3.31511E+01  3.88984E+01  3.39983E+01  2.61009E+01  3.07598E+01  2.92807E+01  4.67185E+01  3.84657E+01  2.69021E+01  2.87497E+01
   3.19803E+01  3.74866E+01  4.44590E+01  2.68860E+01  4.28269E+01  3.82879E+01  3.40928E+01  3.97830E+01  5.74771E+01  5.22967E+01
   3.32502E+01  4.47678E+01  4.97796E+01  4.47855E+01  4.98918E+01  4.77028E+01  3.92173E+01  3.20292E+01  3.38739E+01  3.47839E+01
   3.29025E+01  4.01579E+01  3.80255E+01  4.28283E+01  3.01114E+01  3.69038E+01  1.93525E+01  2.81854E+01  2.73674E+01  4.34903E+01
   1.94380E+01  3.47750E+01  3.67265E+01  2.58698E+01  2.45603E+01  2.98279E+01  2.15722E+01  2.69663E+01  3.55169E+01  3.91236E+01
   3.05078E+01  3.76540E+01  2.88560E+01  3.61054E+01  2.85938E+01  2.00828E+01  2.07939E+01  2.16133E+01  3.33240E+01  2.75201E+01
   3.00596E+01  2.78800E+01  1.29149E+01  2.26312E+01  4.51323E+01  2.51859E+01  3.38649E+01  2.99010E+01  1.92871E+01  3.86156E+01
   2.83655E+01  2.29754E+01  1.23293E+01  3.17889E+01  2.05393E+01  2.68415E+01  1.84413E+01  3.35865E+01  1.70776E+01  2.58141E+01
   1.81680E+01  3.52472E+01  1.90953E+01  3.42844E+01  2.52921E+01  2.11217E+01  2.84595E+01  3.21205E+01  3.78936E+01  2.82827E+01
   3.07885E+01  2.84735E+01  3.04523E+01  3.78187E+01  2.24451E+01  1.54853E+01  2.80357E+01  3.45792E+01  3.54169E+01  3.18030E+01
   2.98403E+01  2.37865E+01  2.38771E+01  3.27267E+01  2.96168E+01  3.57194E+01  2.29681E+01  2.25696E+01
 NY points of the fit to the data follow
  -1.93700E+02 -1.92731E+02 -1.89211E+02 -1.83734E+02 -1.77269E+02 -1.70043E+02 -1.62385E+02 -1.54880E+02 -1.48531E+02 -1.44439E+02
  -1.43353E+02 -1.45464E+02 -1.50089E+02 -1.55861E+02 -1.61387E+02 -1.65844E+02 -1.69040E+02 -1.70934E+02 -1.71177E+02 -1.70573E+02
  -1.69673E+02 -1.68493E+02 -1.66458E+02 -1.63135E+02 -1.59195E+02 -1.54732E+02 -1.49591E+02 -1.43867E+02 -1.38081E+02 -1.33067E+02
  -1.29443E+02 -1.27637E+02 -1.27977E+02 -1.30135E+02 -1.33218E+02 -1.36416E+02 -1.39290E+02 -1.41703E+02 -1.43096E+02 -1.42959E+02
  -1.41224E+02 -1.37892E+02 -1.33379E+02 -1.28155E+02 -1.22603E+02 -1.17226E+02 -1.12716E+02 -1.09895E+02 -1.09435E+02 -1.11396E+02
  -1.15177E+02 -1.19647E+02 -1.23498E+02 -1.25959E+02 -1.26695E+02 -1.25740E+02 -1.23437E+02 -1.20404E+02 -1.17353E+02 -1.14774E+02
  -1.12837E+02 -1.11752E+02 -1.11445E+02 -1.11595E+02 -1.11751E+02 -1.11415E+02 -1.10436E+02 -1.08904E+02 -1.06847E+02 -1.04239E+02
  -1.01405E+02 -9.88058E+01 -9.66230E+01 -9.48689E+01 -9.35906E+01 -9.27621E+01 -9.23504E+01 -9.24764E+01 -9.30322E+01 -9.34414E+01
  -9.27536E+01 -9.10967E+01 -8.87508E+01 -8.57901E+01 -8.23923E+01 -7.89527E+01 -7.62669E+01 -7.50656E+01 -7.55290E+01 -7.72683E+01
  -7.96805E+01 -8.19639E+01 -8.33327E+01 -8.35000E+01 -8.18099E+01 -7.51053E+01 -6.25021E+01 -4.71261E+01 -3.00640E+01 -1.13577E+01
   7.74292E+00  2.44464E+01  3.51035E+01  3.69265E+01  2.91104E+01  1.32496E+01 -6.98016E+00 -2.73705E+01 -4.49560E+01 -5.85488E+01
  -6.77596E+01 -7.20814E+01 -7.30887E+01 -7.32551E+01 -7.31641E+01 -7.28671E+01 -7.24053E+01 -7.16579E+01 -7.03821E+01 -6.72688E+01
  -5.99259E+01 -4.98317E+01 -3.84436E+01 -2.57904E+01 -1.20614E+01  1.48696E+00  1.25093E+01  1.83645E+01  1.73959E+01  9.61926E+00
  -3.07797E+00 -1.77331E+01 -3.16975E+01 -4.35788E+01 -5.27171E+01 -5.85504E+01 -6.07926E+01 -6.11336E+01 -6.04022E+01 -5.88550E+01
  -5.68829E+01 -5.49056E+01 -5.32370E+01 -5.21566E+01 -5.17318E+01 -5.17760E+01 -5.20889E+01 -5.25194E+01 -5.29108E+01 -5.31790E+01
  -5.32598E+01 -5.32023E+01 -5.30350E+01 -5.27869E+01 -5.25473E+01 -5.23286E+01 -5.20945E+01 -5.18563E+01 -5.16051E+01 -5.14105E+01
  -5.12711E+01 -5.10476E+01 -5.06210E+01 -4.99739E+01 -4.91706E+01 -4.83430E+01 -4.76564E+01 -4.72113E+01 -4.70264E+01 -4.71021E+01
  -4.73713E+01 -4.75818E+01 -4.76454E+01 -4.76265E+01 -4.76091E+01 -4.75985E+01 -4.74182E+01 -4.69613E+01 -4.63046E+01 -4.55790E+01
  -4.49354E+01 -4.43183E+01 -4.34612E+01 -4.22101E+01 -4.05340E+01 -3.84888E+01 -3.61643E+01 -3.35424E+01 -3.07450E+01 -2.81296E+01
  -2.61494E+01 -2.50830E+01 -2.49018E+01 -2.54409E+01 -2.63666E+01 -2.72292E+01 -2.75968E+01 -2.70206E+01 -2.53460E+01 -2.28212E+01
  -1.98775E+01 -1.70481E+01 -1.48566E+01 -1.37550E+01 -1.37325E+01 -1.47083E+01 -1.66636E+01 -1.92088E+01 -2.15970E+01 -2.30327E+01
  -2.30673E+01 -2.18052E+01 -1.93671E+01 -1.59992E+01 -1.23160E+01 -9.19606E+00 -7.42530E+00 -7.26639E+00 -8.54561E+00 -1.09719E+01
  -1.37981E+01 -1.61838E+01 -1.74854E+01 -1.72954E+01 -1.56491E+01 -1.28354E+01 -9.42001E+00 -6.20408E+00 -3.71608E+00 -2.08644E+00
  -9.81219E-01 -1.97502E-01  4.21202E-01  1.22870E+00  2.39251E+00  3.60714E+00  4.40426E+00  4.61246E+00  4.33585E+00  3.64363E+00
   2.62997E+00  1.71426E+00  1.39345E+00  1.92232E+00  3.25998E+00  5.22288E+00  7.60759E+00  1.00252E+01  1.23336E+01  1.49538E+01
   1.78625E+01  2.09626E+01  2.48714E+01  3.24411E+01  4.58241E+01  6.18364E+01  7.84266E+01  9.53547E+01  1.12040E+02  1.26503E+02
   1.35742E+02  1.37087E+02  1.29310E+02  1.13161E+02  9.18648E+01  6.97569E+01  4.99132E+01  3.38431E+01  2.22091E+01  1.56957E+01
   1.35360E+01  1.28448E+01  1.26057E+01  1.26032E+01  1.27084E+01  1.28178E+01  1.29051E+01  1.29497E+01  1.29474E+01  1.29268E+01
   1.29246E+01  1.29632E+01  1.30576E+01  1.32166E+01  1.34287E+01  1.36731E+01  1.39311E+01  1.41998E+01  1.44847E+01  1.47930E+01
   1.51293E+01  1.55009E+01  1.59051E+01  1.63329E+01  1.67700E+01  1.72049E+01  1.76300E+01  1.80435E+01  1.84467E+01  1.88430E+01
   1.92355E+01  1.96285E+01  2.00185E+01  2.03986E+01  2.07617E+01  2.11034E+01  2.14221E+01  2.17186E+01  2.19952E+01  2.22594E+01
   2.25184E+01  2.27796E+01  2.30505E+01  2.33397E+01  2.36554E+01  2.40075E+01  2.44070E+01  2.48697E+01  2.54217E+01  2.61217E+01
   2.70347E+01  2.79784E+01  2.88017E+01  2.94978E+01  3.00276E+01  3.02748E+01  3.00889E+01  2.94017E+01  2.84674E+01  2.75942E+01
   2.69661E+01  2.67891E+01  2.72186E+01  2.82765E+01  2.98345E+01  3.16537E+01  3.34335E+01  3.47947E+01  3.55464E+01  3.57338E+01
   3.55100E+01  3.50519E+01  3.45053E+01  3.40000E+01  3.37106E+01  3.36996E+01  3.39256E+01  3.43757E+01  3.50365E+01  3.58748E+01
   3.68283E+01  3.78072E+01  3.87011E+01  3.93946E+01  3.97856E+01  3.98042E+01  3.94258E+01  3.86765E+01  3.76269E+01  3.63793E+01
   3.50479E+01  3.37410E+01  3.25452E+01  3.15175E+01  3.06837E+01  3.00428E+01  2.95746E+01  2.92489E+01  2.90326E+01  2.88954E+01
   2.88121E+01  2.87644E+01  2.87398E+01  2.87313E+01  2.87352E+01  2.87509E+01  2.87791E+01  2.88215E+01  2.88804E+01  2.89589E+01
   2.90599E+01  2.91867E+01  2.93425E+01  2.95308E+01  2.97551E+01  3.00193E+01  3.03268E+01  3.06812E+01  3.10857E+01  3.15430E+01
   3.20550E+01  3.26229E+01  3.32463E+01  3.39232E+01  3.46496E+01  3.54195E+01  3.62242E+01  3.70531E+01  3.78927E+01  3.87276E+01
   3.95405E+01  4.03130E+01  4.10262E+01  4.16614E+01  4.22010E+01  4.26295E+01  4.29340E+01  4.31054E+01  4.31385E+01  4.30324E+01
   4.27904E+01  4.24202E+01  4.19332E+01  4.13441E+01  4.06696E+01  3.99283E+01  3.91390E+01  3.83208E+01  3.74913E+01  3.66670E+01
   3.58619E+01  3.50878E+01  3.43538E+01  3.36670E+01  3.30314E+01  3.24496E+01  3.19217E+01  3.14469E+01  3.10226E+01  3.06459E+01
   3.03132E+01  3.00207E+01  2.97640E+01  2.95395E+01  2.93432E+01  2.91719E+01  2.90222E+01  2.88914E+01  2.87769E+01  2.86765E+01
   2.85882E+01  2.85106E+01  2.84421E+01  2.83817E+01  2.83281E+01  2.82806E+01  2.82383E+01  2.82009E+01  2.81675E+01  2.81379E+01
   2.81115E+01  2.80881E+01  2.80673E+01  2.80491E+01  2.80329E+01  2.80188E+01  2.80064E+01  2.79957E+01  2.79864E+01  2.79786E+01
   2.79720E+01  2.79666E+01  2.79622E+01  2.79588E+01  2.79563E+01  2.79547E+01  2.79539E+01  2.79538E+01  2.79543E+01  2.79556E+01
   2.79574E+01  2.79599E+01  2.79628E+01  2.79663E+01  2.79703E+01  2.79748E+01  2.79797E+01  2.79850E+01  2.79907E+01  2.79969E+01
   2.80034E+01  2.80103E+01  2.80176E+01  2.80252E+01  2.80331E+01  2.80414E+01  2.80500E+01  2.80591E+01  2.80683E+01  2.80780E+01
   2.80879E+01  2.80983E+01  2.81089E+01  2.81200E+01  2.81314E+01  2.81432E+01  2.81553E+01  2.81680E+01
 NY background values follow
    -2.082E+02   -2.069E+02   -2.056E+02   -2.042E+02   -2.029E+02   -2.016E+02   -2.003E+02   -1.989E+02   -1.976E+02   -1.963E+02
    -1.949E+02   -1.936E+02   -1.923E+02   -1.910E+02   -1.896E+02   -1.883E+02   -1.870E+02   -1.857E+02   -1.844E+02   -1.830E+02
    -1.817E+02   -1.804E+02   -1.791E+02   -1.778E+02   -1.765E+02   -1.752E+02   -1.739E+02   -1.726E+02   -1.713E+02   -1.700E+02
    -1.687E+02   -1.674E+02   -1.661E+02   -1.649E+02   -1.636E+02   -1.623E+02   -1.610E+02   -1.598E+02   -1.585E+02   -1.573E+02
    -1.560E+02   -1.547E+02   -1.535E+02   -1.523E+02   -1.510E+02   -1.498E+02   -1.485E+02   -1.473E+02   -1.461E+02   -1.449E+02
    -1.437E+02   -1.425E+02   -1.413E+02   -1.401E+02   -1.389E+02   -1.377E+02   -1.365E+02   -1.353E+02   -1.342E+02   -1.330E+02
    -1.318E+02   -1.307E+02   -1.295E+02   -1.284E+02   -1.273E+02   -1.261E+02   -1.250E+02   -1.239E+02   -1.228E+02   -1.217E+02
    -1.206E+02   -1.195E+02   -1.184E+02   -1.173E+02   -1.162E+02   -1.152E+02   -1.141E+02   -1.131E+02   -1.120E+02   -1.110E+02
    -1.099E+02   -1.089E+02   -1.079E+02   -1.069E+02   -1.059E+02   -1.049E+02   -1.039E+02   -1.029E+02   -1.020E+02   -1.010E+02
    -1.000E+02   -9.908E+01   -9.815E+01   -9.721E+01   -9.629E+01   -9.537E+01   -9.447E+01   -9.356E+01   -9.267E+01   -9.178E+01
    -9.091E+01   -9.003E+01   -8.917E+01   -8.831E+01   -8.746E+01   -8.662E+01   -8.578E+01   -8.495E+01   -8.413E+01   -8.331E+01
    -8.250E+01   -8.170E+01   -8.090E+01   -8.011E+01   -7.932E+01   -7.854E+01   -7.777E+01   -7.700E+01   -7.624E+01   -7.549E+01
    -7.474E+01   -7.399E+01   -7.325E+01   -7.252E+01   -7.179E+01   -7.106E+01   -7.035E+01   -6.963E+01   -6.892E+01   -6.822E+01
    -6.752E+01   -6.683E+01   -6.614E+01   -6.545E+01   -6.477E+01   -6.409E+01   -6.342E+01   -6.275E+01   -6.209E+01   -6.143E+01
    -6.077E+01   -6.012E+01   -5.947E+01   -5.883E+01   -5.819E+01   -5.755E+01   -5.692E+01   -5.629E+01   -5.566E+01   -5.504E+01
    -5.442E+01   -5.380E+01   -5.318E+01   -5.257E+01   -5.197E+01   -5.136E+01   -5.076E+01   -5.016E+01   -4.956E+01   -4.897E+01
    -4.838E+01   -4.779E+01   -4.720E+01   -4.662E+01   -4.604E+01   -4.546E+01   -4.488E+01   -4.430E+01   -4.373E+01   -4.316E+01
    -4.259E+01   -4.202E+01   -4.146E+01   -4.089E+01   -4.033E+01   -3.977E+01   -3.921E+01   -3.865E+01   -3.810E+01   -3.754E+01
    -3.699E+01   -3.643E+01   -3.588E+01   -3.533E+01   -3.478E+01   -3.423E+01   -3.369E+01   -3.314E+01   -3.259E+01   -3.205E+01
    -3.151E+01   -3.097E+01   -3.043E+01   -2.989E+01   -2.936E+01   -2.882E+01   -2.829E+01   -2.776E+01   -2.723E+01   -2.670E+01
    -2.617E+01   -2.565E+01   -2.512E+01   -2.460E+01   -2.408E+01   -2.356E+01   -2.305E+01   -2.253E+01   -2.202E+01   -2.151E+01
    -2.100E+01   -2.050E+01   -1.999E+01   -1.949E+01   -1.899E+01   -1.850E+01   -1.800E+01   -1.751E+01   -1.702E+01   -1.653E+01
    -1.604E+01   -1.556E+01   -1.508E+01   -1.460E+01   -1.412E+01   -1.365E+01   -1.318E+01   -1.271E+01   -1.225E+01   -1.178E+01
    -1.132E+01   -1.086E+01   -1.041E+01   -9.956E+00   -9.506E+00   -9.059E+00   -8.614E+00   -8.173E+00   -7.734E+00   -7.298E+00
    -6.864E+00   -6.434E+00   -6.006E+00   -5.581E+00   -5.159E+00   -4.740E+00   -4.324E+00   -3.911E+00   -3.500E+00   -3.093E+00
    -2.689E+00   -2.287E+00   -1.889E+00   -1.493E+00   -1.101E+00   -7.114E-01   -3.251E-01    5.813E-02    4.383E-01    8.153E-01
     1.189E+00    1.560E+00    1.928E+00    2.292E+00    2.653E+00    3.011E+00    3.366E+00    3.717E+00    4.066E+00    4.411E+00
     4.752E+00    5.091E+00    5.426E+00    5.758E+00    6.086E+00    6.411E+00    6.733E+00    7.052E+00    7.367E+00    7.679E+00
     7.988E+00    8.294E+00    8.596E+00    8.896E+00    9.192E+00    9.485E+00    9.774E+00    1.006E+01    1.034E+01    1.062E+01
     1.090E+01    1.118E+01    1.145E+01    1.172E+01    1.198E+01    1.224E+01    1.250E+01    1.276E+01    1.301E+01    1.326E+01
     1.351E+01    1.375E+01    1.399E+01    1.423E+01    1.446E+01    1.470E+01    1.492E+01    1.515E+01    1.537E+01    1.559E+01
     1.581E+01    1.603E+01    1.624E+01    1.645E+01    1.665E+01    1.686E+01    1.706E+01    1.725E+01    1.745E+01    1.764E+01
     1.783E+01    1.802E+01    1.820E+01    1.838E+01    1.856E+01    1.874E+01    1.891E+01    1.908E+01    1.925E+01    1.942E+01
     1.958E+01    1.974E+01    1.990E+01    2.006E+01    2.021E+01    2.036E+01    2.051E+01    2.066E+01    2.080E+01    2.094E+01
     2.108E+01    2.122E+01    2.135E+01    2.149E+01    2.162E+01    2.175E+01    2.187E+01    2.200E+01    2.212E+01    2.224E+01
     2.236E+01    2.248E+01    2.259E+01    2.270E+01    2.281E+01    2.292E+01    2.303E+01    2.313E+01    2.323E+01    2.334E+01
     2.343E+01    2.353E+01    2.363E+01    2.372E+01    2.381E+01    2.390E+01    2.399E+01    2.408E+01    2.416E+01    2.425E+01
     2.433E+01    2.441E+01    2.449E+01    2.457E+01    2.464E+01    2.472E+01    2.479E+01    2.486E+01    2.493E+01    2.500E+01
     2.507E+01    2.513E+01    2.520E+01    2.526E+01    2.532E+01    2.538E+01    2.544E+01    2.550E+01    2.555E+01    2.561E+01
     2.566E+01    2.571E+01    2.577E+01    2.582E+01    2.586E+01    2.591E+01    2.596E+01    2.600E+01    2.605E+01    2.609E+01
     2.613E+01    2.617E+01    2.621E+01    2.625E+01    2.629E+01    2.633E+01    2.636E+01    2.640E+01    2.643E+01    2.647E+01
     2.650E+01    2.653E+01    2.656E+01    2.659E+01    2.662E+01    2.665E+01    2.668E+01    2.670E+01    2.673E+01    2.675E+01
     2.678E+01    2.680E+01    2.683E+01    2.685E+01    2.687E+01    2.689E+01    2.691E+01    2.693E+01    2.695E+01    2.697E+01
     2.699E+01    2.701E+01    2.703E+01    2.705E+01    2.706E+01    2.708E+01    2.710E+01    2.711E+01    2.713E+01    2.714E+01
     2.716E+01    2.717E+01    2.719E+01    2.720E+01    2.722E+01    2.723E+01    2.724E+01    2.726E+01    2.727E+01    2.729E+01
     2.730E+01    2.731E+01    2.733E+01    2.734E+01    2.735E+01    2.737E+01    2.738E+01    2.739E+01    2.740E+01    2.742E+01
     2.743E+01    2.744E+01    2.746E+01    2.747E+01    2.748E+01    2.750E+01    2.751E+01    2.752E+01    2.754E+01    2.755E+01
     2.756E+01    2.758E+01    2.759E+01    2.760E+01    2.762E+01    2.763E+01    2.764E+01    2.766E+01    2.767E+01    2.768E+01
     2.770E+01    2.771E+01    2.773E+01    2.774E+01    2.775E+01    2.777E+01    2.778E+01    2.779E+01    2.781E+01    2.782E+01
     2.784E+01    2.785E+01    2.787E+01    2.788E+01    2.789E+01    2.791E+01    2.792E+01    2.794E+01
 Ala      Conc. = 4.07E+02
