 LCModel (Version 6.3-1L) Copyright: S.W. Provencher.          Ref.: Magn. Reson. Med. 30:672-679 (1993).                
 Slice#3 Row#3 Col#8  PD_05_press_2_raw_act
 36 lines in following concentration table = NCONC+1
    Conc.  %SD /Cr+PCr  Metabolite                                         
  688.542  49%   0.314 Ala                                                 
  165.734 239% 7.5E-02 Asp                                                 
 2.20E+03   7%   1.000 Cr                                                  
    0.000 999%   0.000 PCr                                                 
  302.030  83%   0.138 GABA                                                
   80.254 306% 3.7E-02 Glc                                                 
  953.391  77%   0.434 Gln                                                 
 4.16E+03  20%   1.896 Glu                                                 
  794.912   7%   0.362 GPC                                                 
    0.000 999%   0.000 PCh                                                 
 1.20E+03  18%   0.547 GSH                                                 
 3.32E+03  21%   1.514 Ins                                                 
 2.32E+03  18%   1.058 Lac                                                 
 1.67E+03  19%   0.759 NAA                                                 
 1.36E+03  24%   0.619 NAAG                                                
   68.899  86% 3.1E-02 Scyllo                                              
    0.000 999%   0.000 Tau                                                 
    0.000 999%   0.000 -CrCH2                                              
  794.912   7%   0.362 GPC+PCh                                             
 3.02E+03   6%   1.377 NAA+NAAG                                            
 2.20E+03   7%   1.000 Cr+PCr                                              
 5.12E+03  24%   2.330 Glu+Gln                                             
 1.03E+03  82%   0.471 Lip13a                                              
    0.000 999%   0.000 Lip13b                                              
  192.027 161% 8.7E-02 Lip09                                               
 1.08E+03  40%   0.494 MM09                                                
   98.732 200% 4.5E-02 Lip20                                               
 1.24E+03  58%   0.565 MM20                                                
  373.710  53%   0.170 MM12                                                
 1.77E+03  32%   0.808 MM14                                                
 1.26E+03  28%   0.575 MM17                                                
 1.03E+03  82%   0.471 Lip13a+Lip13b                                       
 3.18E+03  25%   1.449 MM14+Lip13a+Lip13b+MM12                             
 1.28E+03  29%   0.581 MM09+Lip09                                          
 1.34E+03  53%   0.610 MM20+Lip20                                          
   6 lines in following misc. output table
  FWHM = 0.061 ppm    S/N =   4                                            
  Data shift = 0.061 ppm                                                   
  Ph:  14 deg      17.8 deg/ppm                                            
  alphaB,S = 2.3E+00,   8.3E+01                                            
   14 spline knots.   Ns = 7(1)                                            
  (12) 2 infls.   (15) 1 extrs.                                            
  498 points on ppm-axis = NY
      4.000000     3.992357     3.984714     3.977070     3.969427     3.961784     3.954141     3.946497     3.938854     3.931211
      3.923568     3.915925     3.908281     3.900638     3.892995     3.885352     3.877708     3.870065     3.862422     3.854779
      3.847136     3.839492     3.831849     3.824206     3.816563     3.808919     3.801276     3.793633     3.785990     3.778347
      3.770703     3.763060     3.755417     3.747774     3.740130     3.732487     3.724844     3.717201     3.709558     3.701914
      3.694271     3.686628     3.678985     3.671341     3.663698     3.656055     3.648412     3.640769     3.633125     3.625482
      3.617839     3.610196     3.602552     3.594909     3.587266     3.579623     3.571980     3.564336     3.556693     3.549050
      3.541407     3.533763     3.526120     3.518477     3.510834     3.503191     3.495547     3.487904     3.480261     3.472618
      3.464974     3.457331     3.449688     3.442045     3.434402     3.426758     3.419115     3.411472     3.403829     3.396185
      3.388542     3.380899     3.373256     3.365613     3.357969     3.350326     3.342683     3.335040     3.327396     3.319753
      3.312110     3.304467     3.296824     3.289180     3.281537     3.273894     3.266251     3.258607     3.250964     3.243321
      3.235678     3.228034     3.220391     3.212748     3.205105     3.197462     3.189818     3.182175     3.174532     3.166889
      3.159245     3.151602     3.143959     3.136316     3.128673     3.121029     3.113386     3.105743     3.098100     3.090456
      3.082813     3.075170     3.067527     3.059884     3.052240     3.044597     3.036954     3.029311     3.021667     3.014024
      3.006381     2.998738     2.991095     2.983451     2.975808     2.968165     2.960522     2.952878     2.945235     2.937592
      2.929949     2.922306     2.914662     2.907019     2.899376     2.891733     2.884089     2.876446     2.868803     2.861160
      2.853517     2.845873     2.838230     2.830587     2.822944     2.815300     2.807657     2.800014     2.792371     2.784728
      2.777084     2.769441     2.761798     2.754155     2.746511     2.738868     2.731225     2.723582     2.715939     2.708295
      2.700652     2.693009     2.685366     2.677722     2.670079     2.662436     2.654793     2.647150     2.639506     2.631863
      2.624220     2.616577     2.608933     2.601290     2.593647     2.586004     2.578361     2.570717     2.563074     2.555431
      2.547788     2.540144     2.532501     2.524858     2.517215     2.509572     2.501928     2.494285     2.486642     2.478999
      2.471355     2.463712     2.456069     2.448426     2.440783     2.433139     2.425496     2.417853     2.410210     2.402566
      2.394923     2.387280     2.379637     2.371994     2.364350     2.356707     2.349064     2.341421     2.333777     2.326134
      2.318491     2.310848     2.303205     2.295561     2.287918     2.280275     2.272632     2.264988     2.257345     2.249702
      2.242059     2.234416     2.226772     2.219129     2.211486     2.203843     2.196199     2.188556     2.180913     2.173270
      2.165627     2.157983     2.150340     2.142697     2.135054     2.127410     2.119767     2.112124     2.104481     2.096838
      2.089194     2.081551     2.073908     2.066265     2.058621     2.050978     2.043335     2.035692     2.028049     2.020405
      2.012762     2.005119     1.997476     1.989833     1.982190     1.974546     1.966903     1.959260     1.951617     1.943974
      1.936331     1.928688     1.921045     1.913402     1.905759     1.898115     1.890472     1.882829     1.875186     1.867543
      1.859900     1.852257     1.844614     1.836971     1.829327     1.821684     1.814041     1.806398     1.798755     1.791112
      1.783469     1.775826     1.768183     1.760540     1.752896     1.745253     1.737610     1.729967     1.722324     1.714681
      1.707038     1.699395     1.691752     1.684108     1.676465     1.668822     1.661179     1.653536     1.645893     1.638250
      1.630607     1.622964     1.615321     1.607677     1.600034     1.592391     1.584748     1.577105     1.569462     1.561819
      1.554176     1.546533     1.538890     1.531246     1.523603     1.515960     1.508317     1.500674     1.493031     1.485388
      1.477745     1.470102     1.462458     1.454815     1.447172     1.439529     1.431886     1.424243     1.416600     1.408957
      1.401314     1.393671     1.386027     1.378384     1.370741     1.363098     1.355455     1.347812     1.340169     1.332526
      1.324883     1.317240     1.309596     1.301953     1.294310     1.286667     1.279024     1.271381     1.263738     1.256095
      1.248452     1.240808     1.233165     1.225522     1.217879     1.210236     1.202593     1.194950     1.187307     1.179664
      1.172021     1.164377     1.156734     1.149091     1.141448     1.133805     1.126162     1.118519     1.110876     1.103233
      1.095590     1.087946     1.080303     1.072660     1.065017     1.057374     1.049731     1.042088     1.034445     1.026802
      1.019158     1.011515     1.003872     0.996229     0.988586     0.980943     0.973300     0.965657     0.958014     0.950371
      0.942727     0.935084     0.927441     0.919798     0.912155     0.904512     0.896869     0.889226     0.881583     0.873940
      0.866296     0.858653     0.851010     0.843367     0.835724     0.828081     0.820438     0.812795     0.805152     0.797508
      0.789865     0.782222     0.774579     0.766936     0.759293     0.751650     0.744007     0.736364     0.728721     0.721077
      0.713434     0.705791     0.698148     0.690505     0.682862     0.675219     0.667576     0.659933     0.652290     0.644646
      0.637003     0.629360     0.621717     0.614074     0.606431     0.598788     0.591145     0.583502     0.575858     0.568215
      0.560572     0.552929     0.545286     0.537643     0.530000     0.522357     0.514714     0.507071     0.499427     0.491784
      0.484141     0.476498     0.468855     0.461212     0.453569     0.445925     0.438282     0.430639     0.422996     0.415353
      0.407710     0.400067     0.392424     0.384780     0.377137     0.369494     0.361851     0.354208     0.346565     0.338922
      0.331278     0.323635     0.315992     0.308349     0.300706     0.293063     0.285420     0.277777     0.270133     0.262490
      0.254847     0.247204     0.239561     0.231918     0.224275     0.216631     0.208988     0.201345
 NY phased data points follow
   2.82521E+01  3.34652E+01  3.84397E+01  6.20377E+01  5.37367E+01  4.42738E+01  4.13913E+01  5.23557E+01  5.66354E+01  6.33416E+01
   7.74827E+01  9.09386E+01  6.85339E+01  7.81889E+01  7.48065E+01  7.94163E+01  5.58407E+01  4.61406E+01  5.14854E+01  4.26826E+01
   4.20499E+01  4.65390E+01  5.86959E+01  6.96748E+01  4.21797E+01  4.04802E+01  4.47909E+01  4.60520E+01  4.44435E+01  4.92223E+01
   5.21558E+01  4.96186E+01  4.25677E+01  3.66841E+01  3.77637E+01  5.46680E+01  3.50455E+01  3.41334E+01  2.20753E+01  4.33891E+01
   3.62511E+01  3.54352E+01  4.22966E+01  3.95177E+01  3.15982E+01  4.30562E+01  4.87651E+01  5.07985E+01  4.05109E+01  4.43379E+01
   3.33598E+01  3.49582E+01  3.47278E+01  1.59581E+01  2.57508E+01  3.59391E+01  2.81535E+01  2.88962E+01  2.99260E+01  2.80832E+01
   2.73700E+01  3.21829E+01  2.47338E+01  1.54407E+01  1.51730E+01  1.34791E+01  1.02722E+01  3.33578E+01  7.92169E+00  7.79538E+00
   1.25042E+01  9.36086E+00  1.68369E+01  1.92689E+01 -5.90962E-01  1.98856E+01  4.17189E+00  3.49276E+01  3.41304E+00  1.05837E+01
   1.20767E+01  1.30959E+01  1.16674E+01  1.74582E+01  2.37428E+01  1.68804E+01  1.50585E+01  5.25165E+00  9.41457E+00  5.88910E+00
   1.26422E+01  1.30691E+00  1.96178E+01  2.59675E+01  9.59673E+00  2.00967E+01  1.56154E+01  2.02644E+01  4.23452E+01  3.22711E+01
   4.45429E+01  6.24416E+01  6.43540E+01  7.52086E+01  7.88041E+01  7.17473E+01  6.40287E+01  3.63906E+01  3.36112E+01  2.46680E+01
   9.55192E+00  1.22698E+01  1.20454E+01  2.66664E+00  9.98839E+00  2.47603E+00  1.34715E+01  1.76621E+01  1.34505E+01  2.06349E+01
  -8.78641E+00  1.94152E+01  2.91098E+01  3.77119E+01  5.31644E+01  5.49557E+01  6.76625E+01  5.55573E+01  6.88066E+01  7.54136E+01
   6.03114E+01  3.70714E+01  3.97306E+01  3.00276E+01  1.16483E+01 -1.60250E-01  3.17898E+00  2.34760E+01  3.66458E+00  1.05304E+00
   1.09658E+01  1.94796E+01  2.12579E+01  4.31871E+00  1.73265E+01  3.06524E+00  5.92376E+00  1.10220E+01 -1.12641E+01  4.95663E+00
   8.03749E+00 -8.77908E+00  8.96836E+00 -5.13605E+00  3.55568E-01  9.30301E+00  8.42933E+00 -3.80518E+00 -6.57052E+00 -3.88363E+00
   2.18081E+00 -1.01659E+01 -8.99986E+00 -7.28226E+00 -9.90572E+00  6.51006E+00 -5.10948E+00  7.79871E-02 -1.13262E+01 -6.73824E+00
  -2.52041E+00 -1.47030E+00 -1.04008E+01 -2.00168E+00 -1.77431E+01 -6.68435E+00 -1.86017E+01 -1.35212E+01  3.05233E+00 -7.64341E+00
  -1.51653E+01 -1.92319E+01 -1.96363E+01 -2.21469E+01 -1.34440E+01 -5.68800E+00 -2.69656E+01 -1.48640E+01 -1.36228E+00 -5.40016E+00
  -7.37086E+00 -1.80896E-01 -3.01071E+00  1.09253E+00 -9.02156E+00  5.35725E+00 -1.08511E+01 -1.08438E+01 -5.39003E+00  1.90219E+00
  -8.72095E+00  1.32997E+01  5.29293E+00 -1.53882E+01 -1.12763E+01  1.59686E+00  7.71681E+00 -1.73057E+01 -7.56124E+00 -1.35402E+01
  -2.82742E+00 -2.15446E+01 -1.24440E+01  7.05667E+00 -3.03373E+00  9.69864E+00  1.08482E+01 -4.07944E+00 -2.69457E+00 -1.22874E+01
  -1.39936E+00 -2.91420E+01 -2.99991E+01 -1.69056E+01 -8.63660E+00 -6.31524E+00 -3.29291E+00 -9.62695E+00  1.39171E+01 -5.16153E+00
  -7.43111E+00 -8.77926E+00 -1.06622E+00 -2.30943E+00  8.49102E+00  1.14796E+01 -4.37798E+00 -2.14095E+01  6.75206E+00 -1.12083E+00
  -9.78227E+00 -1.69305E+01 -6.46367E+00  1.89267E+01 -1.14114E+01  3.28731E+00 -8.99780E-01  1.45139E+01  1.49740E+01  1.60056E+01
   9.29781E+00  1.79627E+01  2.30476E+01  3.34916E+01  2.74354E+01  3.75912E+01  6.69637E+01  7.92322E+01  7.01629E+01  1.04249E+02
   6.98538E+01  6.44290E+01  5.44297E+01  4.47837E+01  1.09585E+01  2.20576E+01 -2.49928E+00 -8.81530E+00 -5.66465E+00 -1.07356E+01
  -1.74323E+01 -6.04342E+00 -4.44419E+00 -7.25934E+00  5.40435E+00 -1.76872E+00 -2.97706E-02 -8.79549E+00 -1.36977E-01 -5.47444E+00
  -1.10567E+01 -5.44257E+00 -2.03000E+00  1.11646E+00 -1.22509E+01 -1.32530E+00 -1.25880E+01  1.08267E+01  8.45414E+00 -5.98600E+00
   1.24878E+01  5.13389E+00  1.20911E+01 -2.71902E+00  1.08203E+00 -2.78619E+00 -2.38857E+01  3.33788E+00  8.00672E+00  2.34014E-02
   1.70704E+01 -5.91931E+00  3.99171E+00 -4.70024E+00  9.53462E+00 -6.45185E+00 -7.65279E+00  1.19051E+01  7.64223E+00  1.58211E+01
   1.97836E+01  2.02865E+01  1.15124E+00 -1.27009E+00  2.00768E+01 -1.87016E+00  3.53200E+00 -5.24195E+00 -3.05958E+00  1.48795E+01
  -1.16290E+01 -6.54048E+00  6.38028E+00  7.06344E+00  2.30189E+00  1.04348E+01  8.77287E+00  1.02025E+01  6.17079E+00 -6.80608E-01
  -2.12174E+00  1.16605E+01 -7.03268E+00 -2.61294E+00  7.95462E+00  1.31367E+01 -1.21666E+00 -2.28981E+00  5.91161E+00 -1.32231E+00
   2.69824E+01  2.07376E+01  2.81976E+01  2.52806E+01  3.37170E+01  2.48049E+01  2.43780E+01  1.43794E+00  5.44430E+00 -1.93153E+01
  -1.58158E+01 -2.10745E+01 -1.64835E+01 -1.87234E+01 -1.39103E+01  6.51871E+00 -1.15625E+01  1.69709E+00  9.46898E+00  3.97487E+00
  -6.75575E+00 -5.00329E-01 -9.68413E+00  1.92581E+00  6.20959E+00  8.93148E+00  5.97743E+00 -4.88344E-01  1.52820E+01  1.76620E+01
   5.22194E+00  2.49746E+01 -4.82167E+00  3.00506E+00  1.54476E+01 -2.13030E+01 -4.77354E+00  7.18483E+00 -4.04674E+00  1.23567E+00
   5.15330E+00 -6.58435E+00  7.26662E+00 -1.06045E+01  9.31244E-01 -3.83302E+00 -1.56083E+01 -7.17874E+00 -9.20671E+00 -7.27168E+00
  -2.20507E+01 -2.59130E+00 -2.23395E+01  5.59465E+00 -9.45184E+00 -1.31376E+01 -1.19883E+01  1.77141E+00  1.57021E+00 -6.74580E+00
  -1.00550E+00 -2.49706E+00 -3.68794E+00  1.90738E+00  5.09258E+00  1.91363E+00 -1.82662E+00 -2.20594E+00 -1.72191E+01 -1.31091E+01
  -2.59129E+01 -1.92630E+00  3.42079E+00 -1.18683E+01  6.22103E-01 -6.77067E+00 -3.27876E+00  2.75767E+00 -6.39606E+00  2.83680E+00
  -9.04360E+00 -1.29526E+01 -6.77548E+00 -1.18489E+01 -9.51256E+00 -1.38256E+01 -1.31984E+01 -1.25319E+01 -2.03184E+01 -1.17208E+01
  -2.31113E+01 -3.57405E-01 -1.77954E+01  2.46820E+00 -1.01732E+01 -1.60870E+01 -2.51373E+00 -3.45516E+00 -1.08324E+01 -7.51984E+00
  -1.19014E+00 -1.30841E+01 -2.05535E+01 -7.97488E+00 -2.36733E+01  6.14678E-01 -9.93960E+00 -1.36205E+01 -1.33461E+01 -1.43863E+01
  -1.72195E+01 -1.24768E+00 -2.33794E+01 -2.58824E+01 -1.73276E+01 -1.07202E+01 -2.98924E+01 -1.64138E+00 -1.44496E+01 -5.35786E+00
  -1.70817E+01 -2.00200E+01 -1.88332E+01 -1.29421E+01 -1.37932E+00 -1.72413E+01 -1.07025E+01 -1.95837E+01 -1.37261E+01 -1.27215E+01
  -1.83251E+01 -1.32656E+01 -2.07647E+01 -9.18469E+00 -1.04197E+01  9.50820E+00 -7.96354E+00 -7.69581E+00 -8.99332E+00 -1.16570E+01
  -2.27027E+01 -1.59598E+01 -1.74546E+01 -1.79586E+01 -9.39630E+00 -1.61627E+01 -5.60009E+00 -8.38340E+00 -7.57067E+00 -1.45751E+00
  -8.45356E+00 -2.06971E+01 -9.83892E+00 -9.06501E+00 -1.51462E+01 -2.82338E+01 -1.54146E+01 -1.77060E+01
 NY points of the fit to the data follow
   3.47227E+01  3.39440E+01  3.41332E+01  3.50308E+01  3.71551E+01  4.16144E+01  4.75328E+01  5.39886E+01  6.07265E+01  6.72657E+01
   7.27031E+01  7.59052E+01  7.60774E+01  7.30920E+01  6.72815E+01  5.96323E+01  5.16917E+01  4.48380E+01  3.96435E+01  3.60750E+01
   3.39542E+01  3.33165E+01  3.41170E+01  3.58374E+01  3.78049E+01  4.01901E+01  4.31933E+01  4.65982E+01  4.97192E+01  5.19748E+01
   5.31247E+01  5.27578E+01  5.05142E+01  4.69152E+01  4.26244E+01  3.80375E+01  3.35328E+01  2.96635E+01  2.71802E+01  2.62698E+01
   2.70197E+01  2.94559E+01  3.29086E+01  3.66707E+01  4.02662E+01  4.32381E+01  4.50240E+01  4.51024E+01  4.33323E+01  4.00004E+01
   3.54619E+01  3.05192E+01  2.63305E+01  2.35638E+01  2.22153E+01  2.21321E+01  2.30899E+01  2.45879E+01  2.59260E+01  2.66388E+01
   2.66323E+01  2.59012E+01  2.45700E+01  2.28963E+01  2.13143E+01  2.02772E+01  1.98928E+01  2.00913E+01  2.07634E+01  2.16799E+01
   2.25474E+01  2.31275E+01  2.32761E+01  2.29982E+01  2.23618E+01  2.14862E+01  2.05565E+01  1.97084E+01  1.90216E+01  1.85250E+01
   1.80692E+01  1.75012E+01  1.67263E+01  1.57499E+01  1.45847E+01  1.32731E+01  1.19437E+01  1.08091E+01  1.00495E+01  9.85786E+00
   1.02890E+01  1.12056E+01  1.23631E+01  1.35218E+01  1.45787E+01  1.58500E+01  1.90547E+01  2.53678E+01  3.33616E+01  4.25596E+01
   5.26937E+01  6.27412E+01  7.09361E+01  7.53718E+01  7.48961E+01  6.93277E+01  5.93063E+01  4.68290E+01  3.46286E+01  2.44616E+01
   1.67250E+01  1.13711E+01  8.61800E+00  7.99099E+00  7.90637E+00  7.91426E+00  7.94328E+00  8.05106E+00  8.35258E+00  9.15061E+00
   1.16668E+01  1.76312E+01  2.59432E+01  3.56159E+01  4.62638E+01  5.70845E+01  6.66313E+01  7.29031E+01  7.43967E+01  7.06964E+01
   6.20643E+01  4.99412E+01  3.68865E+01  2.50247E+01  1.53434E+01  8.12195E+00  3.75404E+00  2.52346E+00  3.01303E+00  4.21085E+00
   5.58691E+00  6.76336E+00  7.48980E+00  7.57904E+00  7.08056E+00  6.23599E+00  5.23712E+00  4.18569E+00  3.19023E+00  2.30946E+00
   1.59139E+00  9.96229E-01  5.39392E-01  1.90156E-01 -1.05887E-01 -3.32882E-01 -5.01791E-01 -6.44221E-01 -8.08971E-01 -1.08949E+00
  -1.46789E+00 -1.87995E+00 -2.28839E+00 -2.69704E+00 -3.07856E+00 -3.39712E+00 -3.69451E+00 -3.99512E+00 -4.30666E+00 -4.67450E+00
  -5.04101E+00 -5.33749E+00 -5.59732E+00 -5.87157E+00 -6.21345E+00 -6.62156E+00 -7.01691E+00 -7.32384E+00 -7.52955E+00 -7.67535E+00
  -7.80524E+00 -7.80513E+00 -7.50834E+00 -6.78969E+00 -5.61044E+00 -4.02538E+00 -2.16413E+00 -2.35468E-01  1.50474E+00  2.71642E+00
   3.03619E+00  2.42288E+00  1.05047E+00 -7.86113E-01 -2.68339E+00 -4.15459E+00 -4.77211E+00 -4.29790E+00 -2.76101E+00 -4.20423E-01
   2.16697E+00  4.43640E+00  5.82489E+00  5.79544E+00  4.40339E+00  1.92741E+00 -1.35947E+00 -4.75813E+00 -7.38427E+00 -8.16493E+00
  -7.01054E+00 -4.22932E+00 -1.63658E-01  4.42306E+00  8.23839E+00  9.76100E+00  8.23249E+00  4.10486E+00 -1.84568E+00 -8.75663E+00
  -1.49853E+01 -1.90256E+01 -2.02038E+01 -1.85644E+01 -1.47995E+01 -9.65043E+00 -4.45443E+00 -4.30659E-01  2.04210E+00  3.21209E+00
   3.62449E+00  3.55123E+00  3.36955E+00  3.48556E+00  3.89293E+00  4.07109E+00  3.41374E+00  1.98265E+00  1.42357E-01 -1.89423E+00
  -3.87014E+00 -5.19319E+00 -5.48106E+00 -4.84070E+00 -3.60016E+00 -2.06596E+00 -4.59211E-01  8.57184E-01  2.09426E+00  4.71646E+00
   9.00717E+00  1.43537E+01  2.10186E+01  3.05639E+01  4.23789E+01  5.40310E+01  6.40315E+01  7.16375E+01  7.59380E+01  7.61312E+01
   7.23650E+01  6.54335E+01  5.58435E+01  4.41552E+01  3.19562E+01  2.13888E+01  1.29410E+01  6.23713E+00  1.35698E+00 -1.24818E+00
  -2.23340E+00 -2.58388E+00 -2.55682E+00 -2.30028E+00 -2.03685E+00 -1.92135E+00 -1.99209E+00 -2.26987E+00 -2.71739E+00 -3.23153E+00
  -3.70645E+00 -4.08169E+00 -4.31921E+00 -4.40853E+00 -4.38859E+00 -4.29715E+00 -4.17607E+00 -4.04518E+00 -3.89487E+00 -3.71161E+00
  -3.48490E+00 -3.19998E+00 -2.86476E+00 -2.49073E+00 -2.09684E+00 -1.69973E+00 -1.31154E+00 -9.32194E-01 -5.54403E-01 -1.73865E-01
   2.06303E-01  5.89295E-01  9.65950E-01  1.31254E+00  1.60667E+00  1.83374E+00  1.98658E+00  2.06292E+00  2.06336E+00  1.99873E+00
   1.88406E+00  1.73318E+00  1.56210E+00  1.38757E+00  1.22732E+00  1.10097E+00  1.03066E+00  1.04328E+00  1.17698E+00  1.50350E+00
   2.17809E+00  3.16154E+00  4.06810E+00  4.76757E+00  5.17369E+00  5.10811E+00  4.36691E+00  2.81065E+00  6.32604E-01 -1.53000E+00
  -3.31003E+00 -4.34768E+00 -4.27436E+00 -3.00374E+00 -7.48660E-01  2.13730E+00  5.29492E+00  8.33893E+00  1.08803E+01  1.30848E+01
   1.57153E+01  1.85216E+01  2.05245E+01  2.15307E+01  2.13050E+01  1.93694E+01  1.49331E+01  7.69351E+00 -7.92345E-01 -8.95046E+00
  -1.57813E+01 -1.98344E+01 -2.00085E+01 -1.64222E+01 -1.01723E+01 -2.66319E+00  4.86711E+00  1.07784E+01  1.37524E+01  1.39926E+01
   1.24520E+01  1.00060E+01  7.16972E+00  4.29107E+00  2.05471E+00  5.75905E-01 -5.11188E-01 -1.37992E+00 -2.10872E+00 -2.73980E+00
  -3.29806E+00 -3.79882E+00 -4.25164E+00 -4.66245E+00 -5.03497E+00 -5.37149E+00 -5.67326E+00 -5.94070E+00 -6.17356E+00 -6.37119E+00
  -6.53279E+00 -6.65741E+00 -6.74398E+00 -6.79126E+00 -6.79797E+00 -6.76298E+00 -6.68553E+00 -6.56527E+00 -6.40240E+00 -6.19770E+00
  -5.95283E+00 -5.67055E+00 -5.35491E+00 -5.01122E+00 -4.64605E+00 -4.26713E+00 -3.88337E+00 -3.50467E+00 -3.14161E+00 -2.80504E+00
  -2.50557E+00 -2.25316E+00 -2.05675E+00 -1.92387E+00 -1.86021E+00 -1.86933E+00 -1.95243E+00 -2.10839E+00 -2.33391E+00 -2.62373E+00
  -2.97089E+00 -3.36702E+00 -3.80278E+00 -4.26843E+00 -4.75425E+00 -5.25091E+00 -5.74976E+00 -6.24306E+00 -6.72415E+00 -7.18764E+00
  -7.62945E+00 -8.04670E+00 -8.43755E+00 -8.80111E+00 -9.13728E+00 -9.44672E+00 -9.73059E+00 -9.99042E+00 -1.02279E+01 -1.04448E+01
  -1.06430E+01 -1.08243E+01 -1.09905E+01 -1.11434E+01 -1.12843E+01 -1.14146E+01 -1.15355E+01 -1.16481E+01 -1.17535E+01 -1.18524E+01
  -1.19455E+01 -1.20335E+01 -1.21169E+01 -1.21963E+01 -1.22721E+01 -1.23446E+01 -1.24141E+01 -1.24809E+01 -1.25453E+01 -1.26076E+01
  -1.26679E+01 -1.27263E+01 -1.27831E+01 -1.28382E+01 -1.28920E+01 -1.29445E+01 -1.29957E+01 -1.30459E+01 -1.30949E+01 -1.31430E+01
  -1.31902E+01 -1.32366E+01 -1.32823E+01 -1.33271E+01 -1.33713E+01 -1.34149E+01 -1.34579E+01 -1.35003E+01 -1.35423E+01 -1.35837E+01
  -1.36247E+01 -1.36652E+01 -1.37054E+01 -1.37452E+01 -1.37847E+01 -1.38238E+01 -1.38626E+01 -1.39011E+01 -1.39394E+01 -1.39775E+01
  -1.40153E+01 -1.40529E+01 -1.40904E+01 -1.41277E+01 -1.41649E+01 -1.42020E+01 -1.42389E+01 -1.42758E+01 -1.43127E+01 -1.43495E+01
  -1.43863E+01 -1.44232E+01 -1.44600E+01 -1.44969E+01 -1.45340E+01 -1.45712E+01 -1.46085E+01 -1.46461E+01
 NY background values follow
     2.404E+01    2.388E+01    2.372E+01    2.357E+01    2.341E+01    2.325E+01    2.309E+01    2.293E+01    2.277E+01    2.261E+01
     2.245E+01    2.229E+01    2.214E+01    2.198E+01    2.182E+01    2.166E+01    2.150E+01    2.134E+01    2.118E+01    2.102E+01
     2.086E+01    2.070E+01    2.054E+01    2.038E+01    2.023E+01    2.007E+01    1.991E+01    1.975E+01    1.959E+01    1.943E+01
     1.927E+01    1.911E+01    1.895E+01    1.879E+01    1.864E+01    1.848E+01    1.832E+01    1.816E+01    1.800E+01    1.784E+01
     1.768E+01    1.753E+01    1.737E+01    1.721E+01    1.705E+01    1.689E+01    1.674E+01    1.658E+01    1.642E+01    1.626E+01
     1.611E+01    1.595E+01    1.579E+01    1.563E+01    1.548E+01    1.532E+01    1.516E+01    1.501E+01    1.485E+01    1.470E+01
     1.454E+01    1.438E+01    1.423E+01    1.407E+01    1.392E+01    1.376E+01    1.361E+01    1.345E+01    1.330E+01    1.315E+01
     1.299E+01    1.284E+01    1.269E+01    1.253E+01    1.238E+01    1.223E+01    1.208E+01    1.192E+01    1.177E+01    1.162E+01
     1.147E+01    1.132E+01    1.117E+01    1.102E+01    1.087E+01    1.072E+01    1.057E+01    1.042E+01    1.027E+01    1.013E+01
     9.977E+00    9.830E+00    9.683E+00    9.536E+00    9.390E+00    9.244E+00    9.098E+00    8.953E+00    8.808E+00    8.663E+00
     8.519E+00    8.376E+00    8.232E+00    8.089E+00    7.947E+00    7.805E+00    7.663E+00    7.521E+00    7.380E+00    7.240E+00
     7.100E+00    6.960E+00    6.821E+00    6.682E+00    6.543E+00    6.405E+00    6.267E+00    6.130E+00    5.993E+00    5.857E+00
     5.721E+00    5.585E+00    5.450E+00    5.316E+00    5.182E+00    5.048E+00    4.914E+00    4.782E+00    4.649E+00    4.517E+00
     4.386E+00    4.255E+00    4.124E+00    3.994E+00    3.864E+00    3.735E+00    3.607E+00    3.478E+00    3.351E+00    3.223E+00
     3.097E+00    2.970E+00    2.845E+00    2.719E+00    2.595E+00    2.470E+00    2.347E+00    2.223E+00    2.101E+00    1.979E+00
     1.857E+00    1.736E+00    1.615E+00    1.495E+00    1.376E+00    1.257E+00    1.138E+00    1.021E+00    9.034E-01    7.867E-01
     6.705E-01    5.550E-01    4.400E-01    3.256E-01    2.117E-01    9.850E-02   -1.415E-02   -1.262E-01   -2.377E-01   -3.485E-01
    -4.587E-01   -5.684E-01   -6.774E-01   -7.858E-01   -8.936E-01   -1.001E+00   -1.107E+00   -1.213E+00   -1.318E+00   -1.423E+00
    -1.527E+00   -1.630E+00   -1.733E+00   -1.835E+00   -1.936E+00   -2.037E+00   -2.137E+00   -2.236E+00   -2.335E+00   -2.433E+00
    -2.531E+00   -2.628E+00   -2.724E+00   -2.819E+00   -2.914E+00   -3.009E+00   -3.102E+00   -3.195E+00   -3.288E+00   -3.379E+00
    -3.470E+00   -3.561E+00   -3.651E+00   -3.740E+00   -3.829E+00   -3.917E+00   -4.004E+00   -4.091E+00   -4.177E+00   -4.262E+00
    -4.347E+00   -4.431E+00   -4.515E+00   -4.598E+00   -4.680E+00   -4.762E+00   -4.843E+00   -4.924E+00   -5.004E+00   -5.083E+00
    -5.162E+00   -5.240E+00   -5.318E+00   -5.394E+00   -5.471E+00   -5.547E+00   -5.622E+00   -5.696E+00   -5.770E+00   -5.843E+00
    -5.916E+00   -5.988E+00   -6.060E+00   -6.131E+00   -6.201E+00   -6.271E+00   -6.341E+00   -6.409E+00   -6.478E+00   -6.545E+00
    -6.613E+00   -6.679E+00   -6.745E+00   -6.811E+00   -6.876E+00   -6.940E+00   -7.004E+00   -7.068E+00   -7.131E+00   -7.193E+00
    -7.255E+00   -7.317E+00   -7.378E+00   -7.438E+00   -7.498E+00   -7.558E+00   -7.617E+00   -7.676E+00   -7.734E+00   -7.791E+00
    -7.849E+00   -7.905E+00   -7.962E+00   -8.018E+00   -8.073E+00   -8.128E+00   -8.183E+00   -8.237E+00   -8.291E+00   -8.344E+00
    -8.397E+00   -8.450E+00   -8.502E+00   -8.554E+00   -8.605E+00   -8.656E+00   -8.707E+00   -8.757E+00   -8.807E+00   -8.856E+00
    -8.905E+00   -8.954E+00   -9.002E+00   -9.050E+00   -9.098E+00   -9.146E+00   -9.193E+00   -9.239E+00   -9.286E+00   -9.332E+00
    -9.378E+00   -9.423E+00   -9.468E+00   -9.513E+00   -9.557E+00   -9.602E+00   -9.646E+00   -9.689E+00   -9.733E+00   -9.776E+00
    -9.819E+00   -9.861E+00   -9.904E+00   -9.946E+00   -9.988E+00   -1.003E+01   -1.007E+01   -1.011E+01   -1.015E+01   -1.019E+01
    -1.023E+01   -1.027E+01   -1.031E+01   -1.035E+01   -1.039E+01   -1.043E+01   -1.047E+01   -1.051E+01   -1.055E+01   -1.059E+01
    -1.063E+01   -1.067E+01   -1.070E+01   -1.074E+01   -1.078E+01   -1.082E+01   -1.085E+01   -1.089E+01   -1.093E+01   -1.097E+01
    -1.100E+01   -1.104E+01   -1.107E+01   -1.111E+01   -1.115E+01   -1.118E+01   -1.122E+01   -1.125E+01   -1.129E+01   -1.133E+01
    -1.136E+01   -1.140E+01   -1.143E+01   -1.147E+01   -1.150E+01   -1.154E+01   -1.157E+01   -1.160E+01   -1.164E+01   -1.167E+01
    -1.171E+01   -1.174E+01   -1.177E+01   -1.181E+01   -1.184E+01   -1.187E+01   -1.191E+01   -1.194E+01   -1.197E+01   -1.201E+01
    -1.204E+01   -1.207E+01   -1.210E+01   -1.214E+01   -1.217E+01   -1.220E+01   -1.223E+01   -1.227E+01   -1.230E+01   -1.233E+01
    -1.236E+01   -1.239E+01   -1.242E+01   -1.246E+01   -1.249E+01   -1.252E+01   -1.255E+01   -1.258E+01   -1.261E+01   -1.264E+01
    -1.267E+01   -1.270E+01   -1.274E+01   -1.277E+01   -1.280E+01   -1.283E+01   -1.286E+01   -1.289E+01   -1.292E+01   -1.295E+01
    -1.298E+01   -1.301E+01   -1.304E+01   -1.307E+01   -1.310E+01   -1.313E+01   -1.316E+01   -1.319E+01   -1.321E+01   -1.324E+01
    -1.327E+01   -1.330E+01   -1.333E+01   -1.336E+01   -1.339E+01   -1.342E+01   -1.345E+01   -1.347E+01   -1.350E+01   -1.353E+01
    -1.356E+01   -1.359E+01   -1.362E+01   -1.364E+01   -1.367E+01   -1.370E+01   -1.373E+01   -1.376E+01   -1.378E+01   -1.381E+01
    -1.384E+01   -1.387E+01   -1.389E+01   -1.392E+01   -1.395E+01   -1.398E+01   -1.400E+01   -1.403E+01   -1.406E+01   -1.408E+01
    -1.411E+01   -1.414E+01   -1.416E+01   -1.419E+01   -1.422E+01   -1.424E+01   -1.427E+01   -1.430E+01   -1.432E+01   -1.435E+01
    -1.438E+01   -1.440E+01   -1.443E+01   -1.446E+01   -1.448E+01   -1.451E+01   -1.453E+01   -1.456E+01   -1.459E+01   -1.461E+01
    -1.464E+01   -1.466E+01   -1.469E+01   -1.471E+01   -1.474E+01   -1.477E+01   -1.479E+01   -1.482E+01   -1.484E+01   -1.487E+01
    -1.489E+01   -1.492E+01   -1.494E+01   -1.497E+01   -1.500E+01   -1.502E+01   -1.505E+01   -1.507E+01   -1.510E+01   -1.512E+01
    -1.515E+01   -1.517E+01   -1.520E+01   -1.522E+01   -1.525E+01   -1.527E+01   -1.530E+01   -1.532E+01   -1.535E+01   -1.537E+01
    -1.540E+01   -1.542E+01   -1.545E+01   -1.547E+01   -1.550E+01   -1.552E+01   -1.555E+01   -1.557E+01   -1.560E+01   -1.562E+01
    -1.565E+01   -1.567E+01   -1.570E+01   -1.572E+01   -1.574E+01   -1.577E+01   -1.579E+01   -1.582E+01
 Ala      Conc. = 6.89E+02
