 LCModel (Version 6.3-1L) Copyright: S.W. Provencher.          Ref.: Magn. Reson. Med. 30:672-679 (1993).                
 Slice#1 Row#9 Col#3  PD_05_press_2_raw_act
 36 lines in following concentration table = NCONC+1
    Conc.  %SD /Cr+PCr  Metabolite                                         
   96.545 143% 6.1E-02 Ala                                                 
  202.266 147%   0.127 Asp                                                 
  620.690  42%   0.390 Cr                                                  
  968.903  28%   0.610 PCr                                                 
    0.000 999%   0.000 GABA                                                
    0.000 999%   0.000 Glc                                                 
  551.286  49%   0.347 Gln                                                 
 2.20E+03  14%   1.387 Glu                                                 
  430.745   7%   0.271 GPC                                                 
    0.000 999%   0.000 PCh                                                 
  339.335  28%   0.213 GSH                                                 
  865.352  36%   0.544 Ins                                                 
  174.699  88%   0.110 Lac                                                 
 3.48E+03   5%   2.192 NAA                                                 
  500.288  34%   0.315 NAAG                                                
   59.320  59% 3.7E-02 Scyllo                                              
  191.859 131%   0.121 Tau                                                 
  542.039  27%   0.341 -CrCH2                                              
  430.745   7%   0.271 GPC+PCh                                             
 3.98E+03   4%   2.507 NAA+NAAG                                            
 1.59E+03   5%   1.000 Cr+PCr                                              
 2.76E+03  15%   1.734 Glu+Gln                                             
 4.48E+03  74%   2.821 Lip13a                                              
    0.000 999%   0.000 Lip13b                                              
    0.000 999%   0.000 Lip09                                               
 1.77E+04   6%  11.134 MM09                                                
  760.464 112%   0.478 Lip20                                               
 1.36E+04   8%   8.541 MM20                                                
 1.06E+04  15%   6.682 MM12                                                
 9.90E+03  19%   6.229 MM14                                                
 6.74E+03  13%   4.239 MM17                                                
 4.48E+03  74%   2.821 Lip13a+Lip13b                                       
 2.50E+04   6%  15.732 MM14+Lip13a+Lip13b+MM12                             
 1.77E+04   6%  11.134 MM09+Lip09                                          
 1.43E+04   7%   9.019 MM20+Lip20                                          
   6 lines in following misc. output table
  FWHM = 0.046 ppm    S/N =  17                                            
  Data shift = 0.023 ppm                                                   
  Ph:   8 deg       7.7 deg/ppm                                            
  alphaB,S = 8.5E+01,   4.5E+01                                            
   14 spline knots.   Ns = 6(1)                                            
   2 inflections.     1 extrema                                            
  498 points on ppm-axis = NY
      4.000000     3.992357     3.984714     3.977070     3.969427     3.961784     3.954141     3.946497     3.938854     3.931211
      3.923568     3.915925     3.908281     3.900638     3.892995     3.885352     3.877708     3.870065     3.862422     3.854779
      3.847136     3.839492     3.831849     3.824206     3.816563     3.808919     3.801276     3.793633     3.785990     3.778347
      3.770703     3.763060     3.755417     3.747774     3.740130     3.732487     3.724844     3.717201     3.709558     3.701914
      3.694271     3.686628     3.678985     3.671341     3.663698     3.656055     3.648412     3.640769     3.633125     3.625482
      3.617839     3.610196     3.602552     3.594909     3.587266     3.579623     3.571980     3.564336     3.556693     3.549050
      3.541407     3.533763     3.526120     3.518477     3.510834     3.503191     3.495547     3.487904     3.480261     3.472618
      3.464974     3.457331     3.449688     3.442045     3.434402     3.426758     3.419115     3.411472     3.403829     3.396185
      3.388542     3.380899     3.373256     3.365613     3.357969     3.350326     3.342683     3.335040     3.327396     3.319753
      3.312110     3.304467     3.296824     3.289180     3.281537     3.273894     3.266251     3.258607     3.250964     3.243321
      3.235678     3.228034     3.220391     3.212748     3.205105     3.197462     3.189818     3.182175     3.174532     3.166889
      3.159245     3.151602     3.143959     3.136316     3.128673     3.121029     3.113386     3.105743     3.098100     3.090456
      3.082813     3.075170     3.067527     3.059884     3.052240     3.044597     3.036954     3.029311     3.021667     3.014024
      3.006381     2.998738     2.991095     2.983451     2.975808     2.968165     2.960522     2.952878     2.945235     2.937592
      2.929949     2.922306     2.914662     2.907019     2.899376     2.891733     2.884089     2.876446     2.868803     2.861160
      2.853517     2.845873     2.838230     2.830587     2.822944     2.815300     2.807657     2.800014     2.792371     2.784728
      2.777084     2.769441     2.761798     2.754155     2.746511     2.738868     2.731225     2.723582     2.715939     2.708295
      2.700652     2.693009     2.685366     2.677722     2.670079     2.662436     2.654793     2.647150     2.639506     2.631863
      2.624220     2.616577     2.608933     2.601290     2.593647     2.586004     2.578361     2.570717     2.563074     2.555431
      2.547788     2.540144     2.532501     2.524858     2.517215     2.509572     2.501928     2.494285     2.486642     2.478999
      2.471355     2.463712     2.456069     2.448426     2.440783     2.433139     2.425496     2.417853     2.410210     2.402566
      2.394923     2.387280     2.379637     2.371994     2.364350     2.356707     2.349064     2.341421     2.333777     2.326134
      2.318491     2.310848     2.303205     2.295561     2.287918     2.280275     2.272632     2.264988     2.257345     2.249702
      2.242059     2.234416     2.226772     2.219129     2.211486     2.203843     2.196199     2.188556     2.180913     2.173270
      2.165627     2.157983     2.150340     2.142697     2.135054     2.127410     2.119767     2.112124     2.104481     2.096838
      2.089194     2.081551     2.073908     2.066265     2.058621     2.050978     2.043335     2.035692     2.028049     2.020405
      2.012762     2.005119     1.997476     1.989833     1.982190     1.974546     1.966903     1.959260     1.951617     1.943974
      1.936331     1.928688     1.921045     1.913402     1.905759     1.898115     1.890472     1.882829     1.875186     1.867543
      1.859900     1.852257     1.844614     1.836971     1.829327     1.821684     1.814041     1.806398     1.798755     1.791112
      1.783469     1.775826     1.768183     1.760540     1.752896     1.745253     1.737610     1.729967     1.722324     1.714681
      1.707038     1.699395     1.691752     1.684108     1.676465     1.668822     1.661179     1.653536     1.645893     1.638250
      1.630607     1.622964     1.615321     1.607677     1.600034     1.592391     1.584748     1.577105     1.569462     1.561819
      1.554176     1.546533     1.538890     1.531246     1.523603     1.515960     1.508317     1.500674     1.493031     1.485388
      1.477745     1.470102     1.462458     1.454815     1.447172     1.439529     1.431886     1.424243     1.416600     1.408957
      1.401314     1.393671     1.386027     1.378384     1.370741     1.363098     1.355455     1.347812     1.340169     1.332526
      1.324883     1.317240     1.309596     1.301953     1.294310     1.286667     1.279024     1.271381     1.263738     1.256095
      1.248452     1.240808     1.233165     1.225522     1.217879     1.210236     1.202593     1.194950     1.187307     1.179664
      1.172021     1.164377     1.156734     1.149091     1.141448     1.133805     1.126162     1.118519     1.110876     1.103233
      1.095590     1.087946     1.080303     1.072660     1.065017     1.057374     1.049731     1.042088     1.034445     1.026802
      1.019158     1.011515     1.003872     0.996229     0.988586     0.980943     0.973300     0.965657     0.958014     0.950371
      0.942727     0.935084     0.927441     0.919798     0.912155     0.904512     0.896869     0.889226     0.881583     0.873940
      0.866296     0.858653     0.851010     0.843367     0.835724     0.828081     0.820438     0.812795     0.805152     0.797508
      0.789865     0.782222     0.774579     0.766936     0.759293     0.751650     0.744007     0.736364     0.728721     0.721077
      0.713434     0.705791     0.698148     0.690505     0.682862     0.675219     0.667576     0.659933     0.652290     0.644646
      0.637003     0.629360     0.621717     0.614074     0.606431     0.598788     0.591145     0.583502     0.575858     0.568215
      0.560572     0.552929     0.545286     0.537643     0.530000     0.522357     0.514714     0.507071     0.499427     0.491784
      0.484141     0.476498     0.468855     0.461212     0.453569     0.445925     0.438282     0.430639     0.422996     0.415353
      0.407710     0.400067     0.392424     0.384780     0.377137     0.369494     0.361851     0.354208     0.346565     0.338922
      0.331278     0.323635     0.315992     0.308349     0.300706     0.293063     0.285420     0.277777     0.270133     0.262490
      0.254847     0.247204     0.239561     0.231918     0.224275     0.216631     0.208988     0.201345
 NY phased data points follow
  -8.97607E+00 -5.74827E+00  8.63302E+00 -3.55027E-01  1.54377E+00  9.01016E+00  8.87002E+00  1.37170E+01  2.76376E+01  2.12011E+01
   2.95106E+01  2.75296E+01  3.05780E+01  2.73869E+01  2.24041E+01  2.21839E+01  1.34460E+01  8.39408E+00  9.75496E+00  3.37048E+00
   1.19096E+01  5.39765E+00  6.97676E+00  1.06916E+01  1.17933E+01  6.18879E-01 -1.37064E+00  8.48821E+00  1.39097E+01  1.39218E+01
   1.57689E+01  8.60070E+00  2.18698E+01  7.17981E+00  9.82655E+00  4.85442E+00  3.96506E+00  5.95523E+00  1.08234E+01  7.05425E+00
   8.46448E+00  4.15042E+00  2.62754E+00  7.31568E+00  1.09412E+01  6.13195E+00  1.38243E+01  1.79035E+01  1.63135E+01  1.47970E+01
   1.28105E+01  1.01397E+01  7.37439E+00  5.50620E+00  5.02767E+00  5.75056E+00  9.96588E+00  1.00715E+01  1.08068E+01  8.51679E+00
   8.21326E+00  2.21534E+00  2.77116E+00 -4.09229E+00 -1.37738E+00 -2.61217E+00  9.13222E-02 -4.76404E+00 -3.70631E+00  7.75123E-01
  -4.09075E+00 -2.87557E+00 -1.60327E+00  1.17400E+00  6.27252E+00 -3.13661E-01 -1.39615E+00  2.00917E+00  3.49434E+00 -6.94992E+00
   1.18061E+00 -3.88836E+00  2.00511E-01  5.50555E+00  7.03182E+00 -9.45927E-02  2.51639E+00  1.12712E+00  2.18955E-01 -1.99260E+00
  -6.34168E+00  4.34881E+00  1.33599E+00  7.19403E+00  1.00459E+01  6.21083E+00  7.15298E+00  3.51486E+00  6.15029E+00  1.38431E+01
   2.49156E+01  2.97593E+01  4.84408E+01  4.06895E+01  4.53648E+01  4.13650E+01  2.82730E+01  1.88209E+01  1.89704E+01  9.00328E+00
   1.11026E+01  7.78201E+00  8.91648E+00  7.85992E+00  3.54664E+00  9.96758E+00  9.74020E+00  8.85813E+00  6.09734E+00  3.69106E+00
   6.22206E+00  5.48873E+00  9.50604E+00  1.53305E+01  3.83886E+01  4.07085E+01  6.45451E+01  7.02145E+01  7.04562E+01  5.93356E+01
   4.29167E+01  3.54898E+01  2.63603E+01  2.16666E+01  1.25255E+01  1.39055E+01  1.12129E+01  1.00636E+01  6.23114E+00  6.95538E+00
   7.94449E+00  9.60144E+00  3.97950E+00 -1.50883E+00 -9.38583E-01  1.59167E+00  2.65482E-02 -3.42439E+00 -2.62319E+00  1.89829E+00
   4.56294E+00 -6.87410E+00  5.43919E+00  2.63198E+00  4.33395E+00 -1.94132E+00  5.21561E+00  8.44942E-01 -1.24501E+00  1.21036E+00
  -8.84950E+00 -3.38797E+00  4.17279E+00  1.98343E+00 -3.09827E+00 -5.06360E+00 -5.64547E+00 -4.21853E+00  1.47455E+00 -7.31828E+00
  -6.03652E+00 -3.21906E+00 -1.83299E+01 -1.53910E+01 -2.25875E+01 -1.64694E+01 -1.72559E+01 -2.33636E+01 -1.13350E+01 -1.53942E+01
  -1.48091E+01 -1.52515E+01 -6.67293E+00 -3.89900E+00 -5.34675E+00 -1.00277E+01 -4.88923E+00 -8.85229E+00 -4.51687E+00 -6.60998E+00
  -6.61971E+00 -1.08533E+01 -2.49160E+00  8.45629E-01 -3.09944E+00 -7.35553E+00 -8.59365E+00 -9.28392E+00 -1.22758E+01 -1.26694E+01
  -9.94608E+00 -4.94864E+00  6.93394E+00  7.63814E+00  7.22413E+00  2.82468E+00  4.82678E+00  4.08130E-01 -2.85221E-01 -3.54710E+00
  -4.20494E+00  2.96200E+00  1.02002E+01  1.19260E+01  2.06853E+01  2.41861E+01  3.05895E+01  1.85703E+01  1.06746E+01  2.33952E+00
  -2.35451E+00  5.49628E-01 -2.92412E+00 -5.16906E+00  3.67812E+00  1.34079E+01  1.26493E+01  1.92185E+01  1.98500E+01  1.30316E+01
   2.20683E+01  1.78450E+01  1.82828E+01  1.98962E+01  1.89395E+01  1.83967E+01  2.26684E+01  2.12368E+01  2.01739E+01  2.28405E+01
   2.14907E+01  2.22026E+01  1.90941E+01  1.94472E+01  2.90603E+01  3.37039E+01  3.79688E+01  3.70772E+01  4.80900E+01  4.01683E+01
   5.15964E+01  5.10908E+01  5.23368E+01  6.75514E+01  6.36584E+01  6.96862E+01  9.03101E+01  1.22020E+02  1.56865E+02  1.85177E+02
   1.82372E+02  1.64862E+02  1.30218E+02  1.07886E+02  8.49919E+01  5.59842E+01  4.20110E+01  3.47684E+01  3.28541E+01  2.33220E+01
   2.25909E+01  1.38610E+01  1.80238E+01  1.24831E+01  1.39693E+01  1.74488E+01  1.42772E+01  1.55862E+01  1.61698E+01  1.19710E+01
   2.27597E+01  2.08417E+01  1.30892E+01  1.83257E+01  1.12105E+01  1.38493E+01  1.51321E+01  9.27681E+00  1.70981E+01  1.58376E+01
   1.93076E+01  1.19357E+01  2.16339E+01  1.30760E+01  1.95132E+01  1.42516E+01  2.25401E+01  1.32466E+01  2.11382E+01  1.73513E+01
   2.17374E+01  1.95557E+01  2.10335E+01  1.49502E+01  1.86993E+01  2.61996E+01  1.73310E+01  2.01661E+01  2.40101E+01  1.44024E+01
   2.38094E+01  2.28467E+01  2.14408E+01  2.04932E+01  1.12533E+01  1.38686E+01  1.28647E+01  1.49683E+01  1.52732E+01  5.98269E+00
   7.77899E+00  6.85458E+00  1.63227E+01  1.33140E+01  1.60853E+01  1.35037E+01  2.09350E+01  2.57586E+01  3.25176E+01  2.64512E+01
   3.77509E+01  3.41222E+01  4.20651E+01  4.61327E+01  5.85582E+01  5.89455E+01  6.33122E+01  7.20926E+01  8.02528E+01  8.11831E+01
   7.82347E+01  8.61341E+01  8.58896E+01  8.97395E+01  9.18321E+01  8.94806E+01  8.74067E+01  9.12293E+01  9.01109E+01  8.22049E+01
   7.32844E+01  7.63406E+01  7.52422E+01  7.05200E+01  7.35684E+01  6.76067E+01  6.58621E+01  7.34359E+01  7.24294E+01  6.77992E+01
   7.33398E+01  7.24882E+01  7.46668E+01  8.37755E+01  7.48474E+01  7.91506E+01  7.65098E+01  7.48770E+01  7.38449E+01  7.80504E+01
   7.38122E+01  6.99052E+01  7.48505E+01  6.45154E+01  6.65462E+01  6.34411E+01  6.54979E+01  6.18309E+01  5.19395E+01  5.89370E+01
   5.58341E+01  5.84214E+01  5.15727E+01  5.76067E+01  5.02789E+01  5.34395E+01  5.57829E+01  4.77641E+01  5.27366E+01  6.09044E+01
   5.72263E+01  5.21853E+01  5.26588E+01  5.58872E+01  6.55102E+01  6.28998E+01  6.47343E+01  7.00833E+01  6.48679E+01  6.29165E+01
   7.05909E+01  6.07720E+01  6.10357E+01  5.08289E+01  5.41415E+01  5.62139E+01  4.52850E+01  5.03858E+01  5.36461E+01  4.26917E+01
   3.86017E+01  3.13189E+01  3.66411E+01  4.06549E+01  2.97984E+01  2.82695E+01  2.73002E+01  2.68403E+01  2.11605E+01  2.36918E+01
   1.26304E+01  9.17261E+00  1.61793E+01  1.77476E+01  1.35547E+01  1.80843E+01  7.26533E+00 -7.66880E-01  7.04815E+00  7.54214E+00
   1.38871E+00  3.51093E+00  2.14360E+00 -1.82142E+00 -3.32902E+00 -8.76498E+00 -9.85836E+00 -7.77790E+00 -6.51205E+00 -6.90928E+00
  -1.42593E+01 -1.33202E+01 -1.44011E+01 -9.65981E+00 -1.93700E+01 -1.70874E+01 -1.63424E+01 -2.53794E+01 -2.08724E+01 -2.06905E+01
  -1.71487E+01 -2.55126E+01 -1.71509E+01 -2.35322E+01 -3.16521E+01 -2.58377E+01 -2.60361E+01 -2.86443E+01 -2.70816E+01 -2.20149E+01
  -2.08043E+01 -2.65340E+01 -2.74743E+01 -2.54851E+01 -2.59171E+01 -2.92605E+01 -2.24973E+01 -2.69985E+01 -2.46063E+01 -2.46642E+01
  -2.62552E+01 -2.93521E+01 -3.67633E+01 -2.97999E+01 -2.91389E+01 -2.92143E+01 -2.84799E+01 -2.41034E+01 -2.91607E+01 -2.75970E+01
  -2.89808E+01 -3.10533E+01 -2.74656E+01 -2.43248E+01 -2.86484E+01 -3.11108E+01 -3.11962E+01 -2.78617E+01 -2.36832E+01 -3.14640E+01
  -2.40082E+01 -2.14134E+01 -2.99244E+01 -2.07108E+01 -2.50292E+01 -2.38040E+01 -2.88831E+01 -2.19157E+01
 NY points of the fit to the data follow
   5.45163E+00  5.10282E+00  5.02771E+00  5.14480E+00  5.52412E+00  6.82215E+00  9.58850E+00  1.42241E+01  2.04718E+01  2.66521E+01
   3.09078E+01  3.20340E+01  3.02165E+01  2.64976E+01  2.21354E+01  1.81218E+01  1.46304E+01  1.17231E+01  9.81828E+00  8.67223E+00
   8.22980E+00  8.19369E+00  8.22653E+00  7.91912E+00  6.96070E+00  5.85315E+00  5.39710E+00  6.26167E+00  8.65606E+00  1.19946E+01
   1.52250E+01  1.73243E+01  1.77941E+01  1.64485E+01  1.34060E+01  9.74591E+00  6.60641E+00  4.57728E+00  3.86288E+00  4.09946E+00
   4.77600E+00  5.47539E+00  6.23548E+00  7.39813E+00  9.02773E+00  1.08913E+01  1.24162E+01  1.28866E+01  1.21136E+01  1.04743E+01
   8.52514E+00  6.67043E+00  5.12752E+00  3.98577E+00  3.26735E+00  3.01277E+00  3.21915E+00  3.78013E+00  4.47991E+00  5.01007E+00
   5.10375E+00  4.69487E+00  3.96009E+00  3.15322E+00  2.49379E+00  2.10816E+00  1.94446E+00  1.96088E+00  2.14675E+00  2.41729E+00
   2.72025E+00  3.02071E+00  3.26027E+00  3.35763E+00  3.26530E+00  2.95477E+00  2.40745E+00  1.76194E+00  1.22946E+00  8.98875E-01
   8.00054E-01  1.06732E+00  1.77140E+00  2.68732E+00  3.40674E+00  3.50977E+00  2.85767E+00  1.74627E+00  6.88335E-01 -4.38978E-03
  -3.86142E-01 -5.83419E-01 -6.24794E-01 -5.59626E-01 -3.61237E-01 -7.07304E-02  2.07684E-01  6.59710E-01  3.09242E+00  1.01977E+01
   2.19538E+01  3.52318E+01  4.53634E+01  4.86027E+01  4.47581E+01  3.68684E+01  2.84071E+01  2.06979E+01  1.40792E+01  9.21894E+00
   5.99935E+00  4.22657E+00  3.66725E+00  3.53131E+00  3.55964E+00  3.66325E+00  3.80811E+00  3.98090E+00  4.19385E+00  4.49225E+00
   4.95302E+00  5.78685E+00  8.83339E+00  1.75398E+01  3.24267E+01  4.98329E+01  6.39266E+01  6.95333E+01  6.57742E+01  5.62159E+01
   4.55236E+01  3.56032E+01  2.65857E+01  1.91631E+01  1.34894E+01  9.57969E+00  7.68489E+00  6.95794E+00  6.86220E+00  7.06864E+00
   7.27300E+00  7.28686E+00  7.09762E+00  6.71522E+00  6.18714E+00  5.56023E+00  4.85699E+00  4.14375E+00  3.46737E+00  2.81325E+00
   2.14876E+00  1.47735E+00  8.72233E-01  4.22913E-01  2.10030E-01  1.63536E-01 -9.95277E-02 -9.42886E-01 -2.34253E+00 -3.88139E+00
  -4.82499E+00 -4.76071E+00 -4.00212E+00 -3.26189E+00 -3.12998E+00 -3.70356E+00 -4.72373E+00 -5.78476E+00 -6.62771E+00 -7.29978E+00
  -7.85600E+00 -8.54285E+00 -9.65860E+00 -1.09089E+01 -1.17734E+01 -1.18666E+01 -1.13158E+01 -1.07388E+01 -1.06302E+01 -1.09281E+01
  -1.10966E+01 -1.08371E+01 -1.04873E+01 -1.04029E+01 -1.04340E+01 -1.00326E+01 -8.66022E+00 -6.36579E+00 -3.72861E+00 -1.57081E+00
  -3.19796E-01  9.59367E-02 -3.44695E-02 -5.16986E-01 -1.18538E+00 -1.92947E+00 -2.58120E+00 -2.84547E+00 -2.50548E+00 -1.36350E+00
   5.13134E-01  2.74559E+00  4.80073E+00  5.97105E+00  5.69966E+00  3.77923E+00  5.68083E-01 -3.02199E+00 -6.25036E+00 -8.35354E+00
  -8.64735E+00 -6.42950E+00 -1.57503E+00  4.74273E+00  1.06853E+01  1.41890E+01  1.42411E+01  1.11287E+01  5.64404E+00 -7.69754E-01
  -6.29410E+00 -9.15949E+00 -8.26817E+00 -4.14432E+00  1.67282E+00  7.47513E+00  1.22244E+01  1.55232E+01  1.72502E+01  1.77470E+01
   1.76963E+01  1.77000E+01  1.82498E+01  1.95591E+01  2.14113E+01  2.35286E+01  2.55128E+01  2.69088E+01  2.73906E+01  2.71223E+01
   2.67619E+01  2.70271E+01  2.83590E+01  3.07595E+01  3.37559E+01  3.66503E+01  3.89213E+01  4.04118E+01  4.12542E+01  4.18548E+01
   4.30389E+01  4.60962E+01  5.14580E+01  5.79254E+01  6.39997E+01  7.32263E+01  9.30136E+01  1.23575E+02  1.56747E+02  1.79699E+02
   1.81964E+02  1.63973E+02  1.35612E+02  1.07218E+02  8.21272E+01  6.07829E+01  4.49994E+01  3.40440E+01  2.72335E+01  2.39862E+01
   2.19772E+01  2.05525E+01  1.94893E+01  1.85733E+01  1.76170E+01  1.65920E+01  1.55385E+01  1.45216E+01  1.35976E+01  1.28301E+01
   1.22682E+01  1.19294E+01  1.17833E+01  1.17718E+01  1.18570E+01  1.20291E+01  1.22883E+01  1.26489E+01  1.31347E+01  1.37586E+01
   1.45139E+01  1.53694E+01  1.62791E+01  1.71972E+01  1.80878E+01  1.89251E+01  1.96905E+01  2.03764E+01  2.09800E+01  2.14924E+01
   2.18974E+01  2.21710E+01  2.22932E+01  2.22530E+01  2.20436E+01  2.16669E+01  2.11341E+01  2.04599E+01  1.96661E+01  1.87768E+01
   1.78175E+01  1.68173E+01  1.58078E+01  1.48235E+01  1.38999E+01  1.30740E+01  1.23838E+01  1.18693E+01  1.15724E+01  1.15371E+01
   1.18097E+01  1.24457E+01  1.35309E+01  1.50982E+01  1.70461E+01  1.92362E+01  2.15872E+01  2.41365E+01  2.70302E+01  3.04009E+01
   3.43114E+01  3.88045E+01  4.38931E+01  4.94858E+01  5.53274E+01  6.10882E+01  6.64797E+01  7.13440E+01  7.56670E+01  7.94273E+01
   8.25811E+01  8.51380E+01  8.71668E+01  8.87164E+01  8.96278E+01  8.96155E+01  8.85179E+01  8.64117E+01  8.36502E+01  8.06631E+01
   7.78535E+01  7.55593E+01  7.39956E+01  7.32182E+01  7.30003E+01  7.29874E+01  7.29459E+01  7.28301E+01  7.27923E+01  7.29070E+01
   7.31655E+01  7.35762E+01  7.40895E+01  7.46421E+01  7.51712E+01  7.55659E+01  7.57416E+01  7.56396E+01  7.52226E+01  7.44741E+01
   7.33972E+01  7.20140E+01  7.03632E+01  6.84976E+01  6.64808E+01  6.43827E+01  6.22755E+01  6.02303E+01  5.83137E+01  5.65851E+01
   5.50944E+01  5.38799E+01  5.29672E+01  5.23694E+01  5.20878E+01  5.21123E+01  5.24221E+01  5.29871E+01  5.37695E+01  5.47255E+01
   5.58074E+01  5.69645E+01  5.81446E+01  5.92957E+01  6.03668E+01  6.13104E+01  6.20826E+01  6.26451E+01  6.29643E+01  6.30136E+01
   6.27729E+01  6.22302E+01  6.13805E+01  6.02260E+01  5.87753E+01  5.70435E+01  5.50511E+01  5.28236E+01  5.03900E+01  4.77818E+01
   4.50318E+01  4.21733E+01  3.92396E+01  3.62628E+01  3.32728E+01  3.02969E+01  2.73592E+01  2.44811E+01  2.16806E+01  1.89724E+01
   1.63680E+01  1.38755E+01  1.15003E+01  9.24580E+00  7.11305E+00  5.10150E+00  3.20864E+00  1.43093E+00 -2.36146E-01 -1.79732E+00
  -3.25790E+00 -4.62344E+00 -5.90003E+00 -7.09346E+00 -8.20944E+00 -9.25311E+00 -1.02296E+01 -1.11440E+01 -1.20010E+01 -1.28052E+01
  -1.35604E+01 -1.42702E+01 -1.49381E+01 -1.55673E+01 -1.61611E+01 -1.67221E+01 -1.72526E+01 -1.77548E+01 -1.82308E+01 -1.86826E+01
  -1.91124E+01 -1.95213E+01 -1.99109E+01 -2.02823E+01 -2.06370E+01 -2.09762E+01 -2.13010E+01 -2.16123E+01 -2.19108E+01 -2.21973E+01
  -2.24728E+01 -2.27381E+01 -2.29937E+01 -2.32401E+01 -2.34778E+01 -2.37073E+01 -2.39294E+01 -2.41444E+01 -2.43528E+01 -2.45546E+01
  -2.47503E+01 -2.49403E+01 -2.51252E+01 -2.53050E+01 -2.54800E+01 -2.56502E+01 -2.58160E+01 -2.59778E+01 -2.61359E+01 -2.62903E+01
  -2.64410E+01 -2.65882E+01 -2.67322E+01 -2.68733E+01 -2.70115E+01 -2.71469E+01 -2.72796E+01 -2.74094E+01 -2.75370E+01 -2.76622E+01
  -2.77854E+01 -2.79061E+01 -2.80246E+01 -2.81410E+01 -2.82556E+01 -2.83683E+01 -2.84791E+01 -2.85879E+01
 NY background values follow
     5.992E+00    5.923E+00    5.854E+00    5.785E+00    5.715E+00    5.646E+00    5.577E+00    5.508E+00    5.438E+00    5.369E+00
     5.300E+00    5.230E+00    5.161E+00    5.092E+00    5.022E+00    4.953E+00    4.884E+00    4.814E+00    4.745E+00    4.675E+00
     4.606E+00    4.537E+00    4.467E+00    4.398E+00    4.328E+00    4.259E+00    4.189E+00    4.120E+00    4.050E+00    3.981E+00
     3.911E+00    3.842E+00    3.772E+00    3.703E+00    3.633E+00    3.564E+00    3.494E+00    3.425E+00    3.355E+00    3.286E+00
     3.216E+00    3.147E+00    3.077E+00    3.007E+00    2.938E+00    2.868E+00    2.799E+00    2.729E+00    2.659E+00    2.590E+00
     2.520E+00    2.450E+00    2.381E+00    2.311E+00    2.241E+00    2.172E+00    2.102E+00    2.032E+00    1.962E+00    1.893E+00
     1.823E+00    1.753E+00    1.684E+00    1.614E+00    1.544E+00    1.474E+00    1.405E+00    1.335E+00    1.265E+00    1.195E+00
     1.125E+00    1.056E+00    9.858E-01    9.160E-01    8.462E-01    7.764E-01    7.065E-01    6.367E-01    5.668E-01    4.970E-01
     4.271E-01    3.573E-01    2.874E-01    2.175E-01    1.476E-01    7.776E-02    7.871E-03   -6.203E-02   -1.319E-01   -2.018E-01
    -2.718E-01   -3.417E-01   -4.116E-01   -4.815E-01   -5.515E-01   -6.214E-01   -6.914E-01   -7.613E-01   -8.313E-01   -9.012E-01
    -9.712E-01   -1.041E+00   -1.111E+00   -1.181E+00   -1.251E+00   -1.321E+00   -1.391E+00   -1.461E+00   -1.531E+00   -1.601E+00
    -1.671E+00   -1.741E+00   -1.811E+00   -1.881E+00   -1.951E+00   -2.021E+00   -2.091E+00   -2.161E+00   -2.232E+00   -2.302E+00
    -2.372E+00   -2.442E+00   -2.512E+00   -2.582E+00   -2.652E+00   -2.722E+00   -2.792E+00   -2.862E+00   -2.932E+00   -3.002E+00
    -3.072E+00   -3.143E+00   -3.213E+00   -3.283E+00   -3.353E+00   -3.423E+00   -3.493E+00   -3.563E+00   -3.633E+00   -3.704E+00
    -3.774E+00   -3.844E+00   -3.914E+00   -3.984E+00   -4.054E+00   -4.124E+00   -4.195E+00   -4.265E+00   -4.335E+00   -4.405E+00
    -4.475E+00   -4.545E+00   -4.616E+00   -4.686E+00   -4.756E+00   -4.826E+00   -4.896E+00   -4.967E+00   -5.037E+00   -5.107E+00
    -5.177E+00   -5.247E+00   -5.317E+00   -5.388E+00   -5.458E+00   -5.528E+00   -5.598E+00   -5.668E+00   -5.739E+00   -5.809E+00
    -5.879E+00   -5.949E+00   -6.020E+00   -6.090E+00   -6.160E+00   -6.230E+00   -6.300E+00   -6.371E+00   -6.441E+00   -6.511E+00
    -6.581E+00   -6.652E+00   -6.722E+00   -6.792E+00   -6.862E+00   -6.933E+00   -7.003E+00   -7.073E+00   -7.143E+00   -7.213E+00
    -7.284E+00   -7.354E+00   -7.424E+00   -7.494E+00   -7.565E+00   -7.635E+00   -7.705E+00   -7.775E+00   -7.846E+00   -7.916E+00
    -7.986E+00   -8.056E+00   -8.127E+00   -8.197E+00   -8.267E+00   -8.337E+00   -8.408E+00   -8.478E+00   -8.548E+00   -8.618E+00
    -8.689E+00   -8.759E+00   -8.829E+00   -8.899E+00   -8.970E+00   -9.040E+00   -9.110E+00   -9.180E+00   -9.251E+00   -9.321E+00
    -9.391E+00   -9.461E+00   -9.531E+00   -9.602E+00   -9.672E+00   -9.742E+00   -9.812E+00   -9.883E+00   -9.953E+00   -1.002E+01
    -1.009E+01   -1.016E+01   -1.023E+01   -1.030E+01   -1.037E+01   -1.044E+01   -1.051E+01   -1.058E+01   -1.066E+01   -1.073E+01
    -1.080E+01   -1.087E+01   -1.094E+01   -1.101E+01   -1.108E+01   -1.115E+01   -1.122E+01   -1.129E+01   -1.136E+01   -1.143E+01
    -1.150E+01   -1.157E+01   -1.164E+01   -1.171E+01   -1.178E+01   -1.185E+01   -1.192E+01   -1.199E+01   -1.206E+01   -1.213E+01
    -1.220E+01   -1.227E+01   -1.234E+01   -1.241E+01   -1.248E+01   -1.255E+01   -1.262E+01   -1.269E+01   -1.276E+01   -1.283E+01
    -1.290E+01   -1.297E+01   -1.304E+01   -1.311E+01   -1.318E+01   -1.325E+01   -1.332E+01   -1.339E+01   -1.346E+01   -1.353E+01
    -1.360E+01   -1.367E+01   -1.374E+01   -1.381E+01   -1.388E+01   -1.395E+01   -1.402E+01   -1.409E+01   -1.416E+01   -1.423E+01
    -1.430E+01   -1.437E+01   -1.444E+01   -1.451E+01   -1.458E+01   -1.465E+01   -1.472E+01   -1.479E+01   -1.486E+01   -1.493E+01
    -1.500E+01   -1.507E+01   -1.514E+01   -1.521E+01   -1.528E+01   -1.535E+01   -1.542E+01   -1.549E+01   -1.556E+01   -1.563E+01
    -1.570E+01   -1.577E+01   -1.584E+01   -1.591E+01   -1.598E+01   -1.605E+01   -1.612E+01   -1.619E+01   -1.626E+01   -1.633E+01
    -1.640E+01   -1.647E+01   -1.654E+01   -1.661E+01   -1.668E+01   -1.675E+01   -1.682E+01   -1.689E+01   -1.696E+01   -1.703E+01
    -1.710E+01   -1.717E+01   -1.724E+01   -1.731E+01   -1.738E+01   -1.745E+01   -1.752E+01   -1.759E+01   -1.766E+01   -1.773E+01
    -1.780E+01   -1.787E+01   -1.794E+01   -1.801E+01   -1.808E+01   -1.815E+01   -1.822E+01   -1.829E+01   -1.836E+01   -1.843E+01
    -1.850E+01   -1.857E+01   -1.864E+01   -1.871E+01   -1.878E+01   -1.885E+01   -1.892E+01   -1.899E+01   -1.906E+01   -1.913E+01
    -1.920E+01   -1.926E+01   -1.933E+01   -1.940E+01   -1.947E+01   -1.954E+01   -1.961E+01   -1.968E+01   -1.975E+01   -1.982E+01
    -1.989E+01   -1.996E+01   -2.003E+01   -2.010E+01   -2.017E+01   -2.024E+01   -2.031E+01   -2.038E+01   -2.045E+01   -2.052E+01
    -2.059E+01   -2.066E+01   -2.073E+01   -2.080E+01   -2.086E+01   -2.093E+01   -2.100E+01   -2.107E+01   -2.114E+01   -2.121E+01
    -2.128E+01   -2.135E+01   -2.142E+01   -2.149E+01   -2.156E+01   -2.163E+01   -2.170E+01   -2.177E+01   -2.184E+01   -2.191E+01
    -2.197E+01   -2.204E+01   -2.211E+01   -2.218E+01   -2.225E+01   -2.232E+01   -2.239E+01   -2.246E+01   -2.253E+01   -2.260E+01
    -2.267E+01   -2.274E+01   -2.281E+01   -2.287E+01   -2.294E+01   -2.301E+01   -2.308E+01   -2.315E+01   -2.322E+01   -2.329E+01
    -2.336E+01   -2.343E+01   -2.350E+01   -2.357E+01   -2.364E+01   -2.370E+01   -2.377E+01   -2.384E+01   -2.391E+01   -2.398E+01
    -2.405E+01   -2.412E+01   -2.419E+01   -2.426E+01   -2.433E+01   -2.439E+01   -2.446E+01   -2.453E+01   -2.460E+01   -2.467E+01
    -2.474E+01   -2.481E+01   -2.488E+01   -2.495E+01   -2.501E+01   -2.508E+01   -2.515E+01   -2.522E+01   -2.529E+01   -2.536E+01
    -2.543E+01   -2.550E+01   -2.556E+01   -2.563E+01   -2.570E+01   -2.577E+01   -2.584E+01   -2.591E+01   -2.598E+01   -2.605E+01
    -2.611E+01   -2.618E+01   -2.625E+01   -2.632E+01   -2.639E+01   -2.646E+01   -2.653E+01   -2.659E+01   -2.666E+01   -2.673E+01
    -2.680E+01   -2.687E+01   -2.694E+01   -2.701E+01   -2.707E+01   -2.714E+01   -2.721E+01   -2.728E+01   -2.735E+01   -2.742E+01
    -2.748E+01   -2.755E+01   -2.762E+01   -2.769E+01   -2.776E+01   -2.783E+01   -2.789E+01   -2.796E+01   -2.803E+01   -2.810E+01
    -2.817E+01   -2.824E+01   -2.830E+01   -2.837E+01   -2.844E+01   -2.851E+01   -2.858E+01   -2.865E+01
 Ala      Conc. = 9.65E+01
