 LCModel (Version 6.3-1L) Copyright: S.W. Provencher.          Ref.: Magn. Reson. Med. 30:672-679 (1993).                
 Slice#3 Row#3 Col#7  PD_05_press_2_raw_act
 36 lines in following concentration table = NCONC+1
    Conc.  %SD /Cr+PCr  Metabolite                                         
 1.20E+03  35%   0.672 Ala                                                 
  155.437 227% 8.7E-02 Asp                                                 
 1.43E+03  29%   0.800 Cr                                                  
  358.361 115%   0.200 PCr                                                 
  167.108 130% 9.3E-02 GABA                                                
  220.896  98%   0.124 Glc                                                 
 2.77E+03  31%   1.547 Gln                                                 
 1.82E+03  52%   1.021 Glu                                                 
  708.812   9%   0.397 GPC                                                 
    0.000 999%   0.000 PCh                                                 
  832.196  30%   0.466 GSH                                                 
 3.29E+03  23%   1.839 Ins                                                 
  494.334  92%   0.277 Lac                                                 
 2.09E+03   9%   1.167 NAA                                                 
    0.000 999%   0.000 NAAG                                                
   88.441  66% 4.9E-02 Scyllo                                              
  137.185 246% 7.7E-02 Tau                                                 
    0.000 999%   0.000 -CrCH2                                              
  708.812   9%   0.397 GPC+PCh                                             
 2.09E+03   9%   1.167 NAA+NAAG                                            
 1.79E+03   9%   1.000 Cr+PCr                                              
 4.59E+03  30%   2.568 Glu+Gln                                             
 5.08E+03  20%   2.843 Lip13a                                              
    0.000 999%   0.000 Lip13b                                              
 1.36E+03  20%   0.759 Lip09                                               
  376.098 116%   0.210 MM09                                                
  762.234  20%   0.426 Lip20                                               
  204.707 342%   0.115 MM20                                                
   88.091 211% 4.9E-02 MM12                                                
 2.78E+03  18%   1.554+MM14                                                
  307.344 117%   0.172 MM17                                                
 5.08E+03  20%   2.843 Lip13a+Lip13b                                       
 7.95E+03  10%   4.447 MM14+Lip13a+Lip13b+MM12                             
 1.73E+03  22%   0.969 MM09+Lip09                                          
  966.941  67%   0.541 MM20+Lip20                                          
   6 lines in following misc. output table
  FWHM = 0.069 ppm    S/N =   3                                            
  Data shift = 0.046 ppm                                                   
  Ph:  14 deg       4.3 deg/ppm                                            
  alphaB,S = 3.5E+00,   6.0E+00                                            
   14 spline knots.   Ns = 6(1)                                            
  (14) 8 infls.   (13) 5 extrs.                                            
  498 points on ppm-axis = NY
      4.000000     3.992357     3.984714     3.977070     3.969427     3.961784     3.954141     3.946497     3.938854     3.931211
      3.923568     3.915925     3.908281     3.900638     3.892995     3.885352     3.877708     3.870065     3.862422     3.854779
      3.847136     3.839492     3.831849     3.824206     3.816563     3.808919     3.801276     3.793633     3.785990     3.778347
      3.770703     3.763060     3.755417     3.747774     3.740130     3.732487     3.724844     3.717201     3.709558     3.701914
      3.694271     3.686628     3.678985     3.671341     3.663698     3.656055     3.648412     3.640769     3.633125     3.625482
      3.617839     3.610196     3.602552     3.594909     3.587266     3.579623     3.571980     3.564336     3.556693     3.549050
      3.541407     3.533763     3.526120     3.518477     3.510834     3.503191     3.495547     3.487904     3.480261     3.472618
      3.464974     3.457331     3.449688     3.442045     3.434402     3.426758     3.419115     3.411472     3.403829     3.396185
      3.388542     3.380899     3.373256     3.365613     3.357969     3.350326     3.342683     3.335040     3.327396     3.319753
      3.312110     3.304467     3.296824     3.289180     3.281537     3.273894     3.266251     3.258607     3.250964     3.243321
      3.235678     3.228034     3.220391     3.212748     3.205105     3.197462     3.189818     3.182175     3.174532     3.166889
      3.159245     3.151602     3.143959     3.136316     3.128673     3.121029     3.113386     3.105743     3.098100     3.090456
      3.082813     3.075170     3.067527     3.059884     3.052240     3.044597     3.036954     3.029311     3.021667     3.014024
      3.006381     2.998738     2.991095     2.983451     2.975808     2.968165     2.960522     2.952878     2.945235     2.937592
      2.929949     2.922306     2.914662     2.907019     2.899376     2.891733     2.884089     2.876446     2.868803     2.861160
      2.853517     2.845873     2.838230     2.830587     2.822944     2.815300     2.807657     2.800014     2.792371     2.784728
      2.777084     2.769441     2.761798     2.754155     2.746511     2.738868     2.731225     2.723582     2.715939     2.708295
      2.700652     2.693009     2.685366     2.677722     2.670079     2.662436     2.654793     2.647150     2.639506     2.631863
      2.624220     2.616577     2.608933     2.601290     2.593647     2.586004     2.578361     2.570717     2.563074     2.555431
      2.547788     2.540144     2.532501     2.524858     2.517215     2.509572     2.501928     2.494285     2.486642     2.478999
      2.471355     2.463712     2.456069     2.448426     2.440783     2.433139     2.425496     2.417853     2.410210     2.402566
      2.394923     2.387280     2.379637     2.371994     2.364350     2.356707     2.349064     2.341421     2.333777     2.326134
      2.318491     2.310848     2.303205     2.295561     2.287918     2.280275     2.272632     2.264988     2.257345     2.249702
      2.242059     2.234416     2.226772     2.219129     2.211486     2.203843     2.196199     2.188556     2.180913     2.173270
      2.165627     2.157983     2.150340     2.142697     2.135054     2.127410     2.119767     2.112124     2.104481     2.096838
      2.089194     2.081551     2.073908     2.066265     2.058621     2.050978     2.043335     2.035692     2.028049     2.020405
      2.012762     2.005119     1.997476     1.989833     1.982190     1.974546     1.966903     1.959260     1.951617     1.943974
      1.936331     1.928688     1.921045     1.913402     1.905759     1.898115     1.890472     1.882829     1.875186     1.867543
      1.859900     1.852257     1.844614     1.836971     1.829327     1.821684     1.814041     1.806398     1.798755     1.791112
      1.783469     1.775826     1.768183     1.760540     1.752896     1.745253     1.737610     1.729967     1.722324     1.714681
      1.707038     1.699395     1.691752     1.684108     1.676465     1.668822     1.661179     1.653536     1.645893     1.638250
      1.630607     1.622964     1.615321     1.607677     1.600034     1.592391     1.584748     1.577105     1.569462     1.561819
      1.554176     1.546533     1.538890     1.531246     1.523603     1.515960     1.508317     1.500674     1.493031     1.485388
      1.477745     1.470102     1.462458     1.454815     1.447172     1.439529     1.431886     1.424243     1.416600     1.408957
      1.401314     1.393671     1.386027     1.378384     1.370741     1.363098     1.355455     1.347812     1.340169     1.332526
      1.324883     1.317240     1.309596     1.301953     1.294310     1.286667     1.279024     1.271381     1.263738     1.256095
      1.248452     1.240808     1.233165     1.225522     1.217879     1.210236     1.202593     1.194950     1.187307     1.179664
      1.172021     1.164377     1.156734     1.149091     1.141448     1.133805     1.126162     1.118519     1.110876     1.103233
      1.095590     1.087946     1.080303     1.072660     1.065017     1.057374     1.049731     1.042088     1.034445     1.026802
      1.019158     1.011515     1.003872     0.996229     0.988586     0.980943     0.973300     0.965657     0.958014     0.950371
      0.942727     0.935084     0.927441     0.919798     0.912155     0.904512     0.896869     0.889226     0.881583     0.873940
      0.866296     0.858653     0.851010     0.843367     0.835724     0.828081     0.820438     0.812795     0.805152     0.797508
      0.789865     0.782222     0.774579     0.766936     0.759293     0.751650     0.744007     0.736364     0.728721     0.721077
      0.713434     0.705791     0.698148     0.690505     0.682862     0.675219     0.667576     0.659933     0.652290     0.644646
      0.637003     0.629360     0.621717     0.614074     0.606431     0.598788     0.591145     0.583502     0.575858     0.568215
      0.560572     0.552929     0.545286     0.537643     0.530000     0.522357     0.514714     0.507071     0.499427     0.491784
      0.484141     0.476498     0.468855     0.461212     0.453569     0.445925     0.438282     0.430639     0.422996     0.415353
      0.407710     0.400067     0.392424     0.384780     0.377137     0.369494     0.361851     0.354208     0.346565     0.338922
      0.331278     0.323635     0.315992     0.308349     0.300706     0.293063     0.285420     0.277777     0.270133     0.262490
      0.254847     0.247204     0.239561     0.231918     0.224275     0.216631     0.208988     0.201345
 NY phased data points follow
   6.80794E+01  5.62780E+01  5.02122E+01  4.59505E+01  6.61233E+01  5.84749E+01  6.56162E+01  6.41526E+01  7.07398E+01  6.50353E+01
   7.64939E+01  8.77176E+01  7.60167E+01  8.51624E+01  7.47781E+01  6.36422E+01  6.15485E+01  6.10146E+01  5.96469E+01  5.82082E+01
   5.55953E+01  6.29886E+01  5.46569E+01  7.77109E+01  7.08599E+01  5.93694E+01  4.83551E+01  4.60646E+01  5.29833E+01  4.23748E+01
   6.70726E+01  4.55991E+01  6.50127E+01  5.16312E+01  4.22475E+01  3.73300E+01  5.34050E+01  3.91925E+01  5.44135E+01  3.00785E+01
   4.15857E+01  5.39819E+01  4.84492E+01  4.72101E+01  4.71579E+01  5.06728E+01  5.89843E+01  5.36979E+01  5.92277E+01  4.24505E+01
   5.13389E+01  3.64591E+01  5.21567E+01  3.73112E+01  4.74585E+01  3.36200E+01  5.43037E+01  5.14508E+01  4.73034E+01  4.25141E+01
   5.17804E+01  3.48096E+01  3.34310E+01  3.64012E+01  3.61511E+01  2.38960E+01  4.19169E+01  3.10266E+01  2.62284E+01  1.69660E+01
   3.04962E+01  2.86115E+01  2.85867E+01  3.86425E+01  4.05275E+01  3.59626E+01  4.69504E+01  3.21565E+01  2.70217E+01  4.53812E+01
   2.26997E+01  2.54168E+01  2.43197E+01  4.77408E+01  3.62157E+01  2.44648E+01  4.70897E+01  2.90915E+01  3.74070E+01  2.10700E+01
   2.82351E+01  3.03277E+01  2.83027E+01  2.02185E+01  3.79333E+01  2.83661E+01  4.02670E+01  4.78133E+01  4.11245E+01  2.75798E+01
   4.83542E+01  6.85776E+01  9.16819E+01  8.04093E+01  8.30675E+01  7.16031E+01  7.42182E+01  6.90182E+01  5.63823E+01  1.26020E+01
   4.71263E+01  3.82309E+01  3.43983E+01  2.77806E+01  9.82483E+00  4.61542E+01  2.94829E+01  3.05621E+01  4.88018E+01  1.27979E+01
   4.33083E+01  4.08112E+01  2.28022E+01  3.30464E+01  3.41258E+01  5.26246E+01  6.74882E+01  7.53877E+01  7.41248E+01  5.64890E+01
   6.54771E+01  6.33123E+01  5.67660E+01  3.20259E+01  4.81287E+01  2.85395E+01  2.48001E+01  1.69738E+01  3.26962E+01  2.72676E+01
   3.42083E+01  2.18946E+01  2.96007E+01  2.01563E+01  3.09590E+01  2.28730E+01  1.48755E+01  2.01273E+01  1.85091E+01  1.02273E+01
   1.69675E+01  9.03533E+00  1.56585E+01  1.70482E+01  4.38866E+01  8.11250E+00  3.19823E+01  2.80255E+01  1.98415E+01  2.12278E+01
   5.68228E+00 -8.10383E+00  1.50370E+01  1.04259E+01  2.36459E+01  2.25337E+01  2.59854E+01  2.16278E+01  3.70275E+01  1.66876E+01
   1.26908E+01  1.43571E+01  1.67009E+01  1.80484E+01  8.66435E+00  2.05816E+01 -6.57476E+00  1.00696E+00  7.02401E+00 -4.04533E+00
   1.92793E+01  2.79835E+00  7.95623E+00 -1.44452E+01  4.41005E+00 -1.14414E+01  2.73349E+00 -6.24038E+00  1.60878E+01  9.31255E+00
   7.65655E+00  1.00505E+01  1.28832E+01  4.47741E+00  2.08092E+01  1.25930E+01  1.66621E+01  1.54179E+01  1.49054E+01  4.85607E+00
   2.81862E+01  1.21917E+01  1.78258E+01  9.62214E+00  1.71713E+01  1.03478E+01 -3.12831E+00  2.11172E+01  8.47344E+00 -6.37300E+00
   3.78796E+00  2.53710E+00  5.92390E+00  1.92106E+00  1.96996E+01  2.21688E+01  1.37791E+01  2.06870E+01  4.33700E+01  2.50483E+01
   2.42189E+01  1.01135E+01  1.89143E+01  1.40409E+01  1.06353E+01  2.48330E+01  1.56574E+01  1.02293E+01  1.47536E+01  1.26631E+01
   1.50124E+01  1.02708E+01  2.21852E+01  1.27213E+01 -3.15259E+00  1.82976E+01  2.18296E+01  1.59094E+01  1.93055E+01 -2.23424E+00
   1.12058E+01  6.50007E+00  9.16783E+00  1.60509E+01  2.48681E+01  2.96757E+01  2.09147E+01  1.11953E+01  1.08840E+01  2.29186E+01
   4.20078E+01  2.06023E+01  2.41591E+01  2.07491E+01  4.02631E+01  2.44579E+01  3.42054E+01  3.59014E+01  5.59620E+01  8.54376E+01
   7.96052E+01  9.48921E+01  7.42648E+01  6.48993E+01  5.23260E+01  3.46407E+01  3.76040E+01  3.63987E+01  2.29010E+01  3.14053E+01
   3.17235E+01  1.23102E+01  9.45417E+00  2.77780E+01  2.25136E+01  1.66970E+01  1.74522E+01  1.77320E+01  2.87418E+01 -3.51063E+00
   1.43012E+01  9.54746E-02  1.95612E+01  8.14388E+00  1.06260E+01  1.32913E+00  1.99062E+01 -2.24380E+00  7.33957E+00  3.55644E+01
   2.34102E+01  6.35811E+00  3.94132E+01  1.23989E+01  3.70293E+01  2.21331E+01  1.54285E+01  1.38240E+01  3.37299E+00  3.66225E+01
   3.12321E+01  1.76451E+01  2.42918E+01  1.53856E+01  2.26201E+01  1.43290E+01  1.43471E+01 -1.34160E+01  2.35831E+01  2.09505E+01
   2.07382E+01  5.91255E+00  7.41381E+00  2.16318E+01  9.91315E+00  1.41549E+01  3.37581E+01  2.57605E+01  2.56486E+01  1.22376E+01
   3.00369E+01  2.94918E+01  2.13519E+01  1.62648E+01  3.16970E+01  3.52280E+01  6.21261E+01  4.49346E+01  3.74983E+01  4.60278E+01
   4.97586E+01  3.34782E+01  5.17610E+01  3.28859E+01  3.52959E+01  3.97757E+01  5.03919E+01  5.69404E+01  6.78094E+01  4.98614E+01
   4.00593E+01  4.84877E+01  5.77559E+01  6.82901E+01  7.09232E+01  7.40531E+01  5.69774E+01  6.69971E+01  5.23835E+01  5.98518E+01
   4.96048E+01  2.47594E+01  4.02762E+01  2.90117E+01  2.84381E+01  6.03613E+00  3.33759E+01  2.76053E+01  1.10860E+01  2.42494E+01
   2.09372E+01  6.15391E+00  1.93989E+01  7.14276E+00  1.22771E+00  1.02381E+01  1.30532E+01  1.34970E+01  3.42374E+00  1.34050E+01
   3.92156E+01  1.79750E+01  1.92084E+01  1.81474E+01  1.24896E+01  2.21860E+01  3.57482E+01  1.48767E+01  2.55921E+01  2.08610E+01
   2.81432E+01  1.70825E+01  1.89317E+01  2.75542E+01  2.08625E+01  1.43801E+01  2.56935E+00  1.44914E+01  1.61596E+00 -4.26518E+00
   1.42252E+01 -4.98550E+00  2.13406E+00 -8.91291E+00  9.72872E+00  1.91624E+01  1.51827E+01  1.76849E+01  5.63190E+00  1.51000E+01
   8.53613E+00  1.83774E+01 -3.54032E+00  2.25649E+01  2.67443E+01  6.83252E+00  1.91440E+01  1.16903E+01  6.27982E+00  3.63810E+01
   2.85095E+01  2.56760E+01  6.74838E+00  1.07040E+01  1.33359E+01  1.17855E+01  2.26169E+01  1.41024E+01  5.71447E+00  3.20419E+00
   1.11372E+01  1.88419E+01  1.48438E+01 -8.18777E+00  1.53068E+01  1.50638E+01 -1.17493E-02  2.16757E+00  1.42163E+01  1.12891E+01
   1.31293E+01  2.66566E+00  5.18417E+00  1.01299E+01  1.21266E+01  1.58433E+01  2.69838E+01 -1.56279E+01  2.02185E+01  5.63083E+00
  -3.40629E+00  1.89819E+01  5.76165E+00  8.21478E+00 -1.11065E+00  2.99977E+01  8.03079E+00  1.32561E+01  1.09512E+01  7.27354E+00
   1.17858E+01  1.12157E+01  1.19513E+01  1.94425E+01 -1.33963E+01 -1.05031E+01 -6.52575E+00  3.15856E+00  1.20409E+01  9.39573E+00
   5.26231E+00  7.19373E+00  1.85660E+01 -8.70488E+00  2.95983E+00  3.88182E+00  1.95906E+01 -5.09410E+00 -3.35692E+00  5.69830E+00
   1.17851E+01  1.50744E+01 -3.86249E+00  1.71186E+00  1.52383E+01  1.61131E+01  2.03708E+01  7.69097E+00  1.25079E+01  7.01327E+00
   1.80398E+01 -3.60006E+00  8.45729E-01 -1.24788E+00  6.78786E+00 -6.84071E+00  6.54118E+00 -1.64804E+00  2.13999E+01  9.63955E-01
   1.05314E+01  1.14568E+01  2.40565E+01  2.32631E+00 -2.32021E+00 -1.83689E+00  1.23751E+01  1.56250E+01
 NY points of the fit to the data follow
   4.82652E+01  4.55751E+01  4.65667E+01  4.74799E+01  4.68507E+01  5.06180E+01  5.70524E+01  5.62581E+01  5.87563E+01  6.58801E+01
   7.58595E+01  7.88815E+01  7.67822E+01  7.24233E+01  6.81384E+01  6.66544E+01  5.98287E+01  5.26767E+01  5.41895E+01  4.80655E+01
   4.34812E+01  4.24428E+01  4.33380E+01  4.79276E+01  4.87916E+01  4.35576E+01  4.38185E+01  4.57769E+01  5.24212E+01  5.48778E+01
   5.69616E+01  5.88975E+01  5.93916E+01  5.81635E+01  5.29162E+01  5.00564E+01  4.99326E+01  4.46344E+01  4.45217E+01  4.00619E+01
   3.99883E+01  4.28756E+01  4.40089E+01  4.23964E+01  4.34014E+01  4.98513E+01  5.73113E+01  5.93099E+01  5.70782E+01  5.43646E+01
   5.17319E+01  4.74795E+01  4.26870E+01  4.14211E+01  4.10047E+01  3.72414E+01  3.44767E+01  3.49932E+01  3.77696E+01  4.02198E+01
   4.15285E+01  4.13696E+01  4.04050E+01  3.90629E+01  3.66119E+01  3.59208E+01  3.67341E+01  3.55949E+01  3.54670E+01  3.54705E+01
   3.69922E+01  3.81485E+01  3.85215E+01  3.90077E+01  3.88457E+01  3.86918E+01  3.79701E+01  3.65326E+01  3.64897E+01  3.57751E+01
   3.54027E+01  3.35904E+01  3.25793E+01  3.28039E+01  3.39696E+01  3.33379E+01  3.10452E+01  2.85999E+01  2.73722E+01  2.70206E+01
   2.71598E+01  2.69418E+01  2.84039E+01  2.89348E+01  2.98052E+01  3.17339E+01  3.53152E+01  4.61369E+01  4.82393E+01  3.89579E+01
   4.62341E+01  6.55708E+01  8.53672E+01  8.86167E+01  8.39919E+01  7.70399E+01  7.14425E+01  6.55557E+01  5.14697E+01  4.75285E+01
   4.61695E+01  2.89146E+01  2.45791E+01  2.39022E+01  2.39995E+01  2.42826E+01  2.45876E+01  2.47451E+01  2.51357E+01  2.60106E+01
   2.88541E+01  3.70077E+01  4.08711E+01  3.52161E+01  4.11759E+01  5.74840E+01  7.47579E+01  7.96539E+01  7.62413E+01  6.98138E+01
   6.55249E+01  6.10770E+01  5.02502E+01  4.39935E+01  4.09529E+01  2.63261E+01  1.98490E+01  1.88463E+01  1.89967E+01  2.08593E+01
   2.19000E+01  2.15684E+01  2.24820E+01  2.30851E+01  2.29721E+01  2.35870E+01  2.28461E+01  2.27382E+01  2.19726E+01  2.11224E+01
   2.08017E+01  2.04246E+01  2.01459E+01  1.98411E+01  1.96233E+01  1.93202E+01  1.94550E+01  1.95867E+01  1.93503E+01  1.88130E+01
   1.78407E+01  1.76308E+01  1.81237E+01  1.86117E+01  1.84687E+01  1.81691E+01  1.80572E+01  1.74419E+01  1.72788E+01  1.70007E+01
   1.62882E+01  1.64911E+01  1.62155E+01  1.52695E+01  1.43332E+01  1.35540E+01  1.40480E+01  1.46222E+01  1.44768E+01  1.37248E+01
   1.33879E+01  1.36079E+01  1.41547E+01  1.45028E+01  1.48895E+01  1.45348E+01  1.49433E+01  1.54810E+01  1.69770E+01  1.91827E+01
   1.94078E+01  1.89356E+01  1.83422E+01  1.74075E+01  1.56801E+01  1.49318E+01  1.38321E+01  1.36994E+01  1.56918E+01  1.88664E+01
   2.12721E+01  2.41637E+01  2.58515E+01  2.59155E+01  2.43914E+01  2.65732E+01  2.24184E+01  1.46996E+01  7.64971E+00  5.73131E+00
   7.69763E+00  8.59369E+00  1.07093E+01  1.44914E+01  2.17201E+01  2.57017E+01  2.29553E+01  2.66056E+01  2.81935E+01  2.43785E+01
   1.91780E+01  1.53540E+01  1.61833E+01  1.60184E+01  1.62114E+01  1.72853E+01  1.94987E+01  2.22988E+01  2.22028E+01  2.00017E+01
   1.98784E+01  2.27610E+01  2.15934E+01  1.93561E+01  1.77193E+01  1.94382E+01  1.98816E+01  1.98243E+01  2.22001E+01  2.42958E+01
   2.32857E+01  1.94473E+01  1.53530E+01  1.57686E+01  1.53224E+01  1.36456E+01  1.27980E+01  1.47491E+01  1.51743E+01  1.54948E+01
   1.82703E+01  2.14531E+01  2.34129E+01  2.76128E+01  4.02817E+01  4.14607E+01  3.25134E+01  3.99983E+01  6.04836E+01  7.96776E+01
   8.24632E+01  7.84085E+01  7.10504E+01  6.56354E+01  5.87976E+01  4.39910E+01  4.10818E+01  3.82293E+01  2.05599E+01  1.54168E+01
   1.46475E+01  1.42529E+01  1.40702E+01  1.44927E+01  1.47211E+01  1.48645E+01  1.49982E+01  1.51399E+01  1.50141E+01  1.49198E+01
   1.48929E+01  1.46573E+01  1.44561E+01  1.44018E+01  1.43628E+01  1.43845E+01  1.44647E+01  1.45277E+01  1.46729E+01  1.48109E+01
   1.49014E+01  1.50055E+01  1.51148E+01  1.52007E+01  1.52650E+01  1.53540E+01  1.54706E+01  1.55626E+01  1.56605E+01  1.57832E+01
   1.58831E+01  1.59930E+01  1.61048E+01  1.62141E+01  1.63231E+01  1.64324E+01  1.65466E+01  1.66708E+01  1.68109E+01  1.69809E+01
   1.71822E+01  1.74263E+01  1.77293E+01  1.81034E+01  1.85682E+01  1.91431E+01  1.98512E+01  2.07238E+01  2.18085E+01  2.31911E+01
   2.50746E+01  2.79468E+01  2.98565E+01  2.77850E+01  3.09805E+01  3.61272E+01  3.96102E+01  3.69883E+01  3.25444E+01  2.98774E+01
   3.19848E+01  2.98768E+01  2.54802E+01  2.54511E+01  3.41197E+01  3.75798E+01  4.29149E+01  4.79680E+01  5.10475E+01  5.41170E+01
   5.56683E+01  5.41046E+01  5.62486E+01  5.35635E+01  5.12278E+01  5.06844E+01  4.93029E+01  4.56984E+01  4.20452E+01  4.01832E+01
   3.81344E+01  3.45490E+01  3.14485E+01  3.17184E+01  3.32066E+01  3.21835E+01  3.25713E+01  3.24898E+01  3.21656E+01  3.16731E+01
   2.96645E+01  2.87289E+01  2.80143E+01  2.54671E+01  2.35997E+01  2.21688E+01  2.09399E+01  1.98437E+01  1.88530E+01  1.79551E+01
   1.71428E+01  1.64110E+01  1.57554E+01  1.51720E+01  1.46572E+01  1.42079E+01  1.38209E+01  1.34927E+01  1.32200E+01  1.30000E+01
   1.28305E+01  1.27094E+01  1.26351E+01  1.26057E+01  1.26197E+01  1.26762E+01  1.27745E+01  1.29137E+01  1.30922E+01  1.33084E+01
   1.35603E+01  1.38454E+01  1.41607E+01  1.45018E+01  1.48633E+01  1.52388E+01  1.56215E+01  1.60034E+01  1.63762E+01  1.67302E+01
   1.70560E+01  1.73440E+01  1.75857E+01  1.77733E+01  1.78997E+01  1.79592E+01  1.79480E+01  1.78642E+01  1.77081E+01  1.74820E+01
   1.71895E+01  1.68358E+01  1.64279E+01  1.59739E+01  1.54827E+01  1.49634E+01  1.44248E+01  1.38755E+01  1.33239E+01  1.27774E+01
   1.22429E+01  1.17254E+01  1.12291E+01  1.07573E+01  1.03124E+01  9.89601E+00  9.50861E+00  9.14985E+00  8.81885E+00  8.51457E+00
   8.23585E+00  7.98117E+00  7.74865E+00  7.53622E+00  7.34200E+00  7.16443E+00  7.00211E+00  6.85352E+00  6.71699E+00  6.59099E+00
   6.47445E+00  6.36653E+00  6.26643E+00  6.17322E+00  6.08592E+00  6.00377E+00  5.92633E+00  5.85331E+00  5.78435E+00  5.71885E+00
   5.65622E+00  5.59617E+00  5.53868E+00  5.48369E+00  5.43089E+00  5.37989E+00  5.33036E+00  5.28229E+00  5.23578E+00  5.19079E+00
   5.14704E+00  5.10419E+00  5.06217E+00  5.02112E+00  4.98114E+00  4.94214E+00  4.90379E+00  4.86593E+00  4.82860E+00  4.79197E+00
   4.75614E+00  4.72091E+00  4.68600E+00  4.65136E+00  4.61716E+00  4.58357E+00  4.55056E+00  4.51791E+00  4.48540E+00  4.45309E+00
   4.42122E+00  4.38990E+00  4.35899E+00  4.32825E+00  4.29761E+00  4.26722E+00  4.23731E+00  4.20790E+00  4.17879E+00  4.14980E+00
   4.12095E+00  4.09248E+00  4.06457E+00  4.03715E+00  4.01002E+00  3.98307E+00  3.95647E+00  3.93049E+00
 NY background values follow
     3.465E+01    3.455E+01    3.445E+01    3.435E+01    3.425E+01    3.415E+01    3.405E+01    3.395E+01    3.384E+01    3.374E+01
     3.364E+01    3.354E+01    3.344E+01    3.334E+01    3.324E+01    3.314E+01    3.304E+01    3.294E+01    3.284E+01    3.274E+01
     3.264E+01    3.254E+01    3.244E+01    3.234E+01    3.224E+01    3.214E+01    3.204E+01    3.194E+01    3.184E+01    3.174E+01
     3.164E+01    3.154E+01    3.144E+01    3.134E+01    3.124E+01    3.114E+01    3.104E+01    3.094E+01    3.084E+01    3.074E+01
     3.064E+01    3.054E+01    3.044E+01    3.034E+01    3.024E+01    3.014E+01    3.004E+01    2.994E+01    2.985E+01    2.975E+01
     2.965E+01    2.955E+01    2.945E+01    2.935E+01    2.925E+01    2.915E+01    2.905E+01    2.896E+01    2.886E+01    2.876E+01
     2.866E+01    2.856E+01    2.847E+01    2.837E+01    2.827E+01    2.817E+01    2.807E+01    2.798E+01    2.788E+01    2.778E+01
     2.768E+01    2.759E+01    2.749E+01    2.739E+01    2.730E+01    2.720E+01    2.710E+01    2.701E+01    2.691E+01    2.681E+01
     2.672E+01    2.662E+01    2.653E+01    2.643E+01    2.634E+01    2.624E+01    2.615E+01    2.605E+01    2.596E+01    2.586E+01
     2.577E+01    2.567E+01    2.558E+01    2.548E+01    2.539E+01    2.529E+01    2.520E+01    2.511E+01    2.501E+01    2.492E+01
     2.483E+01    2.473E+01    2.464E+01    2.455E+01    2.446E+01    2.437E+01    2.427E+01    2.418E+01    2.409E+01    2.400E+01
     2.391E+01    2.382E+01    2.372E+01    2.363E+01    2.354E+01    2.345E+01    2.336E+01    2.327E+01    2.318E+01    2.309E+01
     2.300E+01    2.291E+01    2.283E+01    2.274E+01    2.265E+01    2.256E+01    2.247E+01    2.238E+01    2.230E+01    2.221E+01
     2.212E+01    2.203E+01    2.195E+01    2.186E+01    2.177E+01    2.169E+01    2.160E+01    2.152E+01    2.143E+01    2.134E+01
     2.126E+01    2.117E+01    2.109E+01    2.100E+01    2.092E+01    2.084E+01    2.075E+01    2.067E+01    2.059E+01    2.050E+01
     2.042E+01    2.034E+01    2.026E+01    2.017E+01    2.009E+01    2.001E+01    1.993E+01    1.985E+01    1.977E+01    1.969E+01
     1.961E+01    1.953E+01    1.945E+01    1.937E+01    1.929E+01    1.921E+01    1.913E+01    1.905E+01    1.898E+01    1.890E+01
     1.882E+01    1.874E+01    1.867E+01    1.859E+01    1.851E+01    1.844E+01    1.836E+01    1.829E+01    1.821E+01    1.814E+01
     1.806E+01    1.799E+01    1.791E+01    1.784E+01    1.777E+01    1.770E+01    1.762E+01    1.755E+01    1.748E+01    1.741E+01
     1.734E+01    1.726E+01    1.719E+01    1.712E+01    1.705E+01    1.698E+01    1.691E+01    1.684E+01    1.678E+01    1.671E+01
     1.664E+01    1.657E+01    1.650E+01    1.644E+01    1.637E+01    1.630E+01    1.623E+01    1.617E+01    1.610E+01    1.604E+01
     1.597E+01    1.591E+01    1.584E+01    1.578E+01    1.571E+01    1.565E+01    1.559E+01    1.552E+01    1.546E+01    1.540E+01
     1.533E+01    1.527E+01    1.521E+01    1.515E+01    1.509E+01    1.503E+01    1.497E+01    1.491E+01    1.485E+01    1.479E+01
     1.473E+01    1.467E+01    1.461E+01    1.455E+01    1.449E+01    1.443E+01    1.438E+01    1.432E+01    1.426E+01    1.420E+01
     1.415E+01    1.409E+01    1.403E+01    1.398E+01    1.392E+01    1.387E+01    1.381E+01    1.376E+01    1.370E+01    1.365E+01
     1.359E+01    1.354E+01    1.349E+01    1.343E+01    1.338E+01    1.333E+01    1.327E+01    1.322E+01    1.317E+01    1.312E+01
     1.307E+01    1.301E+01    1.296E+01    1.291E+01    1.286E+01    1.281E+01    1.276E+01    1.271E+01    1.266E+01    1.261E+01
     1.256E+01    1.251E+01    1.246E+01    1.241E+01    1.236E+01    1.231E+01    1.227E+01    1.222E+01    1.217E+01    1.212E+01
     1.207E+01    1.203E+01    1.198E+01    1.193E+01    1.188E+01    1.184E+01    1.179E+01    1.174E+01    1.170E+01    1.165E+01
     1.161E+01    1.156E+01    1.151E+01    1.147E+01    1.142E+01    1.138E+01    1.133E+01    1.129E+01    1.124E+01    1.120E+01
     1.115E+01    1.111E+01    1.107E+01    1.102E+01    1.098E+01    1.094E+01    1.089E+01    1.085E+01    1.081E+01    1.076E+01
     1.072E+01    1.068E+01    1.063E+01    1.059E+01    1.055E+01    1.051E+01    1.046E+01    1.042E+01    1.038E+01    1.034E+01
     1.030E+01    1.026E+01    1.021E+01    1.017E+01    1.013E+01    1.009E+01    1.005E+01    1.001E+01    9.968E+00    9.927E+00
     9.887E+00    9.846E+00    9.806E+00    9.766E+00    9.726E+00    9.686E+00    9.646E+00    9.607E+00    9.567E+00    9.528E+00
     9.488E+00    9.449E+00    9.410E+00    9.371E+00    9.332E+00    9.293E+00    9.254E+00    9.216E+00    9.177E+00    9.139E+00
     9.101E+00    9.063E+00    9.025E+00    8.987E+00    8.949E+00    8.911E+00    8.873E+00    8.836E+00    8.798E+00    8.761E+00
     8.724E+00    8.687E+00    8.650E+00    8.613E+00    8.576E+00    8.539E+00    8.502E+00    8.466E+00    8.429E+00    8.393E+00
     8.357E+00    8.321E+00    8.284E+00    8.248E+00    8.213E+00    8.177E+00    8.141E+00    8.105E+00    8.070E+00    8.035E+00
     7.999E+00    7.964E+00    7.929E+00    7.894E+00    7.859E+00    7.824E+00    7.789E+00    7.754E+00    7.720E+00    7.685E+00
     7.651E+00    7.616E+00    7.582E+00    7.548E+00    7.513E+00    7.479E+00    7.445E+00    7.412E+00    7.378E+00    7.344E+00
     7.310E+00    7.277E+00    7.243E+00    7.210E+00    7.176E+00    7.143E+00    7.110E+00    7.077E+00    7.044E+00    7.011E+00
     6.978E+00    6.945E+00    6.912E+00    6.880E+00    6.847E+00    6.815E+00    6.782E+00    6.750E+00    6.717E+00    6.685E+00
     6.653E+00    6.621E+00    6.589E+00    6.556E+00    6.524E+00    6.493E+00    6.461E+00    6.429E+00    6.397E+00    6.365E+00
     6.334E+00    6.302E+00    6.270E+00    6.239E+00    6.207E+00    6.176E+00    6.144E+00    6.113E+00    6.082E+00    6.050E+00
     6.019E+00    5.988E+00    5.957E+00    5.925E+00    5.894E+00    5.863E+00    5.832E+00    5.801E+00    5.770E+00    5.739E+00
     5.708E+00    5.677E+00    5.646E+00    5.615E+00    5.584E+00    5.553E+00    5.523E+00    5.492E+00    5.461E+00    5.430E+00
     5.399E+00    5.369E+00    5.338E+00    5.307E+00    5.276E+00    5.246E+00    5.215E+00    5.184E+00    5.154E+00    5.123E+00
     5.092E+00    5.062E+00    5.031E+00    5.000E+00    4.970E+00    4.939E+00    4.909E+00    4.878E+00    4.847E+00    4.817E+00
     4.786E+00    4.756E+00    4.725E+00    4.695E+00    4.664E+00    4.634E+00    4.603E+00    4.573E+00    4.542E+00    4.512E+00
     4.481E+00    4.451E+00    4.420E+00    4.390E+00    4.359E+00    4.328E+00    4.298E+00    4.267E+00
 Ala      Conc. = 1.20E+03
