 LCModel (Version 6.3-1L) Copyright: S.W. Provencher.          Ref.: Magn. Reson. Med. 30:672-679 (1993).                
 Slice#1 Row#11 Col#6  PD_05_press_2_raw_act
 36 lines in following concentration table = NCONC+1
    Conc.  %SD /Cr+PCr  Metabolite                                         
    0.000 999%   0.000 Ala                                                 
   39.080 177%   0.125 Asp                                                 
    0.000 999%   0.000 Cr                                                  
  312.605  15%   1.000 PCr                                                 
   35.239 119%   0.113 GABA                                                
   26.500 158% 8.5E-02 Glc                                                 
  119.420 173%   0.382 Gln                                                 
  276.513  83%   0.885 Glu                                                 
    0.000 999%   0.000 GPC                                                 
   82.173  20%   0.263 PCh                                                 
  122.923  55%   0.393 GSH                                                 
    0.000 999%   0.000 Ins                                                 
    0.000 999%   0.000 Lac                                                 
  623.708   9%   1.995 NAA                                                 
    0.000 999%   0.000 NAAG                                                
   24.845  50% 7.9E-02 Scyllo                                              
  100.221  68%   0.321 Tau                                                 
  352.635  21%   1.128 -CrCH2                                              
   82.173  20%   0.263 GPC+PCh                                             
  623.708   9%   1.995 NAA+NAAG                                            
  312.605  15%   1.000 Cr+PCr                                              
  395.933  80%   1.267 Glu+Gln                                             
   49.393 185%   0.158 Lip13a                                              
    0.000 999%   0.000 Lip13b                                              
    0.000 999%   0.000 Lip09                                               
  593.231  22%   1.898 MM09                                                
   10.502 218% 3.4E-02 Lip20                                               
  967.772  21%   3.096 MM20                                                
  178.452  26%   0.571 MM12                                                
  714.553  16%   2.286 MM14                                                
  188.156  48%   0.602 MM17                                                
   49.393 185%   0.158 Lip13a+Lip13b                                       
  942.398  17%   3.015 MM14+Lip13a+Lip13b+MM12                             
  593.231  22%   1.898 MM09+Lip09                                          
  978.274  21%   3.129 MM20+Lip20                                          
   6 lines in following misc. output table
  FWHM = 0.054 ppm    S/N =   3                                            
  Data shift = 0.015 ppm                                                   
  Ph: -40 deg     -14.6 deg/ppm                                            
  alphaB,S = 1.3E+00,   8.2E+01                                            
   14 spline knots.   Ns = 6(1)                                            
  (13) 2 infls.   (11) 1 extrs.                                            
  498 points on ppm-axis = NY
      4.000000     3.992357     3.984714     3.977070     3.969427     3.961784     3.954141     3.946497     3.938854     3.931211
      3.923568     3.915925     3.908281     3.900638     3.892995     3.885352     3.877708     3.870065     3.862422     3.854779
      3.847136     3.839492     3.831849     3.824206     3.816563     3.808919     3.801276     3.793633     3.785990     3.778347
      3.770703     3.763060     3.755417     3.747774     3.740130     3.732487     3.724844     3.717201     3.709558     3.701914
      3.694271     3.686628     3.678985     3.671341     3.663698     3.656055     3.648412     3.640769     3.633125     3.625482
      3.617839     3.610196     3.602552     3.594909     3.587266     3.579623     3.571980     3.564336     3.556693     3.549050
      3.541407     3.533763     3.526120     3.518477     3.510834     3.503191     3.495547     3.487904     3.480261     3.472618
      3.464974     3.457331     3.449688     3.442045     3.434402     3.426758     3.419115     3.411472     3.403829     3.396185
      3.388542     3.380899     3.373256     3.365613     3.357969     3.350326     3.342683     3.335040     3.327396     3.319753
      3.312110     3.304467     3.296824     3.289180     3.281537     3.273894     3.266251     3.258607     3.250964     3.243321
      3.235678     3.228034     3.220391     3.212748     3.205105     3.197462     3.189818     3.182175     3.174532     3.166889
      3.159245     3.151602     3.143959     3.136316     3.128673     3.121029     3.113386     3.105743     3.098100     3.090456
      3.082813     3.075170     3.067527     3.059884     3.052240     3.044597     3.036954     3.029311     3.021667     3.014024
      3.006381     2.998738     2.991095     2.983451     2.975808     2.968165     2.960522     2.952878     2.945235     2.937592
      2.929949     2.922306     2.914662     2.907019     2.899376     2.891733     2.884089     2.876446     2.868803     2.861160
      2.853517     2.845873     2.838230     2.830587     2.822944     2.815300     2.807657     2.800014     2.792371     2.784728
      2.777084     2.769441     2.761798     2.754155     2.746511     2.738868     2.731225     2.723582     2.715939     2.708295
      2.700652     2.693009     2.685366     2.677722     2.670079     2.662436     2.654793     2.647150     2.639506     2.631863
      2.624220     2.616577     2.608933     2.601290     2.593647     2.586004     2.578361     2.570717     2.563074     2.555431
      2.547788     2.540144     2.532501     2.524858     2.517215     2.509572     2.501928     2.494285     2.486642     2.478999
      2.471355     2.463712     2.456069     2.448426     2.440783     2.433139     2.425496     2.417853     2.410210     2.402566
      2.394923     2.387280     2.379637     2.371994     2.364350     2.356707     2.349064     2.341421     2.333777     2.326134
      2.318491     2.310848     2.303205     2.295561     2.287918     2.280275     2.272632     2.264988     2.257345     2.249702
      2.242059     2.234416     2.226772     2.219129     2.211486     2.203843     2.196199     2.188556     2.180913     2.173270
      2.165627     2.157983     2.150340     2.142697     2.135054     2.127410     2.119767     2.112124     2.104481     2.096838
      2.089194     2.081551     2.073908     2.066265     2.058621     2.050978     2.043335     2.035692     2.028049     2.020405
      2.012762     2.005119     1.997476     1.989833     1.982190     1.974546     1.966903     1.959260     1.951617     1.943974
      1.936331     1.928688     1.921045     1.913402     1.905759     1.898115     1.890472     1.882829     1.875186     1.867543
      1.859900     1.852257     1.844614     1.836971     1.829327     1.821684     1.814041     1.806398     1.798755     1.791112
      1.783469     1.775826     1.768183     1.760540     1.752896     1.745253     1.737610     1.729967     1.722324     1.714681
      1.707038     1.699395     1.691752     1.684108     1.676465     1.668822     1.661179     1.653536     1.645893     1.638250
      1.630607     1.622964     1.615321     1.607677     1.600034     1.592391     1.584748     1.577105     1.569462     1.561819
      1.554176     1.546533     1.538890     1.531246     1.523603     1.515960     1.508317     1.500674     1.493031     1.485388
      1.477745     1.470102     1.462458     1.454815     1.447172     1.439529     1.431886     1.424243     1.416600     1.408957
      1.401314     1.393671     1.386027     1.378384     1.370741     1.363098     1.355455     1.347812     1.340169     1.332526
      1.324883     1.317240     1.309596     1.301953     1.294310     1.286667     1.279024     1.271381     1.263738     1.256095
      1.248452     1.240808     1.233165     1.225522     1.217879     1.210236     1.202593     1.194950     1.187307     1.179664
      1.172021     1.164377     1.156734     1.149091     1.141448     1.133805     1.126162     1.118519     1.110876     1.103233
      1.095590     1.087946     1.080303     1.072660     1.065017     1.057374     1.049731     1.042088     1.034445     1.026802
      1.019158     1.011515     1.003872     0.996229     0.988586     0.980943     0.973300     0.965657     0.958014     0.950371
      0.942727     0.935084     0.927441     0.919798     0.912155     0.904512     0.896869     0.889226     0.881583     0.873940
      0.866296     0.858653     0.851010     0.843367     0.835724     0.828081     0.820438     0.812795     0.805152     0.797508
      0.789865     0.782222     0.774579     0.766936     0.759293     0.751650     0.744007     0.736364     0.728721     0.721077
      0.713434     0.705791     0.698148     0.690505     0.682862     0.675219     0.667576     0.659933     0.652290     0.644646
      0.637003     0.629360     0.621717     0.614074     0.606431     0.598788     0.591145     0.583502     0.575858     0.568215
      0.560572     0.552929     0.545286     0.537643     0.530000     0.522357     0.514714     0.507071     0.499427     0.491784
      0.484141     0.476498     0.468855     0.461212     0.453569     0.445925     0.438282     0.430639     0.422996     0.415353
      0.407710     0.400067     0.392424     0.384780     0.377137     0.369494     0.361851     0.354208     0.346565     0.338922
      0.331278     0.323635     0.315992     0.308349     0.300706     0.293063     0.285420     0.277777     0.270133     0.262490
      0.254847     0.247204     0.239561     0.231918     0.224275     0.216631     0.208988     0.201345
 NY phased data points follow
  -2.52563E+01 -2.57734E+01 -2.59026E+01 -2.16500E+01 -2.44055E+01 -1.85867E+01 -2.43264E+01 -1.77655E+01 -1.98947E+01 -1.76503E+01
  -1.81248E+01 -1.21971E+01 -1.78760E+01 -1.71612E+01 -1.85392E+01 -2.15260E+01 -1.93634E+01 -1.16392E+01 -1.79820E+01 -1.81172E+01
  -1.54489E+01 -1.96985E+01 -1.93914E+01 -1.43177E+01 -2.02924E+01 -1.56989E+01 -2.09549E+01 -1.24016E+01 -1.38138E+01 -1.71455E+01
  -9.12852E+00 -1.27618E+01 -1.27812E+01 -8.70018E+00 -1.27548E+01 -9.28398E+00 -9.83044E+00 -8.29035E+00 -1.43759E+01 -1.00181E+01
  -1.31129E+01 -5.44063E+00 -9.16765E+00 -7.10298E+00 -1.23868E+01 -1.18596E+01 -1.00691E+01 -1.32625E+01 -1.09334E+01 -1.05036E+01
  -1.89844E+01 -9.83800E+00 -1.14958E+01 -8.80010E+00 -1.08962E+01 -1.36660E+01 -9.28688E+00 -7.36792E+00 -1.22674E+01 -1.19566E+01
  -1.32793E+01 -1.30768E+01 -1.35787E+01 -1.08383E+01 -1.71417E+01 -1.19372E+01 -1.25309E+01 -1.23485E+01 -7.49400E+00 -1.16354E+01
  -1.98199E+01 -1.12184E+01 -4.90584E+00 -5.55877E+00 -1.15092E+01 -6.15781E+00 -1.64973E+01 -7.46400E+00 -1.18709E+01 -9.38927E+00
  -8.92172E+00 -8.77265E+00 -9.91035E+00 -6.32393E+00 -5.39457E+00 -9.08215E+00 -4.59806E+00 -9.45438E+00 -6.05384E+00 -5.74218E+00
  -7.01920E+00 -1.75710E+00 -6.96466E+00 -2.91280E+00 -7.88127E+00 -1.84297E+00 -7.11351E+00 -6.86259E+00 -1.89048E+00 -2.34786E+00
  -5.50248E+00  6.14828E-01 -3.08429E+00  1.75141E+00 -2.43802E-01 -2.21516E+00 -3.69088E+00 -5.77649E+00 -4.01578E+00 -3.53988E+00
  -9.44136E+00 -3.17736E+00 -5.17430E+00 -4.78913E+00 -8.22579E+00 -6.14576E+00 -1.81114E+00 -2.87227E+00 -9.34541E+00 -2.35473E+00
  -4.58248E+00 -7.07218E+00 -2.21307E-01 -1.06666E+00 -3.23438E+00  2.38049E+00  4.49568E+00  4.94583E+00  9.09870E+00  4.48369E+00
  -5.13726E-01  1.95356E+00  1.58137E+00 -6.10438E-01 -4.77373E+00 -4.21906E+00 -3.66518E+00 -4.36682E+00 -7.30911E+00 -5.51118E+00
  -3.58411E+00 -4.77220E+00 -4.27625E+00  2.56136E+00 -1.61802E+00 -3.97497E+00 -9.91083E+00 -4.42627E+00 -4.65627E+00 -2.17725E+00
  -5.37860E+00 -3.64509E+00 -8.36282E+00 -3.81283E+00 -3.72534E-01 -4.62674E+00 -5.46093E-01 -1.77598E+00 -3.12900E+00 -2.38180E+00
  -2.62760E+00 -5.34301E+00 -2.01753E+00 -5.95862E+00 -4.95397E+00 -4.93477E+00 -3.59728E+00 -2.71784E+00 -6.79858E+00 -3.16895E+00
  -3.73773E+00 -5.08655E+00 -6.36230E+00 -3.89853E+00 -8.23633E+00 -2.36072E+00 -8.68225E+00 -9.57829E+00 -9.37521E+00 -5.78301E+00
  -1.77920E+00 -6.64333E+00 -6.84018E+00 -2.60050E-01 -5.87921E+00  3.25013E+00 -8.71689E+00 -8.13436E+00 -4.87420E+00 -1.85993E+00
  -7.73862E+00 -6.50399E+00 -5.69143E+00 -1.42223E+00 -1.06746E+01 -9.24133E+00 -7.37207E+00 -7.59424E+00 -2.77414E+00 -5.65439E+00
  -3.02705E+00 -4.25418E+00 -2.08556E+00 -1.62735E+00 -2.97172E+00 -9.03075E-01 -2.17786E+00 -1.12048E+00  1.90103E+00 -2.04245E+00
  -7.72012E+00  1.17186E+00 -4.58739E+00 -1.96983E+00  2.48031E+00  5.73004E-01  7.52411E-01 -1.66302E+00  6.37725E-01  6.02819E-01
  -7.12158E+00  1.53169E+00  4.11628E-01 -1.41757E+00 -3.84765E+00 -6.46796E+00  3.65219E+00 -7.11954E+00  2.62063E+00  4.67587E-01
  -8.76481E-01 -2.89424E+00  1.09986E+00  3.76858E+00  4.75214E+00  1.32669E+00 -1.96639E-01  1.64627E-01  2.37250E+00  5.29576E+00
  -5.82214E-01  1.80968E+00  6.35748E-01  2.16677E-01 -9.11700E-01  5.06107E+00 -1.73286E+00  7.07861E+00  9.70580E-01  1.48655E+00
   3.92555E+00  5.68504E+00 -1.81165E+00  2.71982E+00  7.48848E+00  4.01112E+00  3.28146E+00  1.15494E+01  1.38185E+01  2.02317E+01
   2.27393E+01  2.49660E+01  2.51436E+01  1.83969E+01  5.29594E+00  6.97395E+00  7.74119E+00  5.41265E+00  7.44452E+00  5.29193E+00
   1.19393E+00 -3.03463E+00  8.79605E-01  6.14542E+00  4.27409E+00 -7.66014E-01  3.61378E+00 -2.31255E+00  7.97036E-01  1.10774E+00
  -3.93254E+00 -5.81068E+00  1.99187E+00 -1.58502E+00 -3.44876E-01  1.30761E+00  5.00007E-02  3.25329E+00 -7.23162E-01  3.98038E+00
   1.48909E+00  1.18268E-01 -1.70498E+00 -3.90826E+00 -4.38851E+00 -1.36686E+00 -2.61917E+00  1.57745E+00  3.18831E+00  4.04912E-01
  -4.91660E+00  6.71796E-01  2.75673E-01 -4.64760E-02  5.94081E+00 -3.48722E-02 -9.45653E-01 -2.28748E+00 -6.10988E-01 -6.69597E-01
  -4.13030E+00 -1.14468E+00 -3.55007E+00 -3.05634E+00 -2.11733E+00 -1.12846E+00  1.22361E+00  7.65384E-02  3.74305E+00  2.10662E+00
   5.30264E-01 -6.27736E+00 -5.15092E+00 -1.80718E+00 -3.43058E+00 -2.36898E+00 -2.73505E+00  8.67191E-01  1.08921E-02 -9.23255E+00
   5.78008E+00  4.23716E+00  4.19045E+00  4.38695E+00  1.26039E+01  7.04327E+00  3.59534E+00 -2.98325E+00  3.80612E+00  1.04426E+01
   5.45874E+00  1.02868E+01  1.00119E+01  2.93962E+00  9.45677E+00  9.30379E+00  1.14759E+01  5.35950E+00  1.01702E+01  5.30972E+00
   1.22704E+01  8.95674E+00  3.80404E+00 -2.68957E+00  1.94782E+00  1.74115E+00 -8.38698E+00  1.02838E+00 -2.87061E-01 -1.63105E+00
  -4.69947E-01 -2.11382E+00 -9.22565E-01 -5.36742E+00 -5.71685E-01  4.55668E+00 -5.70820E-01 -7.33677E-01  1.97319E+00  3.27015E+00
   6.51949E+00  1.47320E+00 -3.95155E+00 -6.83741E-01 -9.01035E-01  2.89393E+00  3.19347E+00  6.51923E+00  7.08288E+00  2.89555E+00
  -1.30771E-01  8.09494E-01  2.65517E+00  5.44744E-02  2.91597E+00 -3.85551E+00 -1.11559E+00 -8.75531E-01 -2.35538E+00 -9.57154E-01
  -3.94847E+00 -4.21104E+00 -1.14917E-01  2.02520E+00  4.33146E+00  1.20428E+00 -1.99111E+00  2.73737E+00  3.56324E+00  9.82372E-01
   6.75859E-01  2.07188E+00 -2.03912E+00 -1.86315E+00  4.94620E+00  2.51046E+00 -1.22729E+00 -1.10467E+00  4.57721E-01 -2.55030E+00
  -1.53158E+00 -2.51287E-01  3.10262E+00  2.59003E+00 -9.31052E-01  1.59714E+00  1.86022E-01  2.88685E+00  4.76495E+00 -1.91328E+00
   1.66532E+00  3.36643E+00  5.76434E-02 -6.27776E-01  3.89170E+00  4.45677E+00 -1.22690E+00 -4.17168E+00  3.31918E+00 -1.83668E+00
  -7.06676E-01 -3.09482E-01 -3.08294E+00  3.95312E+00 -4.11635E+00 -8.38973E-01 -5.55454E-01 -4.86074E-01  2.45874E+00  8.04889E-01
  -5.73462E+00  3.77213E+00 -4.38703E+00  6.02355E-01 -3.49145E+00  3.39483E-01  7.03295E-02  1.09097E+00  1.28791E+00 -4.44544E+00
   4.16428E+00  4.47560E-01  1.85350E+00 -3.16333E+00  1.37059E+00  6.99836E-01 -3.08650E+00 -3.21685E+00 -1.65672E+00 -1.89295E+00
   1.33982E+00  2.56660E+00  3.50484E+00 -3.25152E+00 -3.87976E+00 -2.56845E+00 -1.65374E+00 -3.90156E-01  1.75072E+00 -2.28239E-01
  -1.00724E+00 -3.17689E+00  3.18769E+00 -1.89479E+00  3.64774E+00 -1.31834E+00  3.61032E+00 -4.72964E+00 -5.31638E-01  1.95831E+00
   1.65956E+00  5.53686E+00  1.26099E+00 -6.49409E-01  1.19682E+00  3.55745E+00  6.05941E+00 -1.47646E+00  3.02342E-01 -2.80520E-01
  -3.79461E+00  1.24454E+00  1.53215E+00  2.48860E+00 -4.36626E+00 -2.41662E+00 -3.17839E+00  1.89763E+00
 NY points of the fit to the data follow
  -1.67236E+01 -1.66560E+01 -1.67446E+01 -1.70205E+01 -1.73198E+01 -1.76008E+01 -1.77988E+01 -1.78173E+01 -1.75795E+01 -1.70716E+01
  -1.63938E+01 -1.57551E+01 -1.53493E+01 -1.51564E+01 -1.50386E+01 -1.49455E+01 -1.50182E+01 -1.51353E+01 -1.50793E+01 -1.49654E+01
  -1.48230E+01 -1.46809E+01 -1.45690E+01 -1.45002E+01 -1.43829E+01 -1.41343E+01 -1.37230E+01 -1.31357E+01 -1.23998E+01 -1.16066E+01
  -1.09078E+01 -1.04840E+01 -1.04604E+01 -1.08181E+01 -1.13946E+01 -1.20351E+01 -1.26523E+01 -1.31441E+01 -1.33701E+01 -1.33483E+01
  -1.32007E+01 -1.30048E+01 -1.28228E+01 -1.26871E+01 -1.26037E+01 -1.25584E+01 -1.25351E+01 -1.25201E+01 -1.24843E+01 -1.24219E+01
  -1.23408E+01 -1.22496E+01 -1.21521E+01 -1.20600E+01 -1.19760E+01 -1.19020E+01 -1.18370E+01 -1.17753E+01 -1.17113E+01 -1.16444E+01
  -1.15630E+01 -1.14637E+01 -1.13537E+01 -1.12358E+01 -1.11172E+01 -1.10115E+01 -1.09251E+01 -1.08614E+01 -1.08179E+01 -1.07728E+01
  -1.06951E+01 -1.05785E+01 -1.04277E+01 -1.02588E+01 -1.00989E+01 -9.98202E+00 -9.92802E+00 -9.93089E+00 -9.97100E+00 -9.99869E+00
  -9.92617E+00 -9.71173E+00 -9.38417E+00 -8.97248E+00 -8.52596E+00 -8.12820E+00 -7.84525E+00 -7.73038E+00 -7.80549E+00 -8.02459E+00
  -8.29546E+00 -8.55971E+00 -8.79542E+00 -8.96658E+00 -9.01110E+00 -8.91006E+00 -8.63091E+00 -7.95780E+00 -6.82788E+00 -5.35254E+00
  -3.67158E+00 -2.00066E+00 -6.22194E-01  1.62324E-01  1.31138E-01 -7.05073E-01 -2.02572E+00 -3.40853E+00 -4.64341E+00 -5.71164E+00
  -6.53653E+00 -6.92637E+00 -7.02194E+00 -7.03311E+00 -7.01401E+00 -6.98099E+00 -6.93268E+00 -6.87678E+00 -6.81228E+00 -6.71999E+00
  -6.50495E+00 -5.83860E+00 -4.55814E+00 -2.76569E+00 -6.21917E-01  1.60228E+00  3.51377E+00  4.68621E+00  4.81288E+00  3.87636E+00
   2.23927E+00  4.23041E-01 -1.27713E+00 -2.83449E+00 -4.15663E+00 -4.95449E+00 -5.32641E+00 -5.50859E+00 -5.52945E+00 -5.41605E+00
  -5.22262E+00 -5.00440E+00 -4.80835E+00 -4.68379E+00 -4.64372E+00 -4.67039E+00 -4.74124E+00 -4.83122E+00 -4.91643E+00 -4.99048E+00
  -5.04061E+00 -5.07375E+00 -5.09258E+00 -5.09530E+00 -5.08289E+00 -5.07753E+00 -5.09828E+00 -5.14518E+00 -5.21216E+00 -5.27583E+00
  -5.31243E+00 -5.30678E+00 -5.24582E+00 -5.13864E+00 -5.01954E+00 -4.93505E+00 -4.91330E+00 -4.94605E+00 -5.00661E+00 -5.08545E+00
  -5.18288E+00 -5.29872E+00 -5.40754E+00 -5.47978E+00 -5.51717E+00 -5.53427E+00 -5.52361E+00 -5.47184E+00 -5.38334E+00 -5.28740E+00
  -5.21877E+00 -5.19064E+00 -5.17556E+00 -5.13434E+00 -5.06227E+00 -4.94805E+00 -4.73953E+00 -4.41578E+00 -3.99995E+00 -3.56222E+00
  -3.18127E+00 -2.90891E+00 -2.78532E+00 -2.80537E+00 -2.92991E+00 -3.11149E+00 -3.28001E+00 -3.36249E+00 -3.31285E+00 -3.11188E+00
  -2.77838E+00 -2.38124E+00 -2.01228E+00 -1.74520E+00 -1.65102E+00 -1.75649E+00 -2.05558E+00 -2.48956E+00 -2.94588E+00 -3.30344E+00
  -3.44765E+00 -3.32842E+00 -2.96070E+00 -2.42884E+00 -1.85993E+00 -1.39080E+00 -1.14667E+00 -1.21048E+00 -1.56793E+00 -2.05507E+00
  -2.49877E+00 -2.79902E+00 -2.87901E+00 -2.68948E+00 -2.24357E+00 -1.68794E+00 -1.19790E+00 -8.52472E-01 -6.49872E-01 -5.62073E-01
  -5.70095E-01 -6.04552E-01 -5.52607E-01 -3.68525E-01 -9.50325E-02  2.11400E-01  4.95875E-01  6.99304E-01  7.90953E-01  7.58369E-01
   6.38029E-01  5.18761E-01  4.85038E-01  5.66966E-01  7.50788E-01  1.02506E+00  1.35037E+00  1.65004E+00  1.87959E+00  2.05119E+00
   2.18973E+00  2.30295E+00  2.43268E+00  2.67821E+00  3.47467E+00  5.38735E+00  8.31809E+00  1.19873E+01  1.59686E+01  1.95873E+01
   2.20091E+01  2.25080E+01  2.08060E+01  1.73846E+01  1.33105E+01  9.48738E+00  6.16495E+00  3.38056E+00  1.55623E+00  8.51353E-01
   5.45911E-01  3.64993E-01  2.61949E-01  2.06550E-01  1.70372E-01  1.37487E-01  9.31687E-02  2.89220E-02 -5.45676E-02 -1.49164E-01
  -2.45305E-01 -3.30950E-01 -3.95953E-01 -4.37752E-01 -4.56652E-01 -4.56218E-01 -4.42268E-01 -4.19760E-01 -3.92384E-01 -3.63282E-01
  -3.32068E-01 -2.98959E-01 -2.64391E-01 -2.27800E-01 -1.88184E-01 -1.46539E-01 -1.04205E-01 -6.23700E-02 -2.20225E-02  1.48074E-02
   4.68187E-02  7.29085E-02  9.20769E-02  1.03597E-01  1.07385E-01  1.03333E-01  9.20398E-02  7.41765E-02  5.10379E-02  2.38073E-02
  -5.80690E-03 -3.61433E-02 -6.50596E-02 -9.06135E-02 -1.10380E-01 -1.22154E-01 -1.23316E-01 -1.11465E-01 -8.38379E-02 -3.79646E-02
   2.88832E-02  1.19000E-01  2.34766E-01  3.77941E-01  5.50119E-01  7.51971E-01  9.83663E-01  1.24412E+00  1.53151E+00  1.84253E+00
   2.17298E+00  2.51716E+00  2.86855E+00  3.21935E+00  3.56140E+00  3.88582E+00  4.18398E+00  4.44734E+00  4.66839E+00  4.84047E+00
   4.95875E+00  5.01984E+00  5.02260E+00  4.96760E+00  4.85766E+00  4.69716E+00  4.49230E+00  4.25029E+00  3.97942E+00  3.68815E+00
   3.38522E+00  3.07873E+00  2.77634E+00  2.48449E+00  2.20869E+00  1.95292E+00  1.72014E+00  1.51178E+00  1.32844E+00  1.16948E+00
   1.03371E+00  9.19105E-01  8.23537E-01  7.44425E-01  6.79432E-01  6.26071E-01  5.82331E-01  5.46236E-01  5.16423E-01  4.91630E-01
   4.71208E-01  4.54577E-01  4.41707E-01  4.32575E-01  4.27634E-01  4.27254E-01  4.32184E-01  4.43004E-01  4.60600E-01  4.85648E-01
   5.19078E-01  5.61557E-01  6.13950E-01  6.76813E-01  7.50854E-01  8.36426E-01  9.33974E-01  1.04350E+00  1.16500E+00  1.29795E+00
   1.44173E+00  1.59512E+00  1.75673E+00  1.92453E+00  2.09626E+00  2.26906E+00  2.43994E+00  2.60538E+00  2.76194E+00  2.90583E+00
   3.03360E+00  3.14176E+00  3.22741E+00  3.28795E+00  3.32160E+00  3.32707E+00  3.30409E+00  3.25295E+00  3.17494E+00  3.07187E+00
   2.94639E+00  2.80143E+00  2.64051E+00  2.46716E+00  2.28519E+00  2.09811E+00  1.90944E+00  1.72217E+00  1.53913E+00  1.36250E+00
   1.19422E+00  1.03555E+00  8.87542E-01  7.50612E-01  6.25072E-01  5.10722E-01  4.07343E-01  3.14318E-01  2.31119E-01  1.56931E-01
   9.11136E-02  3.28077E-02 -1.86220E-02 -6.39921E-02 -1.03863E-01 -1.38947E-01 -1.69691E-01 -1.96694E-01 -2.20298E-01 -2.41003E-01
  -2.59052E-01 -2.74849E-01 -2.88552E-01 -3.00494E-01 -3.10776E-01 -3.19682E-01 -3.27261E-01 -3.33747E-01 -3.39152E-01 -3.43681E-01
  -3.47330E-01 -3.50278E-01 -3.52494E-01 -3.54136E-01 -3.55157E-01 -3.55709E-01 -3.55740E-01 -3.55390E-01 -3.54591E-01 -3.53471E-01
  -3.51961E-01 -3.50188E-01 -3.48081E-01 -3.45755E-01 -3.43131E-01 -3.40319E-01 -3.37242E-01 -3.34014E-01 -3.30555E-01 -3.26968E-01
  -3.23167E-01 -3.19255E-01 -3.15152E-01 -3.10962E-01 -3.06598E-01 -3.02159E-01 -2.97555E-01 -2.92887E-01 -2.88073E-01 -2.83212E-01
  -2.78213E-01 -2.73170E-01 -2.67994E-01 -2.62783E-01 -2.57452E-01 -2.52095E-01 -2.46620E-01 -2.41117E-01 -2.35499E-01 -2.29860E-01
  -2.24115E-01 -2.18351E-01 -2.12475E-01 -2.06574E-01 -2.00562E-01 -1.94529E-01 -1.88383E-01 -1.82207E-01
 NY background values follow
    -1.661E+01   -1.652E+01   -1.644E+01   -1.635E+01   -1.627E+01   -1.619E+01   -1.610E+01   -1.602E+01   -1.593E+01   -1.585E+01
    -1.577E+01   -1.568E+01   -1.560E+01   -1.551E+01   -1.543E+01   -1.535E+01   -1.526E+01   -1.518E+01   -1.509E+01   -1.501E+01
    -1.493E+01   -1.484E+01   -1.476E+01   -1.467E+01   -1.459E+01   -1.451E+01   -1.442E+01   -1.434E+01   -1.426E+01   -1.417E+01
    -1.409E+01   -1.401E+01   -1.392E+01   -1.384E+01   -1.376E+01   -1.368E+01   -1.359E+01   -1.351E+01   -1.343E+01   -1.334E+01
    -1.326E+01   -1.318E+01   -1.310E+01   -1.302E+01   -1.293E+01   -1.285E+01   -1.277E+01   -1.269E+01   -1.261E+01   -1.253E+01
    -1.245E+01   -1.236E+01   -1.228E+01   -1.220E+01   -1.212E+01   -1.204E+01   -1.196E+01   -1.188E+01   -1.180E+01   -1.172E+01
    -1.164E+01   -1.156E+01   -1.149E+01   -1.141E+01   -1.133E+01   -1.125E+01   -1.117E+01   -1.109E+01   -1.102E+01   -1.094E+01
    -1.086E+01   -1.078E+01   -1.071E+01   -1.063E+01   -1.055E+01   -1.048E+01   -1.040E+01   -1.033E+01   -1.025E+01   -1.018E+01
    -1.010E+01   -1.003E+01   -9.952E+00   -9.878E+00   -9.804E+00   -9.730E+00   -9.657E+00   -9.584E+00   -9.511E+00   -9.439E+00
    -9.367E+00   -9.295E+00   -9.224E+00   -9.152E+00   -9.081E+00   -9.011E+00   -8.941E+00   -8.871E+00   -8.801E+00   -8.732E+00
    -8.662E+00   -8.594E+00   -8.525E+00   -8.457E+00   -8.389E+00   -8.322E+00   -8.255E+00   -8.188E+00   -8.122E+00   -8.055E+00
    -7.990E+00   -7.924E+00   -7.859E+00   -7.794E+00   -7.729E+00   -7.665E+00   -7.601E+00   -7.538E+00   -7.475E+00   -7.412E+00
    -7.350E+00   -7.287E+00   -7.226E+00   -7.164E+00   -7.103E+00   -7.042E+00   -6.982E+00   -6.922E+00   -6.862E+00   -6.803E+00
    -6.744E+00   -6.685E+00   -6.627E+00   -6.569E+00   -6.512E+00   -6.454E+00   -6.398E+00   -6.341E+00   -6.285E+00   -6.230E+00
    -6.174E+00   -6.119E+00   -6.065E+00   -6.010E+00   -5.956E+00   -5.903E+00   -5.850E+00   -5.797E+00   -5.744E+00   -5.692E+00
    -5.641E+00   -5.589E+00   -5.538E+00   -5.487E+00   -5.437E+00   -5.387E+00   -5.337E+00   -5.288E+00   -5.239E+00   -5.190E+00
    -5.142E+00   -5.094E+00   -5.046E+00   -4.999E+00   -4.952E+00   -4.905E+00   -4.859E+00   -4.813E+00   -4.767E+00   -4.722E+00
    -4.677E+00   -4.632E+00   -4.588E+00   -4.544E+00   -4.500E+00   -4.456E+00   -4.413E+00   -4.371E+00   -4.328E+00   -4.286E+00
    -4.244E+00   -4.203E+00   -4.161E+00   -4.120E+00   -4.080E+00   -4.040E+00   -4.000E+00   -3.960E+00   -3.920E+00   -3.881E+00
    -3.843E+00   -3.804E+00   -3.766E+00   -3.728E+00   -3.691E+00   -3.653E+00   -3.617E+00   -3.580E+00   -3.544E+00   -3.508E+00
    -3.472E+00   -3.436E+00   -3.401E+00   -3.366E+00   -3.332E+00   -3.298E+00   -3.264E+00   -3.230E+00   -3.197E+00   -3.164E+00
    -3.131E+00   -3.099E+00   -3.066E+00   -3.035E+00   -3.003E+00   -2.972E+00   -2.941E+00   -2.910E+00   -2.880E+00   -2.850E+00
    -2.820E+00   -2.790E+00   -2.761E+00   -2.732E+00   -2.703E+00   -2.675E+00   -2.647E+00   -2.619E+00   -2.592E+00   -2.564E+00
    -2.537E+00   -2.511E+00   -2.484E+00   -2.458E+00   -2.432E+00   -2.407E+00   -2.382E+00   -2.357E+00   -2.332E+00   -2.307E+00
    -2.283E+00   -2.259E+00   -2.236E+00   -2.212E+00   -2.189E+00   -2.166E+00   -2.144E+00   -2.121E+00   -2.099E+00   -2.077E+00
    -2.056E+00   -2.034E+00   -2.013E+00   -1.992E+00   -1.972E+00   -1.951E+00   -1.931E+00   -1.911E+00   -1.892E+00   -1.873E+00
    -1.853E+00   -1.834E+00   -1.816E+00   -1.797E+00   -1.779E+00   -1.761E+00   -1.744E+00   -1.726E+00   -1.709E+00   -1.692E+00
    -1.675E+00   -1.658E+00   -1.642E+00   -1.626E+00   -1.610E+00   -1.594E+00   -1.579E+00   -1.563E+00   -1.548E+00   -1.533E+00
    -1.519E+00   -1.504E+00   -1.490E+00   -1.476E+00   -1.462E+00   -1.448E+00   -1.435E+00   -1.422E+00   -1.409E+00   -1.396E+00
    -1.383E+00   -1.370E+00   -1.358E+00   -1.346E+00   -1.334E+00   -1.322E+00   -1.310E+00   -1.299E+00   -1.287E+00   -1.276E+00
    -1.265E+00   -1.254E+00   -1.243E+00   -1.233E+00   -1.222E+00   -1.212E+00   -1.202E+00   -1.192E+00   -1.182E+00   -1.173E+00
    -1.163E+00   -1.154E+00   -1.144E+00   -1.135E+00   -1.126E+00   -1.117E+00   -1.108E+00   -1.100E+00   -1.091E+00   -1.083E+00
    -1.074E+00   -1.066E+00   -1.058E+00   -1.050E+00   -1.042E+00   -1.034E+00   -1.027E+00   -1.019E+00   -1.012E+00   -1.005E+00
    -9.973E-01   -9.902E-01   -9.831E-01   -9.762E-01   -9.694E-01   -9.626E-01   -9.560E-01   -9.494E-01   -9.430E-01   -9.366E-01
    -9.303E-01   -9.241E-01   -9.180E-01   -9.120E-01   -9.061E-01   -9.002E-01   -8.944E-01   -8.887E-01   -8.831E-01   -8.775E-01
    -8.720E-01   -8.666E-01   -8.613E-01   -8.560E-01   -8.508E-01   -8.457E-01   -8.406E-01   -8.356E-01   -8.307E-01   -8.258E-01
    -8.210E-01   -8.162E-01   -8.115E-01   -8.069E-01   -8.023E-01   -7.978E-01   -7.933E-01   -7.888E-01   -7.844E-01   -7.800E-01
    -7.757E-01   -7.714E-01   -7.672E-01   -7.629E-01   -7.587E-01   -7.546E-01   -7.504E-01   -7.463E-01   -7.422E-01   -7.381E-01
    -7.340E-01   -7.300E-01   -7.259E-01   -7.219E-01   -7.179E-01   -7.138E-01   -7.098E-01   -7.058E-01   -7.018E-01   -6.977E-01
    -6.937E-01   -6.897E-01   -6.856E-01   -6.815E-01   -6.774E-01   -6.733E-01   -6.692E-01   -6.651E-01   -6.609E-01   -6.567E-01
    -6.524E-01   -6.482E-01   -6.439E-01   -6.395E-01   -6.351E-01   -6.307E-01   -6.263E-01   -6.217E-01   -6.172E-01   -6.126E-01
    -6.079E-01   -6.032E-01   -5.985E-01   -5.937E-01   -5.889E-01   -5.840E-01   -5.791E-01   -5.741E-01   -5.691E-01   -5.641E-01
    -5.590E-01   -5.539E-01   -5.487E-01   -5.435E-01   -5.383E-01   -5.330E-01   -5.277E-01   -5.224E-01   -5.170E-01   -5.116E-01
    -5.062E-01   -5.007E-01   -4.952E-01   -4.896E-01   -4.841E-01   -4.785E-01   -4.728E-01   -4.672E-01   -4.615E-01   -4.558E-01
    -4.500E-01   -4.443E-01   -4.385E-01   -4.326E-01   -4.268E-01   -4.209E-01   -4.150E-01   -4.091E-01   -4.032E-01   -3.972E-01
    -3.912E-01   -3.852E-01   -3.792E-01   -3.731E-01   -3.671E-01   -3.610E-01   -3.549E-01   -3.488E-01   -3.426E-01   -3.365E-01
    -3.303E-01   -3.242E-01   -3.180E-01   -3.118E-01   -3.055E-01   -2.993E-01   -2.931E-01   -2.868E-01   -2.806E-01   -2.743E-01
    -2.680E-01   -2.617E-01   -2.554E-01   -2.491E-01   -2.428E-01   -2.365E-01   -2.302E-01   -2.238E-01   -2.175E-01   -2.112E-01
    -2.048E-01   -1.985E-01   -1.921E-01   -1.858E-01   -1.794E-01   -1.731E-01   -1.667E-01   -1.604E-01   -1.540E-01   -1.477E-01
    -1.414E-01   -1.350E-01   -1.287E-01   -1.224E-01   -1.160E-01   -1.097E-01   -1.034E-01   -9.709E-02
 Asp      Conc. = 3.91E+01
