 LCModel (Version 6.3-1L) Copyright: S.W. Provencher.          Ref.: Magn. Reson. Med. 30:672-679 (1993).                
 Slice#3 Row#9 Col#1  PD_05_press_2_raw_act
 36 lines in following concentration table = NCONC+1
    Conc.  %SD /Cr+PCr  Metabolite                                         
 2.15E+03 144%   0.000 Ala                                                 
  720.474  63%   0.000+Asp                                                 
    0.000 999%   0.000 Cr                                                  
    0.000 999%   0.000 PCr                                                 
    0.000 999%   0.000 GABA                                                
  155.252 177%   0.000 Glc                                                 
    0.000 999%   0.000 Gln                                                 
 6.53E+04  10%   0.000 Glu                                                 
    0.000 999%   0.000 GPC                                                 
 1.11E+03  19%   0.000 PCh                                                 
    0.000 999%   0.000 GSH                                                 
 1.16E+04  19%   0.000 Ins                                                 
    0.000 999%   0.000 Lac                                                 
    0.000 999%   0.000 NAA                                                 
    0.000 999%   0.000 NAAG                                                
  125.134  69%   0.000 Scyllo                                              
  453.492  99%   0.000 Tau                                                 
    0.000 999%   0.000 -CrCH2                                              
 1.11E+03  19%   0.000 GPC+PCh                                             
    0.000 999%   0.000 NAA+NAAG                                            
    0.000 999%   0.000 Cr+PCr                                              
 6.53E+04  10%   0.000 Glu+Gln                                             
    0.000 999%   0.000 Lip13a                                              
    0.000 999%   0.000 Lip13b                                              
   24.984 999%   0.000 Lip09                                               
  319.875  82%   0.000 MM09                                                
    0.000 999%   0.000 Lip20                                               
    0.000 999%   0.000 MM20                                                
   78.456 177%   0.000 MM12                                                
    0.000 999%   0.000 MM14                                                
 1.70E+03  19%   0.000+MM17                                                
    0.000 999%   0.000 Lip13a+Lip13b                                       
   78.456 177%   0.000 MM14+Lip13a+Lip13b+MM12                             
  344.858 230%   0.000 MM09+Lip09                                          
    0.000 999%   0.000 MM20+Lip20                                          
   6 lines in following misc. output table
  FWHM = 0.199 ppm    S/N =   2                                            
  Data shift = 0.099 ppm                                                   
  Ph: 120 deg      53.7 deg/ppm                                            
  alphaB,S = 9.4E-01,   4.1E+02                                            
    8 spline knots.   Ns = 9(2)                                            
  ( 8) 3 infls.   ( 4) 2 extrs.                                            
  498 points on ppm-axis = NY
      4.000000     3.992357     3.984714     3.977070     3.969427     3.961784     3.954141     3.946497     3.938854     3.931211
      3.923568     3.915925     3.908281     3.900638     3.892995     3.885352     3.877708     3.870065     3.862422     3.854779
      3.847136     3.839492     3.831849     3.824206     3.816563     3.808919     3.801276     3.793633     3.785990     3.778347
      3.770703     3.763060     3.755417     3.747774     3.740130     3.732487     3.724844     3.717201     3.709558     3.701914
      3.694271     3.686628     3.678985     3.671341     3.663698     3.656055     3.648412     3.640769     3.633125     3.625482
      3.617839     3.610196     3.602552     3.594909     3.587266     3.579623     3.571980     3.564336     3.556693     3.549050
      3.541407     3.533763     3.526120     3.518477     3.510834     3.503191     3.495547     3.487904     3.480261     3.472618
      3.464974     3.457331     3.449688     3.442045     3.434402     3.426758     3.419115     3.411472     3.403829     3.396185
      3.388542     3.380899     3.373256     3.365613     3.357969     3.350326     3.342683     3.335040     3.327396     3.319753
      3.312110     3.304467     3.296824     3.289180     3.281537     3.273894     3.266251     3.258607     3.250964     3.243321
      3.235678     3.228034     3.220391     3.212748     3.205105     3.197462     3.189818     3.182175     3.174532     3.166889
      3.159245     3.151602     3.143959     3.136316     3.128673     3.121029     3.113386     3.105743     3.098100     3.090456
      3.082813     3.075170     3.067527     3.059884     3.052240     3.044597     3.036954     3.029311     3.021667     3.014024
      3.006381     2.998738     2.991095     2.983451     2.975808     2.968165     2.960522     2.952878     2.945235     2.937592
      2.929949     2.922306     2.914662     2.907019     2.899376     2.891733     2.884089     2.876446     2.868803     2.861160
      2.853517     2.845873     2.838230     2.830587     2.822944     2.815300     2.807657     2.800014     2.792371     2.784728
      2.777084     2.769441     2.761798     2.754155     2.746511     2.738868     2.731225     2.723582     2.715939     2.708295
      2.700652     2.693009     2.685366     2.677722     2.670079     2.662436     2.654793     2.647150     2.639506     2.631863
      2.624220     2.616577     2.608933     2.601290     2.593647     2.586004     2.578361     2.570717     2.563074     2.555431
      2.547788     2.540144     2.532501     2.524858     2.517215     2.509572     2.501928     2.494285     2.486642     2.478999
      2.471355     2.463712     2.456069     2.448426     2.440783     2.433139     2.425496     2.417853     2.410210     2.402566
      2.394923     2.387280     2.379637     2.371994     2.364350     2.356707     2.349064     2.341421     2.333777     2.326134
      2.318491     2.310848     2.303205     2.295561     2.287918     2.280275     2.272632     2.264988     2.257345     2.249702
      2.242059     2.234416     2.226772     2.219129     2.211486     2.203843     2.196199     2.188556     2.180913     2.173270
      2.165627     2.157983     2.150340     2.142697     2.135054     2.127410     2.119767     2.112124     2.104481     2.096838
      2.089194     2.081551     2.073908     2.066265     2.058621     2.050978     2.043335     2.035692     2.028049     2.020405
      2.012762     2.005119     1.997476     1.989833     1.982190     1.974546     1.966903     1.959260     1.951617     1.943974
      1.936331     1.928688     1.921045     1.913402     1.905759     1.898115     1.890472     1.882829     1.875186     1.867543
      1.859900     1.852257     1.844614     1.836971     1.829327     1.821684     1.814041     1.806398     1.798755     1.791112
      1.783469     1.775826     1.768183     1.760540     1.752896     1.745253     1.737610     1.729967     1.722324     1.714681
      1.707038     1.699395     1.691752     1.684108     1.676465     1.668822     1.661179     1.653536     1.645893     1.638250
      1.630607     1.622964     1.615321     1.607677     1.600034     1.592391     1.584748     1.577105     1.569462     1.561819
      1.554176     1.546533     1.538890     1.531246     1.523603     1.515960     1.508317     1.500674     1.493031     1.485388
      1.477745     1.470102     1.462458     1.454815     1.447172     1.439529     1.431886     1.424243     1.416600     1.408957
      1.401314     1.393671     1.386027     1.378384     1.370741     1.363098     1.355455     1.347812     1.340169     1.332526
      1.324883     1.317240     1.309596     1.301953     1.294310     1.286667     1.279024     1.271381     1.263738     1.256095
      1.248452     1.240808     1.233165     1.225522     1.217879     1.210236     1.202593     1.194950     1.187307     1.179664
      1.172021     1.164377     1.156734     1.149091     1.141448     1.133805     1.126162     1.118519     1.110876     1.103233
      1.095590     1.087946     1.080303     1.072660     1.065017     1.057374     1.049731     1.042088     1.034445     1.026802
      1.019158     1.011515     1.003872     0.996229     0.988586     0.980943     0.973300     0.965657     0.958014     0.950371
      0.942727     0.935084     0.927441     0.919798     0.912155     0.904512     0.896869     0.889226     0.881583     0.873940
      0.866296     0.858653     0.851010     0.843367     0.835724     0.828081     0.820438     0.812795     0.805152     0.797508
      0.789865     0.782222     0.774579     0.766936     0.759293     0.751650     0.744007     0.736364     0.728721     0.721077
      0.713434     0.705791     0.698148     0.690505     0.682862     0.675219     0.667576     0.659933     0.652290     0.644646
      0.637003     0.629360     0.621717     0.614074     0.606431     0.598788     0.591145     0.583502     0.575858     0.568215
      0.560572     0.552929     0.545286     0.537643     0.530000     0.522357     0.514714     0.507071     0.499427     0.491784
      0.484141     0.476498     0.468855     0.461212     0.453569     0.445925     0.438282     0.430639     0.422996     0.415353
      0.407710     0.400067     0.392424     0.384780     0.377137     0.369494     0.361851     0.354208     0.346565     0.338922
      0.331278     0.323635     0.315992     0.308349     0.300706     0.293063     0.285420     0.277777     0.270133     0.262490
      0.254847     0.247204     0.239561     0.231918     0.224275     0.216631     0.208988     0.201345
 NY phased data points follow
   9.81402E+01  9.49662E+01  9.12776E+01  8.44463E+01  8.83494E+01  8.51183E+01  8.44842E+01  8.36933E+01  8.46454E+01  7.86769E+01
   7.61842E+01  7.94820E+01  7.64346E+01  7.14395E+01  7.61125E+01  7.36925E+01  7.27927E+01  7.17505E+01  6.68654E+01  7.24925E+01
   7.38811E+01  7.38190E+01  7.07173E+01  6.62021E+01  6.93097E+01  7.16160E+01  7.01248E+01  6.43828E+01  6.58069E+01  6.66873E+01
   5.89666E+01  6.17173E+01  6.71082E+01  6.48541E+01  6.75111E+01  6.06996E+01  5.83584E+01  6.24925E+01  6.14475E+01  5.73973E+01
   5.61402E+01  5.46952E+01  5.55239E+01  5.01561E+01  4.94498E+01  5.60830E+01  5.07532E+01  5.51807E+01  4.53296E+01  4.88633E+01
   4.85884E+01  5.04390E+01  4.74113E+01  4.83247E+01  4.85752E+01  3.87039E+01  4.33216E+01  4.66371E+01  3.64463E+01  4.22812E+01
   4.12695E+01  4.52320E+01  4.12883E+01  4.28003E+01  4.11459E+01  4.09942E+01  3.04934E+01  3.55351E+01  3.74113E+01  4.06225E+01
   3.81028E+01  3.99521E+01  3.63354E+01  3.59184E+01  3.71887E+01  3.52006E+01  3.75653E+01  3.15175E+01  3.51634E+01  4.20711E+01
   4.26966E+01  3.73705E+01  2.89922E+01  2.75907E+01  3.27666E+01  3.43849E+01  2.40092E+01  2.92398E+01  3.10464E+01  3.49400E+01
   3.46364E+01  3.47050E+01  3.09051E+01  3.57756E+01  4.21034E+01  3.71917E+01  3.66753E+01  3.54674E+01  4.08101E+01  3.88948E+01
   2.73526E+01  4.17989E+01  3.44288E+01  3.56254E+01  3.80072E+01  4.03761E+01  3.81709E+01  3.71434E+01  3.92523E+01  3.57200E+01
   3.34960E+01  4.63101E+01  3.83040E+01  4.84899E+01  4.64643E+01  4.67904E+01  4.04208E+01  5.24185E+01  4.95157E+01  4.86825E+01
   4.47998E+01  4.97738E+01  4.77187E+01  4.87421E+01  5.11252E+01  4.62421E+01  4.44507E+01  4.40651E+01  4.01773E+01  4.07245E+01
   4.22455E+01  4.48170E+01  3.95641E+01  4.06665E+01  3.90321E+01  4.44399E+01  3.42078E+01  3.60278E+01  3.31172E+01  3.50832E+01
   3.18460E+01  3.48516E+01  3.24955E+01  3.70198E+01  3.27561E+01  3.72478E+01  3.03048E+01  3.69784E+01  2.89740E+01  3.10460E+01
   3.49628E+01  3.29641E+01  3.36131E+01  3.32659E+01  3.69936E+01  3.46280E+01  3.71654E+01  4.03911E+01  3.45660E+01  5.20106E+01
   4.54001E+01  4.98708E+01  4.63037E+01  5.55875E+01  5.40312E+01  5.47698E+01  6.20088E+01  6.57327E+01  7.15760E+01  7.48411E+01
   7.77007E+01  8.48775E+01  8.54499E+01  9.40051E+01  9.24328E+01  1.00638E+02  9.87394E+01  1.10923E+02  1.17858E+02  1.17600E+02
   1.21713E+02  1.28975E+02  1.28096E+02  1.33058E+02  1.29889E+02  1.35721E+02  1.30871E+02  1.32454E+02  1.34517E+02  1.30035E+02
   1.35297E+02  1.30394E+02  1.35158E+02  1.32474E+02  1.26137E+02  1.24260E+02  1.19695E+02  1.18135E+02  1.18750E+02  1.15767E+02
   1.09967E+02  1.12225E+02  1.11350E+02  1.08283E+02  1.07656E+02  1.09051E+02  1.07982E+02  1.00371E+02  9.51319E+01  9.80350E+01
   9.54886E+01  9.47184E+01  9.55717E+01  8.84912E+01  8.07539E+01  8.66176E+01  8.43554E+01  7.82115E+01  7.43514E+01  7.54803E+01
   6.56189E+01  6.54951E+01  6.14035E+01  5.78379E+01  4.85338E+01  4.58234E+01  4.66958E+01  4.16068E+01  3.02650E+01  2.79600E+01
   2.78354E+01  1.98742E+01  1.86992E+01  2.00155E+01  1.48622E+01  1.20594E+01  9.44953E+00  7.50655E+00  8.28526E-01 -3.84175E+00
  -5.08192E+00 -5.43375E+00 -1.22668E+01 -6.65639E+00 -1.30576E+01 -6.28234E+00 -2.06281E+00 -5.68883E+00 -6.83008E+00 -7.54472E+00
  -8.50280E+00 -1.00514E+01 -7.38033E+00 -1.23042E+01 -1.79184E+01 -1.09344E+01 -1.00930E+01 -1.83347E+01 -1.56840E+01 -1.57107E+01
  -1.73734E+01 -1.96249E+01 -1.93596E+01 -1.79350E+01 -2.28898E+01 -2.43030E+01 -2.81413E+01 -2.34197E+01 -2.37811E+01 -3.05484E+01
  -2.67734E+01 -2.24756E+01 -2.19937E+01 -2.78429E+01 -1.95648E+01 -1.88988E+01 -1.49363E+01 -1.73085E+01 -1.51916E+01 -2.35892E+01
  -1.44861E+01 -1.19098E+01 -9.11213E+00 -5.47203E+00 -1.27435E+01 -4.76566E+00 -8.28374E+00 -1.19247E-01 -3.57642E+00 -2.07895E+00
  -2.07408E+00  7.75886E-01  5.29310E+00  1.82060E+00  4.36904E+00  2.46361E+00  1.71216E+00  9.32742E+00  3.75234E+00  7.02732E+00
   8.62385E+00  3.07938E+00 -1.29398E+00  1.98644E+00 -1.53181E+00  5.75540E+00 -5.15376E+00 -1.00343E+01 -8.51290E+00 -8.11404E+00
  -1.72730E+01 -1.11814E+01 -1.75847E+01 -1.59260E+01 -2.00582E+01 -2.22866E+01 -1.70637E+01 -2.99222E+01 -3.09176E+01 -3.41903E+01
  -3.83580E+01 -3.17651E+01 -4.02372E+01 -3.98175E+01 -3.91796E+01 -3.89729E+01 -4.41780E+01 -4.10623E+01 -4.35341E+01 -4.09827E+01
  -4.20078E+01 -4.08265E+01 -4.09911E+01 -4.15838E+01 -4.17325E+01 -4.56339E+01 -4.58573E+01 -4.64279E+01 -4.11221E+01 -4.63962E+01
  -4.68893E+01 -4.73446E+01 -4.23659E+01 -4.05450E+01 -4.50853E+01 -4.47843E+01 -4.94205E+01 -4.73612E+01 -4.12602E+01 -4.36416E+01
  -5.20953E+01 -4.49317E+01 -4.26310E+01 -4.75676E+01 -4.56299E+01 -4.91315E+01 -4.54751E+01 -4.53811E+01 -4.66637E+01 -4.33384E+01
  -4.73875E+01 -4.14469E+01 -4.66393E+01 -4.93430E+01 -4.43914E+01 -4.68636E+01 -4.79088E+01 -4.59443E+01 -4.25544E+01 -4.07296E+01
  -4.50597E+01 -4.58011E+01 -4.86250E+01 -4.75669E+01 -4.65533E+01 -4.69329E+01 -5.02885E+01 -5.10555E+01 -4.91449E+01 -5.61061E+01
  -4.86339E+01 -4.33096E+01 -4.69044E+01 -5.20355E+01 -4.39219E+01 -4.84927E+01 -4.99918E+01 -4.58905E+01 -4.52184E+01 -4.76945E+01
  -4.73541E+01 -4.45996E+01 -5.09366E+01 -4.58576E+01 -5.08280E+01 -4.97710E+01 -4.91525E+01 -4.67961E+01 -4.38641E+01 -4.66633E+01
  -5.03022E+01 -4.90130E+01 -4.80549E+01 -4.20143E+01 -4.72586E+01 -4.04032E+01 -4.33314E+01 -4.72262E+01 -4.22274E+01 -4.93521E+01
  -4.68991E+01 -4.56276E+01 -4.71507E+01 -4.36665E+01 -4.49954E+01 -4.79902E+01 -4.59467E+01 -4.09240E+01 -4.74248E+01 -4.52880E+01
  -4.06665E+01 -3.87560E+01 -4.20428E+01 -4.90289E+01 -4.45098E+01 -4.27047E+01 -4.31020E+01 -4.74598E+01 -4.54740E+01 -4.17663E+01
  -3.80157E+01 -4.44737E+01 -3.97735E+01 -4.71244E+01 -4.22379E+01 -4.21997E+01 -4.67552E+01 -4.54108E+01 -4.84779E+01 -4.28291E+01
  -4.01193E+01 -4.44652E+01 -4.54305E+01 -4.48137E+01 -4.18005E+01 -3.79754E+01 -4.71245E+01 -4.16803E+01 -4.04244E+01 -4.28335E+01
  -3.79903E+01 -3.87043E+01 -3.78907E+01 -3.69331E+01 -3.50149E+01 -4.28257E+01 -3.71686E+01 -3.81342E+01 -3.95492E+01 -3.66100E+01
  -3.56174E+01 -3.94573E+01 -3.51972E+01 -4.35191E+01 -3.99398E+01 -3.93881E+01 -3.83474E+01 -4.19022E+01 -4.37418E+01 -3.92013E+01
  -4.53099E+01 -3.70319E+01 -3.26288E+01 -3.56533E+01 -3.27056E+01 -3.83833E+01 -3.31358E+01 -3.59171E+01 -3.47682E+01 -3.28588E+01
  -3.40719E+01 -3.91762E+01 -3.68259E+01 -3.74467E+01 -3.37442E+01 -3.82907E+01 -3.55480E+01 -3.62920E+01 -3.33350E+01 -3.69276E+01
  -3.69861E+01 -3.27861E+01 -3.12860E+01 -3.65381E+01 -3.46713E+01 -3.46054E+01 -3.38944E+01 -2.99645E+01
 NY points of the fit to the data follow
   8.79439E+01  8.70580E+01  8.65307E+01  8.54582E+01  8.47532E+01  8.35786E+01  8.27815E+01  8.15682E+01  8.05938E+01  7.95081E+01
   7.87620E+01  7.80329E+01  7.59153E+01  7.31307E+01  7.00406E+01  6.68456E+01  6.46050E+01  6.33502E+01  6.37276E+01  6.39456E+01
   6.38589E+01  6.40850E+01  6.31357E+01  6.18315E+01  6.18037E+01  6.24442E+01  6.34064E+01  6.44849E+01  6.48148E+01  6.52328E+01
   6.49134E+01  6.52501E+01  6.48021E+01  6.54405E+01  6.49836E+01  6.62805E+01  6.67519E+01  6.83622E+01  6.80100E+01  6.84833E+01
   6.72843E+01  6.73713E+01  6.60121E+01  6.62819E+01  6.47325E+01  6.47169E+01  6.25695E+01  6.19682E+01  6.00944E+01  6.07022E+01
   6.06342E+01  6.34060E+01  6.17474E+01  6.03585E+01  5.57664E+01  5.16600E+01  4.71631E+01  4.53190E+01  4.52279E+01  4.67528E+01
   4.79313E+01  4.80471E+01  4.72166E+01  4.36743E+01  4.17286E+01  3.90436E+01  3.83232E+01  3.64561E+01  3.59776E+01  3.42585E+01
   3.35931E+01  3.16753E+01  3.02758E+01  2.79065E+01  2.62344E+01  2.46411E+01  2.50862E+01  2.49830E+01  2.52084E+01  2.46287E+01
   2.44394E+01  2.36326E+01  2.32056E+01  2.23593E+01  2.22918E+01  2.39639E+01  2.34547E+01  2.53246E+01  2.49331E+01  2.73905E+01
   2.72074E+01  3.02600E+01  2.95014E+01  3.26807E+01  3.11505E+01  3.43110E+01  3.22752E+01  3.55735E+01  3.35054E+01  3.69341E+01
   3.51831E+01  3.90796E+01  3.72272E+01  4.10240E+01  3.89621E+01  4.26142E+01  4.04273E+01  4.38509E+01  4.19621E+01  4.49799E+01
   4.32265E+01  4.58317E+01  4.43381E+01  4.63529E+01  4.52484E+01  4.62058E+01  4.47892E+01  4.46920E+01  4.30811E+01  4.21733E+01
   4.05080E+01  3.82415E+01  3.66210E+01  3.35041E+01  3.32639E+01  3.42514E+01  3.53126E+01  3.66667E+01  3.78320E+01  3.92274E+01
   4.03998E+01  4.17004E+01  4.27744E+01  4.39434E+01  4.50765E+01  4.62332E+01  4.73700E+01  4.85007E+01  4.96213E+01  5.07307E+01
   5.18425E+01  5.29306E+01  5.40314E+01  5.51361E+01  5.62225E+01  5.73215E+01  5.83676E+01  5.94226E+01  6.04290E+01  6.14766E+01
   6.24391E+01  6.34747E+01  6.43930E+01  6.54102E+01  6.62885E+01  6.72882E+01  6.81237E+01  6.91147E+01  6.98927E+01  7.08737E+01
   7.16172E+01  7.25821E+01  7.32904E+01  7.42065E+01  7.47863E+01  7.56608E+01  7.61874E+01  7.70843E+01  7.76023E+01  7.84508E+01
   7.89098E+01  7.96844E+01  8.00807E+01  8.07847E+01  8.11085E+01  8.17185E+01  8.20016E+01  8.25279E+01  8.27828E+01  8.32193E+01
   8.34472E+01  8.37576E+01  8.39525E+01  8.42300E+01  8.44619E+01  8.46837E+01  8.49273E+01  8.51283E+01  8.55254E+01  8.59887E+01
   8.68661E+01  8.78412E+01  8.84936E+01  8.93227E+01  8.95831E+01  8.87776E+01  8.82463E+01  8.63383E+01  8.58871E+01  8.49223E+01
   8.73811E+01  9.16610E+01  9.60422E+01  1.00719E+02  1.04355E+02  1.07645E+02  1.08396E+02  1.06994E+02  1.03167E+02  1.00654E+02
   9.69512E+01  9.43257E+01  9.10394E+01  8.81912E+01  8.49488E+01  8.21686E+01  7.87635E+01  7.58325E+01  7.25775E+01  6.93615E+01
   6.62045E+01  6.24861E+01  5.92280E+01  5.50694E+01  5.20500E+01  4.74130E+01  4.42290E+01  3.90560E+01  3.52074E+01  3.04163E+01
   2.80602E+01  2.53872E+01  2.36180E+01  2.32348E+01  2.20025E+01  1.98568E+01  1.59762E+01  1.01130E+01  4.73533E+00 -1.33689E+00
  -3.03690E+00  6.88489E-01  4.24727E+00  1.17579E+01  1.75352E+01  2.68119E+01  3.05789E+01  3.29627E+01  2.82043E+01  2.75245E+01
   2.14606E+01  1.95355E+01  1.42858E+01  1.30492E+01  9.52271E+00  9.23453E+00  6.39216E+00  5.25950E+00  2.84720E+00  1.25598E+00
  -3.33829E-01 -1.71837E+00 -1.64173E+00 -2.47964E+00 -1.81415E-01 -1.55546E+00  9.48618E-01 -1.89502E+00 -1.18132E+00 -4.94026E+00
  -3.66603E+00 -6.61570E+00 -4.62380E+00 -5.64049E+00 -2.65650E+00 -3.86398E+00 -2.83292E+00 -5.33723E+00 -4.90625E+00 -6.69102E+00
  -5.87800E+00 -6.53403E+00 -5.67008E+00 -7.41618E+00 -7.93720E+00 -9.87836E+00 -1.02709E+01 -1.15501E+01 -1.16536E+01 -1.14280E+01
  -1.14564E+01 -1.11611E+01 -1.09645E+01 -1.04974E+01 -1.04344E+01 -1.02900E+01 -1.09196E+01 -1.18719E+01 -1.32690E+01 -1.45739E+01
  -1.61375E+01 -1.76095E+01 -1.92194E+01 -2.07248E+01 -2.22316E+01 -2.37932E+01 -2.53669E+01 -2.68539E+01 -2.80569E+01 -2.87216E+01
  -2.99900E+01 -3.05231E+01 -3.18949E+01 -3.23390E+01 -3.38446E+01 -3.42967E+01 -3.63321E+01 -3.62772E+01 -3.80740E+01 -3.77053E+01
  -3.94016E+01 -3.88854E+01 -4.05811E+01 -3.98703E+01 -4.15330E+01 -4.06694E+01 -4.22698E+01 -4.13822E+01 -4.29223E+01 -4.20765E+01
  -4.35911E+01 -4.28199E+01 -4.42144E+01 -4.34943E+01 -4.46904E+01 -4.40590E+01 -4.50840E+01 -4.46467E+01 -4.54628E+01 -4.52535E+01
  -4.58184E+01 -4.57278E+01 -4.60579E+01 -4.61217E+01 -4.62632E+01 -4.67455E+01 -4.66550E+01 -4.74245E+01 -4.66249E+01 -4.62413E+01
  -4.52685E+01 -4.48745E+01 -4.38362E+01 -4.36400E+01 -4.28938E+01 -4.33792E+01 -4.38893E+01 -4.42568E+01 -4.45328E+01 -4.47469E+01
  -4.49164E+01 -4.50519E+01 -4.51609E+01 -4.52488E+01 -4.53195E+01 -4.53763E+01 -4.54218E+01 -4.54583E+01 -4.54874E+01 -4.55108E+01
  -4.55296E+01 -4.55450E+01 -4.55578E+01 -4.55688E+01 -4.55787E+01 -4.55879E+01 -4.55967E+01 -4.56056E+01 -4.56145E+01 -4.56237E+01
  -4.56332E+01 -4.56426E+01 -4.56519E+01 -4.56606E+01 -4.56682E+01 -4.56742E+01 -4.56776E+01 -4.56776E+01 -4.56730E+01 -4.56627E+01
  -4.56453E+01 -4.56196E+01 -4.55841E+01 -4.55376E+01 -4.54790E+01 -4.54075E+01 -4.53227E+01 -4.52245E+01 -4.51132E+01 -4.49899E+01
  -4.48557E+01 -4.47126E+01 -4.45627E+01 -4.44091E+01 -4.42548E+01 -4.41033E+01 -4.39579E+01 -4.38221E+01 -4.36989E+01 -4.35909E+01
  -4.35003E+01 -4.34284E+01 -4.33761E+01 -4.33436E+01 -4.33302E+01 -4.33349E+01 -4.33560E+01 -4.33915E+01 -4.34393E+01 -4.34968E+01
  -4.35615E+01 -4.36311E+01 -4.37033E+01 -4.37760E+01 -4.38473E+01 -4.39157E+01 -4.39797E+01 -4.40383E+01 -4.40905E+01 -4.41357E+01
  -4.41733E+01 -4.42029E+01 -4.42243E+01 -4.42374E+01 -4.42419E+01 -4.42379E+01 -4.42252E+01 -4.42039E+01 -4.41739E+01 -4.41353E+01
  -4.40880E+01 -4.40321E+01 -4.39675E+01 -4.38942E+01 -4.38121E+01 -4.37213E+01 -4.36216E+01 -4.35132E+01 -4.33957E+01 -4.32693E+01
  -4.31339E+01 -4.29894E+01 -4.28357E+01 -4.26729E+01 -4.25008E+01 -4.23194E+01 -4.21286E+01 -4.19284E+01 -4.17188E+01 -4.14996E+01
  -4.12709E+01 -4.10326E+01 -4.07846E+01 -4.05271E+01 -4.02598E+01 -3.99828E+01 -3.96961E+01 -3.93997E+01 -3.90935E+01 -3.87777E+01
  -3.84522E+01 -3.81171E+01 -3.77723E+01 -3.74180E+01 -3.70541E+01 -3.66809E+01 -3.62982E+01 -3.59063E+01 -3.55053E+01 -3.50952E+01
  -3.46763E+01 -3.42488E+01 -3.38127E+01 -3.33684E+01 -3.29161E+01 -3.24561E+01 -3.19886E+01 -3.15142E+01 -3.10332E+01 -3.05461E+01
  -3.00534E+01 -2.95559E+01 -2.90543E+01 -2.85495E+01 -2.80426E+01 -2.75347E+01 -2.70276E+01 -2.65230E+01
 NY background values follow
     4.713E+01    4.599E+01    4.486E+01    4.373E+01    4.261E+01    4.150E+01    4.040E+01    3.930E+01    3.821E+01    3.712E+01
     3.605E+01    3.498E+01    3.392E+01    3.287E+01    3.184E+01    3.081E+01    2.979E+01    2.878E+01    2.778E+01    2.679E+01
     2.582E+01    2.485E+01    2.390E+01    2.296E+01    2.203E+01    2.111E+01    2.021E+01    1.932E+01    1.844E+01    1.758E+01
     1.673E+01    1.590E+01    1.508E+01    1.428E+01    1.349E+01    1.272E+01    1.196E+01    1.122E+01    1.049E+01    9.787E+00
     9.097E+00    8.423E+00    7.768E+00    7.130E+00    6.511E+00    5.909E+00    5.327E+00    4.763E+00    4.219E+00    3.695E+00
     3.190E+00    2.705E+00    2.241E+00    1.797E+00    1.374E+00    9.721E-01    5.918E-01    2.332E-01   -1.035E-01   -4.180E-01
    -7.101E-01   -9.794E-01   -1.226E+00   -1.449E+00   -1.648E+00   -1.824E+00   -1.976E+00   -2.104E+00   -2.207E+00   -2.285E+00
    -2.339E+00   -2.367E+00   -2.370E+00   -2.347E+00   -2.298E+00   -2.223E+00   -2.121E+00   -1.993E+00   -1.839E+00   -1.657E+00
    -1.447E+00   -1.211E+00   -9.460E-01   -6.535E-01   -3.329E-01    1.621E-02    3.939E-01    8.004E-01    1.236E+00    1.701E+00
     2.195E+00    2.719E+00    3.272E+00    3.856E+00    4.470E+00    5.114E+00    5.789E+00    6.494E+00    7.231E+00    7.998E+00
     8.797E+00    9.627E+00    1.049E+01    1.138E+01    1.229E+01    1.324E+01    1.420E+01    1.520E+01    1.622E+01    1.726E+01
     1.832E+01    1.941E+01    2.051E+01    2.164E+01    2.278E+01    2.394E+01    2.512E+01    2.631E+01    2.751E+01    2.873E+01
     2.997E+01    3.121E+01    3.247E+01    3.373E+01    3.500E+01    3.628E+01    3.757E+01    3.887E+01    4.017E+01    4.147E+01
     4.277E+01    4.408E+01    4.539E+01    4.670E+01    4.801E+01    4.932E+01    5.062E+01    5.193E+01    5.322E+01    5.452E+01
     5.580E+01    5.708E+01    5.836E+01    5.962E+01    6.087E+01    6.212E+01    6.335E+01    6.457E+01    6.577E+01    6.697E+01
     6.814E+01    6.930E+01    7.045E+01    7.158E+01    7.269E+01    7.378E+01    7.485E+01    7.590E+01    7.692E+01    7.793E+01
     7.891E+01    7.987E+01    8.080E+01    8.171E+01    8.259E+01    8.344E+01    8.427E+01    8.507E+01    8.583E+01    8.657E+01
     8.727E+01    8.795E+01    8.859E+01    8.920E+01    8.977E+01    9.031E+01    9.081E+01    9.128E+01    9.171E+01    9.210E+01
     9.246E+01    9.277E+01    9.305E+01    9.328E+01    9.347E+01    9.363E+01    9.374E+01    9.380E+01    9.383E+01    9.380E+01
     9.374E+01    9.363E+01    9.347E+01    9.326E+01    9.301E+01    9.271E+01    9.236E+01    9.197E+01    9.152E+01    9.102E+01
     9.048E+01    8.988E+01    8.924E+01    8.855E+01    8.781E+01    8.703E+01    8.620E+01    8.533E+01    8.442E+01    8.347E+01
     8.249E+01    8.146E+01    8.039E+01    7.929E+01    7.815E+01    7.698E+01    7.578E+01    7.455E+01    7.328E+01    7.198E+01
     7.066E+01    6.931E+01    6.793E+01    6.652E+01    6.509E+01    6.364E+01    6.216E+01    6.066E+01    5.915E+01    5.761E+01
     5.605E+01    5.448E+01    5.288E+01    5.128E+01    4.966E+01    4.802E+01    4.637E+01    4.471E+01    4.304E+01    4.136E+01
     3.967E+01    3.797E+01    3.627E+01    3.455E+01    3.284E+01    3.112E+01    2.939E+01    2.766E+01    2.593E+01    2.420E+01
     2.247E+01    2.074E+01    1.902E+01    1.729E+01    1.557E+01    1.385E+01    1.214E+01    1.043E+01    8.730E+00    7.037E+00
     5.352E+00    3.677E+00    2.011E+00    3.559E-01   -1.288E+00   -2.920E+00   -4.538E+00   -6.143E+00   -7.734E+00   -9.310E+00
    -1.087E+01   -1.241E+01   -1.394E+01   -1.545E+01   -1.694E+01   -1.841E+01   -1.986E+01   -2.129E+01   -2.270E+01   -2.409E+01
    -2.545E+01   -2.679E+01   -2.811E+01   -2.941E+01   -3.068E+01   -3.192E+01   -3.314E+01   -3.433E+01   -3.549E+01   -3.663E+01
    -3.774E+01   -3.882E+01   -3.987E+01   -4.089E+01   -4.188E+01   -4.284E+01   -4.377E+01   -4.467E+01   -4.554E+01   -4.637E+01
    -4.717E+01   -4.794E+01   -4.868E+01   -4.939E+01   -5.007E+01   -5.072E+01   -5.135E+01   -5.194E+01   -5.251E+01   -5.305E+01
    -5.357E+01   -5.406E+01   -5.452E+01   -5.497E+01   -5.539E+01   -5.578E+01   -5.615E+01   -5.651E+01   -5.684E+01   -5.714E+01
    -5.743E+01   -5.770E+01   -5.795E+01   -5.819E+01   -5.840E+01   -5.860E+01   -5.878E+01   -5.894E+01   -5.909E+01   -5.922E+01
    -5.933E+01   -5.944E+01   -5.952E+01   -5.960E+01   -5.966E+01   -5.971E+01   -5.975E+01   -5.977E+01   -5.979E+01   -5.979E+01
    -5.978E+01   -5.976E+01   -5.974E+01   -5.970E+01   -5.966E+01   -5.961E+01   -5.955E+01   -5.948E+01   -5.941E+01   -5.933E+01
    -5.924E+01   -5.915E+01   -5.905E+01   -5.894E+01   -5.884E+01   -5.872E+01   -5.861E+01   -5.849E+01   -5.836E+01   -5.824E+01
    -5.811E+01   -5.798E+01   -5.784E+01   -5.771E+01   -5.757E+01   -5.743E+01   -5.729E+01   -5.715E+01   -5.701E+01   -5.687E+01
    -5.673E+01   -5.659E+01   -5.645E+01   -5.631E+01   -5.618E+01   -5.604E+01   -5.591E+01   -5.577E+01   -5.564E+01   -5.551E+01
    -5.539E+01   -5.526E+01   -5.514E+01   -5.502E+01   -5.491E+01   -5.479E+01   -5.468E+01   -5.458E+01   -5.447E+01   -5.437E+01
    -5.428E+01   -5.419E+01   -5.410E+01   -5.402E+01   -5.394E+01   -5.386E+01   -5.379E+01   -5.372E+01   -5.366E+01   -5.360E+01
    -5.355E+01   -5.349E+01   -5.345E+01   -5.340E+01   -5.336E+01   -5.332E+01   -5.328E+01   -5.324E+01   -5.321E+01   -5.317E+01
    -5.314E+01   -5.311E+01   -5.308E+01   -5.304E+01   -5.301E+01   -5.298E+01   -5.294E+01   -5.290E+01   -5.287E+01   -5.283E+01
    -5.278E+01   -5.274E+01   -5.269E+01   -5.264E+01   -5.259E+01   -5.253E+01   -5.248E+01   -5.241E+01   -5.234E+01   -5.227E+01
    -5.220E+01   -5.212E+01   -5.203E+01   -5.194E+01   -5.184E+01   -5.174E+01   -5.163E+01   -5.152E+01   -5.140E+01   -5.127E+01
    -5.114E+01   -5.100E+01   -5.085E+01   -5.069E+01   -5.053E+01   -5.036E+01   -5.019E+01   -5.000E+01   -4.981E+01   -4.961E+01
    -4.940E+01   -4.918E+01   -4.895E+01   -4.872E+01   -4.847E+01   -4.822E+01   -4.796E+01   -4.769E+01   -4.741E+01   -4.712E+01
    -4.682E+01   -4.651E+01   -4.619E+01   -4.586E+01   -4.552E+01   -4.517E+01   -4.481E+01   -4.444E+01   -4.406E+01   -4.367E+01
    -4.327E+01   -4.285E+01   -4.243E+01   -4.200E+01   -4.155E+01   -4.110E+01   -4.063E+01   -4.016E+01   -3.967E+01   -3.917E+01
    -3.866E+01   -3.814E+01   -3.761E+01   -3.707E+01   -3.652E+01   -3.595E+01   -3.538E+01   -3.479E+01   -3.419E+01   -3.358E+01
    -3.296E+01   -3.233E+01   -3.169E+01   -3.104E+01   -3.037E+01   -2.970E+01   -2.902E+01   -2.832E+01
 Ala      Conc. = 2.15E+03
