 LCModel (Version 6.3-1L) Copyright: S.W. Provencher.          Ref.: Magn. Reson. Med. 30:672-679 (1993).                
 Slice#1 Row#9 Col#7  PD_05_press_2_raw_act
 36 lines in following concentration table = NCONC+1
    Conc.  %SD /Cr+PCr  Metabolite                                         
  133.715 140% 9.1E-02 Ala                                                 
    0.000 999%   0.000 Asp                                                 
 1.14E+03  26%   0.780 Cr                                                  
  322.651  96%   0.220 PCr                                                 
   27.376 663% 1.9E-02 GABA                                                
   81.014 221% 5.5E-02 Glc                                                 
 1.47E+03  27%   0.999 Gln                                                 
 2.80E+03  16%   1.908 Glu                                                 
  331.419  10%   0.226 GPC                                                 
    0.000 999%   0.000 PCh                                                 
  771.274  15%   0.526 GSH                                                 
 1.93E+03  19%   1.316 Ins                                                 
    0.000 999%   0.000 Lac                                                 
 3.27E+03   6%   2.231 NAA                                                 
   26.067 848% 1.8E-02 NAAG                                                
   99.512  38% 6.8E-02 Scyllo                                              
  161.792 156%   0.110 Tau                                                 
    0.000 999%   0.000 -CrCH2                                              
  331.419  10%   0.226 GPC+PCh                                             
 3.30E+03   4%   2.249 NAA+NAAG                                            
 1.47E+03   6%   1.000 Cr+PCr                                              
 4.27E+03  15%   2.907 Glu+Gln                                             
 2.68E+03  22%   1.823 Lip13a                                              
    0.000 999%   0.000 Lip13b                                              
    0.000 999%   0.000 Lip09                                               
 2.22E+03  12%   1.515 MM09                                                
  531.054  52%   0.362 Lip20                                               
 5.49E+03   9%   3.743 MM20                                                
  754.676  28%   0.514 MM12                                                
 1.79E+03  28%   1.218 MM14                                                
 1.67E+03  21%   1.136 MM17                                                
 2.68E+03  22%   1.823 Lip13a+Lip13b                                       
 5.22E+03  10%   3.555 MM14+Lip13a+Lip13b+MM12                             
 2.22E+03  12%   1.515 MM09+Lip09                                          
 6.02E+03   9%   4.105 MM20+Lip20                                          
   6 lines in following misc. output table
  FWHM = 0.054 ppm    S/N =  11                                            
  Data shift = 0.000 ppm                                                   
  Ph:   0 deg       9.4 deg/ppm                                            
  alphaB,S = 8.5E+01,   1.1E+02                                            
   14 spline knots.   Ns = 7(1)                                            
   4 inflections.     1 extrema                                            
  498 points on ppm-axis = NY
      4.000000     3.992357     3.984714     3.977070     3.969427     3.961784     3.954141     3.946497     3.938854     3.931211
      3.923568     3.915925     3.908281     3.900638     3.892995     3.885352     3.877708     3.870065     3.862422     3.854779
      3.847136     3.839492     3.831849     3.824206     3.816563     3.808919     3.801276     3.793633     3.785990     3.778347
      3.770703     3.763060     3.755417     3.747774     3.740130     3.732487     3.724844     3.717201     3.709558     3.701914
      3.694271     3.686628     3.678985     3.671341     3.663698     3.656055     3.648412     3.640769     3.633125     3.625482
      3.617839     3.610196     3.602552     3.594909     3.587266     3.579623     3.571980     3.564336     3.556693     3.549050
      3.541407     3.533763     3.526120     3.518477     3.510834     3.503191     3.495547     3.487904     3.480261     3.472618
      3.464974     3.457331     3.449688     3.442045     3.434402     3.426758     3.419115     3.411472     3.403829     3.396185
      3.388542     3.380899     3.373256     3.365613     3.357969     3.350326     3.342683     3.335040     3.327396     3.319753
      3.312110     3.304467     3.296824     3.289180     3.281537     3.273894     3.266251     3.258607     3.250964     3.243321
      3.235678     3.228034     3.220391     3.212748     3.205105     3.197462     3.189818     3.182175     3.174532     3.166889
      3.159245     3.151602     3.143959     3.136316     3.128673     3.121029     3.113386     3.105743     3.098100     3.090456
      3.082813     3.075170     3.067527     3.059884     3.052240     3.044597     3.036954     3.029311     3.021667     3.014024
      3.006381     2.998738     2.991095     2.983451     2.975808     2.968165     2.960522     2.952878     2.945235     2.937592
      2.929949     2.922306     2.914662     2.907019     2.899376     2.891733     2.884089     2.876446     2.868803     2.861160
      2.853517     2.845873     2.838230     2.830587     2.822944     2.815300     2.807657     2.800014     2.792371     2.784728
      2.777084     2.769441     2.761798     2.754155     2.746511     2.738868     2.731225     2.723582     2.715939     2.708295
      2.700652     2.693009     2.685366     2.677722     2.670079     2.662436     2.654793     2.647150     2.639506     2.631863
      2.624220     2.616577     2.608933     2.601290     2.593647     2.586004     2.578361     2.570717     2.563074     2.555431
      2.547788     2.540144     2.532501     2.524858     2.517215     2.509572     2.501928     2.494285     2.486642     2.478999
      2.471355     2.463712     2.456069     2.448426     2.440783     2.433139     2.425496     2.417853     2.410210     2.402566
      2.394923     2.387280     2.379637     2.371994     2.364350     2.356707     2.349064     2.341421     2.333777     2.326134
      2.318491     2.310848     2.303205     2.295561     2.287918     2.280275     2.272632     2.264988     2.257345     2.249702
      2.242059     2.234416     2.226772     2.219129     2.211486     2.203843     2.196199     2.188556     2.180913     2.173270
      2.165627     2.157983     2.150340     2.142697     2.135054     2.127410     2.119767     2.112124     2.104481     2.096838
      2.089194     2.081551     2.073908     2.066265     2.058621     2.050978     2.043335     2.035692     2.028049     2.020405
      2.012762     2.005119     1.997476     1.989833     1.982190     1.974546     1.966903     1.959260     1.951617     1.943974
      1.936331     1.928688     1.921045     1.913402     1.905759     1.898115     1.890472     1.882829     1.875186     1.867543
      1.859900     1.852257     1.844614     1.836971     1.829327     1.821684     1.814041     1.806398     1.798755     1.791112
      1.783469     1.775826     1.768183     1.760540     1.752896     1.745253     1.737610     1.729967     1.722324     1.714681
      1.707038     1.699395     1.691752     1.684108     1.676465     1.668822     1.661179     1.653536     1.645893     1.638250
      1.630607     1.622964     1.615321     1.607677     1.600034     1.592391     1.584748     1.577105     1.569462     1.561819
      1.554176     1.546533     1.538890     1.531246     1.523603     1.515960     1.508317     1.500674     1.493031     1.485388
      1.477745     1.470102     1.462458     1.454815     1.447172     1.439529     1.431886     1.424243     1.416600     1.408957
      1.401314     1.393671     1.386027     1.378384     1.370741     1.363098     1.355455     1.347812     1.340169     1.332526
      1.324883     1.317240     1.309596     1.301953     1.294310     1.286667     1.279024     1.271381     1.263738     1.256095
      1.248452     1.240808     1.233165     1.225522     1.217879     1.210236     1.202593     1.194950     1.187307     1.179664
      1.172021     1.164377     1.156734     1.149091     1.141448     1.133805     1.126162     1.118519     1.110876     1.103233
      1.095590     1.087946     1.080303     1.072660     1.065017     1.057374     1.049731     1.042088     1.034445     1.026802
      1.019158     1.011515     1.003872     0.996229     0.988586     0.980943     0.973300     0.965657     0.958014     0.950371
      0.942727     0.935084     0.927441     0.919798     0.912155     0.904512     0.896869     0.889226     0.881583     0.873940
      0.866296     0.858653     0.851010     0.843367     0.835724     0.828081     0.820438     0.812795     0.805152     0.797508
      0.789865     0.782222     0.774579     0.766936     0.759293     0.751650     0.744007     0.736364     0.728721     0.721077
      0.713434     0.705791     0.698148     0.690505     0.682862     0.675219     0.667576     0.659933     0.652290     0.644646
      0.637003     0.629360     0.621717     0.614074     0.606431     0.598788     0.591145     0.583502     0.575858     0.568215
      0.560572     0.552929     0.545286     0.537643     0.530000     0.522357     0.514714     0.507071     0.499427     0.491784
      0.484141     0.476498     0.468855     0.461212     0.453569     0.445925     0.438282     0.430639     0.422996     0.415353
      0.407710     0.400067     0.392424     0.384780     0.377137     0.369494     0.361851     0.354208     0.346565     0.338922
      0.331278     0.323635     0.315992     0.308349     0.300706     0.293063     0.285420     0.277777     0.270133     0.262490
      0.254847     0.247204     0.239561     0.231918     0.224275     0.216631     0.208988     0.201345
 NY phased data points follow
   5.07835E+00  1.55090E+01  3.55091E+00  7.15103E+00  6.81838E+00  1.77944E+01  1.91220E+01  2.31830E+01  2.70151E+01  3.38366E+01
   3.70948E+01  4.95750E+01  3.15393E+01  2.82630E+01  3.20211E+01  2.58836E+01  2.29073E+01  2.56876E+01  2.79586E+01  1.81505E+01
   2.24026E+01  2.36960E+01  2.26000E+01  2.16908E+01  2.19275E+01  1.84538E+01  1.68453E+01  2.27996E+01  2.13575E+01  2.17935E+01
   2.28156E+01  2.54745E+01  2.33381E+01  2.31122E+01  2.32267E+01  1.68508E+01  2.05108E+01  1.09338E+01  1.64853E+01  1.35204E+01
   1.78047E+01  1.62648E+01  1.72628E+01  9.32898E+00  1.22422E+01  2.22405E+01  1.62464E+01  2.84907E+01  1.92303E+01  2.15127E+01
   1.76454E+01  1.06469E+01  1.07180E+01  2.03499E+01  1.05154E+01  1.72564E+01  9.95116E+00  2.27734E+01  1.55414E+01  1.38541E+01
   1.45563E+01  9.38804E+00  1.19665E+01  1.19083E+01  6.01557E+00  1.05564E+01  5.63279E+00  1.70727E+01  1.12249E+00  1.38726E+01
   8.10942E+00  9.20511E+00  1.03058E+01  1.13188E+01 -6.33654E-01  1.06799E+01  8.81374E+00  2.75024E+00  8.93112E+00  1.06383E+01
   1.29667E+01  8.16018E+00  2.04056E+00  6.30196E+00  5.77690E+00  1.25312E+01  1.15152E+01  3.72103E+00  5.73925E+00  1.25255E+01
   1.27615E+01  8.78893E+00  1.22951E+01  1.17282E+01  1.06924E+01  5.19899E+00  1.65443E+01  3.55126E+00  1.21051E+01  1.65531E+01
   1.45243E+01  1.86938E+01  2.86495E+01  4.10852E+01  3.77888E+01  3.23213E+01  2.13896E+01  1.28927E+01  1.54835E+01  2.14731E+01
   1.99055E+01  1.11324E+01  1.60400E+01  8.25498E+00  1.32213E+01  5.46638E+00  4.84658E+00  1.61694E+01  1.82593E+01  2.88967E+00
   4.41815E+00  1.00598E+01  1.36513E+01  1.71226E+01  2.30320E+01  3.70235E+01  5.83688E+01  6.07532E+01  6.36069E+01  5.09920E+01
   4.61248E+01  3.59936E+01  2.71206E+01  1.87402E+01  1.62297E+01  1.49740E+01  1.72432E+01  9.21430E+00  1.34588E+01  1.47900E+01
   1.77849E+01  1.51780E+01  1.08864E+01  6.24776E+00  7.87279E+00  8.25072E+00  3.07537E+00  7.66716E+00  9.21495E+00  8.54309E+00
  -7.50240E-01  3.94910E+00  1.53563E+01  2.66608E+00 -9.36299E-01 -6.10073E-01  7.02128E-01 -1.49400E+00  5.66559E+00  7.46884E+00
   2.29243E+00  9.22394E-01  3.49257E+00  6.28183E+00  1.00881E+01  5.76659E+00  1.32659E+00  7.37416E-01 -5.81611E+00  7.02959E+00
  -5.05940E+00 -1.46458E+01 -9.20383E+00 -8.04996E+00 -6.44485E+00 -1.34925E+01 -3.26138E-01 -1.06827E+01 -1.23362E+01 -1.28316E+01
  -7.96563E+00 -1.46532E+01 -1.94512E+01 -1.82380E+00 -9.66425E+00 -2.89023E+00 -8.23145E+00 -4.07607E-01  3.57782E+00  3.00822E+00
  -1.61132E+00  6.34671E+00 -5.82091E+00  2.01567E+00  1.84022E+00 -1.23634E+00 -1.25015E+01 -1.34165E+00 -1.65874E+00 -8.37592E-01
   3.17888E+00  2.77770E-01  2.20213E+00  6.23386E+00  1.05917E+01  1.08516E+01  7.91826E+00 -2.81220E+00 -2.85048E+00  7.02685E+00
  -8.52262E-01  6.77225E+00  7.95381E+00  1.67892E+01  1.28398E+01  2.24441E+01  2.50100E+01  2.20251E+01  2.02403E+01  1.11272E+01
   7.89181E+00  1.26042E+01  8.31376E-01  1.57572E-01  7.19126E+00  5.14193E+00  1.34021E+01  1.58345E+01  2.26610E+01  2.77091E+01
   2.39954E+01  2.08184E+01  1.74824E+01  1.64804E+01  2.42355E+01  2.33796E+01  2.86468E+01  1.54411E+01  1.45658E+01  1.55881E+01
   1.63675E+01  1.49124E+01  1.74568E+01  1.36413E+01  2.20243E+01  2.71141E+01  3.26890E+01  3.30337E+01  1.68532E+01  2.30054E+01
   2.27476E+01  2.93950E+01  2.93057E+01  4.08804E+01  3.83957E+01  4.53046E+01  5.44575E+01  7.39570E+01  9.05711E+01  1.11782E+02
   1.33068E+02  1.34825E+02  1.17086E+02  9.37238E+01  7.47285E+01  6.31320E+01  4.77636E+01  3.86699E+01  2.91607E+01  3.01366E+01
   1.80680E+01  1.80591E+01  1.98088E+01  1.84674E+01  9.44638E+00  9.77112E+00  1.24830E+01  7.62400E+00  2.97743E+00  1.43417E+01
   5.36409E+00  1.14261E+01  5.90645E-01  7.09487E+00  3.96359E+00  5.30547E+00  5.17357E+00 -1.20173E+00  1.02397E+00  9.79111E+00
   7.52835E+00  6.82178E+00  1.39832E+00  3.44838E+00  6.71261E+00  1.51820E+01  2.81141E+00  4.72603E+00  1.39206E+01  6.58574E+00
   1.28486E+01  2.99186E+00  6.01679E+00  5.67660E+00  5.58225E+00  8.41700E+00  4.50528E+00  1.02335E+01  1.63032E+01  1.95524E+01
   1.98387E+01  1.87492E+01  2.16086E+01  2.55227E+01  1.98213E+01  2.83437E+01  1.83120E+01  2.18595E+01  2.26095E+01  1.47716E+01
   1.31702E+01  1.93511E+01  1.28909E+01  1.13253E+01  1.40183E+01  1.16767E+01  1.02426E+01  2.11328E+01  1.22259E+01  1.49950E+01
   1.51202E+01  8.95714E+00  9.06564E+00  1.48669E+01  1.47253E+01  1.31099E+01  1.71252E+01  1.68837E+01  1.67497E+01  1.33872E+01
   1.79991E+01  1.65869E+01  1.54096E+01  9.38599E+00  5.63341E+00  1.70791E+01  1.31409E+01  1.39667E+01  9.35555E+00  1.61378E+01
   1.19413E+01  1.97562E+01  2.29350E+01  1.63485E+01  1.96231E+01  2.74437E+01  2.38687E+01  1.85180E+01  2.41824E+01  1.51124E+01
   1.74393E+01  1.41407E+01  1.86315E+01  1.87362E+01  2.05907E+01  2.45520E+01  2.00878E+01  2.18151E+01  1.93052E+01  1.87689E+01
   2.08729E+01  1.59296E+01  1.54435E+01  1.65325E+01  1.16260E+01  8.56284E+00  1.00064E+01  9.96882E+00  3.94924E+00  8.75666E+00
   5.67273E+00  7.03491E+00 -2.70679E+00 -1.35587E+00  6.33579E+00  1.81671E+00  6.33517E+00  2.32295E+00  1.38819E+01 -2.15878E+00
   1.01240E+01  3.11890E+00  1.07777E+01  7.07875E+00  1.17247E+01  1.28138E+01  1.07162E+01  1.02748E+01  1.21488E+01  1.37871E+01
   2.01639E+01  1.65985E+01  1.47132E+01  2.14510E+01  1.55282E+01  1.10856E+01  1.68524E+01  1.84377E+01  1.34646E+01  2.02857E+01
   1.42890E+01  8.92488E+00  1.23501E+01  1.48246E+01  5.21625E+00  1.50479E+01  5.19542E+00  8.27668E+00  8.97029E+00  1.35149E-01
   3.76651E+00  6.64325E+00  4.18917E+00  2.23145E+00 -6.19059E+00 -6.25384E-02  3.61879E-02  6.41601E+00  7.52981E+00 -3.29566E-01
   1.00532E+00  4.64838E+00 -8.04017E-01 -2.64101E+00 -1.86542E+00  6.52025E+00 -2.89910E+00  1.80598E+00 -5.59008E+00 -9.56594E-01
   2.76446E+00  4.34167E+00  2.70715E+00 -4.18820E+00 -2.85348E+00 -2.22776E+00 -9.93181E+00 -3.18141E+00  1.17227E-01  4.56704E+00
  -5.90464E+00  4.37106E+00 -4.99569E+00  1.27886E+00 -1.01020E+00  4.46174E+00 -6.41953E+00 -2.32831E+00  4.97153E+00  5.78743E+00
  -9.16045E+00 -3.17973E+00 -7.40870E-01  2.65304E+00  9.25769E+00  5.31049E-01 -3.74623E+00 -1.42137E+00  2.82669E+00  1.23827E+01
  -4.99616E+00  4.06266E+00  2.18825E+00  2.40437E+00  1.51181E+00 -3.54619E+00 -1.24306E+00  8.56161E+00 -5.70224E+00 -1.64708E+00
  -1.76865E+00 -6.07058E+00  5.94317E+00 -1.30248E+00  1.90276E+00 -2.98548E-01  2.55096E+00 -3.00815E+00 -2.12349E+00  8.50785E+00
  -4.67999E+00 -4.20376E+00 -9.06212E+00  5.33408E+00  6.42388E+00 -8.62577E-01  2.56876E+00 -2.03850E+00
 NY points of the fit to the data follow
   1.10189E+01  1.02871E+01  1.01922E+01  1.05481E+01  1.15756E+01  1.39190E+01  1.72947E+01  2.15469E+01  2.66777E+01  3.22292E+01
   3.71300E+01  3.99272E+01  3.95425E+01  3.61949E+01  3.13495E+01  2.66530E+01  2.29357E+01  2.01088E+01  1.78104E+01  1.55542E+01
   1.35353E+01  1.27920E+01  1.30918E+01  1.37918E+01  1.46877E+01  1.61227E+01  1.83514E+01  2.12073E+01  2.41654E+01  2.64801E+01
   2.77488E+01  2.79516E+01  2.70792E+01  2.52252E+01  2.23975E+01  1.86645E+01  1.45948E+01  1.10946E+01  9.37954E+00  9.16663E+00
   9.78205E+00  1.10298E+01  1.26985E+01  1.47430E+01  1.73674E+01  2.03254E+01  2.28159E+01  2.36526E+01  2.22057E+01  1.91709E+01
   1.57612E+01  1.29438E+01  1.11676E+01  1.01863E+01  9.48079E+00  9.00327E+00  9.21287E+00  1.01952E+01  1.14225E+01  1.23234E+01
   1.25955E+01  1.21186E+01  1.11018E+01  9.94425E+00  9.09052E+00  8.78994E+00  8.88076E+00  9.12406E+00  9.50210E+00  9.99891E+00
   1.05517E+01  1.10540E+01  1.13452E+01  1.13661E+01  1.11437E+01  1.07607E+01  1.03061E+01  9.79943E+00  9.32710E+00  8.97514E+00
   8.85382E+00  8.92731E+00  9.11363E+00  9.36820E+00  9.60669E+00  9.63570E+00  9.19646E+00  8.27124E+00  7.18832E+00  6.41296E+00
   6.15974E+00  6.31827E+00  6.58790E+00  6.69473E+00  6.60027E+00  6.59568E+00  7.26303E+00  8.80375E+00  1.09213E+01  1.40691E+01
   1.88476E+01  2.50916E+01  3.13766E+01  3.53984E+01  3.54458E+01  3.18564E+01  2.65799E+01  2.17120E+01  1.81980E+01  1.55965E+01
   1.30174E+01  1.01196E+01  7.92930E+00  7.32327E+00  7.26595E+00  7.31992E+00  7.40250E+00  7.53690E+00  7.76887E+00  8.29165E+00
   9.83261E+00  1.30245E+01  1.73622E+01  2.31810E+01  3.12121E+01  4.12389E+01  5.12638E+01  5.78560E+01  5.84217E+01  5.33053E+01
   4.53098E+01  3.74232E+01  3.08993E+01  2.51733E+01  1.93151E+01  1.33483E+01  9.19107E+00  8.32952E+00  8.96795E+00  9.81610E+00
   1.03469E+01  1.04954E+01  1.03943E+01  1.00748E+01  9.64643E+00  9.19732E+00  8.67017E+00  8.05855E+00  7.41273E+00  6.79611E+00
   6.31649E+00  5.94375E+00  5.67869E+00  5.51671E+00  5.37593E+00  5.19842E+00  4.97336E+00  4.64785E+00  4.18471E+00  3.57809E+00
   2.95649E+00  2.62492E+00  2.76097E+00  3.20786E+00  3.57222E+00  3.47683E+00  2.84764E+00  1.96282E+00  1.19146E+00  6.60192E-01
   1.39649E-01 -4.96945E-01 -1.27938E+00 -2.16771E+00 -2.93838E+00 -3.40444E+00 -3.44426E+00 -3.12038E+00 -2.74270E+00 -2.64294E+00
  -2.92073E+00 -3.28376E+00 -3.32279E+00 -2.97241E+00 -2.36137E+00 -1.59733E+00 -5.43552E-01  1.17249E+00  3.42303E+00  5.51732E+00
   6.67711E+00  6.64314E+00  5.72292E+00  4.39801E+00  3.23878E+00  2.62159E+00  2.59364E+00  3.23808E+00  4.65838E+00  6.65965E+00
   8.97223E+00  1.12849E+01  1.32208E+01  1.41259E+01  1.37012E+01  1.17630E+01  8.31819E+00  4.05421E+00  1.27981E-02 -2.55504E+00
  -2.81116E+00 -7.43903E-01  3.20107E+00  8.29920E+00  1.34739E+01  1.72815E+01  1.84370E+01  1.66934E+01  1.27968E+01  7.47870E+00
   2.27698E+00 -1.33881E+00 -2.75533E+00 -1.74869E+00  1.31449E+00  5.60725E+00  9.76847E+00  1.26426E+01  1.42908E+01  1.52775E+01
   1.61789E+01  1.69417E+01  1.73666E+01  1.77158E+01  1.82442E+01  1.87650E+01  1.91017E+01  1.94265E+01  1.97758E+01  1.98940E+01
   1.95563E+01  1.89924E+01  1.87132E+01  1.91422E+01  2.02667E+01  2.16392E+01  2.29700E+01  2.39525E+01  2.45855E+01  2.51705E+01
   2.60555E+01  2.73628E+01  2.89562E+01  3.23460E+01  3.89918E+01  4.73753E+01  5.82564E+01  7.38633E+01  9.42594E+01  1.15176E+02
   1.28954E+02  1.29263E+02  1.16361E+02  9.67343E+01  7.78486E+01  6.34177E+01  5.23918E+01  4.17126E+01  2.98541E+01  2.00453E+01
   1.59235E+01  1.41637E+01  1.31223E+01  1.25202E+01  1.21252E+01  1.16570E+01  1.10936E+01  1.04544E+01  9.78110E+00  9.12016E+00
   8.49804E+00  7.90243E+00  7.35435E+00  6.89634E+00  6.52377E+00  6.20492E+00  5.92620E+00  5.69011E+00  5.50482E+00  5.36922E+00
   5.26989E+00  5.21657E+00  5.21868E+00  5.28052E+00  5.40798E+00  5.60980E+00  5.89456E+00  6.26719E+00  6.72967E+00  7.28609E+00
   7.93683E+00  8.67835E+00  9.50448E+00  1.04020E+01  1.13526E+01  1.23347E+01  1.33252E+01  1.42990E+01  1.52294E+01  1.60890E+01
   1.68511E+01  1.74927E+01  1.79970E+01  1.83541E+01  1.85592E+01  1.86151E+01  1.85320E+01  1.83280E+01  1.80295E+01  1.76741E+01
   1.73089E+01  1.69299E+01  1.65373E+01  1.61654E+01  1.58027E+01  1.53730E+01  1.47716E+01  1.39495E+01  1.30262E+01  1.22130E+01
   1.16446E+01  1.13805E+01  1.14180E+01  1.17247E+01  1.22417E+01  1.28685E+01  1.34865E+01  1.39287E+01  1.41525E+01  1.42820E+01
   1.44267E+01  1.46162E+01  1.48127E+01  1.49721E+01  1.51640E+01  1.54709E+01  1.58635E+01  1.63184E+01  1.68208E+01  1.73563E+01
   1.79093E+01  1.84632E+01  1.89997E+01  1.94998E+01  1.99438E+01  2.03130E+01  2.05903E+01  2.07617E+01  2.08163E+01  2.07465E+01
   2.05490E+01  2.02245E+01  1.97786E+01  1.92205E+01  1.85629E+01  1.78206E+01  1.70104E+01  1.61505E+01  1.52595E+01  1.43559E+01
   1.34568E+01  1.25779E+01  1.17329E+01  1.09338E+01  1.01911E+01  9.51272E+00  8.90483E+00  8.37178E+00  7.91675E+00  7.54216E+00
   7.24967E+00  7.04018E+00  6.91401E+00  6.87128E+00  6.91210E+00  7.03655E+00  7.24428E+00  7.53415E+00  7.90413E+00  8.35120E+00
   8.87118E+00  9.45826E+00  1.01044E+01  1.07993E+01  1.15303E+01  1.22824E+01  1.30392E+01  1.37823E+01  1.44920E+01  1.51479E+01
   1.57301E+01  1.62200E+01  1.66012E+01  1.68601E+01  1.69862E+01  1.69733E+01  1.68196E+01  1.65281E+01  1.61061E+01  1.55644E+01
   1.49171E+01  1.41809E+01  1.33743E+01  1.25168E+01  1.16274E+01  1.07243E+01  9.82401E+00  8.94123E+00  8.08841E+00  7.27552E+00
   6.50986E+00  5.79614E+00  5.13692E+00  4.53303E+00  3.98390E+00  3.48759E+00  3.04110E+00  2.64072E+00  2.28250E+00  1.96256E+00
   1.67707E+00  1.42225E+00  1.19437E+00  9.89989E-01  8.06162E-01  6.40406E-01  4.90513E-01  3.54395E-01  2.30120E-01  1.16083E-01
   1.10726E-02 -8.58673E-02 -1.75653E-01 -2.59233E-01 -3.37472E-01 -4.10993E-01 -4.80181E-01 -5.45368E-01 -6.06983E-01 -6.65530E-01
  -7.21412E-01 -7.74822E-01 -8.25831E-01 -8.74576E-01 -9.21339E-01 -9.66435E-01 -1.01004E+00 -1.05216E+00 -1.09278E+00 -1.13202E+00
  -1.17012E+00 -1.20727E+00 -1.24349E+00 -1.27870E+00 -1.31290E+00 -1.34621E+00 -1.37885E+00 -1.41091E+00 -1.44233E+00 -1.47301E+00
  -1.50298E+00 -1.53239E+00 -1.56141E+00 -1.59002E+00 -1.61812E+00 -1.64563E+00 -1.67264E+00 -1.69932E+00 -1.72575E+00 -1.75187E+00
  -1.77755E+00 -1.80277E+00 -1.82766E+00 -1.85236E+00 -1.87688E+00 -1.90111E+00 -1.92493E+00 -1.94840E+00 -1.97166E+00 -1.99480E+00
  -2.01777E+00 -2.04043E+00 -2.06271E+00 -2.08472E+00 -2.10659E+00 -2.12835E+00 -2.14987E+00 -2.17102E+00
 NY background values follow
     5.518E+00    5.502E+00    5.486E+00    5.469E+00    5.453E+00    5.437E+00    5.421E+00    5.404E+00    5.388E+00    5.372E+00
     5.356E+00    5.339E+00    5.323E+00    5.307E+00    5.291E+00    5.275E+00    5.258E+00    5.242E+00    5.226E+00    5.210E+00
     5.193E+00    5.177E+00    5.161E+00    5.145E+00    5.128E+00    5.112E+00    5.096E+00    5.080E+00    5.063E+00    5.047E+00
     5.031E+00    5.015E+00    4.998E+00    4.982E+00    4.966E+00    4.950E+00    4.934E+00    4.917E+00    4.901E+00    4.885E+00
     4.869E+00    4.852E+00    4.836E+00    4.820E+00    4.804E+00    4.787E+00    4.771E+00    4.755E+00    4.739E+00    4.722E+00
     4.706E+00    4.690E+00    4.674E+00    4.657E+00    4.641E+00    4.625E+00    4.609E+00    4.593E+00    4.576E+00    4.560E+00
     4.544E+00    4.528E+00    4.511E+00    4.495E+00    4.479E+00    4.463E+00    4.446E+00    4.430E+00    4.414E+00    4.398E+00
     4.381E+00    4.365E+00    4.349E+00    4.333E+00    4.316E+00    4.300E+00    4.284E+00    4.268E+00    4.252E+00    4.235E+00
     4.219E+00    4.203E+00    4.187E+00    4.170E+00    4.154E+00    4.138E+00    4.122E+00    4.105E+00    4.089E+00    4.073E+00
     4.057E+00    4.040E+00    4.024E+00    4.008E+00    3.992E+00    3.975E+00    3.959E+00    3.943E+00    3.927E+00    3.911E+00
     3.894E+00    3.878E+00    3.862E+00    3.846E+00    3.829E+00    3.813E+00    3.797E+00    3.781E+00    3.764E+00    3.748E+00
     3.732E+00    3.716E+00    3.699E+00    3.683E+00    3.667E+00    3.651E+00    3.635E+00    3.618E+00    3.602E+00    3.586E+00
     3.570E+00    3.553E+00    3.537E+00    3.521E+00    3.505E+00    3.488E+00    3.472E+00    3.456E+00    3.440E+00    3.424E+00
     3.407E+00    3.391E+00    3.375E+00    3.359E+00    3.342E+00    3.326E+00    3.310E+00    3.294E+00    3.277E+00    3.261E+00
     3.245E+00    3.229E+00    3.213E+00    3.196E+00    3.180E+00    3.164E+00    3.148E+00    3.131E+00    3.115E+00    3.099E+00
     3.083E+00    3.066E+00    3.050E+00    3.034E+00    3.018E+00    3.002E+00    2.985E+00    2.969E+00    2.953E+00    2.937E+00
     2.920E+00    2.904E+00    2.888E+00    2.872E+00    2.855E+00    2.839E+00    2.823E+00    2.807E+00    2.791E+00    2.774E+00
     2.758E+00    2.742E+00    2.726E+00    2.709E+00    2.693E+00    2.677E+00    2.661E+00    2.645E+00    2.628E+00    2.612E+00
     2.596E+00    2.580E+00    2.563E+00    2.547E+00    2.531E+00    2.515E+00    2.499E+00    2.482E+00    2.466E+00    2.450E+00
     2.434E+00    2.417E+00    2.401E+00    2.385E+00    2.369E+00    2.353E+00    2.336E+00    2.320E+00    2.304E+00    2.288E+00
     2.271E+00    2.255E+00    2.239E+00    2.223E+00    2.207E+00    2.190E+00    2.174E+00    2.158E+00    2.142E+00    2.125E+00
     2.109E+00    2.093E+00    2.077E+00    2.061E+00    2.044E+00    2.028E+00    2.012E+00    1.996E+00    1.979E+00    1.963E+00
     1.947E+00    1.931E+00    1.915E+00    1.898E+00    1.882E+00    1.866E+00    1.850E+00    1.834E+00    1.817E+00    1.801E+00
     1.785E+00    1.769E+00    1.752E+00    1.736E+00    1.720E+00    1.704E+00    1.688E+00    1.671E+00    1.655E+00    1.639E+00
     1.623E+00    1.607E+00    1.590E+00    1.574E+00    1.558E+00    1.542E+00    1.525E+00    1.509E+00    1.493E+00    1.477E+00
     1.461E+00    1.444E+00    1.428E+00    1.412E+00    1.396E+00    1.380E+00    1.363E+00    1.347E+00    1.331E+00    1.315E+00
     1.298E+00    1.282E+00    1.266E+00    1.250E+00    1.234E+00    1.217E+00    1.201E+00    1.185E+00    1.169E+00    1.153E+00
     1.136E+00    1.120E+00    1.104E+00    1.088E+00    1.071E+00    1.055E+00    1.039E+00    1.023E+00    1.007E+00    9.904E-01
     9.742E-01    9.580E-01    9.418E-01    9.256E-01    9.094E-01    8.932E-01    8.770E-01    8.608E-01    8.446E-01    8.284E-01
     8.121E-01    7.959E-01    7.797E-01    7.635E-01    7.473E-01    7.311E-01    7.149E-01    6.987E-01    6.825E-01    6.663E-01
     6.501E-01    6.339E-01    6.177E-01    6.014E-01    5.852E-01    5.690E-01    5.528E-01    5.366E-01    5.204E-01    5.042E-01
     4.880E-01    4.718E-01    4.556E-01    4.394E-01    4.232E-01    4.070E-01    3.908E-01    3.746E-01    3.584E-01    3.422E-01
     3.260E-01    3.097E-01    2.935E-01    2.773E-01    2.611E-01    2.449E-01    2.287E-01    2.125E-01    1.963E-01    1.801E-01
     1.639E-01    1.477E-01    1.315E-01    1.153E-01    9.909E-02    8.289E-02    6.669E-02    5.048E-02    3.428E-02    1.808E-02
     1.875E-03   -1.433E-02   -3.053E-02   -4.673E-02   -6.293E-02   -7.914E-02   -9.534E-02   -1.115E-01   -1.277E-01   -1.439E-01
    -1.601E-01   -1.763E-01   -1.925E-01   -2.088E-01   -2.250E-01   -2.412E-01   -2.574E-01   -2.736E-01   -2.898E-01   -3.060E-01
    -3.222E-01   -3.384E-01   -3.546E-01   -3.708E-01   -3.870E-01   -4.032E-01   -4.194E-01   -4.356E-01   -4.518E-01   -4.680E-01
    -4.842E-01   -5.004E-01   -5.166E-01   -5.328E-01   -5.490E-01   -5.652E-01   -5.814E-01   -5.976E-01   -6.138E-01   -6.299E-01
    -6.461E-01   -6.623E-01   -6.785E-01   -6.947E-01   -7.109E-01   -7.271E-01   -7.433E-01   -7.595E-01   -7.757E-01   -7.919E-01
    -8.081E-01   -8.243E-01   -8.405E-01   -8.567E-01   -8.729E-01   -8.891E-01   -9.053E-01   -9.215E-01   -9.377E-01   -9.539E-01
    -9.701E-01   -9.863E-01   -1.002E+00   -1.019E+00   -1.035E+00   -1.051E+00   -1.067E+00   -1.083E+00   -1.100E+00   -1.116E+00
    -1.132E+00   -1.148E+00   -1.164E+00   -1.181E+00   -1.197E+00   -1.213E+00   -1.229E+00   -1.245E+00   -1.262E+00   -1.278E+00
    -1.294E+00   -1.310E+00   -1.326E+00   -1.343E+00   -1.359E+00   -1.375E+00   -1.391E+00   -1.407E+00   -1.424E+00   -1.440E+00
    -1.456E+00   -1.472E+00   -1.488E+00   -1.505E+00   -1.521E+00   -1.537E+00   -1.553E+00   -1.569E+00   -1.586E+00   -1.602E+00
    -1.618E+00   -1.634E+00   -1.650E+00   -1.666E+00   -1.683E+00   -1.699E+00   -1.715E+00   -1.731E+00   -1.747E+00   -1.764E+00
    -1.780E+00   -1.796E+00   -1.812E+00   -1.828E+00   -1.845E+00   -1.861E+00   -1.877E+00   -1.893E+00   -1.909E+00   -1.926E+00
    -1.942E+00   -1.958E+00   -1.974E+00   -1.990E+00   -2.007E+00   -2.023E+00   -2.039E+00   -2.055E+00   -2.071E+00   -2.087E+00
    -2.104E+00   -2.120E+00   -2.136E+00   -2.152E+00   -2.168E+00   -2.185E+00   -2.201E+00   -2.217E+00   -2.233E+00   -2.249E+00
    -2.266E+00   -2.282E+00   -2.298E+00   -2.314E+00   -2.330E+00   -2.347E+00   -2.363E+00   -2.379E+00   -2.395E+00   -2.411E+00
    -2.428E+00   -2.444E+00   -2.460E+00   -2.476E+00   -2.492E+00   -2.509E+00   -2.525E+00   -2.541E+00
 Ala      Conc. = 1.34E+02
