 LCModel (Version 6.3-1L) Copyright: S.W. Provencher.          Ref.: Magn. Reson. Med. 30:672-679 (1993).                
 Slice#3 Row#1 Col#5  PD_05_press_2_raw_act
 36 lines in following concentration table = NCONC+1
    Conc.  %SD /Cr+PCr  Metabolite                                         
    0.000 999%   0.000 Ala                                                 
   66.659 118%   0.124 Asp                                                 
    0.000 999%   0.000 Cr                                                  
  536.879  31%   1.000 PCr                                                 
   49.166  96% 9.2E-02 GABA                                                
   46.010 103% 8.6E-02 Glc                                                 
 3.30E+03  46%   6.139 Gln                                                 
    0.000 999%   0.000 Glu                                                 
  232.240  27%   0.433 GPC                                                 
    0.000 999%   0.000 PCh                                                 
  575.434  46%   1.072 GSH                                                 
  679.543  94%   1.266 Ins                                                 
    0.000 999%   0.000 Lac                                                 
  424.368  47%   0.790 NAA                                                 
    0.000 999%   0.000 NAAG                                                
   15.459 101% 2.9E-02 Scyllo                                              
   67.964 114%   0.127 Tau                                                 
    0.000 999%   0.000 -CrCH2                                              
  232.240  27%   0.433 GPC+PCh                                             
  424.368  47%   0.790 NAA+NAAG                                            
  536.879  31%   1.000 Cr+PCr                                              
 3.30E+03  46%   6.139 Glu+Gln                                             
    0.000 999%   0.000 Lip13a                                              
  157.449 160%   0.293 Lip13b                                              
   42.106 160% 7.8E-02 Lip09                                               
  156.769 175%   0.292 MM09                                                
   23.635 161% 4.4E-02 Lip20                                               
  141.040 322%   0.263 MM20                                                
   46.271 227% 8.6E-02 MM12                                                
   50.751 596% 9.5E-02 MM14                                                
  151.025 131%   0.281 MM17                                                
  157.449 160%   0.293 Lip13a+Lip13b                                       
  254.470 151%   0.474 MM14+Lip13a+Lip13b+MM12                             
  198.875 135%   0.370 MM09+Lip09                                          
  164.675 273%   0.307 MM20+Lip20                                          
   6 lines in following misc. output table
  FWHM = 0.107 ppm    S/N =   1                                            
  Data shift = 0.076 ppm                                                   
  Ph:  82 deg      10.1 deg/ppm                                            
  alphaB,S = 8.5E+01,   5.1E+01                                            
   14 spline knots.   Ns = 8(2)                                            
   2 inflections.     1 extrema                                            
  498 points on ppm-axis = NY
      4.000000     3.992357     3.984714     3.977070     3.969427     3.961784     3.954141     3.946497     3.938854     3.931211
      3.923568     3.915925     3.908281     3.900638     3.892995     3.885352     3.877708     3.870065     3.862422     3.854779
      3.847136     3.839492     3.831849     3.824206     3.816563     3.808919     3.801276     3.793633     3.785990     3.778347
      3.770703     3.763060     3.755417     3.747774     3.740130     3.732487     3.724844     3.717201     3.709558     3.701914
      3.694271     3.686628     3.678985     3.671341     3.663698     3.656055     3.648412     3.640769     3.633125     3.625482
      3.617839     3.610196     3.602552     3.594909     3.587266     3.579623     3.571980     3.564336     3.556693     3.549050
      3.541407     3.533763     3.526120     3.518477     3.510834     3.503191     3.495547     3.487904     3.480261     3.472618
      3.464974     3.457331     3.449688     3.442045     3.434402     3.426758     3.419115     3.411472     3.403829     3.396185
      3.388542     3.380899     3.373256     3.365613     3.357969     3.350326     3.342683     3.335040     3.327396     3.319753
      3.312110     3.304467     3.296824     3.289180     3.281537     3.273894     3.266251     3.258607     3.250964     3.243321
      3.235678     3.228034     3.220391     3.212748     3.205105     3.197462     3.189818     3.182175     3.174532     3.166889
      3.159245     3.151602     3.143959     3.136316     3.128673     3.121029     3.113386     3.105743     3.098100     3.090456
      3.082813     3.075170     3.067527     3.059884     3.052240     3.044597     3.036954     3.029311     3.021667     3.014024
      3.006381     2.998738     2.991095     2.983451     2.975808     2.968165     2.960522     2.952878     2.945235     2.937592
      2.929949     2.922306     2.914662     2.907019     2.899376     2.891733     2.884089     2.876446     2.868803     2.861160
      2.853517     2.845873     2.838230     2.830587     2.822944     2.815300     2.807657     2.800014     2.792371     2.784728
      2.777084     2.769441     2.761798     2.754155     2.746511     2.738868     2.731225     2.723582     2.715939     2.708295
      2.700652     2.693009     2.685366     2.677722     2.670079     2.662436     2.654793     2.647150     2.639506     2.631863
      2.624220     2.616577     2.608933     2.601290     2.593647     2.586004     2.578361     2.570717     2.563074     2.555431
      2.547788     2.540144     2.532501     2.524858     2.517215     2.509572     2.501928     2.494285     2.486642     2.478999
      2.471355     2.463712     2.456069     2.448426     2.440783     2.433139     2.425496     2.417853     2.410210     2.402566
      2.394923     2.387280     2.379637     2.371994     2.364350     2.356707     2.349064     2.341421     2.333777     2.326134
      2.318491     2.310848     2.303205     2.295561     2.287918     2.280275     2.272632     2.264988     2.257345     2.249702
      2.242059     2.234416     2.226772     2.219129     2.211486     2.203843     2.196199     2.188556     2.180913     2.173270
      2.165627     2.157983     2.150340     2.142697     2.135054     2.127410     2.119767     2.112124     2.104481     2.096838
      2.089194     2.081551     2.073908     2.066265     2.058621     2.050978     2.043335     2.035692     2.028049     2.020405
      2.012762     2.005119     1.997476     1.989833     1.982190     1.974546     1.966903     1.959260     1.951617     1.943974
      1.936331     1.928688     1.921045     1.913402     1.905759     1.898115     1.890472     1.882829     1.875186     1.867543
      1.859900     1.852257     1.844614     1.836971     1.829327     1.821684     1.814041     1.806398     1.798755     1.791112
      1.783469     1.775826     1.768183     1.760540     1.752896     1.745253     1.737610     1.729967     1.722324     1.714681
      1.707038     1.699395     1.691752     1.684108     1.676465     1.668822     1.661179     1.653536     1.645893     1.638250
      1.630607     1.622964     1.615321     1.607677     1.600034     1.592391     1.584748     1.577105     1.569462     1.561819
      1.554176     1.546533     1.538890     1.531246     1.523603     1.515960     1.508317     1.500674     1.493031     1.485388
      1.477745     1.470102     1.462458     1.454815     1.447172     1.439529     1.431886     1.424243     1.416600     1.408957
      1.401314     1.393671     1.386027     1.378384     1.370741     1.363098     1.355455     1.347812     1.340169     1.332526
      1.324883     1.317240     1.309596     1.301953     1.294310     1.286667     1.279024     1.271381     1.263738     1.256095
      1.248452     1.240808     1.233165     1.225522     1.217879     1.210236     1.202593     1.194950     1.187307     1.179664
      1.172021     1.164377     1.156734     1.149091     1.141448     1.133805     1.126162     1.118519     1.110876     1.103233
      1.095590     1.087946     1.080303     1.072660     1.065017     1.057374     1.049731     1.042088     1.034445     1.026802
      1.019158     1.011515     1.003872     0.996229     0.988586     0.980943     0.973300     0.965657     0.958014     0.950371
      0.942727     0.935084     0.927441     0.919798     0.912155     0.904512     0.896869     0.889226     0.881583     0.873940
      0.866296     0.858653     0.851010     0.843367     0.835724     0.828081     0.820438     0.812795     0.805152     0.797508
      0.789865     0.782222     0.774579     0.766936     0.759293     0.751650     0.744007     0.736364     0.728721     0.721077
      0.713434     0.705791     0.698148     0.690505     0.682862     0.675219     0.667576     0.659933     0.652290     0.644646
      0.637003     0.629360     0.621717     0.614074     0.606431     0.598788     0.591145     0.583502     0.575858     0.568215
      0.560572     0.552929     0.545286     0.537643     0.530000     0.522357     0.514714     0.507071     0.499427     0.491784
      0.484141     0.476498     0.468855     0.461212     0.453569     0.445925     0.438282     0.430639     0.422996     0.415353
      0.407710     0.400067     0.392424     0.384780     0.377137     0.369494     0.361851     0.354208     0.346565     0.338922
      0.331278     0.323635     0.315992     0.308349     0.300706     0.293063     0.285420     0.277777     0.270133     0.262490
      0.254847     0.247204     0.239561     0.231918     0.224275     0.216631     0.208988     0.201345
 NY phased data points follow
   8.59735E+00 -4.76090E+00  1.35582E+01  1.89292E+01  3.12347E+01  1.90733E+01  2.74160E+01  1.05475E+01  2.44212E+01  1.12966E-01
   1.19853E+01  7.87094E+00  1.64727E+01  1.69779E+01  1.16310E+01  2.00461E+01  2.78192E-01  6.04171E-01  1.43468E+01  2.47698E+00
   1.04014E+01  1.02355E+01  1.22874E+01  2.19263E+01  1.23233E+01  1.14192E+01 -4.62740E+00  1.17521E+01  1.52220E+01  1.92179E+01
   1.75031E+01 -2.02259E+00  4.18439E+00  2.23219E+01  1.20771E+01  1.18111E+01  6.90931E+00  5.48058E+00  1.63553E+01 -4.23227E-01
   7.32979E+00  1.72140E+01 -6.86662E-01 -4.04398E+00  2.65922E+00  1.70794E+01  1.12967E+01  1.46410E+01  1.16689E+01  9.49808E+00
   7.04827E+00  1.74804E+01  1.10483E+01  3.98176E+00  1.44111E+01  1.01937E+01  4.89744E-01  1.42852E+01 -6.98007E-01 -4.59327E+00
   2.30492E+01 -1.03802E+00  4.33635E+00 -5.62724E+00  1.01319E+01 -2.95093E+00  1.14168E+01  3.82817E+00 -2.02069E+00  9.83201E+00
  -1.24193E+01 -1.38306E+01  7.38957E+00 -2.68738E+00  6.74265E+00  1.03878E+01 -1.33155E+01  9.24560E+00 -9.04140E-01  3.60374E+00
   1.06384E+01  6.00176E+00 -2.06025E+00  1.53104E+01 -8.43658E+00  3.29539E+00 -2.98274E-03  6.00952E+00  8.95841E-01  7.18473E-01
   1.68931E-01 -2.21836E+00  9.88790E+00  8.79364E+00  1.08071E+01  2.14400E+01  9.50093E+00  4.36007E+00  1.86470E+01 -3.13774E+00
   1.71883E+01  1.40083E+01  1.10128E+01  2.10749E+01  1.09416E+01  1.22642E+01  1.24011E+01  4.29210E+00 -1.06531E+00  1.44780E+01
   8.45942E+00 -2.89791E+00 -2.37915E+00  1.41084E+01 -5.04513E+00  8.01657E+00  7.82772E+00  1.18128E+01  1.53530E+01  2.23434E+01
   1.48534E+01  1.87621E+00 -1.48855E+00  7.21173E+00  1.04866E+00  2.29129E+01  6.48582E+00  2.31224E+00 -2.46758E-02  5.30428E-01
   1.33126E+01  1.20272E+01  2.61356E+00  5.19709E+00  6.28681E+00 -4.34984E+00  1.02025E+01  3.21843E+00  1.32929E+00 -7.67074E+00
   1.28135E+01  1.06802E+00  1.16985E+01  1.95591E+01  1.92149E+01  4.42945E+00  1.52069E+01  1.07088E+01  4.72165E+00  9.26154E+00
   5.14193E+00  9.02686E+00  6.56913E+00  3.26704E+00  9.37883E+00 -4.64202E+00  1.11987E+01  1.33222E+01  1.24927E+01 -6.30717E+00
   1.98621E+01 -1.94460E+00  2.38050E+01 -1.85391E-01  5.30113E+00 -7.02264E+00  6.68714E+00  2.10494E+01 -8.25981E+00  1.53070E+01
  -1.14643E+00  6.46535E+00  1.28528E+01  7.56031E-01  1.93623E-01 -8.09626E-01 -4.41803E+00  7.49047E-01 -4.79781E+00  6.15136E+00
  -1.43444E+01 -9.35935E+00 -8.37810E+00  1.00859E+01 -1.77150E+01  2.94145E+00 -9.04534E+00 -8.53786E+00  8.03767E+00 -1.04500E+01
   4.35364E+00 -9.85077E+00 -9.54309E+00  5.12677E+00 -1.53403E+00 -1.22349E+01 -2.77412E+00  2.25569E+01 -1.96303E+00  4.23568E+00
   9.29771E+00 -2.16884E+00 -2.25588E+00  3.05638E+00  3.26414E+00  1.01878E+01  9.75161E+00 -1.38829E+01 -2.99434E+00  1.21908E+01
  -6.73528E+00  1.43861E+00 -5.58540E+00  3.85012E+00  2.49055E+01  2.32891E+00 -2.82483E+00  5.12859E+00  4.98552E+00  6.09995E+00
   1.40470E+01  5.97260E+00  2.52088E+00  1.08613E+00  5.35291E+00 -5.57609E-01  1.23326E+01  1.74956E+01 -9.40340E+00  1.09193E+01
   3.19535E+00 -1.74572E+00 -1.13690E+01  5.58081E+00 -2.92541E+00 -9.33820E+00 -6.75723E+00  9.67291E+00 -6.50714E+00  8.38823E+00
   6.05939E+00 -8.21974E+00 -4.47356E-01 -6.44019E+00 -4.84671E-01 -5.25131E+00 -6.39317E+00 -5.01942E+00  5.35514E+00  3.66931E+00
   9.09773E+00  7.28609E+00  1.53821E+01 -2.63119E+00  3.98938E+00 -8.70905E+00  5.96275E+00  2.06184E+01  1.38254E+01  4.29610E+00
   1.98227E+01  1.53512E+01 -4.89478E-01  8.16580E+00  6.10502E+00 -2.44352E+00  3.18979E+00 -3.22989E+00  1.17059E+01  9.78383E+00
  -9.43267E-01 -6.56375E+00  1.75464E+00 -1.77310E+01 -5.24826E+00  5.30431E+00  1.70823E+01 -1.78111E+01 -2.89371E+00 -3.15410E+00
   1.01425E+00  4.53438E-01 -1.08578E+01 -5.65377E+00 -1.63572E+00 -6.17290E+00 -6.31287E+00 -7.63503E+00 -8.96556E+00 -6.62258E+00
   4.05566E+00 -8.34973E+00  1.04440E+01  1.63588E+01 -1.36060E+01  8.79326E+00 -3.59432E+00  1.05696E+01  1.03871E+01 -1.00736E+00
   7.14156E-01  1.32010E+01  1.09094E+01  8.90279E-01  2.00224E+00 -4.23370E+00  1.76951E+00  1.50334E+01  1.13429E+01  9.94944E+00
   1.85994E+00 -1.80355E+00  1.26039E+01  1.30571E+00 -1.14265E+01  2.88464E+00  5.56893E+00 -1.10448E+01  1.30325E+00 -4.02157E-01
   9.93046E+00  2.79603E-01 -1.06602E+01 -1.39618E+01  2.38586E+00  1.29913E+00 -5.08851E+00  6.06886E+00  1.68132E+01 -2.85143E+00
   1.88585E+00  1.22948E+01 -7.04836E+00  9.33205E+00 -4.37186E-01 -3.45979E+00 -4.14769E+00 -9.39641E+00 -2.29729E+00  1.78638E+00
  -3.49556E+00 -3.04272E-01 -6.93016E-02  3.14425E-01  4.73580E+00 -1.09414E+00  1.16963E+01  9.00013E+00 -6.77915E+00  1.16778E+00
   6.56843E+00 -1.58914E+01 -1.36410E+01  9.31439E-01  5.67564E+00  6.28984E+00  3.48279E+00  1.35647E+01  7.07002E+00  3.94360E+00
  -2.60821E+00 -1.35439E+01  1.36761E+01 -2.69154E+00 -2.73254E+00  9.05915E+00 -8.10838E+00 -2.58372E+00  1.24259E+01 -7.37265E+00
  -4.77578E+00  9.35567E-01 -9.19287E+00 -9.69191E+00  1.55476E+01 -1.00559E+01  3.08423E+00  8.00320E-01  5.49864E+00 -6.11587E+00
   5.37929E+00  1.62132E+01  2.68401E+00 -1.75993E+00  1.74739E+00  1.05288E+01  1.21345E+00  1.44544E+01  2.73413E+00  1.07521E+01
  -1.04617E+01 -2.50912E+00 -1.72078E+01  3.83120E-01  7.35148E-01  8.15202E+00  8.54701E-01 -4.59655E+00  1.08752E+01  1.19662E+01
   1.28495E+01 -9.42499E-01 -8.50239E+00  8.23787E+00  4.72365E+00 -1.92922E+00 -2.26031E+00 -7.29433E+00 -6.41751E+00  1.29213E+00
   1.31811E+01  2.60734E+00 -3.78356E+00  5.58871E+00  8.99484E+00 -4.67600E+00  2.12949E+00  2.36930E-01 -5.13889E+00  4.04916E+00
   9.89452E+00  1.02264E+01  4.58677E+00 -1.74387E+00 -4.55630E+00 -1.28734E+01  4.88956E+00 -1.15185E+01  1.13484E+01  2.62760E+00
  -1.45835E+00  4.16365E+00 -1.90653E+00 -1.33905E+00 -2.97466E+00 -1.09484E+01 -3.70571E+00 -1.05655E+01 -3.10412E+00 -8.68896E+00
  -6.63856E+00 -4.34764E+00  6.32948E+00  1.74603E+01  1.15509E+01 -7.89155E+00  1.33892E+00 -1.07211E+01 -3.91152E+00 -1.32754E+01
  -7.67077E+00  1.11083E+01  2.22906E+00 -6.14473E+00 -1.74286E+01  2.33382E+00 -2.04449E+00  6.52852E+00  1.08031E+01  7.24899E+00
   8.98085E+00 -3.84869E-01  4.97901E+00  1.53933E+01  1.13373E+01 -8.21016E-01 -2.64420E+00 -8.18156E+00 -1.08236E+01  9.41534E+00
   9.47090E-01  4.99288E+00  3.30672E+00 -7.22538E+00 -3.97507E+00  8.68311E+00  3.99893E+00 -1.75513E+01  3.61469E+00  3.45445E+00
   2.50057E+00 -4.24888E+00  1.35908E+00 -5.28239E+00  1.00410E+01  3.50399E+00 -2.71233E-01 -3.06814E-02 -1.05315E+01 -2.69054E+00
  -7.16412E+00 -9.06239E+00  6.06783E+00 -4.72598E+00 -3.78598E+00  8.80528E+00 -1.66886E+01  9.82094E+00
 NY points of the fit to the data follow
   8.53125E+00  9.12664E+00  9.38806E+00  9.85933E+00  1.01041E+01  1.06359E+01  1.08569E+01  1.12561E+01  1.13324E+01  1.13231E+01
   1.09907E+01  1.05550E+01  9.81902E+00  9.20646E+00  8.56520E+00  8.30853E+00  8.28081E+00  8.35859E+00  8.94153E+00  9.26436E+00
   1.02134E+01  1.05285E+01  1.13417E+01  1.14797E+01  1.19651E+01  1.18278E+01  1.23724E+01  1.23401E+01  1.30308E+01  1.30771E+01
   1.33007E+01  1.31140E+01  1.24926E+01  1.20604E+01  1.09251E+01  1.06538E+01  9.54764E+00  9.63190E+00  8.74108E+00  8.90610E+00
   8.16538E+00  8.26730E+00  7.85926E+00  7.98436E+00  8.02654E+00  8.18529E+00  8.24829E+00  8.06950E+00  7.81339E+00  7.34653E+00
   6.97265E+00  6.49914E+00  6.23284E+00  5.90311E+00  5.72198E+00  5.48396E+00  5.38540E+00  5.18130E+00  5.17770E+00  5.02840E+00
   5.09723E+00  4.94857E+00  5.03347E+00  4.86050E+00  4.90413E+00  4.71920E+00  4.74984E+00  4.60287E+00  4.66684E+00  4.53826E+00
   4.62116E+00  4.47722E+00  4.52868E+00  4.33791E+00  4.34697E+00  4.09154E+00  4.04572E+00  3.73346E+00  3.65813E+00  3.33922E+00
   3.28032E+00  2.99762E+00  2.97722E+00  2.71352E+00  2.68830E+00  2.44859E+00  2.56011E+00  3.00608E+00  3.33870E+00  4.45007E+00
   4.90730E+00  6.53307E+00  6.98841E+00  8.80176E+00  9.07037E+00  1.07291E+01  1.07278E+01  1.20661E+01  1.19060E+01  1.32412E+01
   1.29168E+01  1.38242E+01  1.31505E+01  1.30700E+01  1.20624E+01  1.12067E+01  1.00659E+01  8.77176E+00  7.72878E+00  6.57787E+00
   5.88432E+00  5.42767E+00  5.10733E+00  5.47308E+00  5.45001E+00  6.64543E+00  6.76606E+00  8.53744E+00  8.59869E+00  1.02475E+01
   1.00538E+01  1.13159E+01  1.09742E+01  1.23165E+01  1.18171E+01  1.27715E+01  1.20194E+01  1.21110E+01  1.12447E+01  1.06240E+01
   9.88732E+00  8.73451E+00  8.22515E+00  6.92979E+00  6.60364E+00  5.31366E+00  5.26037E+00  4.20858E+00  4.48555E+00  3.79002E+00
   4.25622E+00  3.83031E+00  4.18825E+00  3.75149E+00  3.88814E+00  3.41436E+00  3.43184E+00  3.12508E+00  3.06053E+00  2.79066E+00
   2.61837E+00  2.39736E+00  2.20566E+00  2.08647E+00  1.97055E+00  1.91797E+00  1.83694E+00  1.79369E+00  1.69936E+00  1.65679E+00
   1.55050E+00  1.52348E+00  1.42669E+00  1.40048E+00  1.30454E+00  1.24506E+00  1.15819E+00  1.05821E+00  1.00057E+00  8.60598E-01
   8.20054E-01  6.44904E-01  6.05949E-01  4.16463E-01  4.27645E-01  2.98592E-01  4.16029E-01  3.59767E-01  4.70480E-01  4.79459E-01
   3.80919E-01  3.55388E-01 -1.27729E-01 -1.55957E-01 -9.43306E-01 -7.05970E-01 -1.45660E+00 -7.80258E-01 -1.33648E+00 -1.18841E-01
  -6.08086E-01  9.21004E-01  1.76299E-01  1.48758E+00 -3.89531E-02  1.18145E+00 -7.10923E-01  7.02724E-01 -1.17127E+00  4.92927E-01
  -1.31284E+00  5.12303E-01 -1.30566E+00  3.91237E-01 -1.46762E+00 -2.37223E-01 -2.27808E+00 -1.03868E+00 -2.56135E+00 -9.76403E-01
  -1.45222E+00  3.31829E-01  6.91713E-01  2.40482E+00  3.22768E+00  4.51283E+00  5.14825E+00  5.97714E+00  6.30094E+00  6.50714E+00
   6.11273E+00  5.95775E+00  5.03946E+00  4.89120E+00  3.77857E+00  4.27305E+00  3.30279E+00  4.10505E+00  3.18804E+00  3.83760E+00
   2.72931E+00  3.02241E+00  1.77240E+00  1.75322E+00  7.34023E-01  7.03122E-01  3.35546E-01  3.12145E-01  3.35887E-01 -2.13579E-02
   1.80978E-01 -7.40131E-01 -4.76945E-01 -1.48671E+00 -6.65775E-01 -1.28703E+00  5.52322E-02  1.20749E-01  1.71333E+00  2.29011E+00
   3.76539E+00  4.61627E+00  5.72745E+00  6.55345E+00  7.17902E+00  7.66998E+00  7.92358E+00  8.20342E+00  8.06918E+00  8.19111E+00
   7.51752E+00  7.53830E+00  6.51572E+00  6.38333E+00  5.27635E+00  5.05210E+00  4.14212E+00  3.90950E+00  3.15715E+00  2.88156E+00
   2.35745E+00  2.12762E+00  1.88865E+00  1.75523E+00  1.73427E+00  1.70132E+00  1.64059E+00  1.60025E+00  1.46881E+00  1.39704E+00
   1.35657E+00  1.32534E+00  1.30035E+00  1.28220E+00  1.26732E+00  1.26205E+00  1.25775E+00  1.26283E+00  1.26849E+00  1.28173E+00
   1.29428E+00  1.31516E+00  1.33326E+00  1.35906E+00  1.38172E+00  1.41057E+00  1.43737E+00  1.46776E+00  1.49566E+00  1.52415E+00
   1.54973E+00  1.57183E+00  1.59019E+00  1.60162E+00  1.60857E+00  1.60644E+00  1.59923E+00  1.58261E+00  1.56033E+00  1.53021E+00
   1.49497E+00  1.45377E+00  1.40917E+00  1.36092E+00  1.31101E+00  1.25987E+00  1.20890E+00  1.15881E+00  1.11049E+00  1.06452E+00
   1.02149E+00  9.81542E-01  9.45024E-01  9.11782E-01  8.81834E-01  8.54968E-01  8.30954E-01  8.09426E-01  7.90069E-01  7.72456E-01
   7.56221E-01  7.40943E-01  7.26281E-01  7.11878E-01  6.97475E-01  6.82834E-01  6.67847E-01  6.52530E-01  6.37148E-01  6.22300E-01
   6.09107E-01  5.99401E-01  5.95998E-01  6.02873E-01  6.25271E-01  6.69504E-01  7.42410E-01  8.50337E-01  9.97716E-01  1.18537E+00
   1.40893E+00  1.65789E+00  1.91558E+00  2.16064E+00  2.36966E+00  2.52081E+00  2.59751E+00  2.59138E+00  2.50375E+00  2.34518E+00
   2.13337E+00  1.88985E+00  1.63637E+00  1.39174E+00  1.16984E+00  9.78807E-01  8.21466E-01  6.96474E-01  5.99822E-01  5.26263E-01
   4.70445E-01  4.27629E-01  3.94040E-01  3.66917E-01  3.44407E-01  3.25378E-01  3.09237E-01  2.95758E-01  2.84974E-01  2.77061E-01
   2.72307E-01  2.71055E-01  2.73699E-01  2.80653E-01  2.92340E-01  3.09162E-01  3.31490E-01  3.59626E-01  3.93795E-01  4.34095E-01
   4.80475E-01  5.32685E-01  5.90269E-01  6.52527E-01  7.18522E-01  7.87061E-01  8.56726E-01  9.25887E-01  9.92775E-01  1.05552E+00
   1.11227E+00  1.16122E+00  1.20071E+00  1.22935E+00  1.24602E+00  1.25000E+00  1.24096E+00  1.21898E+00  1.18453E+00  1.13849E+00
   1.08202E+00  1.01656E+00  9.43721E-01  8.65206E-01  7.82725E-01  6.97950E-01  6.12422E-01  5.27529E-01  4.44453E-01  3.64153E-01
   2.87380E-01  2.14648E-01  1.46310E-01  8.25056E-02  2.32697E-02 -3.15304E-02 -8.20659E-02 -1.28615E-01 -1.71450E-01 -2.10905E-01
  -2.47287E-01 -2.80922E-01 -3.12105E-01 -3.41112E-01 -3.68197E-01 -3.93582E-01 -4.17485E-01 -4.40072E-01 -4.61519E-01 -4.81940E-01
  -5.01478E-01 -5.20212E-01 -5.38262E-01 -5.55676E-01 -5.72557E-01 -5.88920E-01 -6.04860E-01 -6.20381E-01 -6.35568E-01 -6.50411E-01
  -6.64978E-01 -6.79258E-01 -6.93304E-01 -7.07115E-01 -7.20730E-01 -7.34150E-01 -7.47398E-01 -7.60480E-01 -7.73414E-01 -7.86214E-01
  -7.98885E-01 -8.11442E-01 -8.23878E-01 -8.36220E-01 -8.48459E-01 -8.60622E-01 -8.72699E-01 -8.84707E-01 -8.96640E-01 -9.08512E-01
  -9.20328E-01 -9.32094E-01 -9.43814E-01 -9.55486E-01 -9.67119E-01 -9.78714E-01 -9.90283E-01 -1.00182E+00 -1.01334E+00 -1.02483E+00
  -1.03630E+00 -1.04777E+00 -1.05922E+00 -1.07067E+00 -1.08212E+00 -1.09357E+00 -1.10502E+00 -1.11650E+00 -1.12799E+00 -1.13950E+00
  -1.15104E+00 -1.16261E+00 -1.17423E+00 -1.18590E+00 -1.19763E+00 -1.20942E+00 -1.22129E+00 -1.23324E+00
 NY background values follow
     3.043E+00    3.034E+00    3.026E+00    3.017E+00    3.008E+00    2.999E+00    2.990E+00    2.981E+00    2.973E+00    2.964E+00
     2.955E+00    2.946E+00    2.937E+00    2.928E+00    2.919E+00    2.911E+00    2.902E+00    2.893E+00    2.884E+00    2.875E+00
     2.866E+00    2.858E+00    2.849E+00    2.840E+00    2.831E+00    2.822E+00    2.813E+00    2.804E+00    2.796E+00    2.787E+00
     2.778E+00    2.769E+00    2.760E+00    2.751E+00    2.743E+00    2.734E+00    2.725E+00    2.716E+00    2.707E+00    2.698E+00
     2.689E+00    2.681E+00    2.672E+00    2.663E+00    2.654E+00    2.645E+00    2.636E+00    2.628E+00    2.619E+00    2.610E+00
     2.601E+00    2.592E+00    2.583E+00    2.574E+00    2.566E+00    2.557E+00    2.548E+00    2.539E+00    2.530E+00    2.521E+00
     2.512E+00    2.504E+00    2.495E+00    2.486E+00    2.477E+00    2.468E+00    2.459E+00    2.450E+00    2.442E+00    2.433E+00
     2.424E+00    2.415E+00    2.406E+00    2.397E+00    2.389E+00    2.380E+00    2.371E+00    2.362E+00    2.353E+00    2.344E+00
     2.335E+00    2.327E+00    2.318E+00    2.309E+00    2.300E+00    2.291E+00    2.282E+00    2.273E+00    2.265E+00    2.256E+00
     2.247E+00    2.238E+00    2.229E+00    2.220E+00    2.211E+00    2.203E+00    2.194E+00    2.185E+00    2.176E+00    2.167E+00
     2.158E+00    2.149E+00    2.141E+00    2.132E+00    2.123E+00    2.114E+00    2.105E+00    2.096E+00    2.087E+00    2.078E+00
     2.070E+00    2.061E+00    2.052E+00    2.043E+00    2.034E+00    2.025E+00    2.016E+00    2.008E+00    1.999E+00    1.990E+00
     1.981E+00    1.972E+00    1.963E+00    1.954E+00    1.946E+00    1.937E+00    1.928E+00    1.919E+00    1.910E+00    1.901E+00
     1.892E+00    1.884E+00    1.875E+00    1.866E+00    1.857E+00    1.848E+00    1.839E+00    1.830E+00    1.821E+00    1.813E+00
     1.804E+00    1.795E+00    1.786E+00    1.777E+00    1.768E+00    1.759E+00    1.751E+00    1.742E+00    1.733E+00    1.724E+00
     1.715E+00    1.706E+00    1.697E+00    1.688E+00    1.680E+00    1.671E+00    1.662E+00    1.653E+00    1.644E+00    1.635E+00
     1.626E+00    1.618E+00    1.609E+00    1.600E+00    1.591E+00    1.582E+00    1.573E+00    1.564E+00    1.555E+00    1.547E+00
     1.538E+00    1.529E+00    1.520E+00    1.511E+00    1.502E+00    1.493E+00    1.484E+00    1.476E+00    1.467E+00    1.458E+00
     1.449E+00    1.440E+00    1.431E+00    1.422E+00    1.413E+00    1.405E+00    1.396E+00    1.387E+00    1.378E+00    1.369E+00
     1.360E+00    1.351E+00    1.342E+00    1.334E+00    1.325E+00    1.316E+00    1.307E+00    1.298E+00    1.289E+00    1.280E+00
     1.271E+00    1.263E+00    1.254E+00    1.245E+00    1.236E+00    1.227E+00    1.218E+00    1.209E+00    1.200E+00    1.192E+00
     1.183E+00    1.174E+00    1.165E+00    1.156E+00    1.147E+00    1.138E+00    1.129E+00    1.121E+00    1.112E+00    1.103E+00
     1.094E+00    1.085E+00    1.076E+00    1.067E+00    1.058E+00    1.050E+00    1.041E+00    1.032E+00    1.023E+00    1.014E+00
     1.005E+00    9.962E-01    9.874E-01    9.785E-01    9.696E-01    9.607E-01    9.518E-01    9.430E-01    9.341E-01    9.252E-01
     9.163E-01    9.074E-01    8.985E-01    8.897E-01    8.808E-01    8.719E-01    8.630E-01    8.541E-01    8.452E-01    8.364E-01
     8.275E-01    8.186E-01    8.097E-01    8.008E-01    7.919E-01    7.831E-01    7.742E-01    7.653E-01    7.564E-01    7.475E-01
     7.386E-01    7.297E-01    7.209E-01    7.120E-01    7.031E-01    6.942E-01    6.853E-01    6.764E-01    6.675E-01    6.587E-01
     6.498E-01    6.409E-01    6.320E-01    6.231E-01    6.142E-01    6.053E-01    5.964E-01    5.876E-01    5.787E-01    5.698E-01
     5.609E-01    5.520E-01    5.431E-01    5.342E-01    5.253E-01    5.165E-01    5.076E-01    4.987E-01    4.898E-01    4.809E-01
     4.720E-01    4.631E-01    4.542E-01    4.453E-01    4.364E-01    4.276E-01    4.187E-01    4.098E-01    4.009E-01    3.920E-01
     3.831E-01    3.742E-01    3.653E-01    3.564E-01    3.475E-01    3.386E-01    3.297E-01    3.209E-01    3.120E-01    3.031E-01
     2.942E-01    2.853E-01    2.764E-01    2.675E-01    2.586E-01    2.497E-01    2.408E-01    2.319E-01    2.230E-01    2.141E-01
     2.052E-01    1.963E-01    1.874E-01    1.786E-01    1.697E-01    1.608E-01    1.519E-01    1.430E-01    1.341E-01    1.252E-01
     1.163E-01    1.074E-01    9.850E-02    8.960E-02    8.070E-02    7.181E-02    6.291E-02    5.401E-02    4.512E-02    3.622E-02
     2.732E-02    1.842E-02    9.527E-03    6.291E-04   -8.269E-03   -1.717E-02   -2.606E-02   -3.496E-02   -4.386E-02   -5.276E-02
    -6.166E-02   -7.056E-02   -7.946E-02   -8.836E-02   -9.725E-02   -1.062E-01   -1.151E-01   -1.240E-01   -1.329E-01   -1.418E-01
    -1.507E-01   -1.596E-01   -1.685E-01   -1.774E-01   -1.863E-01   -1.952E-01   -2.041E-01   -2.130E-01   -2.219E-01   -2.308E-01
    -2.397E-01   -2.486E-01   -2.575E-01   -2.664E-01   -2.753E-01   -2.842E-01   -2.931E-01   -3.020E-01   -3.109E-01   -3.198E-01
    -3.287E-01   -3.376E-01   -3.465E-01   -3.554E-01   -3.643E-01   -3.732E-01   -3.821E-01   -3.910E-01   -3.999E-01   -4.088E-01
    -4.177E-01   -4.266E-01   -4.355E-01   -4.444E-01   -4.533E-01   -4.622E-01   -4.712E-01   -4.801E-01   -4.890E-01   -4.979E-01
    -5.068E-01   -5.157E-01   -5.246E-01   -5.335E-01   -5.424E-01   -5.513E-01   -5.602E-01   -5.691E-01   -5.780E-01   -5.869E-01
    -5.958E-01   -6.047E-01   -6.137E-01   -6.226E-01   -6.315E-01   -6.404E-01   -6.493E-01   -6.582E-01   -6.671E-01   -6.760E-01
    -6.849E-01   -6.938E-01   -7.027E-01   -7.116E-01   -7.206E-01   -7.295E-01   -7.384E-01   -7.473E-01   -7.562E-01   -7.651E-01
    -7.740E-01   -7.829E-01   -7.918E-01   -8.007E-01   -8.097E-01   -8.186E-01   -8.275E-01   -8.364E-01   -8.453E-01   -8.542E-01
    -8.631E-01   -8.720E-01   -8.809E-01   -8.899E-01   -8.988E-01   -9.077E-01   -9.166E-01   -9.255E-01   -9.344E-01   -9.433E-01
    -9.522E-01   -9.612E-01   -9.701E-01   -9.790E-01   -9.879E-01   -9.968E-01   -1.006E+00   -1.015E+00   -1.024E+00   -1.032E+00
    -1.041E+00   -1.050E+00   -1.059E+00   -1.068E+00   -1.077E+00   -1.086E+00   -1.095E+00   -1.104E+00   -1.113E+00   -1.122E+00
    -1.131E+00   -1.139E+00   -1.148E+00   -1.157E+00   -1.166E+00   -1.175E+00   -1.184E+00   -1.193E+00   -1.202E+00   -1.211E+00
    -1.220E+00   -1.229E+00   -1.238E+00   -1.246E+00   -1.255E+00   -1.264E+00   -1.273E+00   -1.282E+00   -1.291E+00   -1.300E+00
    -1.309E+00   -1.318E+00   -1.327E+00   -1.336E+00   -1.345E+00   -1.353E+00   -1.362E+00   -1.371E+00
 Asp      Conc. = 6.67E+01
