 LCModel (Version 6.3-1L) Copyright: S.W. Provencher.          Ref.: Magn. Reson. Med. 30:672-679 (1993).                
 Slice#2 Row#10 Col#6  PD_05_press_2_raw_act
 36 lines in following concentration table = NCONC+1
    Conc.  %SD /Cr+PCr  Metabolite                                         
    0.000 999%   0.000 Ala                                                 
    0.000 999%   0.000 Asp                                                 
    0.000 999%   0.000 Cr                                                  
 2.33E+03   4%   1.000 PCr                                                 
    0.000 999%   0.000 GABA                                                
    0.000 999%   0.000 Glc                                                 
 1.27E+03  29%   0.543 Gln                                                 
 1.99E+03  20%   0.851 Glu                                                 
  550.036   6%   0.236 GPC                                                 
    0.000 999%   0.000 PCh                                                 
  752.051  14%   0.322 GSH                                                 
 1.49E+03  22%   0.639 Ins                                                 
    0.000 999%   0.000 Lac                                                 
 3.79E+03   6%   1.625 NAA                                                 
  157.573 149% 6.7E-02 NAAG                                                
  107.012  36% 4.6E-02 Scyllo                                              
  138.691 203% 5.9E-02 Tau                                                 
 1.26E+03  12%   0.539 -CrCH2                                              
  550.036   6%   0.236 GPC+PCh                                             
 3.95E+03   3%   1.693 NAA+NAAG                                            
 2.33E+03   4%   1.000 Cr+PCr                                              
 3.26E+03  19%   1.395 Glu+Gln                                             
  617.105 160%   0.264 Lip13a                                              
  170.899 233% 7.3E-02 Lip13b                                              
   99.783 281% 4.3E-02 Lip09                                               
 2.26E+03  16%   0.968 MM09                                                
   72.918 242% 3.1E-02 Lip20                                               
 4.48E+03  11%   1.918 MM20                                                
  703.250  42%   0.301 MM12                                                
 3.48E+03  18%   1.491 MM14                                                
 1.49E+03  21%   0.638 MM17                                                
  788.004  93%   0.338 Lip13a+Lip13b                                       
 4.97E+03   9%   2.130 MM14+Lip13a+Lip13b+MM12                             
 2.36E+03  10%   1.010 MM09+Lip09                                          
 4.55E+03  10%   1.949 MM20+Lip20                                          
   6 lines in following misc. output table
  FWHM = 0.061 ppm    S/N =  14                                            
  Data shift = 0.000 ppm                                                   
  Ph: -20 deg      -2.2 deg/ppm                                            
  alphaB,S = 8.5E+01,   1.0E+02                                            
   14 spline knots.   Ns = 8(1)                                            
   2 inflections.     1 extrema                                            
  498 points on ppm-axis = NY
      4.000000     3.992357     3.984714     3.977070     3.969427     3.961784     3.954141     3.946497     3.938854     3.931211
      3.923568     3.915925     3.908281     3.900638     3.892995     3.885352     3.877708     3.870065     3.862422     3.854779
      3.847136     3.839492     3.831849     3.824206     3.816563     3.808919     3.801276     3.793633     3.785990     3.778347
      3.770703     3.763060     3.755417     3.747774     3.740130     3.732487     3.724844     3.717201     3.709558     3.701914
      3.694271     3.686628     3.678985     3.671341     3.663698     3.656055     3.648412     3.640769     3.633125     3.625482
      3.617839     3.610196     3.602552     3.594909     3.587266     3.579623     3.571980     3.564336     3.556693     3.549050
      3.541407     3.533763     3.526120     3.518477     3.510834     3.503191     3.495547     3.487904     3.480261     3.472618
      3.464974     3.457331     3.449688     3.442045     3.434402     3.426758     3.419115     3.411472     3.403829     3.396185
      3.388542     3.380899     3.373256     3.365613     3.357969     3.350326     3.342683     3.335040     3.327396     3.319753
      3.312110     3.304467     3.296824     3.289180     3.281537     3.273894     3.266251     3.258607     3.250964     3.243321
      3.235678     3.228034     3.220391     3.212748     3.205105     3.197462     3.189818     3.182175     3.174532     3.166889
      3.159245     3.151602     3.143959     3.136316     3.128673     3.121029     3.113386     3.105743     3.098100     3.090456
      3.082813     3.075170     3.067527     3.059884     3.052240     3.044597     3.036954     3.029311     3.021667     3.014024
      3.006381     2.998738     2.991095     2.983451     2.975808     2.968165     2.960522     2.952878     2.945235     2.937592
      2.929949     2.922306     2.914662     2.907019     2.899376     2.891733     2.884089     2.876446     2.868803     2.861160
      2.853517     2.845873     2.838230     2.830587     2.822944     2.815300     2.807657     2.800014     2.792371     2.784728
      2.777084     2.769441     2.761798     2.754155     2.746511     2.738868     2.731225     2.723582     2.715939     2.708295
      2.700652     2.693009     2.685366     2.677722     2.670079     2.662436     2.654793     2.647150     2.639506     2.631863
      2.624220     2.616577     2.608933     2.601290     2.593647     2.586004     2.578361     2.570717     2.563074     2.555431
      2.547788     2.540144     2.532501     2.524858     2.517215     2.509572     2.501928     2.494285     2.486642     2.478999
      2.471355     2.463712     2.456069     2.448426     2.440783     2.433139     2.425496     2.417853     2.410210     2.402566
      2.394923     2.387280     2.379637     2.371994     2.364350     2.356707     2.349064     2.341421     2.333777     2.326134
      2.318491     2.310848     2.303205     2.295561     2.287918     2.280275     2.272632     2.264988     2.257345     2.249702
      2.242059     2.234416     2.226772     2.219129     2.211486     2.203843     2.196199     2.188556     2.180913     2.173270
      2.165627     2.157983     2.150340     2.142697     2.135054     2.127410     2.119767     2.112124     2.104481     2.096838
      2.089194     2.081551     2.073908     2.066265     2.058621     2.050978     2.043335     2.035692     2.028049     2.020405
      2.012762     2.005119     1.997476     1.989833     1.982190     1.974546     1.966903     1.959260     1.951617     1.943974
      1.936331     1.928688     1.921045     1.913402     1.905759     1.898115     1.890472     1.882829     1.875186     1.867543
      1.859900     1.852257     1.844614     1.836971     1.829327     1.821684     1.814041     1.806398     1.798755     1.791112
      1.783469     1.775826     1.768183     1.760540     1.752896     1.745253     1.737610     1.729967     1.722324     1.714681
      1.707038     1.699395     1.691752     1.684108     1.676465     1.668822     1.661179     1.653536     1.645893     1.638250
      1.630607     1.622964     1.615321     1.607677     1.600034     1.592391     1.584748     1.577105     1.569462     1.561819
      1.554176     1.546533     1.538890     1.531246     1.523603     1.515960     1.508317     1.500674     1.493031     1.485388
      1.477745     1.470102     1.462458     1.454815     1.447172     1.439529     1.431886     1.424243     1.416600     1.408957
      1.401314     1.393671     1.386027     1.378384     1.370741     1.363098     1.355455     1.347812     1.340169     1.332526
      1.324883     1.317240     1.309596     1.301953     1.294310     1.286667     1.279024     1.271381     1.263738     1.256095
      1.248452     1.240808     1.233165     1.225522     1.217879     1.210236     1.202593     1.194950     1.187307     1.179664
      1.172021     1.164377     1.156734     1.149091     1.141448     1.133805     1.126162     1.118519     1.110876     1.103233
      1.095590     1.087946     1.080303     1.072660     1.065017     1.057374     1.049731     1.042088     1.034445     1.026802
      1.019158     1.011515     1.003872     0.996229     0.988586     0.980943     0.973300     0.965657     0.958014     0.950371
      0.942727     0.935084     0.927441     0.919798     0.912155     0.904512     0.896869     0.889226     0.881583     0.873940
      0.866296     0.858653     0.851010     0.843367     0.835724     0.828081     0.820438     0.812795     0.805152     0.797508
      0.789865     0.782222     0.774579     0.766936     0.759293     0.751650     0.744007     0.736364     0.728721     0.721077
      0.713434     0.705791     0.698148     0.690505     0.682862     0.675219     0.667576     0.659933     0.652290     0.644646
      0.637003     0.629360     0.621717     0.614074     0.606431     0.598788     0.591145     0.583502     0.575858     0.568215
      0.560572     0.552929     0.545286     0.537643     0.530000     0.522357     0.514714     0.507071     0.499427     0.491784
      0.484141     0.476498     0.468855     0.461212     0.453569     0.445925     0.438282     0.430639     0.422996     0.415353
      0.407710     0.400067     0.392424     0.384780     0.377137     0.369494     0.361851     0.354208     0.346565     0.338922
      0.331278     0.323635     0.315992     0.308349     0.300706     0.293063     0.285420     0.277777     0.270133     0.262490
      0.254847     0.247204     0.239561     0.231918     0.224275     0.216631     0.208988     0.201345
 NY phased data points follow
  -3.05056E+01 -2.35605E+01 -3.01144E+01 -2.35063E+01 -1.89093E+01 -9.39931E+00 -3.19633E+00 -2.55600E+00  7.45895E+00  1.01468E+01
   1.69798E+01  9.65937E+00  7.50764E+00  4.19965E+00 -3.75811E+00 -8.00154E+00 -1.11040E+01 -1.22611E+01 -1.24614E+01 -1.04391E+01
  -1.71290E+01 -1.04538E+01 -1.16217E+01 -1.25702E+01 -2.79153E+00 -7.86741E+00 -1.67625E+00 -5.00685E+00 -2.18800E+00 -1.50539E+00
  -2.45092E+00 -4.51826E+00 -4.82917E+00 -4.64658E+00 -8.70727E+00 -6.26808E+00 -6.16747E+00 -1.39720E+01 -6.89615E+00 -9.52079E+00
  -8.34731E+00 -1.33714E+01 -8.13860E+00 -6.79783E+00 -4.40524E+00 -1.41856E+00 -8.41972E+00  2.21115E+00 -6.12828E-01 -4.83165E+00
  -5.05742E+00 -1.37861E+01 -9.25942E+00 -1.04227E+01 -1.37192E+01 -1.30147E+01 -1.28265E+01 -1.09566E+01 -1.48534E+01 -1.38149E+01
  -1.38080E+01 -2.21365E+01 -1.71599E+01 -1.72423E+01 -2.39537E+01 -1.76904E+01 -1.99879E+01 -1.89861E+01 -2.24407E+01 -2.01772E+01
  -1.17578E+01 -1.45998E+01 -1.75040E+01 -1.27287E+01 -1.40143E+01 -1.53404E+01 -1.47970E+01 -1.91328E+01 -1.53121E+01 -1.83574E+01
  -1.81107E+01 -1.59675E+01 -1.70377E+01 -1.27647E+01 -9.90622E+00 -1.13906E+01 -1.68214E+01 -1.05263E+01 -1.34329E+01 -1.91367E+01
  -1.66674E+01 -5.98151E+00 -1.20342E+01 -1.15084E+01 -7.57393E+00 -1.03563E+01 -7.87591E+00  5.06722E+00 -1.54129E-01  8.51316E+00
   1.53688E+01  1.84117E+01  2.20454E+01  2.57479E+01  3.08996E+01  1.43975E+01  1.49492E+01  1.24460E+01 -1.74567E-01  1.24803E+00
  -1.46360E+00 -5.91745E+00 -1.06678E+01 -1.15904E+01 -7.98958E+00 -4.68092E+00 -4.00354E+00 -4.70621E+00 -3.00120E+00 -1.40101E+00
  -3.93680E+00  1.22164E+00  1.55291E+01  2.44204E+01  3.78500E+01  4.14969E+01  5.23294E+01  4.91753E+01  5.22999E+01  4.63362E+01
   3.43076E+01  2.75409E+01  1.36389E+01  9.36645E+00 -8.67872E+00 -7.30245E+00 -9.82515E+00 -2.39823E+00 -7.50912E+00 -1.41384E+01
  -4.75484E+00 -1.36762E+01 -1.59801E+01 -1.14901E+01 -1.01219E+01 -1.11238E+01 -1.39523E+01 -1.45149E+01 -1.64961E+01 -1.76658E+01
  -1.35571E+01 -1.36249E+01 -1.75687E+01 -1.82462E+01 -1.75735E+01 -1.81408E+01 -1.20908E+01 -2.08975E+01 -1.71217E+01 -1.80460E+01
  -1.75531E+01 -1.58653E+01 -1.42404E+01 -1.73295E+01 -3.31238E+00 -1.57820E+01 -1.24840E+01 -1.39062E+01 -1.78090E+01 -1.87863E+01
  -2.25888E+01 -2.13656E+01 -3.08986E+01 -2.75072E+01 -2.99174E+01 -3.37411E+01 -3.15481E+01 -3.29878E+01 -3.23174E+01 -2.59938E+01
  -3.34617E+01 -3.37366E+01 -3.21515E+01 -2.77298E+01 -2.53341E+01 -3.27573E+01 -2.47698E+01 -1.50376E+01 -1.57014E+01 -1.47919E+01
  -1.66681E+01 -1.09982E+01 -1.47182E+01 -1.14081E+01 -9.19381E+00 -1.01702E+01 -1.26871E+01 -1.94775E+01 -1.49252E+01 -9.27031E+00
  -1.43133E+01 -2.11991E+01 -1.13254E+01 -1.16560E+01 -8.12429E+00 -5.53612E+00 -1.53426E+01 -1.52427E+01 -1.63491E+01 -1.58856E+01
  -1.81430E+01 -1.72343E+01 -7.38064E+00 -5.90178E+00 -3.86525E+00 -2.12022E+00  2.24913E+00 -7.03268E-01 -2.18031E+00 -9.58201E+00
  -1.17187E+01 -1.00236E+01 -1.76104E+01 -1.31929E+01 -1.39218E+01 -9.48264E+00 -4.78415E+00 -3.14642E+00 -2.26029E+00 -3.75750E+00
  -1.07262E+00 -5.26268E+00 -5.02574E+00 -9.91877E+00 -7.48551E+00 -2.11873E+00  6.66202E-01 -5.23106E+00 -4.93879E+00  1.12990E+00
  -6.56275E+00  2.34539E-01  1.41847E+00 -7.44616E+00  3.77828E-01 -6.12776E-01 -1.76373E-01  7.44310E+00  4.40683E+00  8.56952E+00
   1.21270E+01  1.64063E+01  2.36171E+01  2.82454E+01  3.40433E+01  4.43211E+01  6.25324E+01  7.97031E+01  9.97041E+01  1.09483E+02
   1.14778E+02  1.11962E+02  9.38526E+01  8.57862E+01  6.61742E+01  4.47821E+01  2.39816E+01  1.58013E+01  1.05577E+01  8.83380E+00
   1.19009E+01  5.17656E+00 -2.76693E-01  5.74216E-01 -8.89822E+00 -6.16598E+00 -5.17857E+00 -1.11192E+01 -7.59070E+00 -6.23023E+00
  -6.83637E+00 -1.12557E+01 -3.61171E+00 -7.85331E+00 -7.12280E+00 -1.19689E+01 -1.13435E+01 -7.02361E+00 -1.10974E+01 -2.49972E+00
  -1.08256E+01 -7.44256E+00 -1.00325E+01 -5.44275E+00 -8.65548E+00 -7.95192E+00 -4.78785E+00 -6.66793E+00 -4.28572E+00 -3.81811E+00
  -3.10384E+00 -3.18291E+00  7.04186E-02  1.82145E+00  5.68945E+00  2.00745E+00  3.10340E+00 -2.00055E+00  2.38803E-01  4.17495E+00
   6.74764E+00  4.43160E-01  6.72897E+00  5.17937E+00 -3.35968E+00  3.99863E+00  7.07643E+00 -7.76737E-01  2.94629E+00  4.74790E+00
  -2.71024E+00 -1.89732E+00  1.37175E-02  1.15009E+00 -1.23312E+00  7.88538E+00  5.96527E-01  1.01651E+01  9.09658E+00  5.73498E+00
   1.15621E+01  5.23673E+00  7.14008E+00  4.57795E+00  9.91121E+00  1.43801E+01  1.66095E+01  2.46580E+00  8.86376E+00  5.27104E+00
   7.91761E+00  1.03740E+01  4.84878E+00  6.85872E+00  6.61225E+00  1.13365E+01  1.30208E+01  8.94892E+00  9.98563E+00  5.20131E+00
   6.53236E+00  5.57139E+00  5.16298E+00  1.07064E+01  1.86586E+00  7.21995E+00  5.13209E+00  2.76646E+00  4.65200E+00  4.81958E+00
  -7.44387E+00 -2.86068E+00  1.89151E+00  3.48993E+00  1.28998E+00 -4.74868E+00 -2.33068E+00  2.33107E+00  7.39971E+00  3.11807E+00
  -9.56230E-01  3.36459E-01  1.69698E+00  1.23152E+00 -6.59738E+00 -8.79996E+00 -4.58828E+00 -7.31445E+00 -2.19406E+00 -2.84121E+00
  -2.67351E+00 -1.82064E+00 -2.54870E+00 -9.07695E+00 -4.13629E+00 -6.36845E+00 -1.00490E+00  2.28542E+00  1.40348E+00 -5.43162E+00
   3.78360E+00  2.65854E+00  8.46978E+00  4.16327E+00  8.33778E+00  1.77691E+00  5.40155E+00  5.31696E+00  1.06887E+01  1.12360E+00
   1.29619E+01  5.45485E+00  8.59876E+00  6.33727E+00  1.00624E+01  4.18833E+00  8.32283E+00  6.05347E+00  1.21587E+01  3.01755E+00
   6.12168E+00  1.28892E+00  6.54122E+00  7.64323E+00  4.89455E+00  4.03463E+00  2.90117E+00 -2.41903E+00  3.55599E+00  2.85141E+00
  -1.76988E+00 -2.36735E+00  3.98590E+00 -5.24745E-01 -4.31599E+00 -2.60073E+00  2.30999E+00 -3.71513E-02 -1.85475E+00 -4.54547E+00
  -1.65990E+00  3.03918E+00 -4.32019E+00 -7.26393E+00 -5.87369E+00 -1.08837E+00 -6.04368E+00 -5.31645E+00 -2.10697E+00 -6.15317E+00
  -1.27010E+01 -5.59697E+00 -5.31870E+00 -1.68879E+00 -8.31196E+00 -6.87026E+00 -4.81162E+00 -2.72493E+00 -4.00512E+00 -4.54800E+00
  -7.38134E+00 -8.97685E+00 -3.71314E+00 -7.49952E+00  3.96790E-01 -6.60355E+00 -7.41639E+00 -5.38261E+00 -5.02272E+00 -3.62034E+00
  -5.94094E+00 -1.68966E+00 -8.16197E+00 -1.01342E+01 -5.64662E+00 -3.18883E+00 -1.17861E+00 -6.29203E+00 -2.60012E+00 -7.10554E+00
   4.02589E-01 -2.35828E+00 -3.11409E-01 -8.54572E+00 -2.85144E+00 -5.31918E+00 -8.03918E+00 -8.21355E+00 -6.15998E+00 -7.27792E+00
  -6.35660E+00 -3.13799E+00 -3.71882E+00 -8.83407E+00 -2.08364E+00 -5.32200E+00 -4.89225E+00 -4.93830E+00 -9.78912E+00 -1.06150E+01
  -2.10843E+00 -2.28362E+00 -1.18411E+01 -1.10528E+01 -9.71352E+00 -4.03022E+00 -1.09238E+00 -1.04409E+00
 NY points of the fit to the data follow
  -1.88475E+01 -1.93545E+01 -1.85815E+01 -1.77728E+01 -1.59361E+01 -1.21515E+01 -6.92364E+00 -1.14672E+00  4.51287E+00  8.96282E+00
   1.08941E+01  1.02526E+01  7.96474E+00  4.23487E+00 -7.09970E-01 -5.42756E+00 -8.21346E+00 -9.59582E+00 -1.12880E+01 -1.28946E+01
  -1.35699E+01 -1.36468E+01 -1.31352E+01 -1.24518E+01 -1.12624E+01 -9.34292E+00 -6.92862E+00 -4.28620E+00 -1.82647E+00  9.22023E-02
   9.80941E-01  5.74085E-01 -8.81120E-01 -3.17459E+00 -6.17516E+00 -9.18995E+00 -1.16376E+01 -1.32826E+01 -1.42538E+01 -1.43604E+01
  -1.34376E+01 -1.21188E+01 -1.05324E+01 -8.75309E+00 -7.13787E+00 -5.94975E+00 -5.41860E+00 -5.62702E+00 -6.60209E+00 -8.20503E+00
  -1.00689E+01 -1.18449E+01 -1.33957E+01 -1.44266E+01 -1.47377E+01 -1.45856E+01 -1.43166E+01 -1.39733E+01 -1.35835E+01 -1.33293E+01
  -1.33961E+01 -1.37259E+01 -1.42305E+01 -1.47599E+01 -1.51797E+01 -1.54323E+01 -1.54409E+01 -1.51848E+01 -1.47904E+01 -1.43771E+01
  -1.40296E+01 -1.37894E+01 -1.36916E+01 -1.37567E+01 -1.39331E+01 -1.41772E+01 -1.44808E+01 -1.47483E+01 -1.48086E+01 -1.46196E+01
  -1.44165E+01 -1.41373E+01 -1.37008E+01 -1.32590E+01 -1.29910E+01 -1.29530E+01 -1.31548E+01 -1.35997E+01 -1.41491E+01 -1.46478E+01
  -1.50463E+01 -1.53039E+01 -1.53432E+01 -1.50778E+01 -1.43413E+01 -1.22017E+01 -8.55011E+00 -4.32081E+00  1.06840E+00  7.85010E+00
   1.50578E+01  2.14174E+01  2.59557E+01  2.77876E+01  2.62758E+01  2.18028E+01  1.56260E+01  8.60503E+00  1.46136E+00 -4.49933E+00
  -8.35847E+00 -1.05644E+01 -1.24000E+01 -1.37816E+01 -1.40826E+01 -1.39706E+01 -1.36662E+01 -1.31203E+01 -1.18770E+01 -8.14371E+00
  -2.08126E+00  4.74073E+00  1.33793E+01  2.40626E+01  3.52154E+01  4.49881E+01  5.18716E+01  5.44767E+01  5.20063E+01  4.51719E+01
   3.57227E+01  2.48626E+01  1.36549E+01  4.12141E+00 -2.35716E+00 -6.41516E+00 -9.80072E+00 -1.20920E+01 -1.24987E+01 -1.21695E+01
  -1.16214E+01 -1.11739E+01 -1.10511E+01 -1.12098E+01 -1.15499E+01 -1.20533E+01 -1.26339E+01 -1.31907E+01 -1.36932E+01 -1.41177E+01
  -1.45093E+01 -1.48126E+01 -1.50334E+01 -1.53079E+01 -1.56024E+01 -1.58577E+01 -1.61361E+01 -1.64187E+01 -1.67533E+01 -1.71019E+01
  -1.73407E+01 -1.74365E+01 -1.74300E+01 -1.73954E+01 -1.74396E+01 -1.76331E+01 -1.80056E+01 -1.85773E+01 -1.93721E+01 -2.02797E+01
  -2.09984E+01 -2.15852E+01 -2.21193E+01 -2.26342E+01 -2.30651E+01 -2.32112E+01 -2.31442E+01 -2.30054E+01 -2.28301E+01 -2.27392E+01
  -2.26556E+01 -2.24157E+01 -2.20797E+01 -2.16155E+01 -2.08411E+01 -1.96119E+01 -1.80133E+01 -1.62758E+01 -1.45918E+01 -1.31592E+01
  -1.21783E+01 -1.17427E+01 -1.19028E+01 -1.24861E+01 -1.32146E+01 -1.37287E+01 -1.36269E+01 -1.29009E+01 -1.16818E+01 -1.00611E+01
  -8.37351E+00 -6.99821E+00 -6.38247E+00 -6.52032E+00 -7.54559E+00 -9.61108E+00 -1.22797E+01 -1.48168E+01 -1.67246E+01 -1.75956E+01
  -1.73770E+01 -1.58350E+01 -1.32332E+01 -1.02532E+01 -7.54353E+00 -5.78171E+00 -5.33497E+00 -6.15979E+00 -8.06145E+00 -1.04822E+01
  -1.29770E+01 -1.48867E+01 -1.55585E+01 -1.49159E+01 -1.32449E+01 -1.10481E+01 -8.82005E+00 -6.77509E+00 -5.29041E+00 -4.34571E+00
  -3.91254E+00 -3.69520E+00 -3.25407E+00 -2.59570E+00 -1.95609E+00 -1.37209E+00 -7.88126E-01 -3.41196E-01 -3.01147E-01 -6.50951E-01
  -1.03345E+00 -1.30095E+00 -1.41663E+00 -1.14961E+00 -3.22575E-01  9.36599E-01  2.30039E+00  3.79645E+00  5.48852E+00  7.08601E+00
   8.58619E+00  1.07166E+01  1.62839E+01  2.60916E+01  3.66787E+01  4.94722E+01  6.55648E+01  8.27577E+01  9.78805E+01  1.08727E+02
   1.13258E+02  1.09725E+02  9.87220E+01  8.32713E+01  6.54687E+01  4.67465E+01  3.03381E+01  1.90050E+01  1.20896E+01  6.26552E+00
   1.19664E+00 -9.69835E-01 -1.99080E+00 -2.70648E+00 -3.27856E+00 -3.74697E+00 -4.21135E+00 -4.68638E+00 -5.16235E+00 -5.63574E+00
  -6.08556E+00 -6.47388E+00 -6.79322E+00 -7.05988E+00 -7.27532E+00 -7.42806E+00 -7.52063E+00 -7.56096E+00 -7.55148E+00 -7.48101E+00
  -7.33871E+00 -7.12720E+00 -6.84810E+00 -6.49745E+00 -6.07677E+00 -5.58886E+00 -5.03862E+00 -4.43058E+00 -3.77212E+00 -3.07182E+00
  -2.34351E+00 -1.60363E+00 -8.71323E-01 -1.64721E-01  4.95559E-01  1.09163E+00  1.60692E+00  2.03134E+00  2.35717E+00  2.58210E+00
   2.70808E+00  2.74428E+00  2.70184E+00  2.59769E+00  2.45045E+00  2.28239E+00  2.11475E+00  1.97025E+00  1.86820E+00  1.82709E+00
   1.86010E+00  1.97822E+00  2.18626E+00  2.48629E+00  2.87401E+00  3.34273E+00  3.88025E+00  4.47317E+00  5.10387E+00  5.75487E+00
   6.40597E+00  7.03870E+00  7.63350E+00  8.17409E+00  8.64444E+00  9.03283E+00  9.32881E+00  9.52703E+00  9.62404E+00  9.62181E+00
   9.52421E+00  9.34025E+00  9.08033E+00  8.75923E+00  8.39203E+00  7.99646E+00  7.58832E+00  7.18341E+00  6.79274E+00  6.42458E+00
   6.08023E+00  5.75702E+00  5.44564E+00  5.13492E+00  4.81085E+00  4.46235E+00  4.08031E+00  3.66233E+00  3.21005E+00  2.73181E+00
   2.23800E+00  1.74223E+00  1.25606E+00  7.90530E-01  3.52047E-01 -5.46255E-02 -4.29095E-01 -7.71425E-01 -1.08437E+00 -1.36945E+00
  -1.62933E+00 -1.86434E+00 -2.07536E+00 -2.26080E+00 -2.41979E+00 -2.54930E+00 -2.64731E+00 -2.70993E+00 -2.73452E+00 -2.71686E+00
  -2.65426E+00 -2.54262E+00 -2.37950E+00 -2.16122E+00 -1.88600E+00 -1.55120E+00 -1.15646E+00 -7.00951E-01 -1.86489E-01  3.85138E-01
   1.00902E+00  1.67982E+00  2.38879E+00  3.12664E+00  3.88074E+00  4.63816E+00  5.38311E+00  6.10015E+00  6.77195E+00  7.38276E+00
   7.91624E+00  8.35895E+00  8.69815E+00  8.92517E+00  9.03310E+00  9.01988E+00  8.88563E+00  8.63531E+00  8.27572E+00  7.81783E+00
   7.27357E+00  6.65792E+00  5.98551E+00  5.27262E+00  4.53386E+00  3.78437E+00  3.03667E+00  2.30299E+00  1.59243E+00  9.13410E-01
   2.71129E-01 -3.29707E-01 -8.87325E-01 -1.40009E+00 -1.86889E+00 -2.29429E+00 -2.67890E+00 -3.02450E+00 -3.33448E+00 -3.61110E+00
  -3.85798E+00 -4.07740E+00 -4.27276E+00 -4.44602E+00 -4.60016E+00 -4.73672E+00 -4.85828E+00 -4.96598E+00 -5.06197E+00 -5.14696E+00
  -5.22276E+00 -5.28978E+00 -5.34957E+00 -5.40233E+00 -5.44937E+00 -5.49066E+00 -5.52734E+00 -5.55930E+00 -5.58757E+00 -5.61193E+00
  -5.63327E+00 -5.65128E+00 -5.66681E+00 -5.67951E+00 -5.69019E+00 -5.69844E+00 -5.70500E+00 -5.70941E+00 -5.71242E+00 -5.71358E+00
  -5.71359E+00 -5.71196E+00 -5.70933E+00 -5.70523E+00 -5.70031E+00 -5.69409E+00 -5.68721E+00 -5.67914E+00 -5.67049E+00 -5.66075E+00
  -5.65056E+00 -5.63940E+00 -5.62786E+00 -5.61541E+00 -5.60262E+00 -5.58900E+00 -5.57514E+00 -5.56053E+00 -5.54572E+00 -5.53017E+00
  -5.51447E+00 -5.49812E+00 -5.48168E+00 -5.46463E+00 -5.44750E+00 -5.42978E+00 -5.41203E+00 -5.39374E+00 -5.37548E+00 -5.35670E+00
  -5.33795E+00 -5.31871E+00 -5.29954E+00 -5.27994E+00 -5.26044E+00 -5.24051E+00 -5.22069E+00 -5.20048E+00
 NY background values follow
    -2.144E+01   -2.141E+01   -2.138E+01   -2.135E+01   -2.132E+01   -2.129E+01   -2.126E+01   -2.123E+01   -2.120E+01   -2.117E+01
    -2.114E+01   -2.111E+01   -2.108E+01   -2.105E+01   -2.102E+01   -2.099E+01   -2.096E+01   -2.093E+01   -2.090E+01   -2.087E+01
    -2.083E+01   -2.080E+01   -2.077E+01   -2.074E+01   -2.071E+01   -2.068E+01   -2.065E+01   -2.062E+01   -2.059E+01   -2.056E+01
    -2.053E+01   -2.050E+01   -2.047E+01   -2.044E+01   -2.041E+01   -2.038E+01   -2.035E+01   -2.032E+01   -2.029E+01   -2.026E+01
    -2.023E+01   -2.020E+01   -2.017E+01   -2.013E+01   -2.010E+01   -2.007E+01   -2.004E+01   -2.001E+01   -1.998E+01   -1.995E+01
    -1.992E+01   -1.989E+01   -1.986E+01   -1.983E+01   -1.980E+01   -1.977E+01   -1.974E+01   -1.971E+01   -1.968E+01   -1.965E+01
    -1.962E+01   -1.959E+01   -1.956E+01   -1.953E+01   -1.949E+01   -1.946E+01   -1.943E+01   -1.940E+01   -1.937E+01   -1.934E+01
    -1.931E+01   -1.928E+01   -1.925E+01   -1.922E+01   -1.919E+01   -1.916E+01   -1.913E+01   -1.910E+01   -1.907E+01   -1.904E+01
    -1.901E+01   -1.898E+01   -1.895E+01   -1.891E+01   -1.888E+01   -1.885E+01   -1.882E+01   -1.879E+01   -1.876E+01   -1.873E+01
    -1.870E+01   -1.867E+01   -1.864E+01   -1.861E+01   -1.858E+01   -1.855E+01   -1.852E+01   -1.849E+01   -1.846E+01   -1.843E+01
    -1.839E+01   -1.836E+01   -1.833E+01   -1.830E+01   -1.827E+01   -1.824E+01   -1.821E+01   -1.818E+01   -1.815E+01   -1.812E+01
    -1.809E+01   -1.806E+01   -1.803E+01   -1.800E+01   -1.797E+01   -1.794E+01   -1.791E+01   -1.787E+01   -1.784E+01   -1.781E+01
    -1.778E+01   -1.775E+01   -1.772E+01   -1.769E+01   -1.766E+01   -1.763E+01   -1.760E+01   -1.757E+01   -1.754E+01   -1.751E+01
    -1.748E+01   -1.745E+01   -1.742E+01   -1.738E+01   -1.735E+01   -1.732E+01   -1.729E+01   -1.726E+01   -1.723E+01   -1.720E+01
    -1.717E+01   -1.714E+01   -1.711E+01   -1.708E+01   -1.705E+01   -1.702E+01   -1.699E+01   -1.696E+01   -1.692E+01   -1.689E+01
    -1.686E+01   -1.683E+01   -1.680E+01   -1.677E+01   -1.674E+01   -1.671E+01   -1.668E+01   -1.665E+01   -1.662E+01   -1.659E+01
    -1.656E+01   -1.653E+01   -1.650E+01   -1.646E+01   -1.643E+01   -1.640E+01   -1.637E+01   -1.634E+01   -1.631E+01   -1.628E+01
    -1.625E+01   -1.622E+01   -1.619E+01   -1.616E+01   -1.613E+01   -1.610E+01   -1.607E+01   -1.603E+01   -1.600E+01   -1.597E+01
    -1.594E+01   -1.591E+01   -1.588E+01   -1.585E+01   -1.582E+01   -1.579E+01   -1.576E+01   -1.573E+01   -1.570E+01   -1.567E+01
    -1.564E+01   -1.560E+01   -1.557E+01   -1.554E+01   -1.551E+01   -1.548E+01   -1.545E+01   -1.542E+01   -1.539E+01   -1.536E+01
    -1.533E+01   -1.530E+01   -1.527E+01   -1.524E+01   -1.521E+01   -1.517E+01   -1.514E+01   -1.511E+01   -1.508E+01   -1.505E+01
    -1.502E+01   -1.499E+01   -1.496E+01   -1.493E+01   -1.490E+01   -1.487E+01   -1.484E+01   -1.481E+01   -1.477E+01   -1.474E+01
    -1.471E+01   -1.468E+01   -1.465E+01   -1.462E+01   -1.459E+01   -1.456E+01   -1.453E+01   -1.450E+01   -1.447E+01   -1.444E+01
    -1.441E+01   -1.437E+01   -1.434E+01   -1.431E+01   -1.428E+01   -1.425E+01   -1.422E+01   -1.419E+01   -1.416E+01   -1.413E+01
    -1.410E+01   -1.407E+01   -1.404E+01   -1.401E+01   -1.397E+01   -1.394E+01   -1.391E+01   -1.388E+01   -1.385E+01   -1.382E+01
    -1.379E+01   -1.376E+01   -1.373E+01   -1.370E+01   -1.367E+01   -1.364E+01   -1.361E+01   -1.357E+01   -1.354E+01   -1.351E+01
    -1.348E+01   -1.345E+01   -1.342E+01   -1.339E+01   -1.336E+01   -1.333E+01   -1.330E+01   -1.327E+01   -1.324E+01   -1.320E+01
    -1.317E+01   -1.314E+01   -1.311E+01   -1.308E+01   -1.305E+01   -1.302E+01   -1.299E+01   -1.296E+01   -1.293E+01   -1.290E+01
    -1.287E+01   -1.283E+01   -1.280E+01   -1.277E+01   -1.274E+01   -1.271E+01   -1.268E+01   -1.265E+01   -1.262E+01   -1.259E+01
    -1.256E+01   -1.253E+01   -1.250E+01   -1.247E+01   -1.243E+01   -1.240E+01   -1.237E+01   -1.234E+01   -1.231E+01   -1.228E+01
    -1.225E+01   -1.222E+01   -1.219E+01   -1.216E+01   -1.213E+01   -1.210E+01   -1.206E+01   -1.203E+01   -1.200E+01   -1.197E+01
    -1.194E+01   -1.191E+01   -1.188E+01   -1.185E+01   -1.182E+01   -1.179E+01   -1.176E+01   -1.173E+01   -1.169E+01   -1.166E+01
    -1.163E+01   -1.160E+01   -1.157E+01   -1.154E+01   -1.151E+01   -1.148E+01   -1.145E+01   -1.142E+01   -1.139E+01   -1.136E+01
    -1.132E+01   -1.129E+01   -1.126E+01   -1.123E+01   -1.120E+01   -1.117E+01   -1.114E+01   -1.111E+01   -1.108E+01   -1.105E+01
    -1.102E+01   -1.099E+01   -1.095E+01   -1.092E+01   -1.089E+01   -1.086E+01   -1.083E+01   -1.080E+01   -1.077E+01   -1.074E+01
    -1.071E+01   -1.068E+01   -1.065E+01   -1.061E+01   -1.058E+01   -1.055E+01   -1.052E+01   -1.049E+01   -1.046E+01   -1.043E+01
    -1.040E+01   -1.037E+01   -1.034E+01   -1.031E+01   -1.028E+01   -1.024E+01   -1.021E+01   -1.018E+01   -1.015E+01   -1.012E+01
    -1.009E+01   -1.006E+01   -1.003E+01   -9.998E+00   -9.967E+00   -9.936E+00   -9.906E+00   -9.875E+00   -9.844E+00   -9.813E+00
    -9.782E+00   -9.751E+00   -9.721E+00   -9.690E+00   -9.659E+00   -9.628E+00   -9.597E+00   -9.566E+00   -9.535E+00   -9.505E+00
    -9.474E+00   -9.443E+00   -9.412E+00   -9.381E+00   -9.350E+00   -9.320E+00   -9.289E+00   -9.258E+00   -9.227E+00   -9.196E+00
    -9.165E+00   -9.135E+00   -9.104E+00   -9.073E+00   -9.042E+00   -9.011E+00   -8.980E+00   -8.949E+00   -8.919E+00   -8.888E+00
    -8.857E+00   -8.826E+00   -8.795E+00   -8.764E+00   -8.734E+00   -8.703E+00   -8.672E+00   -8.641E+00   -8.610E+00   -8.579E+00
    -8.549E+00   -8.518E+00   -8.487E+00   -8.456E+00   -8.425E+00   -8.394E+00   -8.364E+00   -8.333E+00   -8.302E+00   -8.271E+00
    -8.240E+00   -8.209E+00   -8.179E+00   -8.148E+00   -8.117E+00   -8.086E+00   -8.055E+00   -8.025E+00   -7.994E+00   -7.963E+00
    -7.932E+00   -7.901E+00   -7.870E+00   -7.840E+00   -7.809E+00   -7.778E+00   -7.747E+00   -7.716E+00   -7.685E+00   -7.655E+00
    -7.624E+00   -7.593E+00   -7.562E+00   -7.531E+00   -7.501E+00   -7.470E+00   -7.439E+00   -7.408E+00   -7.377E+00   -7.346E+00
    -7.316E+00   -7.285E+00   -7.254E+00   -7.223E+00   -7.192E+00   -7.162E+00   -7.131E+00   -7.100E+00   -7.069E+00   -7.038E+00
    -7.008E+00   -6.977E+00   -6.946E+00   -6.915E+00   -6.884E+00   -6.854E+00   -6.823E+00   -6.792E+00   -6.761E+00   -6.730E+00
    -6.700E+00   -6.669E+00   -6.638E+00   -6.607E+00   -6.576E+00   -6.546E+00   -6.515E+00   -6.484E+00   -6.453E+00   -6.422E+00
    -6.392E+00   -6.361E+00   -6.330E+00   -6.299E+00   -6.268E+00   -6.238E+00   -6.207E+00   -6.176E+00
 PCr      Conc. = 2.33E+03
