 LCModel (Version 6.3-1L) Copyright: S.W. Provencher.          Ref.: Magn. Reson. Med. 30:672-679 (1993).                
 Slice#2 Row#4 Col#9  PD_05_press_2_raw_act
 36 lines in following concentration table = NCONC+1
    Conc.  %SD /Cr+PCr  Metabolite                                         
  828.947  53%   0.213 Ala                                                 
    0.000 999%   0.000 Asp                                                 
 1.16E+03  71%   0.299 Cr                                                  
 2.73E+03  31%   0.701 PCr                                                 
  220.640 209% 5.7E-02 GABA                                                
   25.060 999% 6.4E-03 Glc                                                 
 4.86E+03  20%   1.248 Gln                                                 
 5.02E+03  22%   1.288 Glu                                                 
 1.67E+03   4%   0.429 GPC                                                 
    0.000 999%   0.000 PCh                                                 
 1.06E+03  24%   0.271 GSH                                                 
 3.46E+03  26%   0.889 Ins                                                 
  275.162 171% 7.1E-02 Lac                                                 
 6.21E+03   7%   1.595 NAA                                                 
  112.046 449% 2.9E-02 NAAG                                                
  375.577  23% 9.6E-02 Scyllo                                              
    0.000 999%   0.000 Tau                                                 
  910.182  40%   0.234 -CrCH2                                              
 1.67E+03   4%   0.429 GPC+PCh                                             
 6.32E+03   4%   1.624 NAA+NAAG                                            
 3.89E+03   5%   1.000 Cr+PCr                                              
 9.88E+03  18%   2.537 Glu+Gln                                             
    0.000 999%   0.000 Lip13a                                              
    0.000 999%   0.000 Lip13b                                              
    0.000 999%   0.000 Lip09                                               
 4.28E+03  15%   1.100 MM09                                                
    5.030 999% 1.3E-03 Lip20                                               
 1.16E+04  10%   2.976 MM20                                                
 1.08E+03  38%   0.278 MM12                                                
 6.45E+03  16%   1.658 MM14                                                
 3.90E+03  21%   1.001 MM17                                                
    0.000 999%   0.000 Lip13a+Lip13b                                       
 7.54E+03  16%   1.935 MM14+Lip13a+Lip13b+MM12                             
 4.28E+03  15%   1.100 MM09+Lip09                                          
 1.16E+04  10%   2.977 MM20+Lip20                                          
   6 lines in following misc. output table
  FWHM = 0.069 ppm    S/N =  10                                            
  Data shift = 0.023 ppm                                                   
  Ph: -54 deg     -12.0 deg/ppm                                            
  alphaB,S = 8.0E-01,   1.9E+02                                            
   14 spline knots.   Ns = 8(1)                                            
  (16) 4 infls.   (17) 1 extrs.                                            
  498 points on ppm-axis = NY
      4.000000     3.992357     3.984714     3.977070     3.969427     3.961784     3.954141     3.946497     3.938854     3.931211
      3.923568     3.915925     3.908281     3.900638     3.892995     3.885352     3.877708     3.870065     3.862422     3.854779
      3.847136     3.839492     3.831849     3.824206     3.816563     3.808919     3.801276     3.793633     3.785990     3.778347
      3.770703     3.763060     3.755417     3.747774     3.740130     3.732487     3.724844     3.717201     3.709558     3.701914
      3.694271     3.686628     3.678985     3.671341     3.663698     3.656055     3.648412     3.640769     3.633125     3.625482
      3.617839     3.610196     3.602552     3.594909     3.587266     3.579623     3.571980     3.564336     3.556693     3.549050
      3.541407     3.533763     3.526120     3.518477     3.510834     3.503191     3.495547     3.487904     3.480261     3.472618
      3.464974     3.457331     3.449688     3.442045     3.434402     3.426758     3.419115     3.411472     3.403829     3.396185
      3.388542     3.380899     3.373256     3.365613     3.357969     3.350326     3.342683     3.335040     3.327396     3.319753
      3.312110     3.304467     3.296824     3.289180     3.281537     3.273894     3.266251     3.258607     3.250964     3.243321
      3.235678     3.228034     3.220391     3.212748     3.205105     3.197462     3.189818     3.182175     3.174532     3.166889
      3.159245     3.151602     3.143959     3.136316     3.128673     3.121029     3.113386     3.105743     3.098100     3.090456
      3.082813     3.075170     3.067527     3.059884     3.052240     3.044597     3.036954     3.029311     3.021667     3.014024
      3.006381     2.998738     2.991095     2.983451     2.975808     2.968165     2.960522     2.952878     2.945235     2.937592
      2.929949     2.922306     2.914662     2.907019     2.899376     2.891733     2.884089     2.876446     2.868803     2.861160
      2.853517     2.845873     2.838230     2.830587     2.822944     2.815300     2.807657     2.800014     2.792371     2.784728
      2.777084     2.769441     2.761798     2.754155     2.746511     2.738868     2.731225     2.723582     2.715939     2.708295
      2.700652     2.693009     2.685366     2.677722     2.670079     2.662436     2.654793     2.647150     2.639506     2.631863
      2.624220     2.616577     2.608933     2.601290     2.593647     2.586004     2.578361     2.570717     2.563074     2.555431
      2.547788     2.540144     2.532501     2.524858     2.517215     2.509572     2.501928     2.494285     2.486642     2.478999
      2.471355     2.463712     2.456069     2.448426     2.440783     2.433139     2.425496     2.417853     2.410210     2.402566
      2.394923     2.387280     2.379637     2.371994     2.364350     2.356707     2.349064     2.341421     2.333777     2.326134
      2.318491     2.310848     2.303205     2.295561     2.287918     2.280275     2.272632     2.264988     2.257345     2.249702
      2.242059     2.234416     2.226772     2.219129     2.211486     2.203843     2.196199     2.188556     2.180913     2.173270
      2.165627     2.157983     2.150340     2.142697     2.135054     2.127410     2.119767     2.112124     2.104481     2.096838
      2.089194     2.081551     2.073908     2.066265     2.058621     2.050978     2.043335     2.035692     2.028049     2.020405
      2.012762     2.005119     1.997476     1.989833     1.982190     1.974546     1.966903     1.959260     1.951617     1.943974
      1.936331     1.928688     1.921045     1.913402     1.905759     1.898115     1.890472     1.882829     1.875186     1.867543
      1.859900     1.852257     1.844614     1.836971     1.829327     1.821684     1.814041     1.806398     1.798755     1.791112
      1.783469     1.775826     1.768183     1.760540     1.752896     1.745253     1.737610     1.729967     1.722324     1.714681
      1.707038     1.699395     1.691752     1.684108     1.676465     1.668822     1.661179     1.653536     1.645893     1.638250
      1.630607     1.622964     1.615321     1.607677     1.600034     1.592391     1.584748     1.577105     1.569462     1.561819
      1.554176     1.546533     1.538890     1.531246     1.523603     1.515960     1.508317     1.500674     1.493031     1.485388
      1.477745     1.470102     1.462458     1.454815     1.447172     1.439529     1.431886     1.424243     1.416600     1.408957
      1.401314     1.393671     1.386027     1.378384     1.370741     1.363098     1.355455     1.347812     1.340169     1.332526
      1.324883     1.317240     1.309596     1.301953     1.294310     1.286667     1.279024     1.271381     1.263738     1.256095
      1.248452     1.240808     1.233165     1.225522     1.217879     1.210236     1.202593     1.194950     1.187307     1.179664
      1.172021     1.164377     1.156734     1.149091     1.141448     1.133805     1.126162     1.118519     1.110876     1.103233
      1.095590     1.087946     1.080303     1.072660     1.065017     1.057374     1.049731     1.042088     1.034445     1.026802
      1.019158     1.011515     1.003872     0.996229     0.988586     0.980943     0.973300     0.965657     0.958014     0.950371
      0.942727     0.935084     0.927441     0.919798     0.912155     0.904512     0.896869     0.889226     0.881583     0.873940
      0.866296     0.858653     0.851010     0.843367     0.835724     0.828081     0.820438     0.812795     0.805152     0.797508
      0.789865     0.782222     0.774579     0.766936     0.759293     0.751650     0.744007     0.736364     0.728721     0.721077
      0.713434     0.705791     0.698148     0.690505     0.682862     0.675219     0.667576     0.659933     0.652290     0.644646
      0.637003     0.629360     0.621717     0.614074     0.606431     0.598788     0.591145     0.583502     0.575858     0.568215
      0.560572     0.552929     0.545286     0.537643     0.530000     0.522357     0.514714     0.507071     0.499427     0.491784
      0.484141     0.476498     0.468855     0.461212     0.453569     0.445925     0.438282     0.430639     0.422996     0.415353
      0.407710     0.400067     0.392424     0.384780     0.377137     0.369494     0.361851     0.354208     0.346565     0.338922
      0.331278     0.323635     0.315992     0.308349     0.300706     0.293063     0.285420     0.277777     0.270133     0.262490
      0.254847     0.247204     0.239561     0.231918     0.224275     0.216631     0.208988     0.201345
 NY phased data points follow
  -4.03252E+00 -2.50915E+00  3.67807E+00  4.65291E+00  1.50241E+01  3.14991E+01  3.37919E+01  5.08321E+01  5.66804E+01  4.29558E+01
   5.48614E+01  6.43894E+01  4.54319E+01  4.66156E+01  3.93245E+01  3.46285E+01  2.92633E+01 -6.47956E-01  7.01113E+00  1.46581E+01
   1.45755E+01  1.61476E+01  1.85777E+01 -3.13698E+00  7.86708E+00  2.73353E+01  1.98644E+01  5.84361E+00  1.74447E+01  2.66159E+01
   1.46893E+01  9.13813E+00  2.89498E+01  2.55898E+01  1.97347E+01  8.95129E+00  1.08566E+01  1.48679E+01  1.69150E+01  2.30528E+01
   1.15662E+01  2.33303E+01  2.86789E+01  3.54028E+01  2.84481E+01  3.64680E+01  2.28114E+01  2.69551E+01  3.36652E+01  3.21608E+01
   2.45239E+01  1.60315E+01  1.34936E+01  7.51343E+00  1.81621E+01  2.84637E+01  2.07507E+01  9.87658E+00  1.04716E+01  2.09369E+01
   3.48318E+00 -4.61862E+00 -6.86315E+00 -1.64642E+01 -8.16678E+00 -2.17848E+01 -8.37694E+00 -2.24032E+01 -5.50003E+00 -6.37568E+00
  -5.21380E+00  7.13719E+00  2.79845E+00 -6.53442E+00  9.79077E+00  8.17603E+00  4.63363E+00 -9.01645E+00  9.08663E+00  4.23535E+00
  -4.85807E-01  3.28276E+00  1.46594E+01  8.58010E+00  3.78354E+00  2.78458E+00  1.21998E+01  1.56653E+01  2.11395E+01  1.29078E+01
   1.24311E+01  1.47723E+01  8.29049E-01  4.67980E+00  2.08138E+01  2.66893E+01  4.63059E+01  6.06877E+01  5.58555E+01  6.70851E+01
   8.72881E+01  1.14373E+02  1.22773E+02  1.23480E+02  1.27033E+02  1.01984E+02  8.24165E+01  7.61169E+01  5.03585E+01  3.55898E+01
   3.75826E+01  2.82459E+01  1.39079E+01  1.58931E+01  1.80095E+01  1.12379E+01  1.05929E+01  1.17797E+01  1.80773E+01  1.91218E+01
   2.90488E+01  4.82561E+01  5.86726E+01  6.07754E+01  7.81890E+01  9.39228E+01  1.15140E+02  1.24701E+02  1.02365E+02  1.09929E+02
   9.09680E+01  6.61728E+01  6.02753E+01  2.50091E+01  1.19225E+01  1.48724E+01  1.40103E+01  6.14124E+00  9.11941E+00  1.40342E+01
   9.03005E+00  4.86715E+00  8.46111E+00 -1.63897E+00  1.54349E+01  1.09552E+01  1.21287E+01  1.48615E+01  9.77944E+00  1.15827E+01
   3.86309E+00  3.20781E+00  1.30938E+00  1.36358E+01  1.59703E+01  6.34118E+00 -5.58190E+00 -5.59592E+00  8.38847E+00  5.42531E+00
   8.05850E+00  7.52297E+00  3.11293E+00  3.40660E-01 -4.47482E+00 -1.21217E+01 -2.23377E+01 -2.47848E+01 -4.63827E+00 -2.09140E+01
  -5.74693E+00 -2.38188E+01 -2.86503E+01 -2.75070E+01 -2.62788E+01 -3.37217E+01 -2.51010E+01 -1.38156E+01 -3.66719E+01 -2.17427E+01
  -1.14835E+01 -3.38668E+01 -2.54166E+01 -6.00442E+00 -1.58113E+01 -1.05661E+01 -1.85606E+01 -1.37366E+01 -3.39876E+00 -4.00190E-01
  -9.60066E+00 -7.19285E+00  6.50211E+00  1.01643E+01  1.20259E+01 -9.36011E+00 -1.05045E+00 -1.18001E+01 -7.89579E+00 -4.79204E+00
  -1.41737E+00  1.44224E+01  2.72390E+01  1.43643E+01  1.52460E+01  5.20157E+00  6.94816E+00  6.68297E+00  3.72516E+00  5.07831E+00
   5.19704E+00  5.97743E+00  1.99843E+01  2.64021E+01  3.41455E+01  3.49820E+01  2.88589E+01  3.48160E+01  4.32004E+01  3.52415E+01
   2.51928E+01  8.35122E+00  1.91720E+01  1.92281E+01  1.82372E+01  2.31343E+01  3.40781E+01  4.82551E+01  3.88885E+01  3.42398E+01
   5.56978E+01  3.92113E+01  4.17573E+01  4.02810E+01  4.45894E+01  3.26380E+01  3.80352E+01  5.64254E+01  4.25621E+01  3.32689E+01
   4.43256E+01  3.11602E+01  3.44185E+01  3.40187E+01  4.36573E+01  3.13520E+01  4.31300E+01  5.18529E+01  5.87689E+01  5.57982E+01
   6.34892E+01  6.19000E+01  8.48736E+01  8.36540E+01  1.20935E+02  1.20650E+02  1.53062E+02  1.85981E+02  2.06823E+02  2.16848E+02
   2.20907E+02  2.07146E+02  1.86860E+02  1.75828E+02  1.47179E+02  1.02681E+02  7.56098E+01  6.08495E+01  4.90612E+01  5.82318E+01
   5.23938E+01  5.45063E+01  4.32374E+01  3.29190E+01  4.99653E+01  4.20271E+01  4.01626E+01  2.94924E+01  3.60411E+01  3.67471E+01
   2.76399E+01  3.01618E+01  2.01784E+01  2.79327E+01  2.31784E+01  2.61272E+01  2.45961E+01  2.35612E+01  2.95544E+01  2.03049E+01
   3.88421E+01  1.99247E+01  3.40589E+01  3.11653E+01  2.40442E+01  2.52983E+01  3.60771E+01  2.41227E+01  1.66861E+01  3.31461E+01
   3.37843E+01  3.34594E+01  3.63578E+01  3.15259E+01  5.07818E+01  4.25329E+01  3.29427E+01  4.71022E+01  4.25479E+01  4.52380E+01
   3.52861E+01  4.45558E+01  3.41356E+01  4.08507E+01  4.05693E+01  5.79337E+01  4.25176E+01  5.26609E+01  5.63788E+01  6.11191E+01
   5.97799E+01  4.45276E+01  4.84871E+01  3.67805E+01  3.09959E+01  4.47928E+01  3.87549E+01  4.86578E+01  3.35104E+01  4.47146E+01
   6.22256E+01  3.99841E+01  4.75149E+01  4.24241E+01  3.92605E+01  4.66382E+01  3.33718E+01  5.28814E+01  4.55537E+01  5.89960E+01
   5.98646E+01  4.76210E+01  5.14671E+01  5.34840E+01  4.82965E+01  3.63926E+01  3.27989E+01  4.19022E+01  3.61711E+01  4.00608E+01
   2.33603E+01  3.21567E+01  1.61145E+01  3.27191E+01  3.26828E+01  2.35015E+01  1.90915E+01  2.58109E+01  2.65191E+01  1.02304E+01
   2.95971E+01  1.47942E+01  1.54094E+01  2.36386E+01  2.11688E+01  9.16145E+00  3.09230E+01  2.00946E+01  1.36071E+01  6.77888E+00
   1.79103E+01  2.62348E+01  3.33441E+01  1.17202E+01  2.40927E+01  4.63079E+00  3.29486E+01  1.13452E+01  7.68841E+00  5.26280E+00
  -7.61887E+00  2.39691E+01  1.45011E+01  2.43134E+01  1.31163E+01  9.83978E+00  2.55278E+01  8.88303E+00  9.90082E+00  7.78589E+00
   1.25801E+01  2.21048E+01  2.00107E+01  2.67517E+01  1.31437E+01  1.95724E+01  2.39162E+01  3.06018E+01  2.98794E+01  3.64570E+01
   3.33678E+01  3.37153E+01  2.55539E+01  2.69018E+01  3.60997E+01  2.58958E+01  3.59605E+01  3.34585E+01  3.31105E+01  3.47450E+01
   4.06388E+01  4.02731E+01  2.31783E+01  3.79630E+01  2.96329E+01  2.65137E+01  2.93553E+01  3.33072E+01  2.69202E+01  3.22253E+01
   2.27284E+01  2.78812E+01  1.87188E+01  1.64593E+01  1.12434E+01  2.12031E+01  1.26780E+01  1.43123E+01  2.05735E+01  1.25941E+01
   1.87286E+01  1.52074E+01  2.38465E+01  1.58534E+01  1.68811E+01  1.72630E+01  1.19035E+01  1.94696E+01  1.53200E+01  2.21845E+01
   1.75991E+01  1.94358E+01  1.09217E+01  9.76048E+00  4.18328E+00  4.33177E+00  4.65798E+00  1.66340E+01  9.91828E+00  9.17124E+00
   7.39753E+00  1.18796E+01  2.00212E+01  1.80005E+01  7.66926E+00 -1.43922E+00  3.77065E+00  1.12154E+01  1.42378E+01  1.42693E+01
   1.49682E+01 -5.29887E-01  5.80774E+00  2.34610E+01  7.10314E+00  1.49800E+01  6.68980E+00  1.41026E+01  1.69034E+01 -1.87478E-01
   4.29416E+00  1.42283E+01  1.44146E+01  8.91413E+00  4.18512E+00  3.24937E+00  7.29181E+00  5.71694E+00  1.10274E+01  4.01133E+00
   9.52923E+00  2.19088E+01  1.34041E+01  8.42185E+00  2.11809E+01  2.18494E+01  1.34208E+01  2.81810E+00  3.92533E+00  1.02533E+01
   1.92606E+01  7.54381E+00  1.06657E+01  1.03124E+01  3.00494E+01  1.51638E+01  1.13087E+01  1.13284E+01
 NY points of the fit to the data follow
   6.63011E-01  2.32409E+00  6.35402E+00  1.22136E+01  1.93442E+01  2.71591E+01  3.53144E+01  4.33107E+01  5.03013E+01  5.52334E+01
   5.72166E+01  5.59650E+01  5.17920E+01  4.54361E+01  3.79635E+01  3.05467E+01  2.41179E+01  1.91724E+01  1.54135E+01  1.26388E+01
   1.01923E+01  8.21959E+00  7.52639E+00  7.60533E+00  8.38868E+00  9.86794E+00  1.21866E+01  1.54279E+01  1.92406E+01  2.31790E+01
   2.66260E+01  2.90658E+01  3.00378E+01  2.88545E+01  2.54712E+01  2.07965E+01  1.57725E+01  1.12927E+01  8.37142E+00  7.98038E+00
   9.98926E+00  1.30943E+01  1.66645E+01  2.03102E+01  2.36775E+01  2.62550E+01  2.74581E+01  2.70557E+01  2.51303E+01  2.20074E+01
   1.81724E+01  1.41980E+01  1.07334E+01  8.34051E+00  6.98930E+00  6.32088E+00  6.19202E+00  6.53290E+00  6.99337E+00  7.17284E+00
   6.88932E+00  6.15677E+00  5.05282E+00  3.85186E+00  2.84604E+00  2.20475E+00  2.00880E+00  2.21364E+00  2.73930E+00  3.47017E+00
   4.17640E+00  4.67249E+00  4.84671E+00  4.70129E+00  4.31304E+00  3.76490E+00  3.16915E+00  2.70816E+00  2.76413E+00  3.81204E+00
   5.17958E+00  6.43005E+00  7.65050E+00  9.01024E+00  1.04235E+01  1.15542E+01  1.20472E+01  1.17456E+01  1.08164E+01  9.40109E+00
   7.63962E+00  5.83058E+00  4.47070E+00  4.22321E+00  7.10538E+00  1.68942E+01  3.12664E+01  4.66048E+01  6.20572E+01  7.86220E+01
   9.61285E+01  1.12051E+02  1.22833E+02  1.25958E+02  1.21046E+02  1.09194E+02  9.19967E+01  7.16783E+01  5.15107E+01  3.46945E+01
   2.24226E+01  1.36713E+01  7.68623E+00  5.14524E+00  4.51260E+00  4.46124E+00  4.74904E+00  5.55899E+00  8.29818E+00  1.66857E+01
   2.93271E+01  4.27149E+01  5.60796E+01  7.03419E+01  8.55478E+01  9.97878E+01  1.10018E+02  1.13737E+02  1.10441E+02  1.01084E+02
   8.69462E+01  6.98408E+01  5.23907E+01  3.73383E+01  2.59495E+01  1.75149E+01  1.13926E+01  8.43071E+00  7.59528E+00  7.60130E+00
   8.02370E+00  8.53373E+00  8.84522E+00  8.84696E+00  8.51337E+00  7.83867E+00  6.94304E+00  5.96389E+00  5.01661E+00  4.19596E+00
   3.51077E+00  2.96394E+00  2.47285E+00  1.80275E+00  1.03496E+00  3.46359E-01 -1.59629E-01 -4.66253E-01 -8.38725E-01 -1.36121E+00
  -1.87096E+00 -2.19509E+00 -2.33443E+00 -2.42412E+00 -2.59992E+00 -2.94254E+00 -3.50848E+00 -4.40004E+00 -5.71249E+00 -7.15579E+00
  -8.29861E+00 -9.12981E+00 -9.81308E+00 -1.05747E+01 -1.12105E+01 -1.13920E+01 -1.11724E+01 -1.08197E+01 -1.05524E+01 -1.04515E+01
  -1.02070E+01 -9.61319E+00 -8.72770E+00 -7.59218E+00 -6.09672E+00 -4.22014E+00 -2.17627E+00 -2.77066E-02  2.02992E+00  3.73454E+00
   4.73351E+00  4.93271E+00  4.47635E+00  3.79322E+00  3.34582E+00  3.52568E+00  4.67747E+00  7.08016E+00  1.07133E+01  1.49898E+01
   1.90917E+01  2.19972E+01  2.23994E+01  2.06434E+01  1.72541E+01  1.21647E+01  5.86812E+00 -2.84768E-01 -4.33290E+00 -5.39999E+00
  -3.63072E+00  8.17847E-01  7.51292E+00  1.53423E+01  2.23163E+01  2.66884E+01  2.80275E+01  2.68349E+01  2.36436E+01  1.90509E+01
   1.38959E+01  1.00481E+01  8.85869E+00  1.02564E+01  1.35755E+01  1.82111E+01  2.36446E+01  2.85559E+01  3.16059E+01  3.30906E+01
   3.38303E+01  3.43210E+01  3.47291E+01  3.54083E+01  3.65858E+01  3.80179E+01  3.97225E+01  4.16424E+01  4.33392E+01  4.43250E+01
   4.44651E+01  4.37107E+01  4.23509E+01  4.11089E+01  4.06051E+01  4.11439E+01  4.27582E+01  4.55829E+01  4.93396E+01  5.34784E+01
   5.77742E+01  6.38037E+01  7.72282E+01  9.74724E+01  1.18569E+02  1.38497E+02  1.58622E+02  1.79624E+02  1.99093E+02  2.12713E+02
   2.16825E+02  2.10412E+02  1.94696E+02  1.71605E+02  1.43577E+02  1.14527E+02  8.90422E+01  6.96002E+01  5.52917E+01  4.45901E+01
   3.84868E+01  3.59002E+01  3.43961E+01  3.33041E+01  3.24553E+01  3.17053E+01  3.09097E+01  3.00414E+01  2.90871E+01  2.80771E+01
   2.70803E+01  2.61719E+01  2.53905E+01  2.47675E+01  2.43266E+01  2.40563E+01  2.39268E+01  2.39131E+01  2.39996E+01  2.41848E+01
   2.44680E+01  2.48462E+01  2.53318E+01  2.59335E+01  2.66509E+01  2.74829E+01  2.84266E+01  2.94723E+01  3.06046E+01  3.18064E+01
   3.30582E+01  3.43342E+01  3.56075E+01  3.68515E+01  3.80377E+01  3.91401E+01  4.01357E+01  4.10069E+01  4.17416E+01  4.23349E+01
   4.27892E+01  4.31142E+01  4.33264E+01  4.34507E+01  4.35189E+01  4.35705E+01  4.36546E+01  4.38385E+01  4.42377E+01  4.50444E+01
   4.60436E+01  4.67652E+01  4.71904E+01  4.74469E+01  4.74977E+01  4.70931E+01  4.59695E+01  4.43544E+01  4.28943E+01  4.17597E+01
   4.09546E+01  4.06368E+01  4.11232E+01  4.25835E+01  4.47834E+01  4.71667E+01  4.92355E+01  5.07987E+01  5.16828E+01  5.17340E+01
   5.09355E+01  4.93862E+01  4.74205E+01  4.52952E+01  4.30173E+01  4.05893E+01  3.81090E+01  3.56667E+01  3.33670E+01  3.12321E+01
   2.92998E+01  2.76697E+01  2.64610E+01  2.57120E+01  2.53199E+01  2.50932E+01  2.48827E+01  2.46382E+01  2.42851E+01  2.37562E+01
   2.30892E+01  2.23734E+01  2.16930E+01  2.10705E+01  2.04908E+01  1.99935E+01  1.95816E+01  1.92192E+01  1.88889E+01  1.85828E+01
   1.82971E+01  1.80308E+01  1.77842E+01  1.75590E+01  1.73577E+01  1.71836E+01  1.70404E+01  1.69325E+01  1.68638E+01  1.68390E+01
   1.68623E+01  1.69385E+01  1.70722E+01  1.72682E+01  1.75308E+01  1.78646E+01  1.82737E+01  1.87623E+01  1.93338E+01  1.99907E+01
   2.07344E+01  2.15649E+01  2.24805E+01  2.34773E+01  2.45486E+01  2.56852E+01  2.68743E+01  2.81003E+01  2.93445E+01  3.05855E+01
   3.17991E+01  3.29594E+01  3.40396E+01  3.50131E+01  3.58542E+01  3.65396E+01  3.70488E+01  3.73661E+01  3.74803E+01  3.73862E+01
   3.70842E+01  3.65810E+01  3.58881E+01  3.50226E+01  3.40053E+01  3.28606E+01  3.16147E+01  3.02946E+01  2.89272E+01  2.75382E+01
   2.61513E+01  2.47877E+01  2.34654E+01  2.21991E+01  2.09997E+01  1.98756E+01  1.88316E+01  1.78704E+01  1.69916E+01  1.61936E+01
   1.54730E+01  1.48256E+01  1.42465E+01  1.37305E+01  1.32717E+01  1.28649E+01  1.25046E+01  1.21863E+01  1.19051E+01  1.16572E+01
   1.14384E+01  1.12456E+01  1.10756E+01  1.09261E+01  1.07946E+01  1.06792E+01  1.05779E+01  1.04892E+01  1.04119E+01  1.03448E+01
   1.02867E+01  1.02369E+01  1.01944E+01  1.01586E+01  1.01288E+01  1.01048E+01  1.00858E+01  1.00714E+01  1.00612E+01  1.00549E+01
   1.00523E+01  1.00532E+01  1.00571E+01  1.00638E+01  1.00732E+01  1.00852E+01  1.00995E+01  1.01160E+01  1.01345E+01  1.01550E+01
   1.01771E+01  1.02011E+01  1.02267E+01  1.02538E+01  1.02823E+01  1.03121E+01  1.03432E+01  1.03757E+01  1.04093E+01  1.04440E+01
   1.04797E+01  1.05164E+01  1.05541E+01  1.05929E+01  1.06325E+01  1.06730E+01  1.07142E+01  1.07564E+01  1.07994E+01  1.08433E+01
   1.08879E+01  1.09334E+01  1.09795E+01  1.10266E+01  1.10745E+01  1.11234E+01  1.11730E+01  1.12237E+01
 NY background values follow
    -1.017E+01   -1.010E+01   -1.003E+01   -9.967E+00   -9.899E+00   -9.832E+00   -9.765E+00   -9.697E+00   -9.630E+00   -9.563E+00
    -9.496E+00   -9.429E+00   -9.363E+00   -9.296E+00   -9.230E+00   -9.163E+00   -9.097E+00   -9.030E+00   -8.964E+00   -8.898E+00
    -8.833E+00   -8.767E+00   -8.701E+00   -8.636E+00   -8.571E+00   -8.506E+00   -8.441E+00   -8.376E+00   -8.311E+00   -8.247E+00
    -8.183E+00   -8.119E+00   -8.055E+00   -7.991E+00   -7.928E+00   -7.865E+00   -7.802E+00   -7.739E+00   -7.676E+00   -7.614E+00
    -7.552E+00   -7.490E+00   -7.428E+00   -7.367E+00   -7.306E+00   -7.245E+00   -7.184E+00   -7.124E+00   -7.064E+00   -7.004E+00
    -6.944E+00   -6.885E+00   -6.826E+00   -6.767E+00   -6.709E+00   -6.651E+00   -6.593E+00   -6.535E+00   -6.478E+00   -6.420E+00
    -6.364E+00   -6.307E+00   -6.251E+00   -6.194E+00   -6.139E+00   -6.083E+00   -6.028E+00   -5.973E+00   -5.918E+00   -5.863E+00
    -5.809E+00   -5.755E+00   -5.702E+00   -5.648E+00   -5.595E+00   -5.542E+00   -5.489E+00   -5.437E+00   -5.385E+00   -5.333E+00
    -5.282E+00   -5.230E+00   -5.179E+00   -5.129E+00   -5.078E+00   -5.028E+00   -4.978E+00   -4.928E+00   -4.879E+00   -4.830E+00
    -4.781E+00   -4.732E+00   -4.684E+00   -4.636E+00   -4.588E+00   -4.540E+00   -4.493E+00   -4.446E+00   -4.399E+00   -4.352E+00
    -4.305E+00   -4.259E+00   -4.213E+00   -4.167E+00   -4.121E+00   -4.075E+00   -4.029E+00   -3.983E+00   -3.938E+00   -3.892E+00
    -3.847E+00   -3.802E+00   -3.756E+00   -3.711E+00   -3.666E+00   -3.621E+00   -3.576E+00   -3.531E+00   -3.485E+00   -3.440E+00
    -3.395E+00   -3.350E+00   -3.305E+00   -3.259E+00   -3.214E+00   -3.169E+00   -3.123E+00   -3.077E+00   -3.032E+00   -2.986E+00
    -2.940E+00   -2.894E+00   -2.847E+00   -2.801E+00   -2.754E+00   -2.707E+00   -2.660E+00   -2.613E+00   -2.566E+00   -2.518E+00
    -2.470E+00   -2.421E+00   -2.372E+00   -2.322E+00   -2.272E+00   -2.222E+00   -2.170E+00   -2.118E+00   -2.065E+00   -2.012E+00
    -1.957E+00   -1.902E+00   -1.845E+00   -1.788E+00   -1.730E+00   -1.670E+00   -1.610E+00   -1.548E+00   -1.485E+00   -1.420E+00
    -1.355E+00   -1.288E+00   -1.219E+00   -1.149E+00   -1.078E+00   -1.004E+00   -9.298E-01   -8.534E-01   -7.753E-01   -6.954E-01
    -6.137E-01   -5.301E-01   -4.446E-01   -3.571E-01   -2.676E-01   -1.761E-01   -8.244E-02    1.338E-02    1.114E-01    2.117E-01
     3.143E-01    4.193E-01    5.266E-01    6.362E-01    7.480E-01    8.619E-01    9.778E-01    1.096E+00    1.216E+00    1.337E+00
     1.460E+00    1.585E+00    1.712E+00    1.840E+00    1.969E+00    2.099E+00    2.231E+00    2.364E+00    2.498E+00    2.633E+00
     2.768E+00    2.905E+00    3.042E+00    3.180E+00    3.318E+00    3.457E+00    3.596E+00    3.736E+00    3.876E+00    4.015E+00
     4.155E+00    4.295E+00    4.435E+00    4.574E+00    4.713E+00    4.852E+00    4.990E+00    5.128E+00    5.265E+00    5.402E+00
     5.538E+00    5.672E+00    5.806E+00    5.939E+00    6.071E+00    6.201E+00    6.330E+00    6.458E+00    6.585E+00    6.710E+00
     6.833E+00    6.955E+00    7.076E+00    7.195E+00    7.313E+00    7.430E+00    7.544E+00    7.658E+00    7.769E+00    7.880E+00
     7.988E+00    8.095E+00    8.201E+00    8.305E+00    8.407E+00    8.507E+00    8.606E+00    8.704E+00    8.799E+00    8.893E+00
     8.985E+00    9.075E+00    9.164E+00    9.251E+00    9.336E+00    9.419E+00    9.501E+00    9.581E+00    9.659E+00    9.735E+00
     9.809E+00    9.881E+00    9.951E+00    1.002E+01    1.009E+01    1.015E+01    1.021E+01    1.027E+01    1.033E+01    1.039E+01
     1.044E+01    1.050E+01    1.055E+01    1.060E+01    1.064E+01    1.069E+01    1.073E+01    1.077E+01    1.081E+01    1.084E+01
     1.088E+01    1.091E+01    1.094E+01    1.097E+01    1.100E+01    1.102E+01    1.105E+01    1.107E+01    1.109E+01    1.111E+01
     1.112E+01    1.114E+01    1.115E+01    1.116E+01    1.117E+01    1.118E+01    1.118E+01    1.119E+01    1.119E+01    1.119E+01
     1.119E+01    1.119E+01    1.118E+01    1.118E+01    1.117E+01    1.116E+01    1.115E+01    1.114E+01    1.112E+01    1.111E+01
     1.109E+01    1.107E+01    1.105E+01    1.103E+01    1.101E+01    1.099E+01    1.096E+01    1.094E+01    1.091E+01    1.088E+01
     1.085E+01    1.082E+01    1.078E+01    1.075E+01    1.071E+01    1.068E+01    1.064E+01    1.060E+01    1.056E+01    1.052E+01
     1.048E+01    1.044E+01    1.040E+01    1.036E+01    1.031E+01    1.027E+01    1.022E+01    1.018E+01    1.013E+01    1.009E+01
     1.004E+01    9.992E+00    9.944E+00    9.896E+00    9.848E+00    9.800E+00    9.752E+00    9.703E+00    9.655E+00    9.606E+00
     9.558E+00    9.509E+00    9.461E+00    9.412E+00    9.364E+00    9.316E+00    9.269E+00    9.222E+00    9.175E+00    9.128E+00
     9.082E+00    9.037E+00    8.992E+00    8.947E+00    8.903E+00    8.860E+00    8.818E+00    8.776E+00    8.734E+00    8.694E+00
     8.654E+00    8.614E+00    8.576E+00    8.538E+00    8.501E+00    8.465E+00    8.430E+00    8.396E+00    8.362E+00    8.329E+00
     8.298E+00    8.267E+00    8.237E+00    8.208E+00    8.180E+00    8.154E+00    8.128E+00    8.103E+00    8.079E+00    8.057E+00
     8.035E+00    8.015E+00    7.996E+00    7.978E+00    7.961E+00    7.945E+00    7.931E+00    7.918E+00    7.906E+00    7.896E+00
     7.887E+00    7.879E+00    7.872E+00    7.867E+00    7.864E+00    7.862E+00    7.861E+00    7.861E+00    7.864E+00    7.867E+00
     7.872E+00    7.879E+00    7.887E+00    7.896E+00    7.906E+00    7.918E+00    7.931E+00    7.946E+00    7.961E+00    7.978E+00
     7.996E+00    8.016E+00    8.036E+00    8.057E+00    8.080E+00    8.104E+00    8.128E+00    8.154E+00    8.181E+00    8.209E+00
     8.237E+00    8.267E+00    8.297E+00    8.329E+00    8.361E+00    8.394E+00    8.428E+00    8.463E+00    8.498E+00    8.534E+00
     8.571E+00    8.609E+00    8.647E+00    8.686E+00    8.726E+00    8.766E+00    8.806E+00    8.848E+00    8.890E+00    8.932E+00
     8.975E+00    9.018E+00    9.062E+00    9.106E+00    9.150E+00    9.195E+00    9.241E+00    9.286E+00    9.332E+00    9.379E+00
     9.426E+00    9.473E+00    9.520E+00    9.568E+00    9.616E+00    9.664E+00    9.713E+00    9.762E+00    9.811E+00    9.861E+00
     9.911E+00    9.961E+00    1.001E+01    1.006E+01    1.011E+01    1.016E+01    1.021E+01    1.027E+01    1.032E+01    1.037E+01
     1.042E+01    1.047E+01    1.053E+01    1.058E+01    1.063E+01    1.068E+01    1.074E+01    1.079E+01    1.084E+01    1.089E+01
     1.095E+01    1.100E+01    1.105E+01    1.111E+01    1.116E+01    1.121E+01    1.127E+01    1.132E+01
 Ala      Conc. = 8.29E+02
