 LCModel (Version 6.3-1L) Copyright: S.W. Provencher.          Ref.: Magn. Reson. Med. 30:672-679 (1993).                
 Slice#2 Row#12 Col#2  PD_05_press_2_raw_act
 36 lines in following concentration table = NCONC+1
    Conc.  %SD /Cr+PCr  Metabolite                                         
 3.65E+03  16% 138.260 Ala                                                 
    6.906  99%   0.261 Asp                                                 
    3.927 999%   0.149 Cr                                                  
   22.494 999%   0.851 PCr                                                 
    4.144  99%   0.157 GABA                                                
    4.145  99%   0.157 Glc                                                 
 1.61E+03  43%  60.949 Gln                                                 
    0.000 999%   0.000 Glu                                                 
   37.250  79%   1.410 GPC                                                 
    0.000 999%   0.000 PCh                                                 
  216.364  57%   8.189 GSH                                                 
  987.623  35%  37.380 Ins                                                 
 4.27E+03  13% 161.776 Lac                                                 
    0.000 999%   0.000 NAA                                                 
    0.000 999%   0.000 NAAG                                                
    1.382  99% 5.2E-02 Scyllo                                              
    6.909  99%   0.261 Tau                                                 
    2.335 350% 8.8E-02 -CrCH2                                              
   37.250  79%   1.410 GPC+PCh                                             
    0.000 999%   0.000 NAA+NAAG                                            
   26.421 278%   1.000 Cr+PCr                                              
 1.61E+03  43%  60.949 Glu+Gln                                             
    0.000 999%   0.000 Lip13a                                              
    0.000 999%   0.000 Lip13b                                              
    0.000 999%   0.000 Lip09                                               
 2.32E+03   6%  87.807 MM09                                                
    0.000 999%   0.000 Lip20                                               
 3.39E+03   6% 128.417 MM20                                                
  696.563   7%  26.364 MM12                                                
 1.96E+03   6%  74.323 MM14                                                
  979.696   7%  37.080 MM17                                                
    0.000 999%   0.000 Lip13a+Lip13b                                       
 2.66E+03   5% 100.687 MM14+Lip13a+Lip13b+MM12                             
 2.32E+03   6%  87.807 MM09+Lip09                                          
 3.39E+03   6% 128.417 MM20+Lip20                                          
   6 lines in following misc. output table
  FWHM = 0.153 ppm    S/N =   6                                            
  Data shift = 0.122 ppm                                                   
  Ph:-169 deg      86.1 deg/ppm                                            
  alphaB,S = 3.2E+00,   1.9E+02                                            
    7 spline knots.   Ns = 9(2)                                            
  (11) 4 infls.   ( 3) 1 extrs.                                            
  498 points on ppm-axis = NY
      4.000000     3.992357     3.984714     3.977070     3.969427     3.961784     3.954141     3.946497     3.938854     3.931211
      3.923568     3.915925     3.908281     3.900638     3.892995     3.885352     3.877708     3.870065     3.862422     3.854779
      3.847136     3.839492     3.831849     3.824206     3.816563     3.808919     3.801276     3.793633     3.785990     3.778347
      3.770703     3.763060     3.755417     3.747774     3.740130     3.732487     3.724844     3.717201     3.709558     3.701914
      3.694271     3.686628     3.678985     3.671341     3.663698     3.656055     3.648412     3.640769     3.633125     3.625482
      3.617839     3.610196     3.602552     3.594909     3.587266     3.579623     3.571980     3.564336     3.556693     3.549050
      3.541407     3.533763     3.526120     3.518477     3.510834     3.503191     3.495547     3.487904     3.480261     3.472618
      3.464974     3.457331     3.449688     3.442045     3.434402     3.426758     3.419115     3.411472     3.403829     3.396185
      3.388542     3.380899     3.373256     3.365613     3.357969     3.350326     3.342683     3.335040     3.327396     3.319753
      3.312110     3.304467     3.296824     3.289180     3.281537     3.273894     3.266251     3.258607     3.250964     3.243321
      3.235678     3.228034     3.220391     3.212748     3.205105     3.197462     3.189818     3.182175     3.174532     3.166889
      3.159245     3.151602     3.143959     3.136316     3.128673     3.121029     3.113386     3.105743     3.098100     3.090456
      3.082813     3.075170     3.067527     3.059884     3.052240     3.044597     3.036954     3.029311     3.021667     3.014024
      3.006381     2.998738     2.991095     2.983451     2.975808     2.968165     2.960522     2.952878     2.945235     2.937592
      2.929949     2.922306     2.914662     2.907019     2.899376     2.891733     2.884089     2.876446     2.868803     2.861160
      2.853517     2.845873     2.838230     2.830587     2.822944     2.815300     2.807657     2.800014     2.792371     2.784728
      2.777084     2.769441     2.761798     2.754155     2.746511     2.738868     2.731225     2.723582     2.715939     2.708295
      2.700652     2.693009     2.685366     2.677722     2.670079     2.662436     2.654793     2.647150     2.639506     2.631863
      2.624220     2.616577     2.608933     2.601290     2.593647     2.586004     2.578361     2.570717     2.563074     2.555431
      2.547788     2.540144     2.532501     2.524858     2.517215     2.509572     2.501928     2.494285     2.486642     2.478999
      2.471355     2.463712     2.456069     2.448426     2.440783     2.433139     2.425496     2.417853     2.410210     2.402566
      2.394923     2.387280     2.379637     2.371994     2.364350     2.356707     2.349064     2.341421     2.333777     2.326134
      2.318491     2.310848     2.303205     2.295561     2.287918     2.280275     2.272632     2.264988     2.257345     2.249702
      2.242059     2.234416     2.226772     2.219129     2.211486     2.203843     2.196199     2.188556     2.180913     2.173270
      2.165627     2.157983     2.150340     2.142697     2.135054     2.127410     2.119767     2.112124     2.104481     2.096838
      2.089194     2.081551     2.073908     2.066265     2.058621     2.050978     2.043335     2.035692     2.028049     2.020405
      2.012762     2.005119     1.997476     1.989833     1.982190     1.974546     1.966903     1.959260     1.951617     1.943974
      1.936331     1.928688     1.921045     1.913402     1.905759     1.898115     1.890472     1.882829     1.875186     1.867543
      1.859900     1.852257     1.844614     1.836971     1.829327     1.821684     1.814041     1.806398     1.798755     1.791112
      1.783469     1.775826     1.768183     1.760540     1.752896     1.745253     1.737610     1.729967     1.722324     1.714681
      1.707038     1.699395     1.691752     1.684108     1.676465     1.668822     1.661179     1.653536     1.645893     1.638250
      1.630607     1.622964     1.615321     1.607677     1.600034     1.592391     1.584748     1.577105     1.569462     1.561819
      1.554176     1.546533     1.538890     1.531246     1.523603     1.515960     1.508317     1.500674     1.493031     1.485388
      1.477745     1.470102     1.462458     1.454815     1.447172     1.439529     1.431886     1.424243     1.416600     1.408957
      1.401314     1.393671     1.386027     1.378384     1.370741     1.363098     1.355455     1.347812     1.340169     1.332526
      1.324883     1.317240     1.309596     1.301953     1.294310     1.286667     1.279024     1.271381     1.263738     1.256095
      1.248452     1.240808     1.233165     1.225522     1.217879     1.210236     1.202593     1.194950     1.187307     1.179664
      1.172021     1.164377     1.156734     1.149091     1.141448     1.133805     1.126162     1.118519     1.110876     1.103233
      1.095590     1.087946     1.080303     1.072660     1.065017     1.057374     1.049731     1.042088     1.034445     1.026802
      1.019158     1.011515     1.003872     0.996229     0.988586     0.980943     0.973300     0.965657     0.958014     0.950371
      0.942727     0.935084     0.927441     0.919798     0.912155     0.904512     0.896869     0.889226     0.881583     0.873940
      0.866296     0.858653     0.851010     0.843367     0.835724     0.828081     0.820438     0.812795     0.805152     0.797508
      0.789865     0.782222     0.774579     0.766936     0.759293     0.751650     0.744007     0.736364     0.728721     0.721077
      0.713434     0.705791     0.698148     0.690505     0.682862     0.675219     0.667576     0.659933     0.652290     0.644646
      0.637003     0.629360     0.621717     0.614074     0.606431     0.598788     0.591145     0.583502     0.575858     0.568215
      0.560572     0.552929     0.545286     0.537643     0.530000     0.522357     0.514714     0.507071     0.499427     0.491784
      0.484141     0.476498     0.468855     0.461212     0.453569     0.445925     0.438282     0.430639     0.422996     0.415353
      0.407710     0.400067     0.392424     0.384780     0.377137     0.369494     0.361851     0.354208     0.346565     0.338922
      0.331278     0.323635     0.315992     0.308349     0.300706     0.293063     0.285420     0.277777     0.270133     0.262490
      0.254847     0.247204     0.239561     0.231918     0.224275     0.216631     0.208988     0.201345
 NY phased data points follow
   1.62868E+01  1.35249E+01  1.34581E+01  1.76463E+01  1.58117E+01  1.24252E+01  1.48020E+01  1.33084E+01  1.29550E+01  1.35504E+01
   1.34841E+01  1.14154E+01  1.09355E+01  9.55684E+00  1.60499E+01  1.15060E+01  1.32379E+01  1.52567E+01  1.32389E+01  9.78825E+00
   9.70268E+00  1.58655E+01  1.28990E+01  1.02221E+01  1.11025E+01  1.25650E+01  7.74263E+00  1.20647E+01  7.63069E+00  1.25995E+01
   1.08527E+01  8.60552E+00  7.46626E+00  1.17253E+01  9.70422E+00  8.52645E+00  8.94391E+00  1.09022E+01  9.53517E+00  9.09619E+00
   5.25749E+00  1.12350E+01  1.27455E+01  5.72780E+00  6.89085E+00  1.14200E+01  9.32516E+00  4.45550E+00  8.41194E+00  8.77316E+00
   1.32449E+01  1.18371E+01  6.35707E+00  8.68371E+00  6.35638E+00  6.23396E+00  5.89920E+00  6.62399E+00  4.65105E+00  5.54430E+00
   6.42578E+00  1.00016E+01  2.01350E+00  7.54114E+00  7.01011E+00  6.63085E+00  1.34023E+00  1.99693E+00  5.14183E+00  4.93160E+00
   7.21001E+00  7.87197E+00  8.16616E-01  6.48882E+00  1.40491E+00  2.39208E+00  5.84838E+00  4.30754E+00  3.78682E+00  4.89126E+00
  -8.90750E-01  5.16369E+00  2.56339E+00  3.42028E+00  8.13546E-01 -8.72526E-01  4.50109E+00  4.15161E+00  2.60062E-01  2.85328E+00
  -1.53559E+00 -3.46437E-01  2.80628E+00  5.38716E+00  1.65652E+00  1.01684E-01 -1.85180E-01  3.81315E+00  2.67382E+00 -6.58276E-01
  -2.46768E+00 -1.44352E+00  1.65180E+00 -7.40222E-01 -3.05611E-01  3.63400E-02 -8.76831E-01 -3.43828E+00  3.42019E+00  1.53017E-01
  -3.06982E-01  6.60572E-01 -3.87251E+00 -2.99091E+00 -2.60905E+00  1.21672E+00 -5.56315E+00  2.91733E+00  2.59746E+00  2.86950E+00
   2.62225E+00  1.60306E+00  6.65330E-02 -4.31779E+00 -4.91465E-01 -2.49423E+00 -2.27889E+00 -5.06094E-01 -3.33842E+00 -1.92644E+00
  -4.31855E+00 -2.05532E+00 -4.66351E+00 -1.68497E+00 -2.60450E+00 -4.30455E+00 -5.60913E+00 -3.60719E+00 -1.81397E+00 -4.03068E+00
  -9.57247E-01 -6.94119E-01 -2.11751E+00 -4.19240E+00 -3.97341E+00 -1.76106E+00 -1.89414E+00 -2.66242E+00  1.37551E-01 -2.90833E+00
  -6.61706E+00 -3.86980E+00 -5.16585E+00 -8.23150E+00 -7.54121E+00 -6.02303E+00 -4.88274E+00 -5.09355E+00 -2.96322E+00 -4.92986E+00
  -4.95484E+00 -2.64101E+00 -5.63332E+00 -2.83089E+00 -9.05471E+00 -7.00021E+00 -3.72478E+00 -7.27705E+00 -9.06012E+00 -1.11600E+01
  -2.72901E+00 -7.81412E+00 -8.12469E+00 -9.82967E+00 -7.49518E+00 -8.24220E+00 -9.44673E+00 -1.14615E+01 -9.13650E+00 -9.50623E+00
  -8.55919E+00 -1.25325E+01 -7.29148E+00 -9.75450E+00 -1.18205E+01 -1.04700E+01 -1.21113E+01 -1.29519E+01 -1.14500E+01 -7.75462E+00
  -1.10819E+01 -1.28367E+01 -9.27888E+00 -8.52448E+00 -1.00804E+01 -8.55782E+00 -1.02079E+01 -9.84132E+00 -1.26292E+01 -6.07547E+00
  -1.01633E+01 -9.61788E+00 -8.91328E+00 -1.14305E+01 -5.49516E+00 -7.43595E+00 -7.15921E+00 -8.96555E+00 -8.96540E+00 -7.64196E+00
  -6.31997E+00 -8.62132E+00 -8.45746E+00 -4.66066E+00 -8.55826E+00 -4.89779E+00 -8.99340E+00 -3.92668E+00 -3.23777E+00 -3.53243E+00
  -6.21171E+00 -8.38587E+00 -5.24717E+00 -7.11779E+00 -6.28495E+00 -7.42877E+00 -4.01462E+00 -2.62738E+00 -2.21203E+00 -4.57523E+00
  -2.85799E+00 -2.77583E+00 -1.68779E+00 -1.03683E+00 -3.40417E+00 -2.11891E+00 -5.43151E+00 -2.88250E+00 -2.05064E+00 -5.42608E+00
   6.66037E-01 -1.98193E+00 -4.13804E+00 -4.30014E+00 -4.95068E+00 -3.37133E+00 -1.31736E+00  2.88492E-01  3.89064E+00  1.68876E+00
   9.72127E-01 -4.01708E+00 -3.08540E+00 -2.98449E+00 -3.23889E+00 -5.08124E+00 -5.37283E+00 -6.27783E+00 -6.77752E+00 -5.50162E+00
  -1.06158E+01 -5.06854E+00 -4.44639E+00 -9.29548E+00 -6.42726E+00 -5.63430E+00 -6.79554E+00 -5.23396E+00 -8.92155E+00 -1.13965E+01
  -1.14531E+01 -8.69148E+00 -7.85459E+00 -1.11827E+01 -8.49975E+00 -1.11699E+01 -7.90921E+00 -9.59034E+00 -9.48054E+00 -1.21053E+01
  -1.32440E+01 -1.24962E+01 -1.09359E+01 -1.02789E+01 -1.32209E+01 -1.02750E+01 -1.20939E+01 -1.12249E+01 -1.11418E+01 -1.27723E+01
  -1.34556E+01 -1.05337E+01 -1.01301E+01 -1.13992E+01 -1.30004E+01 -1.33788E+01 -1.48989E+01 -1.65078E+01 -1.47690E+01 -1.38206E+01
  -1.71196E+01 -1.47636E+01 -1.53358E+01 -1.18134E+01 -7.48331E+00 -1.15298E+01 -8.51403E+00 -1.28548E+01 -3.40933E+00 -6.39777E+00
  -1.03616E+00 -6.01939E-01 -2.14864E+00 -1.34169E+00  7.20031E+00  9.36275E+00  9.65666E+00  8.96577E+00  1.04737E+01  1.41538E+01
   1.72752E+01  1.83817E+01  2.16857E+01  1.92170E+01  2.55435E+01  2.17036E+01  2.05277E+01  1.75046E+01  2.06866E+01  1.82966E+01
   2.18976E+01  1.76372E+01  1.51946E+01  1.70930E+01  1.40200E+01  1.38398E+01  1.30830E+01  1.58609E+01  1.36682E+01  1.31344E+01
   1.17270E+01  1.09542E+01  1.01813E+01  1.36870E+01  1.08572E+01  1.00995E+01  8.80383E+00  7.59518E+00  5.88311E+00  8.56292E+00
   7.19287E+00  7.06602E+00  4.82074E+00  2.84133E+00  2.31052E+00  3.71391E+00  3.57887E+00  1.70139E+00  7.38582E-01  2.82592E+00
   8.45048E-01  4.69243E+00  4.10688E-01  7.38325E-01  3.74698E+00  1.92506E+00  5.97078E+00  1.79899E+00  6.51793E+00  1.45801E+00
   5.12976E+00  6.27629E+00  8.05704E+00  6.95227E+00  3.65156E+00  4.02977E+00  7.32120E+00  5.08487E+00  5.74732E+00  5.08381E+00
   3.28987E+00  6.79211E+00  5.10213E+00  3.07014E+00  1.39882E+00  9.49079E-01  3.94671E+00  3.66800E+00 -2.45522E-01  2.20381E+00
  -1.07830E+00  3.38681E-01  6.73590E-01  4.62352E+00  8.81427E-02  1.16514E+00  2.64346E+00  4.01037E+00  2.27865E+00  1.34719E+00
  -8.83369E-01  2.52475E+00  2.21579E-01 -7.28439E-01  2.34193E+00  2.66996E-01  1.26290E+00  3.84959E-01  1.60838E+00  2.99010E+00
  -4.90878E+00  1.05027E+00 -8.31469E-02 -2.83448E+00 -2.75883E+00 -1.90399E+00  5.19171E-01  7.28022E-01  2.43227E+00 -3.32680E-01
   1.51285E+00  2.40267E+00 -1.40466E+00 -7.62227E-01  4.28703E-02 -9.98300E-01 -3.36202E+00  1.34926E-01 -2.86332E+00 -2.79843E+00
   2.06194E+00 -6.50717E-02  5.90903E-01  1.43148E+00  3.07677E+00 -8.95894E-01 -1.39366E+00  3.97584E-01 -3.13450E-01 -3.28883E+00
  -3.12260E-01  5.63742E-01  4.75571E-01 -3.82077E+00 -2.73110E+00 -2.49944E+00 -1.16555E+00  4.03666E-01 -9.93139E-01  1.57597E-01
  -2.53920E+00 -1.82257E+00 -8.28606E-01 -8.41609E-01 -1.74213E+00 -4.73132E+00  1.14665E+00 -5.27672E+00 -3.69566E+00 -4.29578E+00
   1.16695E+00  6.74237E-01 -2.90649E+00 -9.79216E-01 -1.23568E-01 -3.39729E+00  1.19870E+00 -1.06865E+00 -1.28460E+00  2.96890E+00
   3.93224E-02  2.21944E-01  3.02199E+00 -4.15526E-01 -3.17382E+00 -3.67124E-01 -1.33952E+00 -3.31888E-01 -4.70515E+00  1.21419E+00
  -3.20507E-01  1.03416E-02  3.15667E-01  9.75424E-01  1.87143E+00  7.98675E-02  4.00239E-01 -6.75928E-01 -9.07586E-01 -2.69615E+00
   3.85613E-01  6.07991E-01 -2.39061E+00  6.34619E-01 -4.97930E-01 -1.97316E+00  9.60794E-01 -3.71419E+00
 NY points of the fit to the data follow
   1.32005E+01  1.41342E+01  1.28819E+01  1.37229E+01  1.28137E+01  1.36269E+01  1.27036E+01  1.32378E+01  1.23138E+01  1.24976E+01
   1.15419E+01  1.14998E+01  1.06686E+01  1.09388E+01  1.03100E+01  1.07878E+01  1.03146E+01  1.09499E+01  1.05442E+01  1.11382E+01
   1.05634E+01  1.11623E+01  1.05281E+01  1.10497E+01  1.03901E+01  1.08294E+01  1.02461E+01  1.06380E+01  1.01995E+01  1.05256E+01
   1.02940E+01  1.05599E+01  1.04857E+01  1.06253E+01  1.06113E+01  1.05672E+01  1.06227E+01  1.03618E+01  1.04521E+01  1.00119E+01
   1.00900E+01  9.63849E+00  9.80787E+00  9.35130E+00  9.67053E+00  9.31813E+00  9.72591E+00  9.49924E+00  9.55385E+00  9.09973E+00
   8.94777E+00  8.37995E+00  8.18047E+00  7.66312E+00  7.49783E+00  7.24465E+00  7.20739E+00  6.99260E+00  6.95869E+00  6.74780E+00
   6.68027E+00  6.48940E+00  6.31201E+00  6.04375E+00  5.85663E+00  5.55830E+00  5.38392E+00  5.11578E+00  5.02914E+00  4.87733E+00
   4.88051E+00  4.69832E+00  4.65408E+00  4.40935E+00  4.32129E+00  4.02637E+00  3.90475E+00  3.57150E+00  3.43256E+00  3.07275E+00
   2.92223E+00  2.57841E+00  2.44535E+00  2.10212E+00  1.98421E+00  1.62950E+00  1.51266E+00  1.16651E+00  1.06572E+00  7.65572E-01
   6.89356E-01  4.67482E-01  4.02480E-01  2.59819E-01  2.23537E-01  1.57168E-01  1.12720E-01  1.24792E-01  5.61356E-02  1.42759E-01
   3.81108E-02  1.86558E-01  3.93859E-02  2.24364E-01  4.34771E-02  2.49143E-01  3.86743E-02  2.37104E-01 -5.03856E-03  1.45912E-01
  -1.17266E-01  1.66848E-03 -2.54287E-01 -1.55040E-01 -3.84110E-01 -2.90796E-01 -4.69553E-01 -3.91638E-01 -5.24997E-01 -4.79925E-01
  -6.07770E-01 -6.10072E-01 -7.12277E-01 -7.34163E-01 -7.87675E-01 -7.65904E-01 -8.31603E-01 -8.37187E-01 -9.19482E-01 -9.75148E-01
  -1.07729E+00 -1.19349E+00 -1.30975E+00 -1.48572E+00 -1.60155E+00 -1.83043E+00 -1.93621E+00 -2.21488E+00 -2.30651E+00 -2.62520E+00
  -2.70283E+00 -3.04898E+00 -3.11983E+00 -3.48740E+00 -3.56099E+00 -3.93847E+00 -4.01524E+00 -4.37815E+00 -4.45123E+00 -4.77665E+00
  -4.86113E+00 -5.15989E+00 -5.26095E+00 -5.51949E+00 -5.62344E+00 -5.83108E+00 -5.93030E+00 -6.12220E+00 -6.25637E+00 -6.43470E+00
  -6.59682E+00 -6.74933E+00 -6.90313E+00 -7.02806E+00 -7.15683E+00 -7.26787E+00 -7.38440E+00 -7.48987E+00 -7.59838E+00 -7.70009E+00
  -7.80222E+00 -7.89923E+00 -7.99350E+00 -8.08706E+00 -8.17333E+00 -8.26524E+00 -8.35261E+00 -8.44688E+00 -8.54748E+00 -8.64585E+00
  -8.76677E+00 -8.86646E+00 -9.00592E+00 -9.08192E+00 -9.21933E+00 -9.26241E+00 -9.40434E+00 -9.39763E+00 -9.56257E+00 -9.51117E+00
  -9.71247E+00 -9.64758E+00 -9.93364E+00 -9.81022E+00 -1.01181E+01 -9.91085E+00 -1.02118E+01 -9.91601E+00 -1.02324E+01 -9.84318E+00
  -1.01579E+01 -9.74060E+00 -1.01366E+01 -9.71320E+00 -1.01746E+01 -9.74597E+00 -1.02093E+01 -9.75940E+00 -1.01654E+01 -9.66446E+00
  -9.93600E+00 -9.38935E+00 -9.50084E+00 -8.91512E+00 -8.87437E+00 -8.30566E+00 -8.20677E+00 -7.72533E+00 -7.67124E+00 -7.28935E+00
  -7.22610E+00 -6.86950E+00 -6.71942E+00 -6.31703E+00 -6.07297E+00 -5.64361E+00 -5.36688E+00 -4.91923E+00 -4.65896E+00 -4.30896E+00
  -4.19637E+00 -4.01258E+00 -4.10292E+00 -3.86593E+00 -3.83414E+00 -3.55057E+00 -3.40618E+00 -3.14452E+00 -2.90713E+00 -2.71820E+00
  -2.40769E+00 -2.34566E+00 -1.97724E+00 -2.04051E+00 -1.64607E+00 -1.81209E+00 -1.39019E+00 -1.64645E+00 -1.22760E+00 -1.56014E+00
  -1.18733E+00 -1.63271E+00 -1.33401E+00 -1.88790E+00 -1.67237E+00 -2.31910E+00 -2.20341E+00 -2.94206E+00 -3.00499E+00 -3.69471E+00
  -3.75138E+00 -4.31426E+00 -4.36192E+00 -4.77664E+00 -4.88321E+00 -5.34816E+00 -5.51754E+00 -6.01289E+00 -6.24248E+00 -6.73564E+00
  -6.98629E+00 -7.44347E+00 -7.67681E+00 -8.03055E+00 -8.23142E+00 -8.50518E+00 -8.69122E+00 -8.90038E+00 -9.08914E+00 -9.26569E+00
  -9.44218E+00 -9.60554E+00 -9.75471E+00 -9.88834E+00 -1.00062E+01 -1.01097E+01 -1.01969E+01 -1.02693E+01 -1.03271E+01 -1.03708E+01
  -1.04005E+01 -1.04163E+01 -1.04182E+01 -1.04053E+01 -1.03773E+01 -1.03320E+01 -1.02684E+01 -1.01822E+01 -1.00702E+01 -9.92642E+00
  -9.74514E+00 -9.51744E+00 -9.23353E+00 -8.88124E+00 -8.44561E+00 -7.90874E+00 -7.24710E+00 -6.42723E+00 -5.38485E+00 -4.07133E+00
  -2.78637E+00 -1.10215E+00  3.33814E-01  2.31212E+00  3.84725E+00  6.06301E+00  7.38089E+00  9.78406E+00  1.10770E+01  1.37153E+01
   1.47083E+01  1.71826E+01  1.74961E+01  1.95160E+01  1.91340E+01  2.03069E+01  1.91117E+01  1.95278E+01  1.81030E+01  1.82218E+01
   1.68844E+01  1.65922E+01  1.56315E+01  1.50225E+01  1.46848E+01  1.38270E+01  1.37438E+01  1.26528E+01  1.30212E+01  1.20338E+01
   1.25494E+01  1.15098E+01  1.17598E+01  1.07564E+01  1.07462E+01  9.42513E+00  9.21827E+00  8.25406E+00  8.14186E+00  8.20729E+00
   7.29547E+00  7.23699E+00  5.92174E+00  5.88164E+00  4.16168E+00  4.28328E+00  2.23620E+00  3.24537E+00  2.06127E+00  3.12545E+00
   2.31143E+00  3.18630E+00  2.59083E+00  3.35255E+00  2.99470E+00  3.47594E+00  3.60016E+00  4.31464E+00  5.01305E+00  6.33768E+00
   6.47665E+00  6.64880E+00  6.34358E+00  5.36762E+00  4.59912E+00  2.96712E+00  2.07175E+00  1.58517E+00  1.30468E+00  1.15404E+00
   1.09550E+00  1.10720E+00  1.17445E+00  1.28678E+00  1.43544E+00  1.61300E+00  1.81221E+00  2.02645E+00  2.24904E+00  2.47378E+00
   2.69431E+00  2.90474E+00  3.09916E+00  3.27241E+00  3.41965E+00  3.53696E+00  3.62088E+00  3.66899E+00  3.67945E+00  3.65161E+00
   3.58549E+00  3.48222E+00  3.34345E+00  3.17173E+00  2.96998E+00  2.74190E+00  2.49129E+00  2.22241E+00  1.93934E+00  1.64636E+00
   1.34736E+00  1.04631E+00  7.46617E-01  4.51551E-01  1.63713E-01 -1.14457E-01 -3.81162E-01 -6.34736E-01 -8.74161E-01 -1.09854E+00
  -1.30755E+00 -1.50089E+00 -1.67871E+00 -1.84111E+00 -1.98859E+00 -2.12156E+00 -2.24076E+00 -2.34672E+00 -2.44024E+00 -2.52191E+00
  -2.59256E+00 -2.65280E+00 -2.70345E+00 -2.74503E+00 -2.77828E+00 -2.80367E+00 -2.82188E+00 -2.83334E+00 -2.83865E+00 -2.83813E+00
  -2.83232E+00 -2.82146E+00 -2.80607E+00 -2.78635E+00 -2.76273E+00 -2.73535E+00 -2.70459E+00 -2.67056E+00 -2.63363E+00 -2.59387E+00
  -2.55160E+00 -2.50683E+00 -2.45986E+00 -2.41072E+00 -2.35968E+00 -2.30674E+00 -2.25214E+00 -2.19583E+00 -2.13807E+00 -2.07883E+00
  -2.01833E+00 -1.95651E+00 -1.89358E+00 -1.82947E+00 -1.76438E+00 -1.69826E+00 -1.63130E+00 -1.56342E+00 -1.49478E+00 -1.42532E+00
  -1.35521E+00 -1.28438E+00 -1.21299E+00 -1.14095E+00 -1.06841E+00 -9.95292E-01 -9.21762E-01 -8.47732E-01 -7.73341E-01 -6.98491E-01
  -6.23332E-01 -5.47777E-01 -4.71977E-01 -3.95830E-01 -3.19470E-01 -2.42794E-01 -1.65945E-01 -8.88297E-02 -1.15875E-02  6.58967E-02
   1.43491E-01  2.21309E-01  2.99208E-01  3.77301E-01  4.55461E-01  5.33823E-01  6.12267E-01  6.90932E-01
 NY background values follow
     1.057E+01    1.045E+01    1.032E+01    1.020E+01    1.007E+01    9.951E+00    9.827E+00    9.704E+00    9.580E+00    9.457E+00
     9.334E+00    9.211E+00    9.087E+00    8.964E+00    8.841E+00    8.718E+00    8.595E+00    8.473E+00    8.350E+00    8.227E+00
     8.105E+00    7.982E+00    7.860E+00    7.737E+00    7.615E+00    7.493E+00    7.371E+00    7.249E+00    7.127E+00    7.005E+00
     6.883E+00    6.762E+00    6.640E+00    6.519E+00    6.398E+00    6.276E+00    6.155E+00    6.034E+00    5.914E+00    5.793E+00
     5.672E+00    5.552E+00    5.431E+00    5.311E+00    5.191E+00    5.071E+00    4.951E+00    4.831E+00    4.712E+00    4.592E+00
     4.473E+00    4.353E+00    4.234E+00    4.115E+00    3.997E+00    3.878E+00    3.759E+00    3.641E+00    3.523E+00    3.405E+00
     3.287E+00    3.169E+00    3.051E+00    2.934E+00    2.817E+00    2.699E+00    2.582E+00    2.466E+00    2.349E+00    2.232E+00
     2.116E+00    2.000E+00    1.884E+00    1.768E+00    1.653E+00    1.537E+00    1.422E+00    1.307E+00    1.192E+00    1.077E+00
     9.627E-01    8.483E-01    7.342E-01    6.202E-01    5.065E-01    3.929E-01    2.796E-01    1.664E-01    5.346E-02   -5.929E-02
    -1.718E-01   -2.842E-01   -3.963E-01   -5.082E-01   -6.199E-01   -7.314E-01   -8.427E-01   -9.537E-01   -1.065E+00   -1.175E+00
    -1.286E+00   -1.396E+00   -1.506E+00   -1.615E+00   -1.725E+00   -1.834E+00   -1.943E+00   -2.052E+00   -2.160E+00   -2.269E+00
    -2.377E+00   -2.485E+00   -2.592E+00   -2.699E+00   -2.806E+00   -2.913E+00   -3.020E+00   -3.126E+00   -3.232E+00   -3.338E+00
    -3.444E+00   -3.549E+00   -3.654E+00   -3.759E+00   -3.863E+00   -3.967E+00   -4.071E+00   -4.175E+00   -4.278E+00   -4.381E+00
    -4.484E+00   -4.586E+00   -4.689E+00   -4.790E+00   -4.892E+00   -4.993E+00   -5.094E+00   -5.195E+00   -5.295E+00   -5.395E+00
    -5.494E+00   -5.593E+00   -5.692E+00   -5.791E+00   -5.889E+00   -5.986E+00   -6.084E+00   -6.180E+00   -6.277E+00   -6.373E+00
    -6.469E+00   -6.564E+00   -6.659E+00   -6.753E+00   -6.847E+00   -6.941E+00   -7.034E+00   -7.127E+00   -7.219E+00   -7.311E+00
    -7.402E+00   -7.493E+00   -7.583E+00   -7.673E+00   -7.762E+00   -7.851E+00   -7.940E+00   -8.028E+00   -8.115E+00   -8.202E+00
    -8.288E+00   -8.374E+00   -8.460E+00   -8.544E+00   -8.629E+00   -8.712E+00   -8.795E+00   -8.878E+00   -8.960E+00   -9.041E+00
    -9.122E+00   -9.203E+00   -9.282E+00   -9.361E+00   -9.440E+00   -9.518E+00   -9.595E+00   -9.672E+00   -9.748E+00   -9.823E+00
    -9.898E+00   -9.973E+00   -1.005E+01   -1.012E+01   -1.019E+01   -1.026E+01   -1.033E+01   -1.040E+01   -1.047E+01   -1.054E+01
    -1.061E+01   -1.068E+01   -1.075E+01   -1.081E+01   -1.088E+01   -1.094E+01   -1.101E+01   -1.107E+01   -1.113E+01   -1.119E+01
    -1.125E+01   -1.131E+01   -1.137E+01   -1.143E+01   -1.149E+01   -1.155E+01   -1.160E+01   -1.166E+01   -1.172E+01   -1.177E+01
    -1.182E+01   -1.188E+01   -1.193E+01   -1.198E+01   -1.203E+01   -1.208E+01   -1.213E+01   -1.217E+01   -1.222E+01   -1.227E+01
    -1.231E+01   -1.236E+01   -1.240E+01   -1.244E+01   -1.248E+01   -1.252E+01   -1.256E+01   -1.260E+01   -1.264E+01   -1.268E+01
    -1.271E+01   -1.275E+01   -1.278E+01   -1.282E+01   -1.285E+01   -1.288E+01   -1.291E+01   -1.294E+01   -1.297E+01   -1.300E+01
    -1.302E+01   -1.305E+01   -1.308E+01   -1.310E+01   -1.312E+01   -1.314E+01   -1.317E+01   -1.319E+01   -1.321E+01   -1.322E+01
    -1.324E+01   -1.326E+01   -1.327E+01   -1.329E+01   -1.330E+01   -1.331E+01   -1.333E+01   -1.334E+01   -1.335E+01   -1.336E+01
    -1.336E+01   -1.337E+01   -1.338E+01   -1.338E+01   -1.339E+01   -1.339E+01   -1.340E+01   -1.340E+01   -1.340E+01   -1.340E+01
    -1.340E+01   -1.340E+01   -1.340E+01   -1.339E+01   -1.339E+01   -1.339E+01   -1.338E+01   -1.337E+01   -1.337E+01   -1.336E+01
    -1.335E+01   -1.334E+01   -1.333E+01   -1.332E+01   -1.331E+01   -1.329E+01   -1.328E+01   -1.327E+01   -1.325E+01   -1.323E+01
    -1.322E+01   -1.320E+01   -1.318E+01   -1.316E+01   -1.314E+01   -1.312E+01   -1.310E+01   -1.308E+01   -1.306E+01   -1.303E+01
    -1.301E+01   -1.298E+01   -1.296E+01   -1.293E+01   -1.290E+01   -1.287E+01   -1.284E+01   -1.281E+01   -1.278E+01   -1.275E+01
    -1.272E+01   -1.269E+01   -1.265E+01   -1.262E+01   -1.259E+01   -1.255E+01   -1.251E+01   -1.248E+01   -1.244E+01   -1.240E+01
    -1.236E+01   -1.232E+01   -1.228E+01   -1.224E+01   -1.220E+01   -1.216E+01   -1.212E+01   -1.207E+01   -1.203E+01   -1.198E+01
    -1.194E+01   -1.189E+01   -1.184E+01   -1.180E+01   -1.175E+01   -1.170E+01   -1.165E+01   -1.160E+01   -1.155E+01   -1.150E+01
    -1.144E+01   -1.139E+01   -1.134E+01   -1.129E+01   -1.123E+01   -1.118E+01   -1.112E+01   -1.106E+01   -1.101E+01   -1.095E+01
    -1.089E+01   -1.083E+01   -1.077E+01   -1.071E+01   -1.065E+01   -1.059E+01   -1.053E+01   -1.047E+01   -1.041E+01   -1.034E+01
    -1.028E+01   -1.022E+01   -1.015E+01   -1.009E+01   -1.002E+01   -9.953E+00   -9.886E+00   -9.819E+00   -9.751E+00   -9.683E+00
    -9.614E+00   -9.544E+00   -9.474E+00   -9.404E+00   -9.333E+00   -9.262E+00   -9.190E+00   -9.117E+00   -9.045E+00   -8.971E+00
    -8.898E+00   -8.824E+00   -8.749E+00   -8.674E+00   -8.599E+00   -8.523E+00   -8.447E+00   -8.370E+00   -8.293E+00   -8.216E+00
    -8.138E+00   -8.060E+00   -7.982E+00   -7.903E+00   -7.824E+00   -7.744E+00   -7.664E+00   -7.584E+00   -7.504E+00   -7.423E+00
    -7.342E+00   -7.260E+00   -7.178E+00   -7.096E+00   -7.014E+00   -6.931E+00   -6.848E+00   -6.765E+00   -6.681E+00   -6.598E+00
    -6.514E+00   -6.429E+00   -6.345E+00   -6.260E+00   -6.175E+00   -6.090E+00   -6.004E+00   -5.919E+00   -5.833E+00   -5.747E+00
    -5.660E+00   -5.574E+00   -5.487E+00   -5.400E+00   -5.313E+00   -5.226E+00   -5.139E+00   -5.051E+00   -4.964E+00   -4.876E+00
    -4.788E+00   -4.700E+00   -4.612E+00   -4.523E+00   -4.435E+00   -4.346E+00   -4.258E+00   -4.169E+00   -4.080E+00   -3.991E+00
    -3.902E+00   -3.813E+00   -3.724E+00   -3.635E+00   -3.546E+00   -3.457E+00   -3.367E+00   -3.278E+00   -3.189E+00   -3.099E+00
    -3.010E+00   -2.921E+00   -2.831E+00   -2.742E+00   -2.653E+00   -2.563E+00   -2.474E+00   -2.385E+00   -2.295E+00   -2.206E+00
    -2.117E+00   -2.028E+00   -1.939E+00   -1.850E+00   -1.761E+00   -1.672E+00   -1.583E+00   -1.494E+00   -1.406E+00   -1.317E+00
    -1.229E+00   -1.141E+00   -1.052E+00   -9.644E-01   -8.765E-01   -7.887E-01   -7.011E-01   -6.136E-01   -5.263E-01   -4.392E-01
    -3.522E-01   -2.654E-01   -1.787E-01   -9.230E-02   -6.048E-03    8.001E-02    1.659E-01    2.515E-01
 Ala      Conc. = 3.65E+03
