 LCModel (Version 6.3-1L) Copyright: S.W. Provencher.          Ref.: Magn. Reson. Med. 30:672-679 (1993).                
 Slice#2 Row#12 Col#12  PD_05_press_2_raw_act
 36 lines in following concentration table = NCONC+1
    Conc.  %SD /Cr+PCr  Metabolite                                         
    0.000 999%   0.000 Ala                                                 
    2.634  99%   0.239 Asp                                                 
    1.509 999%   0.137 Cr                                                  
    9.513 196%   0.863 PCr                                                 
    1.709  91%   0.155 GABA                                                
    1.598  98%   0.145 Glc                                                 
    8.796 295%   0.798 Gln                                                 
   18.172 156%   1.649 Glu                                                 
    4.490  81%   0.407 GPC                                                 
    0.000 999%   0.000 PCh                                                 
    0.444 999% 4.0E-02 GSH                                                 
   11.983 289%   1.087 Ins                                                 
    0.000 999%   0.000 Lac                                                 
   27.620  43%   2.506 NAA                                                 
    2.496 445%   0.226 NAAG                                                
    0.540  96% 4.9E-02 Scyllo                                              
    2.762  94%   0.251 Tau                                                 
    1.104 114%   0.100 -CrCH2                                              
    4.490  81%   0.407 GPC+PCh                                             
   30.116  56%   2.732 NAA+NAAG                                            
   11.022  86%   1.000 Cr+PCr                                              
   26.967 124%   2.447 Glu+Gln                                             
    0.000 999%   0.000 Lip13a                                              
    0.000 999%   0.000 Lip13b                                              
    0.000 999%   0.000 Lip09                                               
    0.000 999%   0.000 MM09                                                
    0.000 999%   0.000 Lip20                                               
    0.000 999%   0.000 MM20                                                
    0.000 999%   0.000 MM12                                                
 1.21E-02 999% 1.1E-03 MM14                                                
    0.173 683% 1.6E-02 MM17                                                
    0.000 999%   0.000 Lip13a+Lip13b                                       
 1.21E-02 999% 1.1E-03 MM14+Lip13a+Lip13b+MM12                             
    0.000 999%   0.000 MM09+Lip09                                          
    0.000 999%   0.000 MM20+Lip20                                          
   6 lines in following misc. output table
  FWHM = 0.031 ppm    S/N =   1                                            
  Data shift = 0.054 ppm                                                   
  Ph:  60 deg      -7.1 deg/ppm                                            
  alphaB,S = 3.2E-01,   3.0E+00                                            
   14 spline knots.   Ns = 5(1)                                            
  ( 5) 2 infls.   ( 2) 2 extrs.                                            
  498 points on ppm-axis = NY
      4.000000     3.992357     3.984714     3.977070     3.969427     3.961784     3.954141     3.946497     3.938854     3.931211
      3.923568     3.915925     3.908281     3.900638     3.892995     3.885352     3.877708     3.870065     3.862422     3.854779
      3.847136     3.839492     3.831849     3.824206     3.816563     3.808919     3.801276     3.793633     3.785990     3.778347
      3.770703     3.763060     3.755417     3.747774     3.740130     3.732487     3.724844     3.717201     3.709558     3.701914
      3.694271     3.686628     3.678985     3.671341     3.663698     3.656055     3.648412     3.640769     3.633125     3.625482
      3.617839     3.610196     3.602552     3.594909     3.587266     3.579623     3.571980     3.564336     3.556693     3.549050
      3.541407     3.533763     3.526120     3.518477     3.510834     3.503191     3.495547     3.487904     3.480261     3.472618
      3.464974     3.457331     3.449688     3.442045     3.434402     3.426758     3.419115     3.411472     3.403829     3.396185
      3.388542     3.380899     3.373256     3.365613     3.357969     3.350326     3.342683     3.335040     3.327396     3.319753
      3.312110     3.304467     3.296824     3.289180     3.281537     3.273894     3.266251     3.258607     3.250964     3.243321
      3.235678     3.228034     3.220391     3.212748     3.205105     3.197462     3.189818     3.182175     3.174532     3.166889
      3.159245     3.151602     3.143959     3.136316     3.128673     3.121029     3.113386     3.105743     3.098100     3.090456
      3.082813     3.075170     3.067527     3.059884     3.052240     3.044597     3.036954     3.029311     3.021667     3.014024
      3.006381     2.998738     2.991095     2.983451     2.975808     2.968165     2.960522     2.952878     2.945235     2.937592
      2.929949     2.922306     2.914662     2.907019     2.899376     2.891733     2.884089     2.876446     2.868803     2.861160
      2.853517     2.845873     2.838230     2.830587     2.822944     2.815300     2.807657     2.800014     2.792371     2.784728
      2.777084     2.769441     2.761798     2.754155     2.746511     2.738868     2.731225     2.723582     2.715939     2.708295
      2.700652     2.693009     2.685366     2.677722     2.670079     2.662436     2.654793     2.647150     2.639506     2.631863
      2.624220     2.616577     2.608933     2.601290     2.593647     2.586004     2.578361     2.570717     2.563074     2.555431
      2.547788     2.540144     2.532501     2.524858     2.517215     2.509572     2.501928     2.494285     2.486642     2.478999
      2.471355     2.463712     2.456069     2.448426     2.440783     2.433139     2.425496     2.417853     2.410210     2.402566
      2.394923     2.387280     2.379637     2.371994     2.364350     2.356707     2.349064     2.341421     2.333777     2.326134
      2.318491     2.310848     2.303205     2.295561     2.287918     2.280275     2.272632     2.264988     2.257345     2.249702
      2.242059     2.234416     2.226772     2.219129     2.211486     2.203843     2.196199     2.188556     2.180913     2.173270
      2.165627     2.157983     2.150340     2.142697     2.135054     2.127410     2.119767     2.112124     2.104481     2.096838
      2.089194     2.081551     2.073908     2.066265     2.058621     2.050978     2.043335     2.035692     2.028049     2.020405
      2.012762     2.005119     1.997476     1.989833     1.982190     1.974546     1.966903     1.959260     1.951617     1.943974
      1.936331     1.928688     1.921045     1.913402     1.905759     1.898115     1.890472     1.882829     1.875186     1.867543
      1.859900     1.852257     1.844614     1.836971     1.829327     1.821684     1.814041     1.806398     1.798755     1.791112
      1.783469     1.775826     1.768183     1.760540     1.752896     1.745253     1.737610     1.729967     1.722324     1.714681
      1.707038     1.699395     1.691752     1.684108     1.676465     1.668822     1.661179     1.653536     1.645893     1.638250
      1.630607     1.622964     1.615321     1.607677     1.600034     1.592391     1.584748     1.577105     1.569462     1.561819
      1.554176     1.546533     1.538890     1.531246     1.523603     1.515960     1.508317     1.500674     1.493031     1.485388
      1.477745     1.470102     1.462458     1.454815     1.447172     1.439529     1.431886     1.424243     1.416600     1.408957
      1.401314     1.393671     1.386027     1.378384     1.370741     1.363098     1.355455     1.347812     1.340169     1.332526
      1.324883     1.317240     1.309596     1.301953     1.294310     1.286667     1.279024     1.271381     1.263738     1.256095
      1.248452     1.240808     1.233165     1.225522     1.217879     1.210236     1.202593     1.194950     1.187307     1.179664
      1.172021     1.164377     1.156734     1.149091     1.141448     1.133805     1.126162     1.118519     1.110876     1.103233
      1.095590     1.087946     1.080303     1.072660     1.065017     1.057374     1.049731     1.042088     1.034445     1.026802
      1.019158     1.011515     1.003872     0.996229     0.988586     0.980943     0.973300     0.965657     0.958014     0.950371
      0.942727     0.935084     0.927441     0.919798     0.912155     0.904512     0.896869     0.889226     0.881583     0.873940
      0.866296     0.858653     0.851010     0.843367     0.835724     0.828081     0.820438     0.812795     0.805152     0.797508
      0.789865     0.782222     0.774579     0.766936     0.759293     0.751650     0.744007     0.736364     0.728721     0.721077
      0.713434     0.705791     0.698148     0.690505     0.682862     0.675219     0.667576     0.659933     0.652290     0.644646
      0.637003     0.629360     0.621717     0.614074     0.606431     0.598788     0.591145     0.583502     0.575858     0.568215
      0.560572     0.552929     0.545286     0.537643     0.530000     0.522357     0.514714     0.507071     0.499427     0.491784
      0.484141     0.476498     0.468855     0.461212     0.453569     0.445925     0.438282     0.430639     0.422996     0.415353
      0.407710     0.400067     0.392424     0.384780     0.377137     0.369494     0.361851     0.354208     0.346565     0.338922
      0.331278     0.323635     0.315992     0.308349     0.300706     0.293063     0.285420     0.277777     0.270133     0.262490
      0.254847     0.247204     0.239561     0.231918     0.224275     0.216631     0.208988     0.201345
 NY phased data points follow
   4.91469E+00  3.55741E+00  1.63244E+00  2.01633E+00  1.70882E+00  4.11301E+00  2.38921E-03  2.98619E+00  1.88427E+00  6.42575E-01
   1.23003E+00  3.20739E+00  2.19690E+00  5.45946E+00  1.11373E+00  1.37326E+00  6.80112E-01  2.54497E-01  3.03490E+00  3.65336E+00
   4.90773E+00  3.21859E+00  1.95933E+00  2.98110E+00  1.34212E+00  4.63105E+00  2.36816E+00  1.58231E+00  1.28215E+00  1.05341E+00
   2.65614E+00  9.75276E-01  1.18487E-01  3.04784E+00  6.53427E-01  2.28031E+00  1.70414E+00  1.00056E+00  9.04666E-01  4.34039E-01
   2.81636E+00  2.33780E+00  3.17939E+00 -3.13515E-01  1.63610E+00  1.24443E+00  3.21533E+00  1.34700E+00  1.00220E+00  1.70182E+00
   3.29741E+00  1.77173E+00  8.94495E-01  1.79025E+00 -2.43055E-01 -3.73062E-02  2.02949E+00  8.20493E-01  1.78219E+00  2.23657E+00
   2.30947E+00  4.97998E-01  2.39977E+00  7.80372E-01 -3.65905E-01 -6.28854E-02  1.58133E+00  1.58802E+00  1.58055E-01  1.70846E+00
   1.51507E+00  3.18836E+00 -3.16518E-01  3.13211E+00  2.40910E+00 -3.25103E-01 -5.78991E-01  4.47765E+00  5.88427E-02  1.49903E+00
  -7.48268E-01  2.23631E+00  1.26560E+00  6.11266E-01  1.20087E+00  2.38763E+00  1.20340E+00 -2.38763E+00  1.59841E+00  3.16209E+00
  -8.39499E-01  2.89414E+00 -6.26119E-02  2.26026E+00 -7.57181E-01 -3.85204E-01  1.11910E+00 -1.73732E+00 -8.87570E-01 -1.21137E+00
   3.70992E-01  1.23367E+00 -7.71312E-01  1.98186E+00  1.16713E+00  2.81701E+00  2.13185E+00  4.01339E-01  2.07079E+00 -4.91708E-02
   1.64892E+00  8.00210E-01  7.83069E-01  2.78901E+00  2.31969E+00  8.36124E-01 -2.71250E+00 -2.44402E-01  2.02023E+00 -5.79650E-01
   1.61927E+00  3.11729E-01 -2.74825E-01 -1.20748E+00  2.30788E-01 -3.06250E-01 -3.57034E-01  2.07938E+00 -8.27916E-01  2.07802E+00
   2.12833E-01  3.98989E+00  1.54858E+00  1.34263E+00  2.66836E+00 -9.38845E-01 -6.76960E-01 -4.84342E-01  4.14342E-02 -1.94622E+00
   2.93717E-01  1.02638E+00  3.49535E+00  2.24634E-03 -1.74031E+00  4.05327E-01 -1.34074E+00  1.33726E-02  7.81778E-01  1.11375E+00
   3.06238E-01  1.72201E+00  8.74233E-01  1.35442E+00  2.67035E+00 -2.28276E-01  8.94853E-01  7.89433E-01  2.44533E+00  3.35446E+00
   2.30024E+00  2.69863E+00  1.87016E+00  2.14971E+00 -1.50728E-01  2.98305E+00  2.64708E+00  3.95698E-01  4.60088E+00  4.70700E-02
   2.25891E+00 -1.26402E+00  1.00303E+00  6.65209E-01  3.30101E+00 -4.26660E-02  3.31484E-01  4.90615E-01  1.18948E+00  3.06404E-01
   3.06426E-02  2.36733E+00  1.31839E+00  1.10580E+00 -2.10577E-01  2.68772E+00  3.26992E+00  4.90624E-01  1.78840E+00  7.67606E-01
  -9.27973E-02  1.50259E+00  2.43514E-01  1.65182E+00  2.00292E-01 -4.72963E-01 -7.57327E-01  7.30384E-01 -6.46074E-01  2.33193E+00
  -1.11803E+00  7.23905E-01 -7.15967E-02  2.44217E+00  8.23842E-01  2.33407E+00  8.34181E-01  2.59709E+00  3.60323E+00  2.16129E+00
   1.08461E+00  7.44896E-01  1.27141E-02  1.30419E+00 -5.34579E-01  1.78371E+00 -5.95515E-01  1.47622E+00  1.09862E+00  2.23138E-01
   3.12988E+00 -2.50214E+00  8.15516E-01 -9.52959E-02  4.63024E-01  2.65306E+00  1.28458E+00 -9.24269E-01 -1.25114E+00  2.76479E+00
   2.18501E+00 -1.68656E-01  8.59430E-01 -4.36189E-01  1.29711E+00  9.62453E-01  2.08741E+00  1.98885E+00  1.77191E+00 -6.24728E-01
   1.11461E+00  5.03154E-01 -7.14899E-01  3.13514E-01 -9.65304E-01 -1.77001E-01 -1.90553E+00 -1.61496E+00 -1.28590E+00  7.57016E-01
   3.06631E+00  1.46977E+00 -2.49033E-01  2.54149E-01  5.26141E-02  1.14490E+00 -1.49615E-01  7.96112E-02 -2.99862E+00  2.50107E+00
   1.60956E+00  3.04305E+00  2.76116E+00  6.10768E+00  4.25253E+00  2.21750E+00  3.32379E+00  5.85401E+00 -5.15929E-02  3.06881E+00
   3.54201E+00  5.85875E-01  2.68558E+00  3.55907E-01  4.51310E+00  9.27442E-01  3.32548E+00  2.55594E+00  5.75637E+00  3.28614E+00
   4.24662E+00  3.73431E+00  3.05926E+00  2.68622E+00  6.13340E-01  6.23669E-01  1.69561E+00  3.43114E+00  4.46859E+00  4.39518E+00
   5.91481E+00  3.98284E+00  6.17094E+00  4.53613E+00  6.04636E+00  7.26833E+00  5.70477E+00  6.27243E+00  7.58689E+00  6.03558E+00
   8.15614E+00  7.60891E+00  8.97728E+00  7.13633E+00  1.05435E+01  1.12245E+01  1.02497E+01  9.21638E+00  8.95667E+00  7.28677E+00
   5.64713E+00  9.39095E+00  7.86716E+00  7.87524E+00  8.86454E+00  1.05815E+01  8.89118E+00  1.16194E+01  1.01761E+01  5.79462E+00
   6.87958E+00  6.16878E+00  6.52380E+00  6.12910E+00  2.95171E+00  3.52815E+00  2.92121E+00  3.95722E+00  5.09014E+00  7.66265E-01
   2.86594E+00  7.50839E-01  4.43359E+00  2.15059E+00  3.81784E-01  4.11957E+00 -1.81085E-02  5.93047E-01  2.69993E-01  2.93415E+00
   2.59534E+00  2.94497E+00  7.94856E-01  5.08465E-01  2.14417E+00  4.61279E-01 -2.88539E+00 -8.23382E-01 -2.44695E+00 -3.13612E-01
  -2.31448E+00 -3.52134E+00 -3.70233E-01 -2.09302E+00 -1.39711E+00 -1.26782E+00 -1.89656E+00 -3.82988E+00 -3.87661E+00 -3.65293E+00
  -4.57779E+00 -2.78598E+00 -7.57821E-01 -1.25976E+00 -2.04643E+00 -1.58668E+00 -5.18058E+00 -1.12525E+00 -1.47053E+00  5.25263E-01
  -2.10096E+00 -1.06486E+00 -3.94011E-01  1.86031E-01 -2.40455E+00 -2.60030E+00 -2.23979E+00  1.93169E+00  1.27328E+00 -1.47524E-01
  -4.04464E+00 -4.64922E+00 -1.53205E+00 -1.79211E-01 -5.43995E-01  9.52150E-01 -1.16317E+00 -1.40124E-01 -2.89676E+00 -2.49183E+00
  -1.86971E+00 -3.39502E+00 -2.79489E-02 -2.70928E+00 -8.86648E-01  2.17938E+00 -2.81970E+00 -2.03880E+00 -2.16677E+00 -2.92953E+00
   7.90027E-02 -3.09234E+00 -3.95824E+00 -4.92547E+00 -2.81069E+00 -1.36184E+00 -2.89496E+00 -2.06047E+00 -1.35753E+00 -5.94295E-01
  -1.59549E+00 -1.61355E+00 -3.69346E+00 -2.17441E+00 -4.23685E+00  3.42073E-01 -2.38428E-01 -1.35633E+00 -1.06455E+00 -2.54879E-01
  -4.20527E-01  3.18440E-01 -1.77182E+00  7.82455E-01 -1.55295E+00  4.98842E-01 -5.67872E-01 -4.69040E+00 -1.95694E+00 -2.73431E+00
   1.42262E+00 -3.52184E+00 -2.27303E+00 -1.96307E+00 -8.58208E-01  9.45204E-01  1.15136E-01 -1.36577E+00 -1.79091E+00 -3.02289E+00
  -2.64402E+00 -1.39583E+00 -3.07646E+00  2.65059E-01  8.73542E-01 -1.17088E+00 -5.64932E-01  3.17641E-01 -2.59631E+00 -9.34268E-01
   3.46969E-01  1.49764E+00  1.55917E+00 -7.95837E-01 -1.92942E+00 -1.27151E+00  1.05928E+00 -4.10269E+00 -2.22026E+00  2.30669E-01
  -1.19719E+00  2.57831E-01 -3.67513E+00 -2.64357E+00  1.72604E-01  5.61626E-01  1.66213E+00 -3.38330E-01  4.35432E-02  1.44475E-01
  -2.17615E-01 -2.67582E+00 -1.86740E-01 -6.20319E-01 -6.47171E-01 -6.24181E-01  1.45793E+00 -2.24526E+00 -7.27692E-01  1.09054E+00
   6.81554E-01 -1.78634E+00 -2.51089E+00  1.32270E+00  2.61298E+00  1.49538E-01 -1.26001E-01 -2.08940E+00  8.03003E-01  9.06704E-01
  -1.06951E+00 -2.83445E+00  1.01062E+00 -1.16843E-02 -2.05759E+00 -1.58617E+00  1.95093E+00 -8.13558E-01
 NY points of the fit to the data follow
   2.14385E+00  2.08976E+00  2.03215E+00  1.97094E+00  1.83441E+00  1.65186E+00  1.55077E+00  1.59779E+00  1.77548E+00  2.01002E+00
   2.25490E+00  2.46931E+00  2.57656E+00  2.53304E+00  2.38255E+00  2.19243E+00  2.04884E+00  1.96681E+00  1.90929E+00  1.86822E+00
   1.82395E+00  1.78012E+00  1.76170E+00  1.79691E+00  1.86127E+00  1.90115E+00  1.88332E+00  1.78981E+00  1.63992E+00  1.48719E+00
   1.39441E+00  1.41013E+00  1.52756E+00  1.69854E+00  1.85865E+00  1.93491E+00  1.90754E+00  1.79717E+00  1.64252E+00  1.51319E+00
   1.44788E+00  1.42830E+00  1.41028E+00  1.36597E+00  1.33117E+00  1.34616E+00  1.41406E+00  1.51365E+00  1.61933E+00  1.70962E+00
   1.75699E+00  1.72761E+00  1.62759E+00  1.50551E+00  1.39922E+00  1.32188E+00  1.27133E+00  1.24774E+00  1.25481E+00  1.28531E+00
   1.32561E+00  1.36423E+00  1.38696E+00  1.38407E+00  1.34994E+00  1.29422E+00  1.23891E+00  1.19377E+00  1.16452E+00  1.15734E+00
   1.16022E+00  1.15864E+00  1.15520E+00  1.16150E+00  1.18392E+00  1.20768E+00  1.22155E+00  1.21952E+00  1.19974E+00  1.16798E+00
   1.12690E+00  1.07178E+00  1.02661E+00  1.02519E+00  1.06598E+00  1.11544E+00  1.14214E+00  1.13920E+00  1.11728E+00  1.08014E+00
   1.03031E+00  9.79956E-01  9.46365E-01  9.42352E-01  9.50916E-01  9.54216E-01  9.32938E-01  7.79464E-01  3.71031E-01  1.88480E-02
   9.45277E-03  3.74523E-01  8.97192E-01  1.42021E+00  1.91570E+00  2.28532E+00  2.32460E+00  2.01753E+00  1.55960E+00  1.17235E+00
   1.02184E+00  9.75790E-01  9.51494E-01  9.36091E-01  9.25092E-01  9.20209E-01  9.17152E-01  9.11761E-01  9.04566E-01  8.95432E-01
   8.76493E-01  7.94938E-01  5.03230E-01  1.47600E-01  2.03352E-02  2.32465E-01  6.55492E-01  1.11771E+00  1.56539E+00  1.95168E+00
   2.11067E+00  1.95161E+00  1.59880E+00  1.23412E+00  1.03801E+00  9.72794E-01  9.36237E-01  9.12929E-01  9.03069E-01  9.00854E-01
   9.01123E-01  9.01893E-01  9.03917E-01  9.09962E-01  9.17657E-01  9.24391E-01  9.31698E-01  9.40386E-01  9.48855E-01  9.54207E-01
   9.55375E-01  9.54260E-01  9.52375E-01  9.51331E-01  9.51767E-01  9.58708E-01  9.85466E-01  1.02452E+00  1.05081E+00  1.04716E+00
   1.01051E+00  9.67150E-01  9.40228E-01  9.35642E-01  9.54501E-01  9.96079E-01  1.05069E+00  1.09805E+00  1.11317E+00  1.09828E+00
   1.08001E+00  1.08126E+00  1.10552E+00  1.11365E+00  1.09094E+00  1.05726E+00  1.04656E+00  1.05926E+00  1.07126E+00  1.07660E+00
   1.08786E+00  1.11143E+00  1.14261E+00  1.15586E+00  1.13529E+00  1.11155E+00  1.10398E+00  1.11526E+00  1.13227E+00  1.15567E+00
   1.19898E+00  1.26087E+00  1.31471E+00  1.35064E+00  1.36859E+00  1.37394E+00  1.37012E+00  1.35316E+00  1.32867E+00  1.29915E+00
   1.27159E+00  1.26454E+00  1.31254E+00  1.41818E+00  1.56472E+00  1.73887E+00  1.87611E+00  1.90687E+00  1.82644E+00  1.66623E+00
   1.45900E+00  1.21698E+00  1.03182E+00  1.01730E+00  1.18397E+00  1.44376E+00  1.72427E+00  1.99040E+00  2.19853E+00  2.24252E+00
   2.06632E+00  1.77720E+00  1.50722E+00  1.34044E+00  1.27025E+00  1.29958E+00  1.44549E+00  1.65834E+00  1.84498E+00  1.94256E+00
   1.95897E+00  1.95437E+00  1.94794E+00  1.92146E+00  1.88283E+00  1.85876E+00  1.85775E+00  1.87614E+00  1.92776E+00  1.99786E+00
   2.06427E+00  2.10550E+00  2.12411E+00  2.11249E+00  2.07828E+00  2.04397E+00  2.03870E+00  2.05914E+00  2.07656E+00  2.07914E+00
   2.05028E+00  1.98006E+00  1.91184E+00  1.90867E+00  1.93560E+00  1.64410E+00  8.89729E-01  3.86980E-01  6.36596E-01  1.54282E+00
   2.62823E+00  3.67708E+00  4.66318E+00  5.33010E+00  5.26212E+00  4.53413E+00  3.58191E+00  2.87798E+00  2.63471E+00  2.54290E+00
   2.48477E+00  2.44588E+00  2.42316E+00  2.41445E+00  2.42227E+00  2.44340E+00  2.47172E+00  2.49662E+00  2.51084E+00  2.51206E+00
   2.50446E+00  2.49381E+00  2.48325E+00  2.47529E+00  2.47177E+00  2.47209E+00  2.47466E+00  2.47752E+00  2.47870E+00  2.47818E+00
   2.47635E+00  2.47365E+00  2.47020E+00  2.46658E+00  2.46326E+00  2.45956E+00  2.45450E+00  2.44786E+00  2.43970E+00  2.43070E+00
   2.42133E+00  2.41149E+00  2.40142E+00  2.39130E+00  2.38094E+00  2.37006E+00  2.35825E+00  2.34544E+00  2.33173E+00  2.31714E+00
   2.30177E+00  2.28567E+00  2.26880E+00  2.25117E+00  2.23276E+00  2.21353E+00  2.19347E+00  2.17259E+00  2.15093E+00  2.12851E+00
   2.10536E+00  2.08146E+00  2.05685E+00  2.03156E+00  2.00563E+00  1.97906E+00  1.95187E+00  1.92409E+00  1.89575E+00  1.86686E+00
   1.83746E+00  1.80755E+00  1.77716E+00  1.74632E+00  1.71504E+00  1.68337E+00  1.65131E+00  1.61890E+00  1.58613E+00  1.55304E+00
   1.51966E+00  1.48602E+00  1.45214E+00  1.41803E+00  1.38371E+00  1.34922E+00  1.31457E+00  1.27979E+00  1.24491E+00  1.20993E+00
   1.17488E+00  1.13980E+00  1.10471E+00  1.06963E+00  1.03457E+00  9.99557E-01  9.64617E-01  9.29781E-01  8.95072E-01  8.60511E-01
   8.26112E-01  7.91901E-01  7.57903E-01  7.24138E-01  6.90608E-01  6.57312E-01  6.24249E-01  5.91427E-01  5.58854E-01  5.26539E-01
   4.94481E-01  4.62679E-01  4.31136E-01  3.99860E-01  3.68860E-01  3.38140E-01  3.07698E-01  2.77537E-01  2.47658E-01  2.18075E-01
   1.88793E-01  1.59814E-01  1.31136E-01  1.02763E-01  7.46995E-02  4.69570E-02  1.95387E-02 -7.55386E-03 -3.43225E-02 -6.07611E-02
  -8.68627E-02 -1.12618E-01 -1.38026E-01 -1.63085E-01 -1.87797E-01 -2.12152E-01 -2.36144E-01 -2.59765E-01 -2.83017E-01 -3.05897E-01
  -3.28404E-01 -3.50528E-01 -3.72263E-01 -3.93603E-01 -4.14552E-01 -4.35105E-01 -4.55259E-01 -4.75004E-01 -4.94340E-01 -5.13271E-01
  -5.31811E-01 -5.49964E-01 -5.67733E-01 -5.85121E-01 -6.02134E-01 -6.18780E-01 -6.35069E-01 -6.51004E-01 -6.66589E-01 -6.81826E-01
  -6.96723E-01 -7.11289E-01 -7.25533E-01 -7.39457E-01 -7.53065E-01 -7.66359E-01 -7.79349E-01 -7.92043E-01 -8.04448E-01 -8.16567E-01
  -8.28402E-01 -8.39960E-01 -8.51250E-01 -8.62280E-01 -8.73055E-01 -8.83575E-01 -8.93847E-01 -9.03876E-01 -9.13674E-01 -9.23245E-01
  -9.32595E-01 -9.41724E-01 -9.50639E-01 -9.59348E-01 -9.67861E-01 -9.76180E-01 -9.84309E-01 -9.92252E-01 -1.00002E+00 -1.00761E+00
  -1.01504E+00 -1.02232E+00 -1.02944E+00 -1.03640E+00 -1.04322E+00 -1.04991E+00 -1.05645E+00 -1.06287E+00 -1.06915E+00 -1.07531E+00
  -1.08135E+00 -1.08727E+00 -1.09309E+00 -1.09879E+00 -1.10438E+00 -1.10988E+00 -1.11528E+00 -1.12059E+00 -1.12581E+00 -1.13094E+00
  -1.13599E+00 -1.14097E+00 -1.14588E+00 -1.15072E+00 -1.15549E+00 -1.16020E+00 -1.16485E+00 -1.16946E+00 -1.17401E+00 -1.17853E+00
  -1.18300E+00 -1.18743E+00 -1.19183E+00 -1.19620E+00 -1.20056E+00 -1.20489E+00 -1.20920E+00 -1.21350E+00 -1.21779E+00 -1.22208E+00
  -1.22637E+00 -1.23067E+00 -1.23497E+00 -1.23927E+00 -1.24360E+00 -1.24796E+00 -1.25233E+00 -1.25673E+00
 NY background values follow
     2.062E+00    2.048E+00    2.034E+00    2.020E+00    2.007E+00    1.993E+00    1.979E+00    1.965E+00    1.951E+00    1.937E+00
     1.924E+00    1.910E+00    1.896E+00    1.882E+00    1.868E+00    1.855E+00    1.841E+00    1.827E+00    1.813E+00    1.800E+00
     1.786E+00    1.772E+00    1.759E+00    1.745E+00    1.732E+00    1.718E+00    1.705E+00    1.691E+00    1.678E+00    1.664E+00
     1.651E+00    1.638E+00    1.624E+00    1.611E+00    1.598E+00    1.585E+00    1.572E+00    1.559E+00    1.546E+00    1.533E+00
     1.520E+00    1.507E+00    1.494E+00    1.481E+00    1.469E+00    1.456E+00    1.444E+00    1.431E+00    1.419E+00    1.406E+00
     1.394E+00    1.382E+00    1.370E+00    1.358E+00    1.346E+00    1.334E+00    1.322E+00    1.311E+00    1.299E+00    1.288E+00
     1.276E+00    1.265E+00    1.254E+00    1.243E+00    1.232E+00    1.221E+00    1.211E+00    1.200E+00    1.190E+00    1.179E+00
     1.169E+00    1.159E+00    1.149E+00    1.139E+00    1.130E+00    1.120E+00    1.111E+00    1.102E+00    1.093E+00    1.084E+00
     1.075E+00    1.066E+00    1.058E+00    1.050E+00    1.042E+00    1.034E+00    1.026E+00    1.018E+00    1.011E+00    1.004E+00
     9.967E-01    9.898E-01    9.832E-01    9.767E-01    9.704E-01    9.642E-01    9.583E-01    9.526E-01    9.470E-01    9.417E-01
     9.365E-01    9.315E-01    9.267E-01    9.221E-01    9.177E-01    9.135E-01    9.095E-01    9.057E-01    9.020E-01    8.986E-01
     8.954E-01    8.924E-01    8.895E-01    8.869E-01    8.845E-01    8.822E-01    8.802E-01    8.784E-01    8.767E-01    8.753E-01
     8.741E-01    8.731E-01    8.723E-01    8.717E-01    8.713E-01    8.711E-01    8.711E-01    8.713E-01    8.718E-01    8.724E-01
     8.733E-01    8.743E-01    8.756E-01    8.771E-01    8.788E-01    8.807E-01    8.828E-01    8.852E-01    8.877E-01    8.905E-01
     8.935E-01    8.967E-01    9.000E-01    9.036E-01    9.074E-01    9.114E-01    9.156E-01    9.200E-01    9.246E-01    9.293E-01
     9.343E-01    9.395E-01    9.448E-01    9.503E-01    9.560E-01    9.619E-01    9.680E-01    9.743E-01    9.807E-01    9.873E-01
     9.941E-01    1.001E+00    1.008E+00    1.015E+00    1.023E+00    1.031E+00    1.038E+00    1.046E+00    1.054E+00    1.063E+00
     1.071E+00    1.080E+00    1.088E+00    1.097E+00    1.106E+00    1.116E+00    1.125E+00    1.134E+00    1.144E+00    1.154E+00
     1.164E+00    1.174E+00    1.184E+00    1.194E+00    1.205E+00    1.215E+00    1.226E+00    1.237E+00    1.248E+00    1.259E+00
     1.270E+00    1.281E+00    1.293E+00    1.305E+00    1.316E+00    1.328E+00    1.340E+00    1.352E+00    1.365E+00    1.377E+00
     1.390E+00    1.402E+00    1.415E+00    1.428E+00    1.441E+00    1.454E+00    1.467E+00    1.481E+00    1.494E+00    1.508E+00
     1.522E+00    1.535E+00    1.549E+00    1.564E+00    1.578E+00    1.592E+00    1.607E+00    1.621E+00    1.636E+00    1.651E+00
     1.665E+00    1.681E+00    1.696E+00    1.711E+00    1.726E+00    1.742E+00    1.757E+00    1.773E+00    1.789E+00    1.805E+00
     1.821E+00    1.837E+00    1.853E+00    1.869E+00    1.885E+00    1.901E+00    1.917E+00    1.933E+00    1.949E+00    1.965E+00
     1.981E+00    1.997E+00    2.013E+00    2.029E+00    2.044E+00    2.060E+00    2.075E+00    2.091E+00    2.106E+00    2.121E+00
     2.136E+00    2.150E+00    2.165E+00    2.179E+00    2.193E+00    2.207E+00    2.220E+00    2.233E+00    2.246E+00    2.259E+00
     2.272E+00    2.284E+00    2.296E+00    2.307E+00    2.318E+00    2.329E+00    2.339E+00    2.349E+00    2.359E+00    2.368E+00
     2.377E+00    2.386E+00    2.393E+00    2.401E+00    2.408E+00    2.415E+00    2.421E+00    2.426E+00    2.432E+00    2.436E+00
     2.440E+00    2.444E+00    2.447E+00    2.450E+00    2.452E+00    2.453E+00    2.454E+00    2.454E+00    2.454E+00    2.453E+00
     2.452E+00    2.450E+00    2.447E+00    2.444E+00    2.440E+00    2.436E+00    2.431E+00    2.425E+00    2.418E+00    2.411E+00
     2.403E+00    2.395E+00    2.386E+00    2.376E+00    2.365E+00    2.354E+00    2.342E+00    2.329E+00    2.316E+00    2.302E+00
     2.287E+00    2.271E+00    2.254E+00    2.237E+00    2.219E+00    2.200E+00    2.180E+00    2.159E+00    2.138E+00    2.116E+00
     2.093E+00    2.069E+00    2.045E+00    2.020E+00    1.994E+00    1.968E+00    1.941E+00    1.913E+00    1.885E+00    1.856E+00
     1.827E+00    1.797E+00    1.767E+00    1.736E+00    1.705E+00    1.674E+00    1.642E+00    1.609E+00    1.577E+00    1.544E+00
     1.511E+00    1.477E+00    1.443E+00    1.409E+00    1.375E+00    1.341E+00    1.306E+00    1.271E+00    1.237E+00    1.202E+00
     1.167E+00    1.132E+00    1.097E+00    1.062E+00    1.027E+00    9.920E-01    9.571E-01    9.224E-01    8.877E-01    8.532E-01
     8.189E-01    7.848E-01    7.509E-01    7.172E-01    6.837E-01    6.505E-01    6.175E-01    5.847E-01    5.522E-01    5.200E-01
     4.880E-01    4.562E-01    4.247E-01    3.935E-01    3.626E-01    3.319E-01    3.015E-01    2.714E-01    2.416E-01    2.121E-01
     1.829E-01    1.539E-01    1.253E-01    9.697E-02    6.897E-02    4.127E-02    1.390E-02   -1.315E-02   -3.987E-02   -6.625E-02
    -9.231E-02   -1.180E-01   -1.434E-01   -1.684E-01   -1.931E-01   -2.174E-01   -2.413E-01   -2.649E-01   -2.881E-01   -3.110E-01
    -3.334E-01   -3.555E-01   -3.772E-01   -3.985E-01   -4.194E-01   -4.399E-01   -4.600E-01   -4.797E-01   -4.990E-01   -5.179E-01
    -5.364E-01   -5.546E-01   -5.723E-01   -5.896E-01   -6.066E-01   -6.232E-01   -6.395E-01   -6.554E-01   -6.709E-01   -6.861E-01
    -7.010E-01   -7.155E-01   -7.298E-01   -7.436E-01   -7.572E-01   -7.705E-01   -7.834E-01   -7.961E-01   -8.085E-01   -8.206E-01
    -8.324E-01   -8.439E-01   -8.552E-01   -8.662E-01   -8.769E-01   -8.874E-01   -8.976E-01   -9.077E-01   -9.174E-01   -9.270E-01
    -9.363E-01   -9.454E-01   -9.543E-01   -9.630E-01   -9.714E-01   -9.797E-01   -9.878E-01   -9.958E-01   -1.003E+00   -1.011E+00
    -1.018E+00   -1.026E+00   -1.033E+00   -1.040E+00   -1.047E+00   -1.053E+00   -1.060E+00   -1.066E+00   -1.072E+00   -1.079E+00
    -1.085E+00   -1.090E+00   -1.096E+00   -1.102E+00   -1.107E+00   -1.113E+00   -1.118E+00   -1.124E+00   -1.129E+00   -1.134E+00
    -1.139E+00   -1.144E+00   -1.149E+00   -1.154E+00   -1.158E+00   -1.163E+00   -1.168E+00   -1.172E+00   -1.177E+00   -1.181E+00
    -1.186E+00   -1.190E+00   -1.195E+00   -1.199E+00   -1.203E+00   -1.207E+00   -1.212E+00   -1.216E+00   -1.220E+00   -1.225E+00
    -1.229E+00   -1.233E+00   -1.237E+00   -1.242E+00   -1.246E+00   -1.250E+00   -1.255E+00   -1.259E+00
 Asp      Conc. = 2.63E+00
