 LCModel (Version 6.3-1L) Copyright: S.W. Provencher.          Ref.: Magn. Reson. Med. 30:672-679 (1993).                
 Slice#3 Row#10 Col#1  PD_05_press_2_raw_act
 36 lines in following concentration table = NCONC+1
    Conc.  %SD /Cr+PCr  Metabolite                                         
    0.000 999%   0.000 Ala                                                 
    0.000 999%   0.000 Asp                                                 
  237.648  76%   1.000 Cr                                                  
    0.000 999%   0.000 PCr                                                 
    0.000 999%   0.000 GABA                                                
    0.000 999%   0.000 Glc                                                 
 1.32E+03  83%   5.548 Gln                                                 
    0.000 999%   0.000 Glu                                                 
    0.000 999%   0.000 GPC                                                 
    0.000 999%   0.000 PCh                                                 
  239.436  78%   1.008 GSH                                                 
 1.03E+03  78%   4.341 Ins                                                 
  483.964  83%   2.036 Lac                                                 
  977.933  74%   4.115 NAA                                                 
    0.000 999%   0.000 NAAG                                                
   69.627  85%   0.293 Scyllo                                              
  413.761 105%   1.741 Tau                                                 
    0.000 999%   0.000 -CrCH2                                              
    0.000 999%   0.000 GPC+PCh                                             
  977.933  74%   4.115 NAA+NAAG                                            
  237.648  76%   1.000 Cr+PCr                                              
 1.32E+03  83%   5.548 Glu+Gln                                             
 9.14E+04  10% 384.580 Lip13a                                              
    0.000 999%   0.000 Lip13b                                              
 2.05E+04  14%  86.171 Lip09                                               
 7.53E+03  22%  31.704 MM09                                                
 2.16E+04   6%  90.963+Lip20                                               
 5.39E+04   7% 226.693+MM20                                                
  216.167 810%   0.910 MM12                                                
 4.72E+04  10% 198.484+MM14                                                
 1.38E+04  19%  58.225 MM17                                                
 9.14E+04  10% 384.580 Lip13a+Lip13b                                       
 1.39E+05   7% 583.974 MM14+Lip13a+Lip13b+MM12                             
 2.80E+04  11% 117.874 MM09+Lip09                                          
 7.55E+04   5% 317.656 MM20+Lip20                                          
   6 lines in following misc. output table
  FWHM = 0.107 ppm    S/N =  13                                            
  Data shift = 0.084 ppm                                                   
  Ph: -51 deg      55.5 deg/ppm                                            
  alphaB,S = 4.4E-01,   1.6E+00                                            
   10 spline knots.   Ns = 9(2)                                            
  (10)11 infls.   ( 4) 2 extrs.                                            
  498 points on ppm-axis = NY
      4.000000     3.992357     3.984714     3.977070     3.969427     3.961784     3.954141     3.946497     3.938854     3.931211
      3.923568     3.915925     3.908281     3.900638     3.892995     3.885352     3.877708     3.870065     3.862422     3.854779
      3.847136     3.839492     3.831849     3.824206     3.816563     3.808919     3.801276     3.793633     3.785990     3.778347
      3.770703     3.763060     3.755417     3.747774     3.740130     3.732487     3.724844     3.717201     3.709558     3.701914
      3.694271     3.686628     3.678985     3.671341     3.663698     3.656055     3.648412     3.640769     3.633125     3.625482
      3.617839     3.610196     3.602552     3.594909     3.587266     3.579623     3.571980     3.564336     3.556693     3.549050
      3.541407     3.533763     3.526120     3.518477     3.510834     3.503191     3.495547     3.487904     3.480261     3.472618
      3.464974     3.457331     3.449688     3.442045     3.434402     3.426758     3.419115     3.411472     3.403829     3.396185
      3.388542     3.380899     3.373256     3.365613     3.357969     3.350326     3.342683     3.335040     3.327396     3.319753
      3.312110     3.304467     3.296824     3.289180     3.281537     3.273894     3.266251     3.258607     3.250964     3.243321
      3.235678     3.228034     3.220391     3.212748     3.205105     3.197462     3.189818     3.182175     3.174532     3.166889
      3.159245     3.151602     3.143959     3.136316     3.128673     3.121029     3.113386     3.105743     3.098100     3.090456
      3.082813     3.075170     3.067527     3.059884     3.052240     3.044597     3.036954     3.029311     3.021667     3.014024
      3.006381     2.998738     2.991095     2.983451     2.975808     2.968165     2.960522     2.952878     2.945235     2.937592
      2.929949     2.922306     2.914662     2.907019     2.899376     2.891733     2.884089     2.876446     2.868803     2.861160
      2.853517     2.845873     2.838230     2.830587     2.822944     2.815300     2.807657     2.800014     2.792371     2.784728
      2.777084     2.769441     2.761798     2.754155     2.746511     2.738868     2.731225     2.723582     2.715939     2.708295
      2.700652     2.693009     2.685366     2.677722     2.670079     2.662436     2.654793     2.647150     2.639506     2.631863
      2.624220     2.616577     2.608933     2.601290     2.593647     2.586004     2.578361     2.570717     2.563074     2.555431
      2.547788     2.540144     2.532501     2.524858     2.517215     2.509572     2.501928     2.494285     2.486642     2.478999
      2.471355     2.463712     2.456069     2.448426     2.440783     2.433139     2.425496     2.417853     2.410210     2.402566
      2.394923     2.387280     2.379637     2.371994     2.364350     2.356707     2.349064     2.341421     2.333777     2.326134
      2.318491     2.310848     2.303205     2.295561     2.287918     2.280275     2.272632     2.264988     2.257345     2.249702
      2.242059     2.234416     2.226772     2.219129     2.211486     2.203843     2.196199     2.188556     2.180913     2.173270
      2.165627     2.157983     2.150340     2.142697     2.135054     2.127410     2.119767     2.112124     2.104481     2.096838
      2.089194     2.081551     2.073908     2.066265     2.058621     2.050978     2.043335     2.035692     2.028049     2.020405
      2.012762     2.005119     1.997476     1.989833     1.982190     1.974546     1.966903     1.959260     1.951617     1.943974
      1.936331     1.928688     1.921045     1.913402     1.905759     1.898115     1.890472     1.882829     1.875186     1.867543
      1.859900     1.852257     1.844614     1.836971     1.829327     1.821684     1.814041     1.806398     1.798755     1.791112
      1.783469     1.775826     1.768183     1.760540     1.752896     1.745253     1.737610     1.729967     1.722324     1.714681
      1.707038     1.699395     1.691752     1.684108     1.676465     1.668822     1.661179     1.653536     1.645893     1.638250
      1.630607     1.622964     1.615321     1.607677     1.600034     1.592391     1.584748     1.577105     1.569462     1.561819
      1.554176     1.546533     1.538890     1.531246     1.523603     1.515960     1.508317     1.500674     1.493031     1.485388
      1.477745     1.470102     1.462458     1.454815     1.447172     1.439529     1.431886     1.424243     1.416600     1.408957
      1.401314     1.393671     1.386027     1.378384     1.370741     1.363098     1.355455     1.347812     1.340169     1.332526
      1.324883     1.317240     1.309596     1.301953     1.294310     1.286667     1.279024     1.271381     1.263738     1.256095
      1.248452     1.240808     1.233165     1.225522     1.217879     1.210236     1.202593     1.194950     1.187307     1.179664
      1.172021     1.164377     1.156734     1.149091     1.141448     1.133805     1.126162     1.118519     1.110876     1.103233
      1.095590     1.087946     1.080303     1.072660     1.065017     1.057374     1.049731     1.042088     1.034445     1.026802
      1.019158     1.011515     1.003872     0.996229     0.988586     0.980943     0.973300     0.965657     0.958014     0.950371
      0.942727     0.935084     0.927441     0.919798     0.912155     0.904512     0.896869     0.889226     0.881583     0.873940
      0.866296     0.858653     0.851010     0.843367     0.835724     0.828081     0.820438     0.812795     0.805152     0.797508
      0.789865     0.782222     0.774579     0.766936     0.759293     0.751650     0.744007     0.736364     0.728721     0.721077
      0.713434     0.705791     0.698148     0.690505     0.682862     0.675219     0.667576     0.659933     0.652290     0.644646
      0.637003     0.629360     0.621717     0.614074     0.606431     0.598788     0.591145     0.583502     0.575858     0.568215
      0.560572     0.552929     0.545286     0.537643     0.530000     0.522357     0.514714     0.507071     0.499427     0.491784
      0.484141     0.476498     0.468855     0.461212     0.453569     0.445925     0.438282     0.430639     0.422996     0.415353
      0.407710     0.400067     0.392424     0.384780     0.377137     0.369494     0.361851     0.354208     0.346565     0.338922
      0.331278     0.323635     0.315992     0.308349     0.300706     0.293063     0.285420     0.277777     0.270133     0.262490
      0.254847     0.247204     0.239561     0.231918     0.224275     0.216631     0.208988     0.201345
 NY phased data points follow
  -6.32434E+01 -6.02191E+01 -6.28489E+01 -5.72772E+01 -5.66028E+01 -4.95396E+01 -5.12670E+01 -5.53854E+01 -5.23475E+01 -5.07637E+01
  -4.64897E+01 -4.83972E+01 -3.89012E+01 -3.86578E+01 -4.24571E+01 -3.44143E+01 -4.05705E+01 -3.70010E+01 -3.57781E+01 -3.31374E+01
  -3.43348E+01 -3.47137E+01 -3.29938E+01 -3.34900E+01 -3.07103E+01 -3.23397E+01 -2.84285E+01 -3.18697E+01 -3.08221E+01 -3.04752E+01
  -2.70120E+01 -2.63580E+01 -2.56997E+01 -2.63481E+01 -2.47222E+01 -2.83869E+01 -2.39772E+01 -2.20019E+01 -2.30083E+01 -1.92826E+01
  -1.97169E+01 -2.39494E+01 -1.61793E+01 -1.37052E+01 -1.63016E+01 -2.03366E+01 -1.11218E+01 -1.82672E+01 -1.69811E+01 -1.64605E+01
  -1.71784E+01 -1.52962E+01 -1.30870E+01 -1.30637E+01 -1.18197E+01 -1.07128E+01 -9.21342E+00 -1.33041E+01 -6.84483E+00 -1.21400E+01
  -1.08470E+01 -7.09438E+00 -8.55309E+00 -6.93330E+00 -9.09893E+00 -7.71195E+00 -8.69240E+00 -8.33232E+00 -5.13528E+00 -4.05105E+00
  -3.97023E+00 -1.11827E+01 -1.12431E+01 -6.29335E+00 -4.32264E+00 -5.31476E+00 -4.30415E+00 -6.08395E+00 -9.79590E+00 -5.41063E+00
  -7.57825E+00 -1.11482E+01 -5.69875E+00 -7.19525E+00 -3.58052E+00 -2.42393E+00 -3.49997E+00 -7.11303E+00 -9.98678E+00 -7.26577E+00
  -6.60990E+00 -1.32227E+01 -1.34026E+01 -9.72872E+00 -1.18898E+01 -1.11440E+01 -1.63071E+01 -1.48130E+01 -1.77664E+01 -1.46764E+01
  -1.50882E+01 -2.05754E+01 -1.88566E+01 -1.91555E+01 -2.47173E+01 -1.71516E+01 -2.43697E+01 -2.50569E+01 -2.61867E+01 -3.35368E+01
  -3.09855E+01 -3.66334E+01 -3.52940E+01 -4.17412E+01 -4.38298E+01 -4.14801E+01 -4.55987E+01 -4.77092E+01 -4.62726E+01 -4.83542E+01
  -4.96173E+01 -4.97301E+01 -4.63031E+01 -4.92873E+01 -5.36505E+01 -5.41854E+01 -5.65549E+01 -5.03100E+01 -5.05794E+01 -4.88881E+01
  -4.98392E+01 -4.77293E+01 -4.42105E+01 -4.89263E+01 -4.85714E+01 -4.86978E+01 -4.11214E+01 -4.56327E+01 -4.64361E+01 -4.02929E+01
  -3.85035E+01 -4.32380E+01 -4.28910E+01 -4.10711E+01 -3.93295E+01 -3.86060E+01 -3.83915E+01 -4.01873E+01 -4.14028E+01 -4.14562E+01
  -4.26742E+01 -4.43709E+01 -4.48068E+01 -4.34237E+01 -4.78237E+01 -4.55237E+01 -5.04265E+01 -5.07232E+01 -4.98047E+01 -5.68837E+01
  -5.57936E+01 -5.95814E+01 -6.10761E+01 -6.63851E+01 -7.15519E+01 -7.10637E+01 -8.29924E+01 -7.65974E+01 -8.48644E+01 -8.65224E+01
  -1.00810E+02 -1.00151E+02 -1.06228E+02 -1.11469E+02 -1.19188E+02 -1.22700E+02 -1.31856E+02 -1.34611E+02 -1.40511E+02 -1.45116E+02
  -1.55791E+02 -1.54819E+02 -1.62888E+02 -1.66935E+02 -1.66774E+02 -1.68591E+02 -1.75718E+02 -1.75659E+02 -1.77593E+02 -1.76627E+02
  -1.79855E+02 -1.76554E+02 -1.79609E+02 -1.75740E+02 -1.78874E+02 -1.77457E+02 -1.71206E+02 -1.75403E+02 -1.68581E+02 -1.70023E+02
  -1.66940E+02 -1.67833E+02 -1.65198E+02 -1.58488E+02 -1.63009E+02 -1.58374E+02 -1.54018E+02 -1.52858E+02 -1.52962E+02 -1.45201E+02
  -1.41577E+02 -1.42961E+02 -1.41328E+02 -1.33009E+02 -1.29075E+02 -1.16889E+02 -1.15583E+02 -1.10075E+02 -1.00620E+02 -9.50799E+01
  -8.45394E+01 -7.81206E+01 -6.85934E+01 -5.96924E+01 -4.87446E+01 -4.02440E+01 -3.45840E+01 -2.09373E+01 -1.72346E+01 -6.69524E+00
   3.28326E+00  1.22600E+01  1.88790E+01  2.68477E+01  3.00595E+01  4.05871E+01  4.38520E+01  5.54189E+01  5.17189E+01  6.25527E+01
   6.26281E+01  7.08326E+01  7.63818E+01  7.49144E+01  7.57922E+01  7.55887E+01  7.85375E+01  7.80418E+01  7.56776E+01  8.77876E+01
   8.27497E+01  8.88546E+01  8.52654E+01  8.56005E+01  8.75908E+01  8.43700E+01  8.08534E+01  8.11811E+01  7.86896E+01  8.18978E+01
   8.53147E+01  8.49045E+01  8.27793E+01  8.16752E+01  8.49673E+01  7.52179E+01  8.07308E+01  8.15498E+01  7.59177E+01  7.47011E+01
   6.64909E+01  7.01103E+01  7.03358E+01  6.40375E+01  5.92615E+01  5.67638E+01  4.86308E+01  4.65396E+01  4.41489E+01  4.17829E+01
   2.86072E+01  3.07736E+01  2.83001E+01  2.03730E+01  1.77225E+01  1.07784E+01  5.68856E+00  3.50636E+00  1.52554E+00 -7.24153E+00
  -9.59909E+00 -1.18906E+01 -2.05924E+01 -2.03049E+01 -2.83042E+01 -2.31871E+01 -3.01156E+01 -2.87115E+01 -3.25108E+01 -3.89559E+01
  -2.78164E+01 -2.96477E+01 -2.66113E+01 -1.98585E+01 -1.63704E+01 -1.29447E+01 -4.13502E+00 -7.02453E-01  1.27761E+01  2.80094E+01
   3.64506E+01  4.62290E+01  6.51148E+01  7.79613E+01  9.31666E+01  1.12088E+02  1.28931E+02  1.37526E+02  1.51683E+02  1.67562E+02
   1.77749E+02  1.87214E+02  2.00342E+02  2.04668E+02  2.08779E+02  2.11125E+02  2.14214E+02  2.12528E+02  2.12130E+02  2.11136E+02
   2.07642E+02  2.07878E+02  1.99303E+02  1.99560E+02  1.92036E+02  1.95081E+02  1.88059E+02  1.82577E+02  1.73891E+02  1.74159E+02
   1.65249E+02  1.63963E+02  1.57358E+02  1.58215E+02  1.52287E+02  1.45686E+02  1.48562E+02  1.37490E+02  1.40696E+02  1.42441E+02
   1.31933E+02  1.32500E+02  1.33383E+02  1.25975E+02  1.25513E+02  1.25094E+02  1.20755E+02  1.21835E+02  1.18823E+02  1.16387E+02
   1.13306E+02  1.07925E+02  1.08609E+02  1.05361E+02  1.02919E+02  1.05820E+02  9.83808E+01  1.00974E+02  9.84705E+01  9.55431E+01
   9.85796E+01  9.85175E+01  9.13589E+01  9.69155E+01  9.44280E+01  9.42365E+01  9.80777E+01  8.79318E+01  9.28224E+01  9.12748E+01
   8.65354E+01  8.76396E+01  8.99132E+01  8.64299E+01  8.63175E+01  8.52099E+01  8.69452E+01  8.60114E+01  8.60804E+01  8.55491E+01
   7.61138E+01  8.19259E+01  7.80188E+01  7.44274E+01  7.83242E+01  7.55054E+01  7.84203E+01  7.66522E+01  7.16471E+01  6.95346E+01
   6.99180E+01  6.87444E+01  6.87750E+01  7.10367E+01  7.12744E+01  6.44250E+01  6.52324E+01  6.26632E+01  5.93141E+01  6.75587E+01
   6.15557E+01  5.75119E+01  5.82301E+01  5.83274E+01  5.37472E+01  5.35955E+01  5.65762E+01  6.05813E+01  5.37320E+01  5.36817E+01
   5.30568E+01  5.11553E+01  4.73749E+01  4.99850E+01  4.39262E+01  5.01468E+01  4.92780E+01  4.67155E+01  4.53833E+01  4.59744E+01
   4.31313E+01  4.35819E+01  4.24168E+01  4.34884E+01  4.64930E+01  4.18967E+01  3.91196E+01  3.73894E+01  4.15750E+01  3.91942E+01
   4.05136E+01  3.73877E+01  3.31579E+01  3.60166E+01  3.48878E+01  3.75018E+01  3.01639E+01  3.02187E+01  3.28624E+01  3.31520E+01
   3.13758E+01  2.45843E+01  2.68403E+01  2.46811E+01  2.81812E+01  2.44428E+01  2.58265E+01  2.40029E+01  2.52040E+01  2.51663E+01
   2.64837E+01  2.44091E+01  2.70304E+01  2.54836E+01  1.87678E+01  2.46796E+01  2.04132E+01  2.07896E+01  2.02542E+01  2.15710E+01
   2.46969E+01  1.74126E+01  2.39075E+01  1.85437E+01  1.70944E+01  2.13072E+01  1.71354E+01  1.40449E+01  1.26765E+01  1.65006E+01
   1.84563E+01  1.49317E+01  1.63993E+01  1.64240E+01  1.48290E+01  1.16344E+01  1.11611E+01  1.43748E+01  1.39195E+01  1.26476E+01
   1.24466E+01  1.24428E+01  1.35299E+01  9.19934E+00  1.15838E+01  9.91029E+00  1.25044E+01  9.01700E+00
 NY points of the fit to the data follow
  -5.23917E+01 -4.74819E+01 -4.96727E+01 -4.56122E+01 -4.68494E+01 -4.12466E+01 -4.32160E+01 -3.98677E+01 -4.20356E+01 -3.90675E+01
  -4.02112E+01 -3.81764E+01 -3.81968E+01 -4.01752E+01 -3.90385E+01 -4.01592E+01 -4.20317E+01 -4.16357E+01 -4.06175E+01 -3.96883E+01
  -3.90633E+01 -3.79914E+01 -3.73661E+01 -3.54432E+01 -3.39173E+01 -3.31974E+01 -3.30612E+01 -3.22161E+01 -3.11318E+01 -2.89446E+01
  -2.47907E+01 -2.72709E+01 -2.81359E+01 -2.85729E+01 -2.62647E+01 -2.70348E+01 -2.28638E+01 -2.37989E+01 -1.92121E+01 -2.08495E+01
  -1.58480E+01 -1.69048E+01 -1.11461E+01 -1.37350E+01 -1.12438E+01 -1.41607E+01 -9.80891E+00 -8.90722E+00 -5.89110E+00 -7.36224E+00
  -1.10993E+01 -1.20273E+01 -1.75046E+01 -1.46400E+01 -1.39461E+01 -1.05514E+01 -9.76678E+00 -7.01955E+00 -8.14579E+00 -8.34387E+00
  -7.64990E+00 -8.77299E+00 -9.79923E+00 -1.15118E+01 -1.20350E+01 -1.26473E+01 -1.23202E+01 -1.66437E+01 -2.10194E+01 -2.19129E+01
  -2.08920E+01 -1.97403E+01 -1.84140E+01 -1.72456E+01 -1.61731E+01 -1.53745E+01 -1.54728E+01 -1.51281E+01 -1.46767E+01 -1.52500E+01
  -1.58070E+01 -1.60771E+01 -1.71765E+01 -1.68362E+01 -1.49873E+01 -1.48717E+01 -1.33414E+01 -1.39338E+01 -1.31090E+01 -1.58457E+01
  -1.38485E+01 -1.62749E+01 -1.61222E+01 -1.78876E+01 -1.72123E+01 -2.12694E+01 -2.16139E+01 -2.27817E+01 -2.24559E+01 -2.27788E+01
  -2.39996E+01 -2.52949E+01 -2.81060E+01 -2.85580E+01 -2.99852E+01 -3.03298E+01 -3.58059E+01 -3.53664E+01 -3.52848E+01 -3.33733E+01
  -3.42968E+01 -3.49354E+01 -3.90436E+01 -3.87499E+01 -4.22485E+01 -4.12180E+01 -4.50423E+01 -4.38949E+01 -4.92203E+01 -4.78757E+01
  -5.03029E+01 -4.69184E+01 -4.87715E+01 -4.50827E+01 -4.72781E+01 -4.36807E+01 -4.43515E+01 -4.06406E+01 -4.05685E+01 -3.83692E+01
  -3.76344E+01 -3.64840E+01 -3.49864E+01 -3.47098E+01 -3.20647E+01 -3.37001E+01 -3.08226E+01 -3.40403E+01 -3.10797E+01 -3.43025E+01
  -3.03376E+01 -3.57793E+01 -3.34887E+01 -3.88998E+01 -3.70789E+01 -4.05927E+01 -3.82211E+01 -4.63351E+01 -5.01762E+01 -5.12502E+01
  -5.06283E+01 -5.08484E+01 -5.02343E+01 -5.18869E+01 -5.20801E+01 -5.29320E+01 -5.29614E+01 -5.44179E+01 -5.52225E+01 -5.82020E+01
  -6.06522E+01 -6.50603E+01 -6.87597E+01 -7.28172E+01 -7.67519E+01 -8.07577E+01 -8.52446E+01 -8.95479E+01 -9.44768E+01 -9.88025E+01
  -1.03745E+02 -1.07376E+02 -1.12377E+02 -1.16163E+02 -1.21597E+02 -1.25267E+02 -1.30581E+02 -1.33677E+02 -1.38233E+02 -1.41666E+02
  -1.44495E+02 -1.46633E+02 -1.47926E+02 -1.50685E+02 -1.51732E+02 -1.56399E+02 -1.56196E+02 -1.60990E+02 -1.60513E+02 -1.65400E+02
  -1.63615E+02 -1.68056E+02 -1.65424E+02 -1.68087E+02 -1.63290E+02 -1.64921E+02 -1.59119E+02 -1.60975E+02 -1.57352E+02 -1.57918E+02
  -1.53419E+02 -1.51922E+02 -1.48221E+02 -1.47445E+02 -1.46080E+02 -1.43358E+02 -1.41884E+02 -1.39492E+02 -1.41325E+02 -1.38850E+02
  -1.41275E+02 -1.36665E+02 -1.37724E+02 -1.30442E+02 -1.29180E+02 -1.21463E+02 -1.19223E+02 -1.09435E+02 -1.05767E+02 -9.54676E+01
  -9.05141E+01 -8.26356E+01 -7.83473E+01 -6.80296E+01 -6.05465E+01 -5.28892E+01 -4.33116E+01 -3.44739E+01 -2.46081E+01 -1.20141E+01
   1.91051E+00  6.01229E+00  1.19517E+01  1.68760E+01  2.14960E+01  2.64391E+01  2.98766E+01  3.58969E+01  4.07234E+01  4.93781E+01
   5.48354E+01  6.44670E+01  6.89716E+01  7.68166E+01  7.40298E+01  7.91414E+01  7.67111E+01  8.00281E+01  7.99559E+01  8.25435E+01
   8.38390E+01  8.42989E+01  8.71164E+01  8.41310E+01  8.89944E+01  8.62183E+01  9.00437E+01  8.07149E+01  8.70741E+01  8.15941E+01
   8.81576E+01  8.09567E+01  8.57580E+01  8.34444E+01  8.42041E+01  8.20558E+01  8.28979E+01  8.17291E+01  7.91443E+01  7.93380E+01
   7.30348E+01  7.30983E+01  6.90117E+01  7.10701E+01  5.89437E+01  5.92264E+01  4.87274E+01  5.08429E+01  4.74136E+01  4.67243E+01
   1.63332E+01  8.48061E+00  8.75922E+00  9.97081E+00  1.07806E+01  1.08293E+01  1.00133E+01  8.24868E+00  5.59051E+00  2.12775E+00
  -1.98822E+00 -6.58539E+00 -1.14388E+01 -1.63227E+01 -2.09997E+01 -2.52710E+01 -2.89535E+01 -3.18543E+01 -3.38166E+01 -3.47308E+01
  -3.45049E+01 -3.30618E+01 -3.03624E+01 -2.63950E+01 -2.11436E+01 -1.46265E+01 -6.86769E+00  2.08487E+00  1.21757E+01  2.33196E+01
   3.54326E+01  4.84044E+01  6.20867E+01  7.63241E+01  9.09424E+01  1.05737E+02  1.20498E+02  1.34991E+02  1.48989E+02  1.62250E+02
   1.74560E+02  1.85704E+02  1.95503E+02  2.03798E+02  2.10475E+02  2.15446E+02  2.18673E+02  2.20148E+02  2.19870E+02  2.17820E+02
   2.14029E+02  2.08167E+02  2.03124E+02  1.96606E+02  1.91391E+02  1.85466E+02  1.80564E+02  1.75561E+02  1.71722E+02  1.66174E+02
   1.63098E+02  1.58498E+02  1.55496E+02  1.50965E+02  1.49836E+02  1.47565E+02  1.46610E+02  1.44383E+02  1.42656E+02  1.40779E+02
   1.39175E+02  1.36088E+02  1.33834E+02  1.32494E+02  1.29992E+02  1.29520E+02  1.26840E+02  1.25854E+02  1.22764E+02  1.21713E+02
   1.17153E+02  1.14959E+02  1.11144E+02  1.09890E+02  1.06763E+02  1.06068E+02  1.00496E+02  9.64760E+01  9.68341E+01  9.92945E+01
   9.81635E+01  9.82075E+01  9.66492E+01  9.85775E+01  9.76092E+01  9.07968E+01  8.67871E+01  8.43492E+01  8.27301E+01  8.16758E+01
   8.10634E+01  8.08124E+01  8.08577E+01  8.11393E+01  8.15976E+01  8.21723E+01  8.28018E+01  8.34253E+01  8.39851E+01  8.44289E+01
   8.47121E+01  8.47986E+01  8.46629E+01  8.42904E+01  8.36788E+01  8.28372E+01  8.17853E+01  8.05513E+01  7.91702E+01  7.76813E+01
   7.61261E+01  7.45462E+01  7.29806E+01  7.14639E+01  7.00244E+01  6.86842E+01  6.74579E+01  6.63529E+01  6.53696E+01  6.45020E+01
   6.37387E+01  6.30638E+01  6.24589E+01  6.19031E+01  6.13751E+01  6.08534E+01  6.03178E+01  5.97498E+01  5.91331E+01  5.84546E+01
   5.77037E+01  5.68729E+01  5.59579E+01  5.49571E+01  5.38717E+01  5.27054E+01  5.14639E+01  5.01545E+01  4.87862E+01  4.73688E+01
   4.59129E+01  4.44295E+01  4.29296E+01  4.14238E+01  3.99223E+01  3.84349E+01  3.69704E+01  3.55368E+01  3.41414E+01  3.27900E+01
   3.14878E+01  3.02390E+01  2.90470E+01  2.79141E+01  2.68421E+01  2.58317E+01  2.48833E+01  2.39967E+01  2.31711E+01  2.24056E+01
   2.16985E+01  2.10481E+01  2.04524E+01  1.99095E+01  1.94172E+01  1.89733E+01  1.85753E+01  1.82209E+01  1.79079E+01  1.76341E+01
   1.73972E+01  1.71951E+01  1.70257E+01  1.68870E+01  1.67769E+01  1.66939E+01  1.66361E+01  1.66017E+01  1.65892E+01  1.65970E+01
   1.66236E+01  1.66679E+01  1.67285E+01  1.68041E+01  1.68934E+01  1.69954E+01  1.71092E+01  1.72337E+01  1.73680E+01  1.75110E+01
   1.76621E+01  1.78203E+01  1.79851E+01  1.81556E+01  1.83312E+01  1.85111E+01  1.86947E+01  1.88815E+01  1.90711E+01  1.92627E+01
   1.94558E+01  1.96499E+01  1.98445E+01  2.00392E+01  2.02337E+01  2.04272E+01  2.06193E+01  2.08094E+01
 NY background values follow
    -5.723E+01   -5.638E+01   -5.553E+01   -5.467E+01   -5.381E+01   -5.294E+01   -5.208E+01   -5.121E+01   -5.034E+01   -4.947E+01
    -4.860E+01   -4.773E+01   -4.686E+01   -4.599E+01   -4.513E+01   -4.427E+01   -4.342E+01   -4.257E+01   -4.173E+01   -4.089E+01
    -4.006E+01   -3.923E+01   -3.842E+01   -3.761E+01   -3.681E+01   -3.603E+01   -3.525E+01   -3.449E+01   -3.374E+01   -3.300E+01
    -3.227E+01   -3.156E+01   -3.086E+01   -3.018E+01   -2.951E+01   -2.886E+01   -2.823E+01   -2.762E+01   -2.702E+01   -2.645E+01
    -2.589E+01   -2.536E+01   -2.484E+01   -2.435E+01   -2.388E+01   -2.344E+01   -2.302E+01   -2.262E+01   -2.225E+01   -2.190E+01
    -2.158E+01   -2.129E+01   -2.103E+01   -2.079E+01   -2.058E+01   -2.041E+01   -2.026E+01   -2.015E+01   -2.006E+01   -2.001E+01
    -2.000E+01   -2.001E+01   -2.006E+01   -2.015E+01   -2.027E+01   -2.043E+01   -2.062E+01   -2.086E+01   -2.113E+01   -2.144E+01
    -2.179E+01   -2.218E+01   -2.261E+01   -2.308E+01   -2.359E+01   -2.414E+01   -2.473E+01   -2.536E+01   -2.602E+01   -2.672E+01
    -2.745E+01   -2.822E+01   -2.903E+01   -2.986E+01   -3.073E+01   -3.163E+01   -3.256E+01   -3.352E+01   -3.452E+01   -3.554E+01
    -3.658E+01   -3.766E+01   -3.876E+01   -3.989E+01   -4.105E+01   -4.223E+01   -4.343E+01   -4.466E+01   -4.590E+01   -4.718E+01
    -4.847E+01   -4.978E+01   -5.111E+01   -5.246E+01   -5.383E+01   -5.522E+01   -5.662E+01   -5.804E+01   -5.948E+01   -6.093E+01
    -6.239E+01   -6.387E+01   -6.536E+01   -6.687E+01   -6.838E+01   -6.990E+01   -7.144E+01   -7.298E+01   -7.453E+01   -7.609E+01
    -7.766E+01   -7.923E+01   -8.081E+01   -8.239E+01   -8.397E+01   -8.556E+01   -8.716E+01   -8.875E+01   -9.035E+01   -9.194E+01
    -9.354E+01   -9.513E+01   -9.673E+01   -9.832E+01   -9.991E+01   -1.015E+02   -1.031E+02   -1.046E+02   -1.062E+02   -1.078E+02
    -1.093E+02   -1.109E+02   -1.124E+02   -1.140E+02   -1.155E+02   -1.170E+02   -1.185E+02   -1.200E+02   -1.215E+02   -1.229E+02
    -1.244E+02   -1.258E+02   -1.273E+02   -1.287E+02   -1.301E+02   -1.315E+02   -1.329E+02   -1.342E+02   -1.356E+02   -1.369E+02
    -1.383E+02   -1.396E+02   -1.409E+02   -1.422E+02   -1.435E+02   -1.447E+02   -1.460E+02   -1.472E+02   -1.484E+02   -1.496E+02
    -1.508E+02   -1.520E+02   -1.531E+02   -1.543E+02   -1.554E+02   -1.565E+02   -1.576E+02   -1.586E+02   -1.597E+02   -1.607E+02
    -1.617E+02   -1.627E+02   -1.637E+02   -1.647E+02   -1.656E+02   -1.665E+02   -1.674E+02   -1.683E+02   -1.691E+02   -1.700E+02
    -1.708E+02   -1.716E+02   -1.724E+02   -1.731E+02   -1.738E+02   -1.745E+02   -1.752E+02   -1.759E+02   -1.765E+02   -1.772E+02
    -1.777E+02   -1.783E+02   -1.789E+02   -1.794E+02   -1.799E+02   -1.804E+02   -1.808E+02   -1.812E+02   -1.816E+02   -1.820E+02
    -1.824E+02   -1.827E+02   -1.830E+02   -1.833E+02   -1.835E+02   -1.837E+02   -1.839E+02   -1.841E+02   -1.842E+02   -1.843E+02
    -1.844E+02   -1.845E+02   -1.845E+02   -1.846E+02   -1.846E+02   -1.846E+02   -1.845E+02   -1.844E+02   -1.844E+02   -1.843E+02
    -1.841E+02   -1.840E+02   -1.838E+02   -1.836E+02   -1.834E+02   -1.832E+02   -1.830E+02   -1.827E+02   -1.824E+02   -1.821E+02
    -1.818E+02   -1.815E+02   -1.812E+02   -1.808E+02   -1.805E+02   -1.801E+02   -1.797E+02   -1.793E+02   -1.788E+02   -1.784E+02
    -1.780E+02   -1.775E+02   -1.770E+02   -1.766E+02   -1.761E+02   -1.756E+02   -1.750E+02   -1.745E+02   -1.740E+02   -1.735E+02
    -1.729E+02   -1.724E+02   -1.718E+02   -1.712E+02   -1.706E+02   -1.701E+02   -1.695E+02   -1.689E+02   -1.683E+02   -1.677E+02
    -1.671E+02   -1.664E+02   -1.658E+02   -1.652E+02   -1.646E+02   -1.640E+02   -1.633E+02   -1.627E+02   -1.621E+02   -1.615E+02
    -1.608E+02   -1.602E+02   -1.596E+02   -1.589E+02   -1.583E+02   -1.577E+02   -1.571E+02   -1.564E+02   -1.558E+02   -1.552E+02
    -1.546E+02   -1.540E+02   -1.533E+02   -1.527E+02   -1.521E+02   -1.515E+02   -1.509E+02   -1.503E+02   -1.496E+02   -1.490E+02
    -1.484E+02   -1.478E+02   -1.472E+02   -1.466E+02   -1.459E+02   -1.453E+02   -1.447E+02   -1.441E+02   -1.434E+02   -1.428E+02
    -1.422E+02   -1.416E+02   -1.409E+02   -1.403E+02   -1.397E+02   -1.390E+02   -1.384E+02   -1.378E+02   -1.371E+02   -1.365E+02
    -1.358E+02   -1.352E+02   -1.345E+02   -1.338E+02   -1.332E+02   -1.325E+02   -1.318E+02   -1.312E+02   -1.305E+02   -1.298E+02
    -1.291E+02   -1.284E+02   -1.277E+02   -1.270E+02   -1.263E+02   -1.256E+02   -1.249E+02   -1.242E+02   -1.235E+02   -1.227E+02
    -1.220E+02   -1.213E+02   -1.205E+02   -1.198E+02   -1.190E+02   -1.183E+02   -1.175E+02   -1.167E+02   -1.159E+02   -1.151E+02
    -1.143E+02   -1.135E+02   -1.127E+02   -1.119E+02   -1.111E+02   -1.102E+02   -1.094E+02   -1.086E+02   -1.077E+02   -1.068E+02
    -1.060E+02   -1.051E+02   -1.042E+02   -1.033E+02   -1.024E+02   -1.015E+02   -1.006E+02   -9.971E+01   -9.879E+01   -9.787E+01
    -9.694E+01   -9.601E+01   -9.507E+01   -9.413E+01   -9.319E+01   -9.224E+01   -9.128E+01   -9.032E+01   -8.936E+01   -8.840E+01
    -8.743E+01   -8.646E+01   -8.548E+01   -8.450E+01   -8.352E+01   -8.254E+01   -8.156E+01   -8.057E+01   -7.958E+01   -7.859E+01
    -7.760E+01   -7.661E+01   -7.561E+01   -7.462E+01   -7.362E+01   -7.263E+01   -7.163E+01   -7.063E+01   -6.964E+01   -6.864E+01
    -6.764E+01   -6.665E+01   -6.565E+01   -6.465E+01   -6.366E+01   -6.267E+01   -6.168E+01   -6.069E+01   -5.970E+01   -5.871E+01
    -5.773E+01   -5.675E+01   -5.577E+01   -5.479E+01   -5.381E+01   -5.284E+01   -5.187E+01   -5.091E+01   -4.995E+01   -4.899E+01
    -4.804E+01   -4.709E+01   -4.614E+01   -4.520E+01   -4.426E+01   -4.333E+01   -4.240E+01   -4.148E+01   -4.056E+01   -3.965E+01
    -3.875E+01   -3.784E+01   -3.695E+01   -3.606E+01   -3.517E+01   -3.429E+01   -3.342E+01   -3.255E+01   -3.169E+01   -3.083E+01
    -2.998E+01   -2.913E+01   -2.829E+01   -2.746E+01   -2.663E+01   -2.581E+01   -2.500E+01   -2.419E+01   -2.338E+01   -2.258E+01
    -2.179E+01   -2.101E+01   -2.023E+01   -1.946E+01   -1.869E+01   -1.793E+01   -1.718E+01   -1.643E+01   -1.570E+01   -1.496E+01
    -1.424E+01   -1.352E+01   -1.281E+01   -1.210E+01   -1.140E+01   -1.071E+01   -1.003E+01   -9.350E+00   -8.680E+00   -8.017E+00
    -7.362E+00   -6.713E+00   -6.073E+00   -5.439E+00   -4.813E+00   -4.195E+00   -3.584E+00   -2.981E+00   -2.385E+00   -1.798E+00
    -1.218E+00   -6.454E-01   -8.102E-02    4.754E-01    1.024E+00    1.564E+00    2.097E+00    2.621E+00    3.137E+00    3.645E+00
     4.144E+00    4.636E+00    5.118E+00    5.593E+00    6.059E+00    6.516E+00    6.965E+00    7.405E+00
 Cr       Conc. = 2.38E+02
