 LCModel (Version 6.3-1L) Copyright: S.W. Provencher.          Ref.: Magn. Reson. Med. 30:672-679 (1993).                
 Slice#2 Row#4 Col#8  PD_05_press_2_raw_act
 36 lines in following concentration table = NCONC+1
    Conc.  %SD /Cr+PCr  Metabolite                                         
  116.029 268% 2.7E-02 Ala                                                 
    0.000 999%   0.000 Asp                                                 
  185.013 409% 4.3E-02 Cr                                                  
 4.11E+03  19%   0.957 PCr                                                 
   15.448 999% 3.6E-03 GABA                                                
  495.098  88%   0.115 Glc                                                 
 2.47E+03  27%   0.574 Gln                                                 
 3.64E+03  21%   0.848 Glu                                                 
 1.74E+03   4%   0.405 GPC                                                 
    0.000 999%   0.000 PCh                                                 
  801.638  27%   0.187 GSH                                                 
 3.09E+03  24%   0.719 Ins                                                 
  144.409 239% 3.4E-02 Lac                                                 
 6.10E+03   6%   1.421 NAA                                                 
  432.111  87%   0.101 NAAG                                                
  394.686  20% 9.2E-02 Scyllo                                              
    0.000 999%   0.000 Tau                                                 
 1.40E+03  25%   0.325 -CrCH2                                              
 1.74E+03   4%   0.405 GPC+PCh                                             
 6.53E+03   4%   1.521 NAA+NAAG                                            
 4.29E+03   4%   1.000 Cr+PCr                                              
 6.10E+03  17%   1.422 Glu+Gln                                             
 6.71E+03  27%   1.564 Lip13a                                              
    0.000 999%   0.000 Lip13b                                              
 1.47E+03  54%   0.343 Lip09                                               
 2.54E+03  34%   0.591 MM09                                                
 1.16E+03  47%   0.270 Lip20                                               
 6.44E+03  18%   1.500 MM20                                                
  996.216  59%   0.232 MM12                                                
 2.07E+03  49%   0.481 MM14                                                
  610.145  97%   0.142 MM17                                                
 6.71E+03  27%   1.564 Lip13a+Lip13b                                       
 9.78E+03  15%   2.277 MM14+Lip13a+Lip13b+MM12                             
 4.01E+03  15%   0.935 MM09+Lip09                                          
 7.60E+03  15%   1.770 MM20+Lip20                                          
   6 lines in following misc. output table
  FWHM = 0.054 ppm    S/N =  11                                            
  Data shift = 0.031 ppm                                                   
  Ph: -56 deg     -10.8 deg/ppm                                            
  alphaB,S = 2.3E+00,   1.5E+02                                            
   14 spline knots.   Ns = 7(1)                                            
  (11) 2 infls.   ( 7) 1 extrs.                                            
  498 points on ppm-axis = NY
      4.000000     3.992357     3.984714     3.977070     3.969427     3.961784     3.954141     3.946497     3.938854     3.931211
      3.923568     3.915925     3.908281     3.900638     3.892995     3.885352     3.877708     3.870065     3.862422     3.854779
      3.847136     3.839492     3.831849     3.824206     3.816563     3.808919     3.801276     3.793633     3.785990     3.778347
      3.770703     3.763060     3.755417     3.747774     3.740130     3.732487     3.724844     3.717201     3.709558     3.701914
      3.694271     3.686628     3.678985     3.671341     3.663698     3.656055     3.648412     3.640769     3.633125     3.625482
      3.617839     3.610196     3.602552     3.594909     3.587266     3.579623     3.571980     3.564336     3.556693     3.549050
      3.541407     3.533763     3.526120     3.518477     3.510834     3.503191     3.495547     3.487904     3.480261     3.472618
      3.464974     3.457331     3.449688     3.442045     3.434402     3.426758     3.419115     3.411472     3.403829     3.396185
      3.388542     3.380899     3.373256     3.365613     3.357969     3.350326     3.342683     3.335040     3.327396     3.319753
      3.312110     3.304467     3.296824     3.289180     3.281537     3.273894     3.266251     3.258607     3.250964     3.243321
      3.235678     3.228034     3.220391     3.212748     3.205105     3.197462     3.189818     3.182175     3.174532     3.166889
      3.159245     3.151602     3.143959     3.136316     3.128673     3.121029     3.113386     3.105743     3.098100     3.090456
      3.082813     3.075170     3.067527     3.059884     3.052240     3.044597     3.036954     3.029311     3.021667     3.014024
      3.006381     2.998738     2.991095     2.983451     2.975808     2.968165     2.960522     2.952878     2.945235     2.937592
      2.929949     2.922306     2.914662     2.907019     2.899376     2.891733     2.884089     2.876446     2.868803     2.861160
      2.853517     2.845873     2.838230     2.830587     2.822944     2.815300     2.807657     2.800014     2.792371     2.784728
      2.777084     2.769441     2.761798     2.754155     2.746511     2.738868     2.731225     2.723582     2.715939     2.708295
      2.700652     2.693009     2.685366     2.677722     2.670079     2.662436     2.654793     2.647150     2.639506     2.631863
      2.624220     2.616577     2.608933     2.601290     2.593647     2.586004     2.578361     2.570717     2.563074     2.555431
      2.547788     2.540144     2.532501     2.524858     2.517215     2.509572     2.501928     2.494285     2.486642     2.478999
      2.471355     2.463712     2.456069     2.448426     2.440783     2.433139     2.425496     2.417853     2.410210     2.402566
      2.394923     2.387280     2.379637     2.371994     2.364350     2.356707     2.349064     2.341421     2.333777     2.326134
      2.318491     2.310848     2.303205     2.295561     2.287918     2.280275     2.272632     2.264988     2.257345     2.249702
      2.242059     2.234416     2.226772     2.219129     2.211486     2.203843     2.196199     2.188556     2.180913     2.173270
      2.165627     2.157983     2.150340     2.142697     2.135054     2.127410     2.119767     2.112124     2.104481     2.096838
      2.089194     2.081551     2.073908     2.066265     2.058621     2.050978     2.043335     2.035692     2.028049     2.020405
      2.012762     2.005119     1.997476     1.989833     1.982190     1.974546     1.966903     1.959260     1.951617     1.943974
      1.936331     1.928688     1.921045     1.913402     1.905759     1.898115     1.890472     1.882829     1.875186     1.867543
      1.859900     1.852257     1.844614     1.836971     1.829327     1.821684     1.814041     1.806398     1.798755     1.791112
      1.783469     1.775826     1.768183     1.760540     1.752896     1.745253     1.737610     1.729967     1.722324     1.714681
      1.707038     1.699395     1.691752     1.684108     1.676465     1.668822     1.661179     1.653536     1.645893     1.638250
      1.630607     1.622964     1.615321     1.607677     1.600034     1.592391     1.584748     1.577105     1.569462     1.561819
      1.554176     1.546533     1.538890     1.531246     1.523603     1.515960     1.508317     1.500674     1.493031     1.485388
      1.477745     1.470102     1.462458     1.454815     1.447172     1.439529     1.431886     1.424243     1.416600     1.408957
      1.401314     1.393671     1.386027     1.378384     1.370741     1.363098     1.355455     1.347812     1.340169     1.332526
      1.324883     1.317240     1.309596     1.301953     1.294310     1.286667     1.279024     1.271381     1.263738     1.256095
      1.248452     1.240808     1.233165     1.225522     1.217879     1.210236     1.202593     1.194950     1.187307     1.179664
      1.172021     1.164377     1.156734     1.149091     1.141448     1.133805     1.126162     1.118519     1.110876     1.103233
      1.095590     1.087946     1.080303     1.072660     1.065017     1.057374     1.049731     1.042088     1.034445     1.026802
      1.019158     1.011515     1.003872     0.996229     0.988586     0.980943     0.973300     0.965657     0.958014     0.950371
      0.942727     0.935084     0.927441     0.919798     0.912155     0.904512     0.896869     0.889226     0.881583     0.873940
      0.866296     0.858653     0.851010     0.843367     0.835724     0.828081     0.820438     0.812795     0.805152     0.797508
      0.789865     0.782222     0.774579     0.766936     0.759293     0.751650     0.744007     0.736364     0.728721     0.721077
      0.713434     0.705791     0.698148     0.690505     0.682862     0.675219     0.667576     0.659933     0.652290     0.644646
      0.637003     0.629360     0.621717     0.614074     0.606431     0.598788     0.591145     0.583502     0.575858     0.568215
      0.560572     0.552929     0.545286     0.537643     0.530000     0.522357     0.514714     0.507071     0.499427     0.491784
      0.484141     0.476498     0.468855     0.461212     0.453569     0.445925     0.438282     0.430639     0.422996     0.415353
      0.407710     0.400067     0.392424     0.384780     0.377137     0.369494     0.361851     0.354208     0.346565     0.338922
      0.331278     0.323635     0.315992     0.308349     0.300706     0.293063     0.285420     0.277777     0.270133     0.262490
      0.254847     0.247204     0.239561     0.231918     0.224275     0.216631     0.208988     0.201345
 NY phased data points follow
  -1.17888E+02 -1.12795E+02 -1.20889E+02 -1.04195E+02 -8.41039E+01 -6.61791E+01 -6.71124E+01 -2.95892E+01 -3.50369E+01 -1.55761E+01
  -1.09611E+01 -2.06706E+01 -2.43508E+01 -3.46772E+01 -5.26426E+01 -5.19363E+01 -8.65663E+01 -9.18791E+01 -8.54051E+01 -8.10949E+01
  -6.16497E+01 -6.89418E+01 -8.50086E+01 -8.27802E+01 -7.14948E+01 -6.19874E+01 -6.95807E+01 -8.13117E+01 -5.82744E+01 -5.40726E+01
  -5.36488E+01 -5.00422E+01 -5.59288E+01 -6.81926E+01 -7.28275E+01 -8.47740E+01 -7.79432E+01 -6.68390E+01 -6.52195E+01 -5.16140E+01
  -5.40609E+01 -4.82840E+01 -5.57352E+01 -5.37279E+01 -4.96424E+01 -6.09671E+01 -3.75162E+01 -3.15307E+01 -3.05829E+01 -2.98948E+01
  -4.12280E+01 -3.85323E+01 -5.71197E+01 -5.50155E+01 -4.17789E+01 -4.14703E+01 -4.08283E+01 -4.94604E+01 -3.03056E+01 -6.27214E+01
  -6.12945E+01 -7.20219E+01 -6.09833E+01 -6.70208E+01 -8.41486E+01 -6.95275E+01 -8.24556E+01 -6.93229E+01 -6.61706E+01 -7.09392E+01
  -6.60410E+01 -6.17958E+01 -6.66077E+01 -5.77926E+01 -4.93897E+01 -5.69909E+01 -5.85634E+01 -4.50374E+01 -4.39761E+01 -6.20097E+01
  -4.49796E+01 -3.86232E+01 -5.00650E+01 -4.06498E+01 -4.01880E+01 -4.06866E+01 -3.33801E+01 -4.27542E+01 -4.69326E+01 -3.43486E+01
  -3.84849E+01 -4.92906E+01 -5.09845E+01 -4.15170E+01 -3.94148E+01 -1.98436E+01 -1.02353E+01 -1.28363E+01 -2.76060E+00  2.65362E+01
   3.86423E+01  7.41753E+01  1.10763E+02  1.19963E+02  1.08963E+02  8.07485E+01  4.67698E+01  1.43576E+01 -1.96697E+01 -2.45528E+01
  -3.58017E+01 -3.74715E+01 -4.22412E+01 -2.40319E+01 -3.66315E+01 -3.46568E+01 -4.20839E+01 -3.53140E+01 -1.31954E+01 -1.99536E+01
  -1.79743E+01  1.63465E+00 -5.23696E+00  1.11428E+01  3.16642E+01  7.10228E+01  1.03394E+02  9.49981E+01  1.09578E+02  8.48936E+01
   6.00018E+01  2.51571E+01 -2.05425E+00 -5.61592E+00 -2.38967E+01 -3.13543E+01 -3.18562E+01 -3.40350E+01 -3.32758E+01 -2.56757E+01
  -2.84771E+01 -3.23870E+01 -3.66048E+01 -2.66182E+01 -3.28067E+01 -8.64406E+00 -3.67109E+01 -2.59546E+01 -4.34123E+01 -2.73071E+01
  -2.51366E+01 -3.97379E+01 -4.05903E+01 -2.70811E+01 -3.37100E+01 -4.13553E+01 -4.58749E+01 -3.20329E+01 -3.17382E+01 -4.17101E+01
  -1.77275E+01 -4.84005E+01 -3.16448E+01 -2.98800E+01 -4.16574E+01 -4.12488E+01 -2.94021E+01 -2.20422E+01 -2.89343E+01 -1.76607E+01
  -3.53465E+01 -5.24755E+01 -5.75023E+01 -4.05294E+01 -3.85118E+01 -4.93074E+01 -4.15333E+01 -6.72878E+01 -4.10417E+01 -5.38458E+01
  -5.09113E+01 -5.57718E+01 -4.73716E+01 -4.64403E+01 -4.05563E+01 -5.07531E+01 -3.08767E+01 -3.50454E+01 -2.35385E+01 -2.80187E+01
  -2.14650E+01 -1.99415E+01 -1.89262E+01 -2.32827E+00 -1.94752E+01 -2.04051E+01 -2.03115E+01 -3.54437E+01 -2.79882E+01 -2.49805E+01
  -1.98020E+01 -9.22846E+00 -1.64397E+01 -9.28932E+00 -1.82366E+01 -1.91783E+01 -2.33533E+01 -2.34613E+01 -4.36081E+01 -2.82709E+01
  -2.31477E+01 -2.23358E+01 -1.04707E+01 -7.53730E+00 -7.41115E+00  1.06872E+01  1.37328E+01  2.15956E+01 -5.35536E+00 -4.87724E+00
  -2.25400E+01 -2.94788E+01 -2.18709E+01 -2.29459E+01 -1.57778E+01 -1.20395E+01 -6.17612E+00  1.02824E+01  1.83281E+00  2.19676E+01
   3.67945E+00  2.35179E+00  2.93602E+00  1.00428E+01 -1.21820E+01  9.54147E+00  1.73474E+01  1.69855E+01  6.56053E+00  5.52866E+00
   6.79529E+00  1.76864E+00  5.22144E+00 -6.02906E-01 -5.25021E+00  2.64510E+00  6.98225E+00  2.00795E+01  1.50850E+01  2.62137E+01
   1.45096E+01  3.30951E+01  3.58042E+01  5.21163E+01  6.38792E+01  8.61788E+01  1.24065E+02  1.43972E+02  1.82614E+02  2.04816E+02
   2.11395E+02  2.01925E+02  1.83890E+02  1.62558E+02  1.01629E+02  5.84300E+01  4.89581E+01  1.39076E+01  1.31902E+01  1.25215E+00
   1.95106E+01  9.45302E+00  4.08623E+00  1.12881E+01 -2.73831E-01  1.17842E+01  1.12387E+01  4.87763E-03 -4.10807E+00 -6.63081E+00
  -8.36915E+00 -1.74138E+01 -1.18587E+01 -1.29869E+01 -2.91877E+01 -9.93903E+00 -2.13357E+01  1.51872E+00 -8.98675E-01  2.84717E+00
  -2.09029E+00  5.68442E+00 -2.31407E-01 -1.16039E+01 -8.64918E+00  3.52746E+00 -1.15008E+01 -2.12290E+01 -6.30360E+00  7.19154E+00
  -3.75000E+00 -4.78398E+00  1.24814E+00 -1.35772E+00  1.92833E+00  7.98852E+00  9.14633E+00  6.75219E+00  1.18187E+01  9.92311E+00
   3.03180E+01  1.44890E+01  6.23636E+00  3.64522E+00  1.65296E+01 -7.10173E+00  1.12758E+01  3.39474E+00  1.02088E+01  1.35311E+01
   6.62773E+00  1.01173E+01 -6.58254E+00  4.10679E+00  2.01861E+01 -2.25270E+00  1.06409E+01  3.18182E+00  1.13372E+01  2.95392E+01
   1.01442E+01  1.56651E+01  2.25987E+01  1.21187E+01  2.40716E+01  8.95351E+00  3.99762E+01  3.71049E+01  3.80247E+01  2.82076E+01
   2.69172E+01  2.76204E+01  3.80639E+01  4.72351E+01  3.58661E+01  2.57886E+01  3.87053E+01  3.01146E+01  3.34228E+01  2.02529E+01
   4.39545E+01  2.98863E+01  2.28006E+01  4.81188E+01  3.61315E+01  3.55910E+01  2.95294E+01  3.38047E+01  1.21451E+01  3.81589E+01
   3.85246E+01  2.29292E+01  3.61215E+01  3.80092E+01  2.79484E+01  5.28229E+01  4.49101E+01  2.13962E+01  3.31239E+01  3.28495E+01
   4.45739E+01  4.48955E+01  2.72009E+01  3.45045E+01  1.60108E+01  3.68293E+01  2.32705E+01  2.51776E+01  3.21971E+01  1.23361E+01
   2.32932E+01  2.68855E+01  2.53774E+01  2.04377E+01  2.28598E+01  1.45615E+01  2.18268E+01  1.64840E+01  1.89973E+01  2.81346E+01
   3.21704E+01  3.53218E+01  2.73717E+01  2.29092E+01  3.00132E+01  3.25108E+01  4.19916E+01  3.44744E+01  3.48957E+01  3.79795E+01
   3.97540E+01  3.66108E+01  3.59895E+01  3.29121E+01  2.54224E+01  3.43375E+01  3.45210E+01  4.34385E+01  2.90364E+01  3.24188E+01
   3.78172E+01  2.52819E+01  3.19413E+01  3.86901E+01  3.58440E+01  2.57158E+01  2.95189E+01  4.66876E+01  2.12472E+01  2.24759E+01
   3.94502E+01  3.61142E+01  1.74817E+01  2.83666E+01  1.25923E+01  1.62673E+01  1.65877E+01  2.27947E+01  2.73210E+01  1.58737E+01
   2.65946E+01  2.57944E+01  3.69479E+01  1.79455E+01  1.16834E+01  2.68160E+01  1.96105E+01  2.52346E+01  2.91138E+01  1.03591E+01
   2.04734E+01  1.79107E+01  1.01060E+01  8.84946E+00  2.49100E+01  2.11742E+01  2.76545E+01  2.08939E+01  1.65457E+01  1.78089E+01
   1.83452E+01  3.01933E+01  2.08212E+01  2.07642E+01  1.62956E+01  1.01073E+01  8.98665E+00  1.06828E+01  2.22473E+01  2.03399E+01
  -2.77569E+00  2.07642E+01  2.42645E+01  6.72528E+00  1.43045E+01  2.26508E+01  2.27499E+01  1.39912E+01  1.04096E+01  2.47922E+01
   2.81516E+01  3.10324E+01  2.27231E+01  1.99121E+01  1.64603E+01  2.66739E+01  2.37197E+01  2.92658E+01  1.59469E+01  2.17222E+01
   2.13128E+01  2.69068E+01  7.97339E+00  2.16374E+01  2.23076E+01  1.96828E+01  1.95123E+01  1.62818E+01  2.16810E+01  4.23759E+01
   2.87756E+01  2.83569E+01  1.60247E+01  1.59230E+01  2.94456E+01  3.12197E+01  1.19977E+01  9.15242E+00
 NY points of the fit to the data follow
  -9.30348E+01 -9.35885E+01 -9.15100E+01 -8.54205E+01 -7.76139E+01 -6.85036E+01 -5.73877E+01 -4.41470E+01 -3.06739E+01 -2.02498E+01
  -1.55141E+01 -1.75769E+01 -2.59505E+01 -3.83561E+01 -5.11226E+01 -6.12527E+01 -6.80066E+01 -7.19068E+01 -7.37959E+01 -7.47170E+01
  -7.53288E+01 -7.60395E+01 -7.65984E+01 -7.64437E+01 -7.57628E+01 -7.44400E+01 -7.21370E+01 -6.84108E+01 -6.33954E+01 -5.80384E+01
  -5.34100E+01 -5.03843E+01 -4.97830E+01 -5.18214E+01 -5.59371E+01 -6.07763E+01 -6.49837E+01 -6.79848E+01 -6.95293E+01 -6.92787E+01
  -6.71968E+01 -6.38480E+01 -6.00196E+01 -5.59610E+01 -5.17226E+01 -4.75961E+01 -4.43079E+01 -4.26333E+01 -4.30293E+01 -4.55496E+01
  -4.97813E+01 -5.47267E+01 -5.90351E+01 -6.18422E+01 -6.30089E+01 -6.28107E+01 -6.17343E+01 -6.02134E+01 -5.86820E+01 -5.75431E+01
  -5.70663E+01 -5.74221E+01 -5.85540E+01 -6.01754E+01 -6.17169E+01 -6.25597E+01 -6.25012E+01 -6.16008E+01 -6.00870E+01 -5.82689E+01
  -5.64894E+01 -5.50406E+01 -5.40543E+01 -5.35125E+01 -5.33441E+01 -5.34433E+01 -5.36597E+01 -5.38332E+01 -5.37928E+01 -5.29856E+01
  -5.12313E+01 -4.91944E+01 -4.69284E+01 -4.41871E+01 -4.11473E+01 -3.85988E+01 -3.74880E+01 -3.82487E+01 -4.07119E+01 -4.41666E+01
  -4.76608E+01 -5.02278E+01 -5.13426E+01 -5.11147E+01 -4.96113E+01 -4.48076E+01 -3.26896E+01 -1.60406E+01  3.33435E+00  2.68374E+01
   5.47217E+01  8.30788E+01  1.04523E+02  1.12552E+02  1.04573E+02  8.21702E+01  5.06151E+01  1.78626E+01 -8.86033E+00 -2.68284E+01
  -3.70588E+01 -4.17360E+01 -4.31770E+01 -4.33935E+01 -4.32344E+01 -4.29029E+01 -4.24424E+01 -4.17869E+01 -4.07030E+01 -3.80096E+01
  -2.94566E+01 -1.52201E+01  1.53514E+00  2.12444E+01  4.48111E+01  7.02298E+01  9.18805E+01  1.03421E+02  1.01290E+02  8.57851E+01
   6.04691E+01  3.15391E+01  5.84380E+00 -1.29304E+01 -2.48543E+01 -3.15042E+01 -3.45611E+01 -3.55573E+01 -3.53569E+01 -3.43306E+01
  -3.29536E+01 -3.17036E+01 -3.09128E+01 -3.07126E+01 -3.10064E+01 -3.15603E+01 -3.21427E+01 -3.26263E+01 -3.29842E+01 -3.32149E+01
  -3.33521E+01 -3.34268E+01 -3.34338E+01 -3.33984E+01 -3.34931E+01 -3.36924E+01 -3.38989E+01 -3.41322E+01 -3.43952E+01 -3.48359E+01
  -3.53797E+01 -3.56718E+01 -3.54985E+01 -3.49587E+01 -3.43771E+01 -3.41326E+01 -3.44986E+01 -3.54897E+01 -3.68977E+01 -3.84611E+01
  -3.98461E+01 -4.07311E+01 -4.12781E+01 -4.17473E+01 -4.22809E+01 -4.26353E+01 -4.24432E+01 -4.17139E+01 -4.07714E+01 -3.99287E+01
  -3.94327E+01 -3.91441E+01 -3.87138E+01 -3.79473E+01 -3.67149E+01 -3.49234E+01 -3.25869E+01 -2.97334E+01 -2.65727E+01 -2.35476E+01
  -2.11464E+01 -1.99461E+01 -2.00722E+01 -2.11138E+01 -2.23554E+01 -2.31826E+01 -2.31076E+01 -2.15828E+01 -1.87243E+01 -1.50867E+01
  -1.13732E+01 -8.33660E+00 -6.84407E+00 -7.46839E+00 -1.00253E+01 -1.44445E+01 -2.04439E+01 -2.67675E+01 -3.16156E+01 -3.32269E+01
  -3.12880E+01 -2.64487E+01 -1.94003E+01 -1.13015E+01 -3.95958E+00  6.52630E-01  1.47698E+00 -1.24004E+00 -6.65823E+00 -1.37124E+01
  -2.06308E+01 -2.54000E+01 -2.66339E+01 -2.41071E+01 -1.87387E+01 -1.19113E+01 -5.11148E+00  1.70374E-01  2.93353E+00  3.45355E+00
   2.84371E+00  1.93270E+00  1.32729E+00  1.59908E+00  2.96423E+00  5.02208E+00  7.18869E+00  9.01349E+00  1.00849E+01  9.97524E+00
   8.53296E+00  6.40018E+00  4.63370E+00  4.06354E+00  5.00496E+00  7.37502E+00  1.07877E+01  1.45499E+01  1.81865E+01  2.18599E+01
   2.56269E+01  2.96231E+01  3.53116E+01  4.78120E+01  6.87018E+01  9.23497E+01  1.17819E+02  1.46517E+02  1.76904E+02  2.02452E+02
   2.15054E+02  2.09824E+02  1.86593E+02  1.49448E+02  1.06385E+02  6.71087E+01  3.79482E+01  1.94765E+01  9.32480E+00  4.67077E+00
   2.78261E+00  1.84402E+00  1.35908E+00  1.13362E+00  9.84009E-01  7.87966E-01  4.75287E-01  1.46965E-02 -5.60996E-01 -1.15709E+00
  -1.67882E+00 -2.07374E+00 -2.33286E+00 -2.47455E+00 -2.53432E+00 -2.54528E+00 -2.53486E+00 -2.50930E+00 -2.45759E+00 -2.36227E+00
  -2.21038E+00 -1.99721E+00 -1.73265E+00 -1.42860E+00 -1.09903E+00 -7.56186E-01 -4.06726E-01 -4.83071E-02  3.24354E-01  7.16295E-01
   1.12781E+00  1.55614E+00  1.99319E+00  2.42895E+00  2.85258E+00  3.25764E+00  3.64098E+00  4.00362E+00  4.34871E+00  4.68232E+00
   5.00980E+00  5.33747E+00  5.67116E+00  6.01834E+00  6.38637E+00  6.78416E+00  7.22014E+00  7.70432E+00  8.24799E+00  8.87075E+00
   9.59681E+00  1.03796E+01  1.11723E+01  1.19825E+01  1.27955E+01  1.35567E+01  1.41993E+01  1.47007E+01  1.51516E+01  1.56758E+01
   1.63348E+01  1.72017E+01  1.83380E+01  1.97347E+01  2.12992E+01  2.29010E+01  2.44185E+01  2.57678E+01  2.69188E+01  2.79105E+01
   2.88443E+01  2.97481E+01  3.06023E+01  3.14320E+01  3.22230E+01  3.28968E+01  3.33506E+01  3.35518E+01  3.36237E+01  3.36844E+01
   3.38132E+01  3.41191E+01  3.46858E+01  3.54884E+01  3.63846E+01  3.71960E+01  3.77724E+01  3.80167E+01  3.79021E+01  3.74805E+01
   3.68568E+01  3.61286E+01  3.53486E+01  3.45390E+01  3.37059E+01  3.28451E+01  3.19550E+01  3.10441E+01  3.01235E+01  2.92065E+01
   2.83062E+01  2.74360E+01  2.66078E+01  2.58335E+01  2.51228E+01  2.44853E+01  2.39289E+01  2.34609E+01  2.30865E+01  2.28110E+01
   2.26379E+01  2.25706E+01  2.26114E+01  2.27621E+01  2.30229E+01  2.33942E+01  2.38743E+01  2.44610E+01  2.51502E+01  2.59364E+01
   2.68112E+01  2.77647E+01  2.87841E+01  2.98543E+01  3.09573E+01  3.20731E+01  3.31790E+01  3.42514E+01  3.52653E+01  3.61965E+01
   3.70204E+01  3.77153E+01  3.82612E+01  3.86427E+01  3.88481E+01  3.88712E+01  3.87100E+01  3.83689E+01  3.78562E+01  3.71860E+01
   3.63754E+01  3.54454E+01  3.44181E+01  3.33178E+01  3.21680E+01  3.09927E+01  2.98132E+01  2.86496E+01  2.75185E+01  2.64346E+01
   2.54087E+01  2.44496E+01  2.35626E+01  2.27511E+01  2.20155E+01  2.13554E+01  2.07681E+01  2.02505E+01  1.97981E+01  1.94064E+01
   1.90701E+01  1.87845E+01  1.85446E+01  1.83460E+01  1.81840E+01  1.80546E+01  1.79539E+01  1.78790E+01  1.78265E+01  1.77942E+01
   1.77793E+01  1.77800E+01  1.77941E+01  1.78206E+01  1.78577E+01  1.79045E+01  1.79595E+01  1.80221E+01  1.80912E+01  1.81665E+01
   1.82470E+01  1.83325E+01  1.84220E+01  1.85156E+01  1.86126E+01  1.87129E+01  1.88160E+01  1.89218E+01  1.90298E+01  1.91401E+01
   1.92523E+01  1.93665E+01  1.94822E+01  1.95996E+01  1.97181E+01  1.98382E+01  1.99594E+01  2.00819E+01  2.02052E+01  2.03296E+01
   2.04548E+01  2.05810E+01  2.07079E+01  2.08358E+01  2.09642E+01  2.10934E+01  2.12231E+01  2.13537E+01  2.14848E+01  2.16166E+01
   2.17488E+01  2.18817E+01  2.20151E+01  2.21492E+01  2.22838E+01  2.24191E+01  2.25548E+01  2.26912E+01  2.28282E+01  2.29661E+01
   2.31044E+01  2.32436E+01  2.33834E+01  2.35242E+01  2.36658E+01  2.38085E+01  2.39521E+01  2.40970E+01
 NY background values follow
    -1.005E+02   -1.000E+02   -9.951E+01   -9.901E+01   -9.851E+01   -9.800E+01   -9.750E+01   -9.699E+01   -9.649E+01   -9.599E+01
    -9.548E+01   -9.498E+01   -9.448E+01   -9.397E+01   -9.347E+01   -9.297E+01   -9.247E+01   -9.196E+01   -9.146E+01   -9.096E+01
    -9.046E+01   -8.996E+01   -8.946E+01   -8.896E+01   -8.846E+01   -8.796E+01   -8.747E+01   -8.697E+01   -8.647E+01   -8.598E+01
    -8.548E+01   -8.499E+01   -8.450E+01   -8.401E+01   -8.351E+01   -8.302E+01   -8.254E+01   -8.205E+01   -8.156E+01   -8.107E+01
    -8.059E+01   -8.010E+01   -7.962E+01   -7.914E+01   -7.866E+01   -7.818E+01   -7.770E+01   -7.723E+01   -7.675E+01   -7.628E+01
    -7.580E+01   -7.533E+01   -7.486E+01   -7.440E+01   -7.393E+01   -7.346E+01   -7.300E+01   -7.254E+01   -7.208E+01   -7.162E+01
    -7.116E+01   -7.070E+01   -7.025E+01   -6.980E+01   -6.934E+01   -6.889E+01   -6.845E+01   -6.800E+01   -6.756E+01   -6.711E+01
    -6.667E+01   -6.623E+01   -6.580E+01   -6.536E+01   -6.493E+01   -6.450E+01   -6.407E+01   -6.364E+01   -6.321E+01   -6.279E+01
    -6.236E+01   -6.194E+01   -6.153E+01   -6.111E+01   -6.070E+01   -6.028E+01   -5.987E+01   -5.947E+01   -5.906E+01   -5.866E+01
    -5.826E+01   -5.786E+01   -5.746E+01   -5.706E+01   -5.667E+01   -5.628E+01   -5.589E+01   -5.551E+01   -5.512E+01   -5.474E+01
    -5.436E+01   -5.398E+01   -5.361E+01   -5.323E+01   -5.286E+01   -5.250E+01   -5.213E+01   -5.176E+01   -5.140E+01   -5.104E+01
    -5.068E+01   -5.033E+01   -4.997E+01   -4.962E+01   -4.927E+01   -4.892E+01   -4.858E+01   -4.824E+01   -4.789E+01   -4.756E+01
    -4.722E+01   -4.688E+01   -4.655E+01   -4.622E+01   -4.589E+01   -4.557E+01   -4.524E+01   -4.492E+01   -4.460E+01   -4.428E+01
    -4.397E+01   -4.365E+01   -4.334E+01   -4.303E+01   -4.272E+01   -4.242E+01   -4.211E+01   -4.181E+01   -4.151E+01   -4.121E+01
    -4.092E+01   -4.063E+01   -4.033E+01   -4.004E+01   -3.976E+01   -3.947E+01   -3.919E+01   -3.890E+01   -3.862E+01   -3.834E+01
    -3.807E+01   -3.779E+01   -3.752E+01   -3.724E+01   -3.697E+01   -3.670E+01   -3.643E+01   -3.617E+01   -3.590E+01   -3.564E+01
    -3.538E+01   -3.512E+01   -3.486E+01   -3.460E+01   -3.434E+01   -3.408E+01   -3.383E+01   -3.357E+01   -3.332E+01   -3.307E+01
    -3.282E+01   -3.257E+01   -3.232E+01   -3.207E+01   -3.183E+01   -3.158E+01   -3.134E+01   -3.109E+01   -3.085E+01   -3.061E+01
    -3.037E+01   -3.012E+01   -2.988E+01   -2.964E+01   -2.941E+01   -2.917E+01   -2.893E+01   -2.869E+01   -2.846E+01   -2.822E+01
    -2.799E+01   -2.775E+01   -2.752E+01   -2.729E+01   -2.706E+01   -2.683E+01   -2.660E+01   -2.637E+01   -2.614E+01   -2.591E+01
    -2.568E+01   -2.546E+01   -2.523E+01   -2.501E+01   -2.478E+01   -2.456E+01   -2.434E+01   -2.412E+01   -2.389E+01   -2.367E+01
    -2.346E+01   -2.324E+01   -2.302E+01   -2.280E+01   -2.259E+01   -2.237E+01   -2.215E+01   -2.194E+01   -2.173E+01   -2.152E+01
    -2.130E+01   -2.109E+01   -2.088E+01   -2.067E+01   -2.047E+01   -2.026E+01   -2.005E+01   -1.985E+01   -1.964E+01   -1.944E+01
    -1.923E+01   -1.903E+01   -1.883E+01   -1.863E+01   -1.842E+01   -1.822E+01   -1.803E+01   -1.783E+01   -1.763E+01   -1.743E+01
    -1.723E+01   -1.704E+01   -1.684E+01   -1.665E+01   -1.645E+01   -1.626E+01   -1.606E+01   -1.587E+01   -1.568E+01   -1.549E+01
    -1.530E+01   -1.510E+01   -1.491E+01   -1.472E+01   -1.453E+01   -1.434E+01   -1.415E+01   -1.396E+01   -1.378E+01   -1.359E+01
    -1.340E+01   -1.321E+01   -1.302E+01   -1.284E+01   -1.265E+01   -1.246E+01   -1.227E+01   -1.209E+01   -1.190E+01   -1.171E+01
    -1.153E+01   -1.134E+01   -1.116E+01   -1.097E+01   -1.078E+01   -1.060E+01   -1.041E+01   -1.023E+01   -1.004E+01   -9.855E+00
    -9.669E+00   -9.484E+00   -9.298E+00   -9.113E+00   -8.928E+00   -8.743E+00   -8.557E+00   -8.372E+00   -8.187E+00   -8.002E+00
    -7.818E+00   -7.633E+00   -7.448E+00   -7.263E+00   -7.078E+00   -6.894E+00   -6.709E+00   -6.525E+00   -6.340E+00   -6.156E+00
    -5.971E+00   -5.787E+00   -5.603E+00   -5.419E+00   -5.234E+00   -5.050E+00   -4.866E+00   -4.682E+00   -4.498E+00   -4.314E+00
    -4.130E+00   -3.946E+00   -3.762E+00   -3.578E+00   -3.394E+00   -3.210E+00   -3.026E+00   -2.842E+00   -2.658E+00   -2.475E+00
    -2.291E+00   -2.107E+00   -1.924E+00   -1.740E+00   -1.557E+00   -1.373E+00   -1.190E+00   -1.007E+00   -8.235E-01   -6.405E-01
    -4.576E-01   -2.749E-01   -9.223E-02    9.025E-02    2.726E-01    4.548E-01    6.368E-01    8.186E-01    1.000E+00    1.182E+00
     1.363E+00    1.544E+00    1.725E+00    1.906E+00    2.086E+00    2.266E+00    2.446E+00    2.626E+00    2.805E+00    2.984E+00
     3.163E+00    3.342E+00    3.520E+00    3.698E+00    3.876E+00    4.054E+00    4.231E+00    4.407E+00    4.584E+00    4.760E+00
     4.936E+00    5.111E+00    5.286E+00    5.461E+00    5.635E+00    5.809E+00    5.983E+00    6.156E+00    6.329E+00    6.501E+00
     6.673E+00    6.845E+00    7.016E+00    7.187E+00    7.358E+00    7.528E+00    7.698E+00    7.867E+00    8.036E+00    8.205E+00
     8.373E+00    8.541E+00    8.709E+00    8.876E+00    9.042E+00    9.209E+00    9.375E+00    9.540E+00    9.706E+00    9.870E+00
     1.003E+01    1.020E+01    1.036E+01    1.053E+01    1.069E+01    1.085E+01    1.101E+01    1.117E+01    1.134E+01    1.150E+01
     1.166E+01    1.182E+01    1.198E+01    1.214E+01    1.230E+01    1.245E+01    1.261E+01    1.277E+01    1.293E+01    1.308E+01
     1.324E+01    1.340E+01    1.355E+01    1.371E+01    1.386E+01    1.402E+01    1.417E+01    1.432E+01    1.448E+01    1.463E+01
     1.478E+01    1.493E+01    1.509E+01    1.524E+01    1.539E+01    1.554E+01    1.569E+01    1.584E+01    1.599E+01    1.614E+01
     1.629E+01    1.644E+01    1.658E+01    1.673E+01    1.688E+01    1.703E+01    1.717E+01    1.732E+01    1.747E+01    1.761E+01
     1.776E+01    1.790E+01    1.805E+01    1.819E+01    1.834E+01    1.848E+01    1.862E+01    1.877E+01    1.891E+01    1.905E+01
     1.920E+01    1.934E+01    1.948E+01    1.962E+01    1.976E+01    1.990E+01    2.004E+01    2.018E+01    2.032E+01    2.046E+01
     2.060E+01    2.074E+01    2.088E+01    2.102E+01    2.116E+01    2.130E+01    2.143E+01    2.157E+01    2.171E+01    2.185E+01
     2.198E+01    2.212E+01    2.226E+01    2.240E+01    2.253E+01    2.267E+01    2.281E+01    2.294E+01    2.308E+01    2.321E+01
     2.335E+01    2.348E+01    2.362E+01    2.376E+01    2.389E+01    2.403E+01    2.416E+01    2.430E+01    2.443E+01    2.457E+01
     2.470E+01    2.484E+01    2.497E+01    2.511E+01    2.524E+01    2.538E+01    2.551E+01    2.565E+01
 Ala      Conc. = 1.16E+02
