 LCModel (Version 6.3-1L) Copyright: S.W. Provencher.          Ref.: Magn. Reson. Med. 30:672-679 (1993).                
 Slice#3 Row#9 Col#5  PD_05_press_2_raw_act
 36 lines in following concentration table = NCONC+1
    Conc.  %SD /Cr+PCr  Metabolite                                         
    0.000 999%   0.000 Ala                                                 
    0.000 999%   0.000 Asp                                                 
  570.625 115%   0.151 Cr                                                  
 3.21E+03  21%   0.849 PCr                                                 
    0.000 999%   0.000 GABA                                                
    0.000 999%   0.000 Glc                                                 
 3.12E+03  20%   0.825 Gln                                                 
 3.36E+03  20%   0.887 Glu                                                 
 1.12E+03   4%   0.295 GPC                                                 
    0.000 999%   0.000 PCh                                                 
 1.30E+03  13%   0.344 GSH                                                 
 2.32E+03  24%   0.613 Ins                                                 
  376.657  82%   0.100 Lac                                                 
 5.72E+03   5%   1.511 NAA                                                 
   63.536 521% 1.7E-02 NAAG                                                
  135.424  44% 3.6E-02 Scyllo                                              
    0.000 999%   0.000 Tau                                                 
 1.75E+03  15%   0.464 -CrCH2                                              
 1.12E+03   4%   0.295 GPC+PCh                                             
 5.78E+03   3%   1.528 NAA+NAAG                                            
 3.78E+03   3%   1.000 Cr+PCr                                              
 6.48E+03  16%   1.712 Glu+Gln                                             
 1.40E+03  39%   0.370 Lip13a                                              
    0.000 999%   0.000 Lip13b                                              
    0.000 999%   0.000 Lip09                                               
 2.30E+03  14%   0.608 MM09                                                
  226.830 111% 6.0E-02 Lip20                                               
 5.53E+03  12%   1.460 MM20                                                
  846.489  28%   0.224 MM12                                                
 1.26E+03  40%   0.332 MM14                                                
 1.86E+03  22%   0.490 MM17                                                
 1.40E+03  39%   0.370 Lip13a+Lip13b                                       
 3.50E+03  18%   0.926 MM14+Lip13a+Lip13b+MM12                             
 2.30E+03  14%   0.608 MM09+Lip09                                          
 5.75E+03  12%   1.520 MM20+Lip20                                          
   6 lines in following misc. output table
  FWHM = 0.061 ppm    S/N =  13                                            
  Data shift =-0.015 ppm                                                   
  Ph:  -4 deg      -1.7 deg/ppm                                            
  alphaB,S = 2.7E+00,   1.0E+02                                            
   14 spline knots.   Ns = 8(1)                                            
  (15) 5 infls.   (15) 1 extrs.                                            
  498 points on ppm-axis = NY
      4.000000     3.992357     3.984714     3.977070     3.969427     3.961784     3.954141     3.946497     3.938854     3.931211
      3.923568     3.915925     3.908281     3.900638     3.892995     3.885352     3.877708     3.870065     3.862422     3.854779
      3.847136     3.839492     3.831849     3.824206     3.816563     3.808919     3.801276     3.793633     3.785990     3.778347
      3.770703     3.763060     3.755417     3.747774     3.740130     3.732487     3.724844     3.717201     3.709558     3.701914
      3.694271     3.686628     3.678985     3.671341     3.663698     3.656055     3.648412     3.640769     3.633125     3.625482
      3.617839     3.610196     3.602552     3.594909     3.587266     3.579623     3.571980     3.564336     3.556693     3.549050
      3.541407     3.533763     3.526120     3.518477     3.510834     3.503191     3.495547     3.487904     3.480261     3.472618
      3.464974     3.457331     3.449688     3.442045     3.434402     3.426758     3.419115     3.411472     3.403829     3.396185
      3.388542     3.380899     3.373256     3.365613     3.357969     3.350326     3.342683     3.335040     3.327396     3.319753
      3.312110     3.304467     3.296824     3.289180     3.281537     3.273894     3.266251     3.258607     3.250964     3.243321
      3.235678     3.228034     3.220391     3.212748     3.205105     3.197462     3.189818     3.182175     3.174532     3.166889
      3.159245     3.151602     3.143959     3.136316     3.128673     3.121029     3.113386     3.105743     3.098100     3.090456
      3.082813     3.075170     3.067527     3.059884     3.052240     3.044597     3.036954     3.029311     3.021667     3.014024
      3.006381     2.998738     2.991095     2.983451     2.975808     2.968165     2.960522     2.952878     2.945235     2.937592
      2.929949     2.922306     2.914662     2.907019     2.899376     2.891733     2.884089     2.876446     2.868803     2.861160
      2.853517     2.845873     2.838230     2.830587     2.822944     2.815300     2.807657     2.800014     2.792371     2.784728
      2.777084     2.769441     2.761798     2.754155     2.746511     2.738868     2.731225     2.723582     2.715939     2.708295
      2.700652     2.693009     2.685366     2.677722     2.670079     2.662436     2.654793     2.647150     2.639506     2.631863
      2.624220     2.616577     2.608933     2.601290     2.593647     2.586004     2.578361     2.570717     2.563074     2.555431
      2.547788     2.540144     2.532501     2.524858     2.517215     2.509572     2.501928     2.494285     2.486642     2.478999
      2.471355     2.463712     2.456069     2.448426     2.440783     2.433139     2.425496     2.417853     2.410210     2.402566
      2.394923     2.387280     2.379637     2.371994     2.364350     2.356707     2.349064     2.341421     2.333777     2.326134
      2.318491     2.310848     2.303205     2.295561     2.287918     2.280275     2.272632     2.264988     2.257345     2.249702
      2.242059     2.234416     2.226772     2.219129     2.211486     2.203843     2.196199     2.188556     2.180913     2.173270
      2.165627     2.157983     2.150340     2.142697     2.135054     2.127410     2.119767     2.112124     2.104481     2.096838
      2.089194     2.081551     2.073908     2.066265     2.058621     2.050978     2.043335     2.035692     2.028049     2.020405
      2.012762     2.005119     1.997476     1.989833     1.982190     1.974546     1.966903     1.959260     1.951617     1.943974
      1.936331     1.928688     1.921045     1.913402     1.905759     1.898115     1.890472     1.882829     1.875186     1.867543
      1.859900     1.852257     1.844614     1.836971     1.829327     1.821684     1.814041     1.806398     1.798755     1.791112
      1.783469     1.775826     1.768183     1.760540     1.752896     1.745253     1.737610     1.729967     1.722324     1.714681
      1.707038     1.699395     1.691752     1.684108     1.676465     1.668822     1.661179     1.653536     1.645893     1.638250
      1.630607     1.622964     1.615321     1.607677     1.600034     1.592391     1.584748     1.577105     1.569462     1.561819
      1.554176     1.546533     1.538890     1.531246     1.523603     1.515960     1.508317     1.500674     1.493031     1.485388
      1.477745     1.470102     1.462458     1.454815     1.447172     1.439529     1.431886     1.424243     1.416600     1.408957
      1.401314     1.393671     1.386027     1.378384     1.370741     1.363098     1.355455     1.347812     1.340169     1.332526
      1.324883     1.317240     1.309596     1.301953     1.294310     1.286667     1.279024     1.271381     1.263738     1.256095
      1.248452     1.240808     1.233165     1.225522     1.217879     1.210236     1.202593     1.194950     1.187307     1.179664
      1.172021     1.164377     1.156734     1.149091     1.141448     1.133805     1.126162     1.118519     1.110876     1.103233
      1.095590     1.087946     1.080303     1.072660     1.065017     1.057374     1.049731     1.042088     1.034445     1.026802
      1.019158     1.011515     1.003872     0.996229     0.988586     0.980943     0.973300     0.965657     0.958014     0.950371
      0.942727     0.935084     0.927441     0.919798     0.912155     0.904512     0.896869     0.889226     0.881583     0.873940
      0.866296     0.858653     0.851010     0.843367     0.835724     0.828081     0.820438     0.812795     0.805152     0.797508
      0.789865     0.782222     0.774579     0.766936     0.759293     0.751650     0.744007     0.736364     0.728721     0.721077
      0.713434     0.705791     0.698148     0.690505     0.682862     0.675219     0.667576     0.659933     0.652290     0.644646
      0.637003     0.629360     0.621717     0.614074     0.606431     0.598788     0.591145     0.583502     0.575858     0.568215
      0.560572     0.552929     0.545286     0.537643     0.530000     0.522357     0.514714     0.507071     0.499427     0.491784
      0.484141     0.476498     0.468855     0.461212     0.453569     0.445925     0.438282     0.430639     0.422996     0.415353
      0.407710     0.400067     0.392424     0.384780     0.377137     0.369494     0.361851     0.354208     0.346565     0.338922
      0.331278     0.323635     0.315992     0.308349     0.300706     0.293063     0.285420     0.277777     0.270133     0.262490
      0.254847     0.247204     0.239561     0.231918     0.224275     0.216631     0.208988     0.201345
 NY phased data points follow
  -6.03494E+01 -4.28634E+01 -4.65909E+01 -3.36827E+01 -3.97518E+01 -1.68878E+01 -1.33936E+01 -3.76396E-01 -2.89082E+00  8.68713E+00
   1.41060E+01  1.23848E+01  1.46404E+01 -3.12769E-01 -4.62702E+00 -1.73583E+01 -3.07484E+01 -2.27672E+01 -3.00782E+01 -3.07725E+01
  -2.55130E+01 -2.76931E+01 -2.43324E+01 -1.77823E+01 -2.60741E+01 -1.75154E+01 -2.22177E+01 -1.63431E+01 -1.47069E+01 -1.66194E+00
  -1.24511E+01 -9.54476E+00 -1.26138E+01 -1.35940E+01 -1.41809E+01 -1.79312E+01 -2.75039E+01 -2.42978E+01 -2.34082E+01 -1.52065E+01
  -2.36807E+01 -1.47237E+01 -1.72556E+01 -8.45678E+00 -1.37612E+01 -1.71189E+01 -1.52665E+01 -9.01001E+00 -1.93563E+01 -1.18757E+01
  -1.72282E+01 -2.02090E+01 -2.94417E+01 -2.21839E+01 -3.25730E+01 -2.35429E+01 -2.93461E+01 -2.51211E+01 -3.17491E+01 -2.94756E+01
  -3.58970E+01 -2.31826E+01 -3.84525E+01 -3.54465E+01 -4.46791E+01 -3.76252E+01 -3.88311E+01 -3.71993E+01 -3.95040E+01 -2.98906E+01
  -4.76130E+01 -2.76610E+01 -3.65121E+01 -2.87776E+01 -3.56769E+01 -3.11262E+01 -2.63822E+01 -2.87200E+01 -2.64089E+01 -3.34864E+01
  -3.19358E+01 -2.88310E+01 -2.93879E+01 -2.42902E+01 -2.75038E+01 -3.06097E+01 -3.03784E+01 -2.85980E+01 -3.20089E+01 -2.86380E+01
  -2.65194E+01 -2.13211E+01 -2.17900E+01 -1.81993E+01 -1.72122E+01 -6.46197E+00 -1.28521E+01  7.31669E+00  1.76858E+00  1.84639E+01
   2.51195E+01  3.63208E+01  4.04113E+01  5.49202E+01  5.78535E+01  4.24942E+01  3.32597E+01  2.09438E+01  8.45539E+00 -1.02504E-02
  -3.88856E+00 -1.43559E+01 -1.02762E+01 -1.39525E+01 -1.98378E+01 -1.85406E+01 -1.78515E+01 -7.12549E+00 -9.05240E+00 -8.83032E+00
  -4.38058E-01  9.49076E+00  1.61171E+01  2.82139E+01  4.56605E+01  5.95655E+01  6.39795E+01  8.55273E+01  7.46484E+01  5.81849E+01
   5.57891E+01  3.44842E+01  2.04112E+01  1.70474E+01 -5.18881E+00 -2.64606E+00 -1.78732E+01 -1.63813E+01 -2.49681E+01 -2.57984E+01
  -1.98401E+01 -1.81397E+01 -2.89271E+01 -2.41465E+01 -3.00822E+01 -2.15001E+01 -2.57565E+01 -2.00732E+01 -2.71768E+01 -2.82999E+01
  -2.32298E+01 -1.91484E+01 -1.84903E+01 -2.70054E+01 -2.76178E+01 -2.94415E+01 -2.94032E+01 -3.46616E+01 -3.36565E+01 -2.98745E+01
  -2.90417E+01 -2.45765E+01 -3.12668E+01 -2.75471E+01 -2.47729E+01 -3.24654E+01 -2.96580E+01 -2.19093E+01 -3.19578E+01 -3.14447E+01
  -3.60119E+01 -3.36729E+01 -3.98767E+01 -3.88028E+01 -5.18631E+01 -5.52895E+01 -4.38645E+01 -4.56106E+01 -4.21118E+01 -4.98250E+01
  -4.87202E+01 -3.95472E+01 -4.94778E+01 -4.71604E+01 -4.27558E+01 -3.01856E+01 -3.63400E+01 -3.17525E+01 -2.76193E+01 -2.15220E+01
  -1.97537E+01 -1.13918E+01 -8.11943E+00 -1.38878E+01 -8.05450E+00 -4.94620E+00 -1.88592E+01 -1.21976E+01 -1.77292E+01 -2.15023E+01
  -1.81944E+01 -1.15425E+01 -1.14232E+01 -1.82318E+01 -1.43708E+01 -1.23602E+01 -1.31005E+01 -2.30322E+01 -2.84003E+01 -1.48607E+01
  -3.51380E+01 -3.02257E+01 -1.86419E+01 -7.98261E+00 -2.23670E+00  3.90816E+00 -6.98792E+00  2.34423E+00 -2.97142E+00 -3.22703E+00
  -5.00514E+00 -1.01217E+01 -1.89861E+01 -9.38754E+00 -1.13451E+01 -1.61878E+01 -1.10360E+01 -3.93021E+00 -8.68487E+00 -3.23316E-01
   3.77054E+00  1.42003E-01  1.58627E+00 -5.71101E+00  6.45439E-01 -2.30366E+00 -1.90852E-01  1.13196E+00 -7.32345E+00 -3.39408E+00
  -1.61702E+00 -2.30925E+00 -6.13426E+00 -6.00284E+00 -1.27299E+01  1.27358E+00 -7.91486E+00  6.72059E+00  1.60935E+00  1.56460E+01
   6.58157E+00  1.35900E+01  2.11223E+01  3.28833E+01  4.90933E+01  6.16201E+01  8.47972E+01  1.06450E+02  1.21770E+02  1.39087E+02
   1.49175E+02  1.58367E+02  1.49869E+02  1.31323E+02  1.03013E+02  6.87941E+01  5.52061E+01  4.65605E+01  3.18375E+01  2.34331E+01
   5.23100E+00  1.32622E+01  1.49938E+01  1.29248E+01 -4.45101E+00  5.26485E+00  1.37242E+00  5.86318E+00 -4.36416E+00 -4.39389E+00
  -3.80351E+00  2.26005E+00 -2.30249E+00 -3.97270E+00  1.50083E+00 -4.82657E+00 -9.24938E-01  7.83647E-01 -1.35454E+01 -6.47629E+00
  -2.54625E+00 -7.15329E+00 -7.58374E+00  1.01342E+00  4.01968E+00  8.18243E+00  1.19357E+00  3.55391E+00 -8.41647E+00 -1.05502E+00
   3.70293E+00 -6.06432E-01  8.06205E+00 -5.27003E+00  3.58242E+00  4.22718E+00 -8.03451E+00 -1.94647E+00 -7.38336E+00  8.17901E-01
   7.52596E+00  6.18704E+00  8.71094E+00  1.33745E+01  9.82662E+00  1.70040E+00  6.02589E+00  1.31028E+00 -2.90912E+00 -4.99536E+00
   2.72017E-01 -2.54762E+00  2.35350E+00  3.41577E+00  2.28275E+00  1.98308E+00 -4.39744E-01  4.68525E+00 -3.47390E+00 -1.08435E+00
   5.93632E+00  6.82621E+00 -2.54693E+00  1.96999E+00  2.74221E+00  6.32670E+00  3.33749E-01  3.63969E+00 -8.35473E+00  4.16453E+00
  -4.68083E-01  4.39258E+00  1.14398E+00  9.05910E-02  9.35194E-01  4.41571E+00  5.01260E+00  1.48872E+00  4.14925E+00 -3.84076E-01
   2.59334E+00  1.98705E+00 -1.75096E+00  7.30654E-01  3.34263E+00  5.25989E+00  1.16974E+01  2.42490E+00  4.55567E+00  9.17001E+00
   8.21913E+00  1.26221E+01  9.31010E+00  5.98225E+00  7.29937E+00  1.14645E+01  7.06299E+00  3.40463E+00  3.99321E+00  9.11409E+00
   9.18695E-01  3.82956E+00  7.65747E+00  3.23577E+00  5.15402E+00  5.58283E+00  1.04131E+00  1.51192E+01  5.20579E+00  8.55688E+00
   9.05725E+00  2.98196E+00 -1.10700E+00  4.20246E+00  1.25345E+01  1.81295E+00  3.69456E+00  4.56509E-01 -1.24649E+00 -1.92504E+00
   9.31230E+00  4.84299E+00  8.74909E-01  3.91014E+00  1.59218E+00  3.65540E-01  1.90503E+00  1.09415E+01  3.11275E+00  9.70499E+00
   5.84039E+00  8.20001E+00  6.51088E+00  1.25504E+01  1.04428E+01  1.97100E+01  6.25370E+00  1.55379E+01  1.23873E+01  1.28348E+01
   1.89160E+01  8.35881E+00  9.39273E+00  1.68146E+01  5.70147E+00  1.43717E+01  1.08707E+01  4.05562E+00  9.05533E+00  2.84919E+00
   5.02905E+00  1.01798E+01  4.29675E+00  5.74883E-01 -3.07295E+00  2.37451E+00  1.75532E+00 -1.27213E+00  2.23473E+00  1.00155E+01
   5.02445E+00 -4.53761E+00  5.03756E-01 -7.97119E-01 -5.00852E+00  9.03566E+00  3.35788E-01  1.60436E+00  6.36468E+00 -8.67959E+00
  -2.29727E+00 -4.37299E-01  1.39337E+00  1.40317E+00  4.58573E+00  3.63753E+00  1.24440E+01  1.77723E+00  4.11601E+00  6.24434E+00
   2.15575E+00 -9.13337E-01  3.00712E+00 -8.61690E-01 -7.68722E-01  1.08007E+01 -2.78616E+00 -6.82845E+00  3.40065E+00  5.55769E+00
   9.35295E-01 -4.23248E+00  2.05218E+00  7.01349E-01 -1.64068E+00  1.60296E+00  2.02016E-01 -2.07274E+00  1.03899E+00 -1.31000E+00
  -6.56909E+00 -1.99766E+00 -4.30505E+00 -3.63549E+00 -3.20574E+00  4.98095E+00 -3.87409E+00  5.02131E-01  2.27533E+00  6.67374E+00
   3.05153E-01  5.39540E+00 -1.45087E+00 -4.85376E+00 -8.84073E+00 -1.40103E+00 -1.28224E+00  7.77068E+00  2.98246E+00 -1.01237E+00
   7.29386E+00  1.62401E+00  1.68605E+00 -3.43585E+00  5.07596E+00 -6.40092E-01 -3.13859E-01 -2.37130E+00
 NY points of the fit to the data follow
  -3.86937E+01 -3.81991E+01 -3.41387E+01 -3.02991E+01 -2.69339E+01 -2.20981E+01 -1.58878E+01 -9.38498E+00 -2.32547E+00  5.15439E+00
   1.07209E+01  1.20861E+01  8.60278E+00  1.15878E+00 -7.12225E+00 -1.30712E+01 -1.59348E+01 -1.82647E+01 -2.28632E+01 -2.72788E+01
  -2.94038E+01 -3.00928E+01 -2.89177E+01 -2.70412E+01 -2.50700E+01 -2.26839E+01 -1.96131E+01 -1.59125E+01 -1.21532E+01 -8.47848E+00
  -5.55075E+00 -4.57518E+00 -6.01645E+00 -9.67507E+00 -1.48137E+01 -1.97665E+01 -2.37176E+01 -2.64299E+01 -2.80408E+01 -2.83556E+01
  -2.69989E+01 -2.51911E+01 -2.31151E+01 -2.08485E+01 -1.89295E+01 -1.74690E+01 -1.66292E+01 -1.66225E+01 -1.78073E+01 -2.02295E+01
  -2.32236E+01 -2.58592E+01 -2.76892E+01 -2.85038E+01 -2.87439E+01 -2.91169E+01 -2.95773E+01 -2.95256E+01 -2.90708E+01 -2.87567E+01
  -2.88376E+01 -2.92271E+01 -2.99327E+01 -3.06785E+01 -3.12371E+01 -3.14645E+01 -3.12720E+01 -3.08251E+01 -3.03320E+01 -2.98389E+01
  -2.94299E+01 -2.90771E+01 -2.88639E+01 -2.88390E+01 -2.89812E+01 -2.92399E+01 -2.95017E+01 -2.95973E+01 -2.94020E+01 -2.90145E+01
  -2.89043E+01 -2.88415E+01 -2.85976E+01 -2.82960E+01 -2.80814E+01 -2.79186E+01 -2.78198E+01 -2.79157E+01 -2.81768E+01 -2.84965E+01
  -2.86893E+01 -2.85019E+01 -2.78337E+01 -2.67564E+01 -2.47818E+01 -1.92222E+01 -1.01073E+01 -1.51921E+00  6.87822E+00  1.69866E+01
   2.80866E+01  3.83978E+01  4.71731E+01  5.32223E+01  5.37784E+01  4.73524E+01  3.53649E+01  2.06728E+01  7.19902E+00 -2.29943E+00
  -8.46843E+00 -1.39171E+01 -2.03712E+01 -2.52394E+01 -2.63527E+01 -2.61226E+01 -2.54276E+01 -2.41803E+01 -2.13484E+01 -1.33942E+01
  -1.75910E+00  8.75852E+00  1.95013E+01  3.24527E+01  4.62678E+01  5.89778E+01  6.98295E+01  7.68257E+01  7.66196E+01  6.80747E+01
   5.30235E+01  3.51097E+01  1.91505E+01  7.89845E+00 -1.52308E-02 -7.90691E+00 -1.71169E+01 -2.34114E+01 -2.47854E+01 -2.42625E+01
  -2.31112E+01 -2.20151E+01 -2.14523E+01 -2.14046E+01 -2.15756E+01 -2.19587E+01 -2.24769E+01 -2.29872E+01 -2.35115E+01 -2.40474E+01
  -2.45954E+01 -2.50957E+01 -2.54322E+01 -2.58828E+01 -2.63843E+01 -2.67083E+01 -2.68867E+01 -2.69444E+01 -2.71011E+01 -2.74584E+01
  -2.78661E+01 -2.81874E+01 -2.83381E+01 -2.82754E+01 -2.80556E+01 -2.79340E+01 -2.82614E+01 -2.91637E+01 -3.05059E+01 -3.18336E+01
  -3.25108E+01 -3.28803E+01 -3.34191E+01 -3.42475E+01 -3.50953E+01 -3.54622E+01 -3.54426E+01 -3.52910E+01 -3.49815E+01 -3.46862E+01
  -3.44435E+01 -3.41072E+01 -3.36358E+01 -3.27885E+01 -3.13426E+01 -2.94555E+01 -2.76143E+01 -2.58950E+01 -2.40077E+01 -2.19262E+01
  -2.01841E+01 -1.91907E+01 -1.91475E+01 -1.97436E+01 -2.04728E+01 -2.08485E+01 -2.02732E+01 -1.87616E+01 -1.66879E+01 -1.41292E+01
  -1.14990E+01 -9.47358E+00 -8.84405E+00 -9.17938E+00 -1.05813E+01 -1.36127E+01 -1.77625E+01 -2.16690E+01 -2.47421E+01 -2.63141E+01
  -2.63072E+01 -2.41299E+01 -2.00093E+01 -1.51495E+01 -1.08184E+01 -8.00818E+00 -6.63093E+00 -6.23827E+00 -7.27738E+00 -9.96499E+00
  -1.38569E+01 -1.71668E+01 -1.87467E+01 -1.88705E+01 -1.78146E+01 -1.55386E+01 -1.24207E+01 -9.21539E+00 -7.21104E+00 -5.97608E+00
  -5.02677E+00 -4.33289E+00 -3.53144E+00 -2.54619E+00 -1.83634E+00 -1.34855E+00 -6.95466E-01  1.40642E-01  7.49810E-01  7.14279E-01
   1.94042E-02 -1.36961E+00 -3.19857E+00 -4.56562E+00 -4.78599E+00 -3.83142E+00 -2.16173E+00  8.43858E-02  2.54974E+00  4.73512E+00
   6.84886E+00  1.01399E+01  1.95431E+01  3.65431E+01  5.24397E+01  6.72085E+01  8.49598E+01  1.04932E+02  1.23576E+02  1.39860E+02
   1.52696E+02  1.57139E+02  1.49059E+02  1.29765E+02  1.03695E+02  7.78162E+01  5.83133E+01  4.52310E+01  3.40444E+01  2.06270E+01
   8.68284E+00  3.91872E+00  1.98711E+00  7.89272E-01 -2.00555E-02 -5.16209E-01 -9.57715E-01 -1.44256E+00 -1.95382E+00 -2.46774E+00
  -2.93852E+00 -3.32861E+00 -3.65154E+00 -3.93285E+00 -4.14542E+00 -4.25763E+00 -4.28860E+00 -4.26117E+00 -4.17986E+00 -4.03219E+00
  -3.81101E+00 -3.53555E+00 -3.21597E+00 -2.84634E+00 -2.43282E+00 -1.98405E+00 -1.50867E+00 -1.01394E+00 -5.10361E-01 -1.02976E-02
   4.74331E-01  9.33025E-01  1.35355E+00  1.72641E+00  2.04202E+00  2.29355E+00  2.47465E+00  2.58395E+00  2.62166E+00  2.59239E+00
   2.50189E+00  2.35908E+00  2.17171E+00  1.95071E+00  1.70747E+00  1.45461E+00  1.20233E+00  9.61147E-01  7.38903E-01  5.43871E-01
   3.81210E-01  2.55873E-01  1.69246E-01  1.22526E-01  1.13976E-01  1.42437E-01  2.04338E-01  2.96821E-01  4.14912E-01  5.55108E-01
   7.12873E-01  8.85986E-01  1.07163E+00  1.26959E+00  1.47990E+00  1.70692E+00  1.95855E+00  2.25420E+00  2.64119E+00  3.22081E+00
   3.82654E+00  4.21102E+00  4.51634E+00  4.81607E+00  4.97591E+00  4.87107E+00  4.49701E+00  4.06275E+00  3.54969E+00  2.83151E+00
   2.13805E+00  1.81146E+00  2.03249E+00  2.74185E+00  3.75169E+00  4.85233E+00  5.83651E+00  6.69723E+00  7.32876E+00  7.50517E+00
   7.38308E+00  7.20172E+00  7.05245E+00  6.84694E+00  6.42341E+00  5.93671E+00  5.54664E+00  5.19804E+00  4.86139E+00  4.52875E+00
   4.19825E+00  3.87230E+00  3.55375E+00  3.24739E+00  2.95735E+00  2.68904E+00  2.44679E+00  2.23577E+00  2.05981E+00  1.92353E+00
   1.83030E+00  1.78435E+00  1.78858E+00  1.84655E+00  1.96047E+00  2.13321E+00  2.36631E+00  2.66178E+00  3.01987E+00  3.44083E+00
   3.92286E+00  4.46384E+00  5.05930E+00  5.70403E+00  6.39000E+00  7.10819E+00  7.84690E+00  8.59376E+00  9.33416E+00  1.00533E+01
   1.07351E+01  1.13639E+01  1.19244E+01  1.24031E+01  1.27879E+01  1.30697E+01  1.32413E+01  1.32997E+01  1.32442E+01  1.30785E+01
   1.28084E+01  1.24431E+01  1.19932E+01  1.14718E+01  1.08925E+01  1.02702E+01  9.61849E+00  8.95140E+00  8.28092E+00  7.61853E+00
   6.97338E+00  6.35360E+00  5.76477E+00  5.21149E+00  4.69613E+00  4.22047E+00  3.78448E+00  3.38783E+00  3.02868E+00  2.70538E+00
   2.41528E+00  2.15628E+00  1.92553E+00  1.72077E+00  1.53914E+00  1.37857E+00  1.23661E+00  1.11163E+00  1.00155E+00  9.05021E-01
   8.20213E-01  7.46139E-01  6.81422E-01  6.25411E-01  5.76924E-01  5.35412E-01  4.99860E-01  4.69963E-01  4.44972E-01  4.24725E-01
   4.08506E-01  3.96147E-01  3.87036E-01  3.81193E-01  3.78156E-01  3.77945E-01  3.80044E-01  3.84467E-01  3.90806E-01  3.99200E-01
   4.09306E-01  4.21207E-01  4.34491E-01  4.49258E-01  4.65225E-01  4.82581E-01  5.01020E-01  5.20639E-01  5.41099E-01  5.62552E-01
   5.84778E-01  6.07970E-01  6.31855E-01  6.56525E-01  6.81709E-01  7.07588E-01  7.33983E-01  7.61057E-01  7.88544E-01  8.16539E-01
   8.44820E-01  8.73579E-01  9.02653E-01  9.32172E-01  9.61878E-01  9.91872E-01  1.02198E+00  1.05239E+00  1.08293E+00  1.11368E+00
   1.14441E+00  1.17521E+00  1.20595E+00  1.23678E+00  1.26749E+00  1.29814E+00  1.32850E+00  1.35865E+00
 NY background values follow
    -4.611E+01   -4.598E+01   -4.586E+01   -4.573E+01   -4.560E+01   -4.548E+01   -4.535E+01   -4.523E+01   -4.510E+01   -4.498E+01
    -4.485E+01   -4.472E+01   -4.460E+01   -4.447E+01   -4.435E+01   -4.422E+01   -4.410E+01   -4.397E+01   -4.384E+01   -4.372E+01
    -4.359E+01   -4.347E+01   -4.334E+01   -4.322E+01   -4.309E+01   -4.296E+01   -4.284E+01   -4.271E+01   -4.259E+01   -4.246E+01
    -4.234E+01   -4.221E+01   -4.208E+01   -4.196E+01   -4.183E+01   -4.171E+01   -4.158E+01   -4.146E+01   -4.133E+01   -4.121E+01
    -4.108E+01   -4.096E+01   -4.083E+01   -4.071E+01   -4.058E+01   -4.046E+01   -4.033E+01   -4.021E+01   -4.008E+01   -3.996E+01
    -3.983E+01   -3.971E+01   -3.958E+01   -3.946E+01   -3.933E+01   -3.921E+01   -3.908E+01   -3.896E+01   -3.883E+01   -3.871E+01
    -3.859E+01   -3.846E+01   -3.834E+01   -3.821E+01   -3.809E+01   -3.797E+01   -3.784E+01   -3.772E+01   -3.760E+01   -3.747E+01
    -3.735E+01   -3.723E+01   -3.710E+01   -3.698E+01   -3.686E+01   -3.673E+01   -3.661E+01   -3.649E+01   -3.637E+01   -3.624E+01
    -3.612E+01   -3.600E+01   -3.588E+01   -3.576E+01   -3.563E+01   -3.551E+01   -3.539E+01   -3.527E+01   -3.515E+01   -3.503E+01
    -3.491E+01   -3.478E+01   -3.466E+01   -3.454E+01   -3.442E+01   -3.430E+01   -3.418E+01   -3.406E+01   -3.394E+01   -3.382E+01
    -3.370E+01   -3.358E+01   -3.346E+01   -3.334E+01   -3.322E+01   -3.310E+01   -3.298E+01   -3.287E+01   -3.275E+01   -3.263E+01
    -3.251E+01   -3.239E+01   -3.227E+01   -3.215E+01   -3.204E+01   -3.192E+01   -3.180E+01   -3.168E+01   -3.156E+01   -3.145E+01
    -3.133E+01   -3.121E+01   -3.109E+01   -3.098E+01   -3.086E+01   -3.074E+01   -3.063E+01   -3.051E+01   -3.039E+01   -3.028E+01
    -3.016E+01   -3.004E+01   -2.993E+01   -2.981E+01   -2.970E+01   -2.958E+01   -2.946E+01   -2.935E+01   -2.923E+01   -2.912E+01
    -2.900E+01   -2.889E+01   -2.877E+01   -2.866E+01   -2.854E+01   -2.843E+01   -2.831E+01   -2.820E+01   -2.808E+01   -2.797E+01
    -2.786E+01   -2.774E+01   -2.763E+01   -2.751E+01   -2.740E+01   -2.728E+01   -2.717E+01   -2.706E+01   -2.694E+01   -2.683E+01
    -2.672E+01   -2.660E+01   -2.649E+01   -2.637E+01   -2.626E+01   -2.615E+01   -2.603E+01   -2.592E+01   -2.581E+01   -2.569E+01
    -2.558E+01   -2.547E+01   -2.535E+01   -2.524E+01   -2.513E+01   -2.502E+01   -2.490E+01   -2.479E+01   -2.468E+01   -2.456E+01
    -2.445E+01   -2.434E+01   -2.422E+01   -2.411E+01   -2.400E+01   -2.388E+01   -2.377E+01   -2.366E+01   -2.355E+01   -2.343E+01
    -2.332E+01   -2.321E+01   -2.310E+01   -2.298E+01   -2.287E+01   -2.276E+01   -2.265E+01   -2.253E+01   -2.242E+01   -2.231E+01
    -2.220E+01   -2.209E+01   -2.197E+01   -2.186E+01   -2.175E+01   -2.164E+01   -2.153E+01   -2.142E+01   -2.131E+01   -2.120E+01
    -2.109E+01   -2.098E+01   -2.087E+01   -2.076E+01   -2.065E+01   -2.054E+01   -2.043E+01   -2.032E+01   -2.021E+01   -2.011E+01
    -2.000E+01   -1.989E+01   -1.978E+01   -1.968E+01   -1.957E+01   -1.946E+01   -1.936E+01   -1.925E+01   -1.915E+01   -1.904E+01
    -1.894E+01   -1.883E+01   -1.873E+01   -1.862E+01   -1.852E+01   -1.842E+01   -1.831E+01   -1.821E+01   -1.811E+01   -1.801E+01
    -1.790E+01   -1.780E+01   -1.770E+01   -1.760E+01   -1.750E+01   -1.740E+01   -1.730E+01   -1.720E+01   -1.710E+01   -1.700E+01
    -1.690E+01   -1.681E+01   -1.671E+01   -1.661E+01   -1.651E+01   -1.642E+01   -1.632E+01   -1.622E+01   -1.613E+01   -1.603E+01
    -1.594E+01   -1.584E+01   -1.575E+01   -1.565E+01   -1.556E+01   -1.547E+01   -1.537E+01   -1.528E+01   -1.519E+01   -1.510E+01
    -1.501E+01   -1.491E+01   -1.482E+01   -1.473E+01   -1.464E+01   -1.455E+01   -1.446E+01   -1.437E+01   -1.428E+01   -1.420E+01
    -1.411E+01   -1.402E+01   -1.393E+01   -1.385E+01   -1.376E+01   -1.367E+01   -1.359E+01   -1.350E+01   -1.342E+01   -1.333E+01
    -1.325E+01   -1.316E+01   -1.308E+01   -1.299E+01   -1.291E+01   -1.283E+01   -1.274E+01   -1.266E+01   -1.258E+01   -1.250E+01
    -1.242E+01   -1.234E+01   -1.226E+01   -1.218E+01   -1.210E+01   -1.202E+01   -1.194E+01   -1.186E+01   -1.178E+01   -1.170E+01
    -1.162E+01   -1.154E+01   -1.147E+01   -1.139E+01   -1.131E+01   -1.124E+01   -1.116E+01   -1.109E+01   -1.101E+01   -1.094E+01
    -1.086E+01   -1.079E+01   -1.071E+01   -1.064E+01   -1.056E+01   -1.049E+01   -1.042E+01   -1.035E+01   -1.027E+01   -1.020E+01
    -1.013E+01   -1.006E+01   -9.988E+00   -9.917E+00   -9.846E+00   -9.776E+00   -9.706E+00   -9.636E+00   -9.567E+00   -9.498E+00
    -9.429E+00   -9.361E+00   -9.292E+00   -9.224E+00   -9.157E+00   -9.089E+00   -9.022E+00   -8.955E+00   -8.889E+00   -8.822E+00
    -8.756E+00   -8.690E+00   -8.625E+00   -8.559E+00   -8.494E+00   -8.429E+00   -8.365E+00   -8.300E+00   -8.236E+00   -8.172E+00
    -8.109E+00   -8.045E+00   -7.982E+00   -7.919E+00   -7.857E+00   -7.794E+00   -7.732E+00   -7.670E+00   -7.608E+00   -7.547E+00
    -7.485E+00   -7.424E+00   -7.363E+00   -7.303E+00   -7.242E+00   -7.182E+00   -7.122E+00   -7.062E+00   -7.002E+00   -6.942E+00
    -6.883E+00   -6.824E+00   -6.765E+00   -6.706E+00   -6.647E+00   -6.589E+00   -6.531E+00   -6.472E+00   -6.414E+00   -6.357E+00
    -6.299E+00   -6.241E+00   -6.184E+00   -6.127E+00   -6.070E+00   -6.013E+00   -5.956E+00   -5.899E+00   -5.842E+00   -5.786E+00
    -5.730E+00   -5.674E+00   -5.617E+00   -5.562E+00   -5.506E+00   -5.450E+00   -5.394E+00   -5.339E+00   -5.283E+00   -5.228E+00
    -5.173E+00   -5.118E+00   -5.063E+00   -5.008E+00   -4.953E+00   -4.898E+00   -4.844E+00   -4.789E+00   -4.735E+00   -4.680E+00
    -4.626E+00   -4.572E+00   -4.518E+00   -4.463E+00   -4.410E+00   -4.356E+00   -4.302E+00   -4.248E+00   -4.195E+00   -4.141E+00
    -4.087E+00   -4.034E+00   -3.981E+00   -3.927E+00   -3.874E+00   -3.821E+00   -3.768E+00   -3.715E+00   -3.662E+00   -3.609E+00
    -3.557E+00   -3.504E+00   -3.451E+00   -3.399E+00   -3.346E+00   -3.294E+00   -3.241E+00   -3.189E+00   -3.137E+00   -3.084E+00
    -3.032E+00   -2.980E+00   -2.928E+00   -2.876E+00   -2.824E+00   -2.772E+00   -2.720E+00   -2.668E+00   -2.617E+00   -2.565E+00
    -2.513E+00   -2.461E+00   -2.410E+00   -2.358E+00   -2.307E+00   -2.255E+00   -2.204E+00   -2.152E+00   -2.101E+00   -2.049E+00
    -1.998E+00   -1.947E+00   -1.895E+00   -1.844E+00   -1.793E+00   -1.742E+00   -1.691E+00   -1.639E+00   -1.588E+00   -1.537E+00
    -1.486E+00   -1.435E+00   -1.384E+00   -1.333E+00   -1.282E+00   -1.231E+00   -1.180E+00   -1.129E+00   -1.078E+00   -1.027E+00
    -9.763E-01   -9.254E-01   -8.745E-01   -8.236E-01   -7.727E-01   -7.218E-01   -6.709E-01   -6.200E-01
 Cr       Conc. = 5.71E+02
