 LCModel (Version 6.3-1L) Copyright: S.W. Provencher.          Ref.: Magn. Reson. Med. 30:672-679 (1993).                
 Slice#3 Row#5 Col#3  PD_05_press_2_raw_act
 36 lines in following concentration table = NCONC+1
    Conc.  %SD /Cr+PCr  Metabolite                                         
    0.000 999%   0.000 Ala                                                 
  248.863 195% 7.8E-02 Asp                                                 
 1.40E+03  39%   0.438 Cr                                                  
 1.79E+03  31%   0.562 PCr                                                 
    8.172 999% 2.6E-03 GABA                                                
    0.000 999%   0.000 Glc                                                 
  956.342  57%   0.300 Gln                                                 
 3.02E+03  21%   0.946 Glu                                                 
  973.373   6%   0.305 GPC                                                 
    0.000 999%   0.000 PCh                                                 
  838.608  22%   0.263 GSH                                                 
 1.13E+03  56%   0.355 Ins                                                 
    0.000 999%   0.000 Lac                                                 
 4.32E+03   6%   1.353 NAA                                                 
   72.613 429% 2.3E-02 NAAG                                                
   91.391  71% 2.9E-02 Scyllo                                              
    0.000 999%   0.000 Tau                                                 
    0.000 999%   0.000 -CrCH2                                              
  973.373   6%   0.305 GPC+PCh                                             
 4.39E+03   5%   1.376 NAA+NAAG                                            
 3.19E+03   4%   1.000 Cr+PCr                                              
 3.98E+03  22%   1.245 Glu+Gln                                             
    0.000 999%   0.000 Lip13a                                              
    0.000 999%   0.000 Lip13b                                              
    0.000 999%   0.000 Lip09                                               
 5.18E+03  13%   1.621 MM09                                                
    0.000 999%   0.000 Lip20                                               
 1.08E+04  12%   3.371 MM20                                                
    0.000 999%   0.000 MM12                                                
    0.000 999%   0.000 MM14                                                
 1.08E+04  11%   3.383 MM17                                                
    0.000 999%   0.000 Lip13a+Lip13b                                       
    0.000 999%   0.000 MM14+Lip13a+Lip13b+MM12                             
 5.18E+03  13%   1.621 MM09+Lip09                                          
 1.08E+04  12%   3.371 MM20+Lip20                                          
   6 lines in following misc. output table
  FWHM = 0.054 ppm    S/N =  10                                            
  Data shift = 0.015 ppm                                                   
  Ph:  -8 deg      -2.2 deg/ppm                                            
  alphaB,S = 3.0E-01,   8.9E+01                                            
   14 spline knots.   Ns = 6(1)                                            
  (10) 2 infls.   ( 9) 1 extrs.                                            
  498 points on ppm-axis = NY
      4.000000     3.992357     3.984714     3.977070     3.969427     3.961784     3.954141     3.946497     3.938854     3.931211
      3.923568     3.915925     3.908281     3.900638     3.892995     3.885352     3.877708     3.870065     3.862422     3.854779
      3.847136     3.839492     3.831849     3.824206     3.816563     3.808919     3.801276     3.793633     3.785990     3.778347
      3.770703     3.763060     3.755417     3.747774     3.740130     3.732487     3.724844     3.717201     3.709558     3.701914
      3.694271     3.686628     3.678985     3.671341     3.663698     3.656055     3.648412     3.640769     3.633125     3.625482
      3.617839     3.610196     3.602552     3.594909     3.587266     3.579623     3.571980     3.564336     3.556693     3.549050
      3.541407     3.533763     3.526120     3.518477     3.510834     3.503191     3.495547     3.487904     3.480261     3.472618
      3.464974     3.457331     3.449688     3.442045     3.434402     3.426758     3.419115     3.411472     3.403829     3.396185
      3.388542     3.380899     3.373256     3.365613     3.357969     3.350326     3.342683     3.335040     3.327396     3.319753
      3.312110     3.304467     3.296824     3.289180     3.281537     3.273894     3.266251     3.258607     3.250964     3.243321
      3.235678     3.228034     3.220391     3.212748     3.205105     3.197462     3.189818     3.182175     3.174532     3.166889
      3.159245     3.151602     3.143959     3.136316     3.128673     3.121029     3.113386     3.105743     3.098100     3.090456
      3.082813     3.075170     3.067527     3.059884     3.052240     3.044597     3.036954     3.029311     3.021667     3.014024
      3.006381     2.998738     2.991095     2.983451     2.975808     2.968165     2.960522     2.952878     2.945235     2.937592
      2.929949     2.922306     2.914662     2.907019     2.899376     2.891733     2.884089     2.876446     2.868803     2.861160
      2.853517     2.845873     2.838230     2.830587     2.822944     2.815300     2.807657     2.800014     2.792371     2.784728
      2.777084     2.769441     2.761798     2.754155     2.746511     2.738868     2.731225     2.723582     2.715939     2.708295
      2.700652     2.693009     2.685366     2.677722     2.670079     2.662436     2.654793     2.647150     2.639506     2.631863
      2.624220     2.616577     2.608933     2.601290     2.593647     2.586004     2.578361     2.570717     2.563074     2.555431
      2.547788     2.540144     2.532501     2.524858     2.517215     2.509572     2.501928     2.494285     2.486642     2.478999
      2.471355     2.463712     2.456069     2.448426     2.440783     2.433139     2.425496     2.417853     2.410210     2.402566
      2.394923     2.387280     2.379637     2.371994     2.364350     2.356707     2.349064     2.341421     2.333777     2.326134
      2.318491     2.310848     2.303205     2.295561     2.287918     2.280275     2.272632     2.264988     2.257345     2.249702
      2.242059     2.234416     2.226772     2.219129     2.211486     2.203843     2.196199     2.188556     2.180913     2.173270
      2.165627     2.157983     2.150340     2.142697     2.135054     2.127410     2.119767     2.112124     2.104481     2.096838
      2.089194     2.081551     2.073908     2.066265     2.058621     2.050978     2.043335     2.035692     2.028049     2.020405
      2.012762     2.005119     1.997476     1.989833     1.982190     1.974546     1.966903     1.959260     1.951617     1.943974
      1.936331     1.928688     1.921045     1.913402     1.905759     1.898115     1.890472     1.882829     1.875186     1.867543
      1.859900     1.852257     1.844614     1.836971     1.829327     1.821684     1.814041     1.806398     1.798755     1.791112
      1.783469     1.775826     1.768183     1.760540     1.752896     1.745253     1.737610     1.729967     1.722324     1.714681
      1.707038     1.699395     1.691752     1.684108     1.676465     1.668822     1.661179     1.653536     1.645893     1.638250
      1.630607     1.622964     1.615321     1.607677     1.600034     1.592391     1.584748     1.577105     1.569462     1.561819
      1.554176     1.546533     1.538890     1.531246     1.523603     1.515960     1.508317     1.500674     1.493031     1.485388
      1.477745     1.470102     1.462458     1.454815     1.447172     1.439529     1.431886     1.424243     1.416600     1.408957
      1.401314     1.393671     1.386027     1.378384     1.370741     1.363098     1.355455     1.347812     1.340169     1.332526
      1.324883     1.317240     1.309596     1.301953     1.294310     1.286667     1.279024     1.271381     1.263738     1.256095
      1.248452     1.240808     1.233165     1.225522     1.217879     1.210236     1.202593     1.194950     1.187307     1.179664
      1.172021     1.164377     1.156734     1.149091     1.141448     1.133805     1.126162     1.118519     1.110876     1.103233
      1.095590     1.087946     1.080303     1.072660     1.065017     1.057374     1.049731     1.042088     1.034445     1.026802
      1.019158     1.011515     1.003872     0.996229     0.988586     0.980943     0.973300     0.965657     0.958014     0.950371
      0.942727     0.935084     0.927441     0.919798     0.912155     0.904512     0.896869     0.889226     0.881583     0.873940
      0.866296     0.858653     0.851010     0.843367     0.835724     0.828081     0.820438     0.812795     0.805152     0.797508
      0.789865     0.782222     0.774579     0.766936     0.759293     0.751650     0.744007     0.736364     0.728721     0.721077
      0.713434     0.705791     0.698148     0.690505     0.682862     0.675219     0.667576     0.659933     0.652290     0.644646
      0.637003     0.629360     0.621717     0.614074     0.606431     0.598788     0.591145     0.583502     0.575858     0.568215
      0.560572     0.552929     0.545286     0.537643     0.530000     0.522357     0.514714     0.507071     0.499427     0.491784
      0.484141     0.476498     0.468855     0.461212     0.453569     0.445925     0.438282     0.430639     0.422996     0.415353
      0.407710     0.400067     0.392424     0.384780     0.377137     0.369494     0.361851     0.354208     0.346565     0.338922
      0.331278     0.323635     0.315992     0.308349     0.300706     0.293063     0.285420     0.277777     0.270133     0.262490
      0.254847     0.247204     0.239561     0.231918     0.224275     0.216631     0.208988     0.201345
 NY phased data points follow
   2.05769E+01  2.86185E+01  1.48616E+01  3.76785E+01  4.10483E+01  5.89637E+01  5.55052E+01  7.42952E+01  7.87356E+01  9.50388E+01
   1.05528E+02  1.08328E+02  1.01072E+02  9.99036E+01  7.63133E+01  5.88551E+01  4.35122E+01  4.57801E+01  2.89576E+01  3.17622E+01
   4.48081E+01  2.42156E+01  3.45778E+01  4.37118E+01  2.44920E+01  4.52440E+01  2.57492E+01  3.79550E+01  3.33460E+01  4.17576E+01
   4.36870E+01  4.81413E+01  3.99189E+01  4.33577E+01  4.43795E+01  2.41819E+01  2.73536E+01  2.72830E+01  2.13199E+01  4.06853E+01
   3.19564E+01  2.95461E+01  2.69203E+01  1.38225E+01  3.70127E+01  2.53954E+01  3.28917E+01  4.71899E+01  4.03075E+01  4.64366E+01
   2.96008E+01  3.40172E+01  3.33636E+01  2.42869E+01  2.76465E+01  1.60306E+01  1.23260E+01  2.04329E+01  1.83413E+01  2.78579E+01
   1.55598E+01  1.60604E+01 -9.53395E-01  4.34486E+00 -5.76608E+00 -7.44286E+00  5.26101E+00 -1.16495E+01  5.90021E+00 -7.83581E+00
  -1.93966E-01  6.56034E-01  5.45690E+00  9.89050E+00 -5.94370E+00  1.05480E+01  8.89357E+00  6.56493E+00  2.33221E+00 -2.74292E+00
   7.00225E+00  1.13573E+00 -3.76491E+00  6.69671E+00  6.65061E-01  1.86451E+01 -4.16368E+00  6.65314E+00  1.17053E+01  7.80170E+00
   9.54461E+00  4.56689E+00  4.45711E+00  1.83659E+01 -2.33709E+00  1.07829E+01  5.69736E+00  1.56827E+01  2.07363E+01  2.94947E+01
   5.39158E+01  6.80901E+01  8.41460E+01  9.51520E+01  9.68052E+01  8.68486E+01  7.16979E+01  4.61406E+01  3.76442E+01  2.91468E+01
   1.71041E+01  3.04510E+01  4.83428E+00  6.83291E+00  9.97329E+00  1.12261E+01  1.12718E+01  1.27784E+01  7.67779E+00  3.77757E+00
   1.72764E+01  2.21090E+00  2.20294E+01  3.12291E+01  5.37225E+01  7.61362E+01  9.56722E+01  1.19514E+02  1.09708E+02  1.08362E+02
   8.91581E+01  6.13042E+01  4.43066E+01  2.80274E+01  3.37738E+01  1.69685E+01  1.02196E+01  7.96590E+00 -6.67534E+00  1.17777E+01
  -1.58064E+00  4.90133E+00 -3.01457E+00  5.24493E+00  1.44626E+00 -6.38914E+00  1.83912E-01  7.79237E+00  1.47235E+00 -2.70933E+00
  -7.02340E+00  8.16128E+00 -1.16479E+01 -3.28549E-01 -1.41884E+01  2.65441E+00 -5.37865E+00 -5.24878E+00 -3.82649E+00 -6.55148E+00
  -1.22453E+01 -1.59144E+01 -9.33540E+00 -1.08024E+01 -1.39772E+01  1.11956E+01 -1.10015E+01 -5.92595E+00 -1.11639E+01 -5.10801E+00
  -1.53317E+01 -8.49896E+00 -9.06357E+00 -2.53426E+01 -3.06279E+01 -3.30673E+01 -2.61484E+01 -1.74790E+01 -1.54621E+01 -1.74933E+01
  -2.33091E+01 -1.46799E+01 -2.31712E+01 -2.88753E+01 -2.23583E+01 -3.48666E+01 -2.03871E+01 -4.83010E+00 -1.46454E+00 -1.05148E+00
  -1.53682E+00  6.68234E+00  1.22305E+01  1.04206E+01  5.55912E+00  1.57918E+01  8.58363E+00 -6.81956E-01  9.36524E+00  2.08738E+00
  -1.53493E+00 -3.64074E+00 -1.52720E+00  1.36168E+01  8.00200E+00  1.18542E+01 -3.82715E-01 -1.21951E+01 -2.48830E+00 -9.97647E+00
  -8.56291E+00 -9.56776E+00 -9.80859E+00  5.19127E+00  2.05422E+00  2.57942E+01  2.07514E+01  1.97191E+01  1.74657E+01  7.98137E+00
   7.16932E+00 -4.61710E-01 -7.20939E+00 -1.27965E+01 -7.55441E+00 -1.80787E+00 -1.84477E+00  6.43978E+00  9.07351E+00  7.99993E+00
   4.58587E-01  8.70046E+00  1.53816E+01  4.16858E+00  4.89922E+00  1.61266E+00  1.26982E+01  7.69708E+00  6.87561E+00  1.84111E+01
   6.49976E-03  1.12318E+01 -4.81899E+00 -3.29572E+00  1.46324E+01  8.17529E+00  1.27479E+01  1.71386E+01  3.74859E+01  1.57749E+01
   1.36519E+01  1.73028E+01  2.33276E+01  3.21894E+01  3.17018E+01  4.88004E+01  6.80711E+01  8.11836E+01  1.19795E+02  1.35819E+02
   1.65762E+02  1.75019E+02  1.56420E+02  1.29958E+02  8.30434E+01  6.63394E+01  3.87228E+01  3.61891E+01  2.20748E+01  2.39304E+01
   2.07514E+01  5.86264E+00  4.78729E-01  1.96223E+00  8.07227E+00  1.24666E+01  7.67009E+00  1.53315E+01  2.86780E+00  9.94202E+00
   3.99988E-02  4.79932E+00  1.70412E+01 -2.84648E+00  4.28238E+00 -8.37504E+00  2.97787E-01  7.42920E+00  2.38659E-01  6.32039E+00
  -3.33789E+00  1.33314E+01  5.92524E+00  5.83149E+00  1.59681E+01  2.95641E+00  1.17927E+01  1.09713E+01  1.59518E+01  1.62695E+00
   1.36190E+01  1.60790E+01  1.34492E+00  1.13081E+01  8.32247E+00  7.99687E+00  1.56084E+01  7.94441E+00  2.45453E+01  1.73030E+01
   2.19465E+01  3.01898E+01  1.81316E+01  2.06056E+01  2.45312E+01  3.43871E+01  2.24397E+01  2.99458E+01  1.46846E+01  2.46745E+01
   9.69807E+00  1.75488E+01  1.44542E+01 -6.59572E-01  1.10591E+00  8.54510E+00 -8.01023E+00  2.89126E+00 -8.68417E+00 -8.72951E+00
  -1.54309E+01 -1.75533E+01 -2.91881E+01 -1.78102E+01 -3.45548E+01 -2.57494E+01 -4.02911E+01 -3.51253E+01 -4.06686E+01 -4.11916E+01
  -4.83610E+01 -5.00258E+01 -4.19811E+01 -4.75254E+01 -3.81992E+01 -6.10089E+01 -4.33881E+01 -5.25485E+01 -4.16837E+01 -5.75305E+01
  -5.15145E+01 -6.30082E+01 -5.79428E+01 -5.28778E+01 -5.79434E+01 -5.83257E+01 -4.67290E+01 -4.90327E+01 -5.22737E+01 -5.03209E+01
  -4.60458E+01 -4.52659E+01 -5.32050E+01 -4.00588E+01 -4.72871E+01 -5.23759E+01 -3.99393E+01 -5.09506E+01 -3.43647E+01 -3.73101E+01
  -3.67865E+01 -2.21778E+01 -3.89203E+01 -2.57920E+01 -3.20372E+01 -3.23149E+01 -3.02803E+01 -3.57057E+01 -2.56494E+01 -2.17099E+01
  -2.01706E+01 -1.21794E+01 -2.89198E+01 -2.29005E+01 -2.32926E+01 -2.22221E+01 -1.25501E+01 -1.20471E+01 -1.17866E+01 -1.95987E+01
  -1.89055E+00 -8.65289E+00 -1.24540E+01 -7.79185E+00 -1.16385E+01 -9.35514E+00 -1.57663E+01 -1.04690E+01 -1.22886E+01 -5.25075E+00
  -4.26484E+00 -2.54776E+00  6.15671E+00  8.42367E+00  2.97015E+00  6.69040E+00 -3.69604E+00 -4.26110E+00  1.25600E+00  3.53908E+00
   7.79105E-01 -3.74328E-01 -5.57760E+00 -5.45864E+00  1.99520E+00 -6.19830E-01 -5.64108E+00 -3.56313E+00  3.86454E-01 -7.74598E+00
  -5.60368E+00 -2.12048E+00 -9.88543E+00  1.22075E+00 -6.44631E+00 -3.07445E+00 -5.65242E+00 -1.37618E+00 -4.76977E+00 -5.88738E+00
  -1.64463E+01 -6.53606E+00 -4.34821E+00  1.41172E+00 -5.25730E+00  3.57586E+00 -1.56753E+00 -5.92045E+00 -7.12947E+00 -1.51555E+01
  -6.91246E+00 -1.16544E+01 -1.58365E+00 -2.06645E+00  7.15080E+00  9.08591E-01 -3.24054E+00 -3.51808E+00 -5.24157E+00 -1.10714E+01
  -4.83085E+00  1.54336E+00 -5.22938E+00  1.10624E-01 -9.87492E+00 -1.18413E+01 -3.21500E+00 -7.47999E+00 -5.33970E+00  3.06990E-01
  -1.41848E+01  4.87542E+00 -3.50792E+00 -3.85156E+00 -8.70518E+00 -5.92100E+00  3.60276E+00  2.48116E-01  5.14055E+00 -1.82515E+00
  -1.05881E+01  5.43634E+00 -2.89668E+00 -9.27415E+00 -7.27214E+00 -5.25815E+00 -1.26938E+00 -3.37572E+00 -6.84748E+00 -5.75301E+00
  -2.70231E+00  1.75951E+00 -1.33540E+01 -3.53591E+00 -1.93649E+00  1.84612E+00 -5.92565E+00  5.15008E+00  1.83077E+00 -2.59356E+00
   1.87748E+00 -1.33594E+01  2.84122E+00 -6.40870E+00  4.08560E+00 -1.96212E+00 -1.30156E+00  3.29542E+00
 NY points of the fit to the data follow
   3.23881E+01  3.20226E+01  3.23283E+01  3.41901E+01  3.86317E+01  4.59270E+01  5.62455E+01  6.88217E+01  8.22974E+01  9.44529E+01
   1.02383E+02  1.03734E+02  9.79322E+01  8.67374E+01  7.34175E+01  6.08374E+01  5.03810E+01  4.27712E+01  3.78119E+01  3.46645E+01
   3.29448E+01  3.17565E+01  3.06382E+01  2.95125E+01  2.90487E+01  2.94196E+01  3.06203E+01  3.29576E+01  3.64600E+01  4.07110E+01
   4.46623E+01  4.71366E+01  4.72593E+01  4.48851E+01  4.07292E+01  3.58545E+01  3.07990E+01  2.62155E+01  2.33362E+01  2.21198E+01
   2.21607E+01  2.31985E+01  2.47890E+01  2.65418E+01  2.80912E+01  2.93819E+01  3.03488E+01  3.07449E+01  3.03326E+01  2.89454E+01
   2.66921E+01  2.41177E+01  2.16631E+01  1.95096E+01  1.78666E+01  1.68766E+01  1.64701E+01  1.63772E+01  1.64233E+01  1.64455E+01
   1.62649E+01  1.57393E+01  1.48156E+01  1.36163E+01  1.23842E+01  1.13462E+01  1.06494E+01  1.03333E+01  1.03324E+01  1.04919E+01
   1.06856E+01  1.07804E+01  1.06968E+01  1.04040E+01  9.91456E+00  9.30553E+00  8.68207E+00  8.12305E+00  7.64862E+00  7.26136E+00
   7.12375E+00  7.27171E+00  7.55855E+00  7.92132E+00  8.31081E+00  8.56403E+00  8.44236E+00  7.77637E+00  6.61496E+00  5.24283E+00
   4.07007E+00  3.37903E+00  3.11867E+00  3.07758E+00  3.24000E+00  3.68355E+00  5.04733E+00  1.00856E+01  1.96431E+01  3.28202E+01
   4.95231E+01  6.85261E+01  8.63344E+01  9.80072E+01  9.93493E+01  8.94925E+01  7.17206E+01  5.19415E+01  3.50121E+01  2.20325E+01
   1.22271E+01  6.99676E+00  5.28136E+00  4.56682E+00  4.18822E+00  3.96936E+00  3.84917E+00  3.80775E+00  3.88215E+00  4.23460E+00
   5.63274E+00  1.11110E+01  2.20784E+01  3.72430E+01  5.63120E+01  7.81282E+01  9.90579E+01  1.13774E+02  1.17370E+02  1.08207E+02
   8.94095E+01  6.74092E+01  4.78656E+01  3.22828E+01  1.95613E+01  1.12096E+01  7.20809E+00  4.96920E+00  4.02618E+00  4.18454E+00
   4.97848E+00  5.91454E+00  6.60785E+00  6.71908E+00  6.22130E+00  5.32747E+00  4.23271E+00  3.10682E+00  2.04947E+00  1.06895E+00
   2.38337E-01 -4.88912E-01 -1.12318E+00 -1.64745E+00 -2.08011E+00 -2.57672E+00 -3.19371E+00 -3.92398E+00 -4.78498E+00 -5.66777E+00
  -6.48618E+00 -7.03896E+00 -7.10488E+00 -6.72573E+00 -6.20791E+00 -5.98404E+00 -6.32544E+00 -7.13532E+00 -8.13790E+00 -9.20879E+00
  -1.02935E+01 -1.13789E+01 -1.23566E+01 -1.31340E+01 -1.38216E+01 -1.44392E+01 -1.47761E+01 -1.46837E+01 -1.42878E+01 -1.39118E+01
  -1.38402E+01 -1.41353E+01 -1.44490E+01 -1.44457E+01 -1.41691E+01 -1.36034E+01 -1.24516E+01 -1.05495E+01 -7.94499E+00 -5.09291E+00
  -2.58343E+00 -9.51905E-01 -5.90064E-01 -1.32863E+00 -2.73125E+00 -4.42658E+00 -5.88401E+00 -6.61501E+00 -6.31643E+00 -4.90435E+00
  -2.53205E+00  3.42721E-01  2.99050E+00  4.82011E+00  5.22989E+00  4.05527E+00  1.28617E+00 -2.72451E+00 -7.10072E+00 -1.07440E+01
  -1.26096E+01 -1.19206E+01 -8.80445E+00 -3.80608E+00  2.18196E+00  7.78930E+00  1.13404E+01  1.14805E+01  7.76411E+00  1.43139E+00
  -5.70243E+00 -1.20358E+01 -1.60569E+01 -1.68779E+01 -1.42084E+01 -8.67661E+00 -2.31370E+00  3.23493E+00  7.07715E+00  9.12935E+00
   9.69586E+00  9.28856E+00  8.78688E+00  8.97143E+00  1.00031E+01  1.16210E+01  1.33918E+01  1.47023E+01  1.51894E+01  1.47461E+01
   1.34855E+01  1.19495E+01  1.09203E+01  1.09568E+01  1.21337E+01  1.43157E+01  1.69943E+01  1.93948E+01  2.10426E+01  2.19107E+01
   2.23698E+01  2.26957E+01  2.32783E+01  2.52069E+01  3.24264E+01  4.68461E+01  6.63604E+01  9.04958E+01  1.18152E+02  1.44998E+02
   1.64002E+02  1.68394E+02  1.55560E+02  1.29154E+02  9.77138E+01  6.94205E+01  4.69878E+01  2.90937E+01  1.75817E+01  1.24398E+01
   9.36290E+00  7.04681E+00  5.26241E+00  3.94835E+00  2.88788E+00  1.94029E+00  9.91371E-01 -4.63165E-02 -1.17371E+00 -2.32385E+00
  -3.44132E+00 -4.47500E+00 -5.35098E+00 -6.02625E+00 -6.51094E+00 -6.83299E+00 -7.01176E+00 -7.04576E+00 -6.92174E+00 -6.63666E+00
  -6.17318E+00 -5.50865E+00 -4.63145E+00 -3.53922E+00 -2.23354E+00 -7.19703E-01  9.91834E-01  2.88378E+00  4.93637E+00  7.12255E+00
   9.40678E+00  1.17455E+01  1.40879E+01  1.63768E+01  1.85512E+01  2.05486E+01  2.23081E+01  2.37730E+01  2.48942E+01  2.56316E+01
   2.59545E+01  2.58435E+01  2.52924E+01  2.43072E+01  2.29066E+01  2.11215E+01  1.89925E+01  1.65683E+01  1.39029E+01  1.10538E+01
   8.07917E+00  5.03598E+00  1.97725E+00 -1.04935E+00 -4.00248E+00 -6.84764E+00 -9.55751E+00 -1.21121E+01 -1.44984E+01 -1.67097E+01
  -1.87444E+01 -2.06053E+01 -2.22984E+01 -2.38322E+01 -2.52175E+01 -2.64657E+01 -2.75886E+01 -2.85979E+01 -2.95045E+01 -3.03190E+01
  -3.10512E+01 -3.17101E+01 -3.23032E+01 -3.28372E+01 -3.33180E+01 -3.37508E+01 -3.41401E+01 -3.44897E+01 -3.48024E+01 -3.50808E+01
  -3.53271E+01 -3.55432E+01 -3.57307E+01 -3.58907E+01 -3.60239E+01 -3.61311E+01 -3.62127E+01 -3.62693E+01 -3.63011E+01 -3.63081E+01
  -3.62898E+01 -3.62462E+01 -3.61768E+01 -3.60815E+01 -3.59600E+01 -3.58117E+01 -3.56359E+01 -3.54319E+01 -3.51987E+01 -3.49352E+01
  -3.46398E+01 -3.43107E+01 -3.39456E+01 -3.35424E+01 -3.30983E+01 -3.26103E+01 -3.20748E+01 -3.14877E+01 -3.08450E+01 -3.01421E+01
  -2.93745E+01 -2.85372E+01 -2.76252E+01 -2.66340E+01 -2.55594E+01 -2.43983E+01 -2.31485E+01 -2.18089E+01 -2.03808E+01 -1.88673E+01
  -1.72745E+01 -1.56113E+01 -1.38897E+01 -1.21247E+01 -1.03345E+01 -8.54033E+00 -6.76618E+00 -5.03776E+00 -3.38182E+00 -1.82541E+00
  -3.94936E-01  8.84875E-01  1.99211E+00  2.90877E+00  3.62148E+00  4.12203E+00  4.40764E+00  4.48114E+00  4.35091E+00  4.03061E+00
   3.53828E+00  2.89542E+00  2.12595E+00  1.25536E+00  3.09729E-01 -6.85234E-01 -1.70513E+00 -2.72768E+00 -3.73318E+00 -4.70475E+00
  -5.62845E+00 -6.49333E+00 -7.29148E+00 -8.01777E+00 -8.66951E+00 -9.24603E+00 -9.74821E+00 -1.01783E+01 -1.05398E+01 -1.08367E+01
  -1.10735E+01 -1.12551E+01 -1.13860E+01 -1.14707E+01 -1.15140E+01 -1.15199E+01 -1.14926E+01 -1.14354E+01 -1.13517E+01 -1.12443E+01
  -1.11160E+01 -1.09693E+01 -1.08064E+01 -1.06290E+01 -1.04387E+01 -1.02373E+01 -1.00261E+01 -9.80652E+00 -9.57945E+00 -9.34586E+00
  -9.10665E+00 -8.86269E+00 -8.61480E+00 -8.36359E+00 -8.10941E+00 -7.85258E+00 -7.59348E+00 -7.33248E+00 -7.06991E+00 -6.80593E+00
  -6.54067E+00 -6.27428E+00 -6.00698E+00 -5.73898E+00 -5.47040E+00 -5.20126E+00 -4.93158E+00 -4.66145E+00 -4.39103E+00 -4.12041E+00
  -3.84959E+00 -3.57853E+00 -3.30719E+00 -3.03567E+00 -2.76403E+00 -2.49231E+00 -2.22043E+00 -1.94830E+00 -1.67594E+00 -1.40340E+00
  -1.13073E+00 -8.57876E-01 -5.84720E-01 -3.11193E-01 -3.73109E-02  2.36882E-01  5.11404E-01  7.86358E-01  1.06186E+00  1.33795E+00
   1.61460E+00  1.89181E+00  2.16963E+00  2.44819E+00  2.72761E+00  3.00789E+00  3.28901E+00  3.57101E+00
 NY background values follow
     2.928E+01    2.896E+01    2.864E+01    2.832E+01    2.800E+01    2.768E+01    2.736E+01    2.704E+01    2.671E+01    2.639E+01
     2.607E+01    2.574E+01    2.542E+01    2.510E+01    2.477E+01    2.445E+01    2.412E+01    2.380E+01    2.348E+01    2.315E+01
     2.283E+01    2.250E+01    2.218E+01    2.185E+01    2.153E+01    2.121E+01    2.088E+01    2.056E+01    2.024E+01    1.992E+01
     1.960E+01    1.927E+01    1.895E+01    1.863E+01    1.832E+01    1.800E+01    1.768E+01    1.736E+01    1.705E+01    1.673E+01
     1.642E+01    1.610E+01    1.579E+01    1.548E+01    1.517E+01    1.486E+01    1.455E+01    1.424E+01    1.394E+01    1.363E+01
     1.333E+01    1.302E+01    1.272E+01    1.242E+01    1.212E+01    1.183E+01    1.153E+01    1.124E+01    1.095E+01    1.066E+01
     1.037E+01    1.008E+01    9.794E+00    9.510E+00    9.228E+00    8.948E+00    8.669E+00    8.393E+00    8.118E+00    7.846E+00
     7.575E+00    7.306E+00    7.040E+00    6.775E+00    6.513E+00    6.253E+00    5.995E+00    5.740E+00    5.487E+00    5.236E+00
     4.987E+00    4.741E+00    4.497E+00    4.256E+00    4.018E+00    3.782E+00    3.548E+00    3.317E+00    3.089E+00    2.864E+00
     2.641E+00    2.421E+00    2.204E+00    1.990E+00    1.778E+00    1.569E+00    1.363E+00    1.160E+00    9.597E-01    7.618E-01
     5.667E-01    3.744E-01    1.847E-01   -2.364E-03   -1.867E-01   -3.684E-01   -5.474E-01   -7.238E-01   -8.975E-01   -1.069E+00
    -1.237E+00   -1.403E+00   -1.566E+00   -1.727E+00   -1.885E+00   -2.041E+00   -2.194E+00   -2.344E+00   -2.492E+00   -2.638E+00
    -2.780E+00   -2.921E+00   -3.059E+00   -3.194E+00   -3.327E+00   -3.458E+00   -3.586E+00   -3.711E+00   -3.834E+00   -3.955E+00
    -4.073E+00   -4.189E+00   -4.303E+00   -4.414E+00   -4.522E+00   -4.629E+00   -4.733E+00   -4.835E+00   -4.934E+00   -5.031E+00
    -5.126E+00   -5.219E+00   -5.310E+00   -5.399E+00   -5.485E+00   -5.570E+00   -5.653E+00   -5.734E+00   -5.814E+00   -5.892E+00
    -5.968E+00   -6.042E+00   -6.115E+00   -6.186E+00   -6.256E+00   -6.324E+00   -6.391E+00   -6.457E+00   -6.522E+00   -6.585E+00
    -6.647E+00   -6.708E+00   -6.768E+00   -6.827E+00   -6.885E+00   -6.942E+00   -6.998E+00   -7.053E+00   -7.108E+00   -7.162E+00
    -7.215E+00   -7.268E+00   -7.320E+00   -7.372E+00   -7.423E+00   -7.473E+00   -7.524E+00   -7.574E+00   -7.624E+00   -7.673E+00
    -7.723E+00   -7.772E+00   -7.821E+00   -7.871E+00   -7.920E+00   -7.970E+00   -8.020E+00   -8.070E+00   -8.121E+00   -8.172E+00
    -8.224E+00   -8.276E+00   -8.330E+00   -8.384E+00   -8.439E+00   -8.495E+00   -8.552E+00   -8.611E+00   -8.670E+00   -8.731E+00
    -8.794E+00   -8.858E+00   -8.923E+00   -8.990E+00   -9.059E+00   -9.130E+00   -9.203E+00   -9.277E+00   -9.354E+00   -9.433E+00
    -9.514E+00   -9.597E+00   -9.683E+00   -9.771E+00   -9.862E+00   -9.955E+00   -1.005E+01   -1.015E+01   -1.025E+01   -1.036E+01
    -1.046E+01   -1.058E+01   -1.069E+01   -1.081E+01   -1.093E+01   -1.105E+01   -1.118E+01   -1.131E+01   -1.145E+01   -1.158E+01
    -1.173E+01   -1.187E+01   -1.202E+01   -1.218E+01   -1.233E+01   -1.249E+01   -1.266E+01   -1.282E+01   -1.299E+01   -1.317E+01
    -1.335E+01   -1.353E+01   -1.372E+01   -1.391E+01   -1.410E+01   -1.429E+01   -1.449E+01   -1.470E+01   -1.491E+01   -1.512E+01
    -1.533E+01   -1.555E+01   -1.577E+01   -1.600E+01   -1.623E+01   -1.646E+01   -1.670E+01   -1.694E+01   -1.718E+01   -1.743E+01
    -1.768E+01   -1.794E+01   -1.820E+01   -1.846E+01   -1.872E+01   -1.899E+01   -1.927E+01   -1.955E+01   -1.983E+01   -2.011E+01
    -2.040E+01   -2.069E+01   -2.099E+01   -2.129E+01   -2.159E+01   -2.189E+01   -2.220E+01   -2.252E+01   -2.283E+01   -2.315E+01
    -2.347E+01   -2.379E+01   -2.411E+01   -2.444E+01   -2.477E+01   -2.510E+01   -2.543E+01   -2.576E+01   -2.609E+01   -2.643E+01
    -2.676E+01   -2.710E+01   -2.743E+01   -2.777E+01   -2.810E+01   -2.844E+01   -2.878E+01   -2.911E+01   -2.945E+01   -2.978E+01
    -3.012E+01   -3.045E+01   -3.078E+01   -3.111E+01   -3.144E+01   -3.177E+01   -3.210E+01   -3.242E+01   -3.274E+01   -3.306E+01
    -3.338E+01   -3.369E+01   -3.400E+01   -3.431E+01   -3.462E+01   -3.492E+01   -3.522E+01   -3.551E+01   -3.581E+01   -3.609E+01
    -3.638E+01   -3.666E+01   -3.693E+01   -3.720E+01   -3.746E+01   -3.772E+01   -3.798E+01   -3.823E+01   -3.847E+01   -3.871E+01
    -3.894E+01   -3.917E+01   -3.938E+01   -3.960E+01   -3.980E+01   -4.000E+01   -4.019E+01   -4.037E+01   -4.055E+01   -4.072E+01
    -4.087E+01   -4.103E+01   -4.117E+01   -4.130E+01   -4.143E+01   -4.155E+01   -4.165E+01   -4.175E+01   -4.184E+01   -4.192E+01
    -4.199E+01   -4.204E+01   -4.209E+01   -4.213E+01   -4.216E+01   -4.217E+01   -4.218E+01   -4.217E+01   -4.215E+01   -4.212E+01
    -4.208E+01   -4.202E+01   -4.196E+01   -4.188E+01   -4.179E+01   -4.169E+01   -4.157E+01   -4.145E+01   -4.131E+01   -4.116E+01
    -4.100E+01   -4.083E+01   -4.066E+01   -4.047E+01   -4.027E+01   -4.006E+01   -3.984E+01   -3.962E+01   -3.938E+01   -3.914E+01
    -3.889E+01   -3.863E+01   -3.836E+01   -3.809E+01   -3.780E+01   -3.751E+01   -3.722E+01   -3.692E+01   -3.661E+01   -3.629E+01
    -3.597E+01   -3.564E+01   -3.531E+01   -3.497E+01   -3.463E+01   -3.428E+01   -3.393E+01   -3.357E+01   -3.321E+01   -3.285E+01
    -3.248E+01   -3.211E+01   -3.174E+01   -3.136E+01   -3.098E+01   -3.060E+01   -3.022E+01   -2.983E+01   -2.945E+01   -2.906E+01
    -2.867E+01   -2.827E+01   -2.788E+01   -2.749E+01   -2.709E+01   -2.670E+01   -2.630E+01   -2.590E+01   -2.550E+01   -2.510E+01
    -2.470E+01   -2.430E+01   -2.390E+01   -2.350E+01   -2.310E+01   -2.270E+01   -2.230E+01   -2.190E+01   -2.150E+01   -2.110E+01
    -2.070E+01   -2.031E+01   -1.991E+01   -1.951E+01   -1.912E+01   -1.872E+01   -1.833E+01   -1.794E+01   -1.755E+01   -1.716E+01
    -1.678E+01   -1.639E+01   -1.601E+01   -1.563E+01   -1.525E+01   -1.487E+01   -1.449E+01   -1.412E+01   -1.375E+01   -1.338E+01
    -1.302E+01   -1.266E+01   -1.230E+01   -1.194E+01   -1.159E+01   -1.124E+01   -1.089E+01   -1.054E+01   -1.020E+01   -9.862E+00
    -9.524E+00   -9.189E+00   -8.856E+00   -8.525E+00   -8.196E+00   -7.869E+00   -7.544E+00   -7.221E+00   -6.900E+00   -6.580E+00
    -6.262E+00   -5.946E+00   -5.631E+00   -5.317E+00   -5.005E+00   -4.694E+00   -4.384E+00   -4.076E+00   -3.768E+00   -3.461E+00
    -3.155E+00   -2.850E+00   -2.546E+00   -2.242E+00   -1.938E+00   -1.636E+00   -1.333E+00   -1.031E+00   -7.291E-01   -4.274E-01
    -1.257E-01    1.760E-01    4.777E-01    7.796E-01    1.082E+00    1.384E+00    1.687E+00    1.990E+00
 Asp      Conc. = 2.49E+02
