 LCModel (Version 6.3-1L) Copyright: S.W. Provencher.          Ref.: Magn. Reson. Med. 30:672-679 (1993).                
 Slice#3 Row#10 Col#7  PD_05_press_2_raw_act
 36 lines in following concentration table = NCONC+1
    Conc.  %SD /Cr+PCr  Metabolite                                         
  626.936  82%   0.244 Ala                                                 
    0.000 999%   0.000 Asp                                                 
  370.568 145%   0.144 Cr                                                  
 2.20E+03  25%   0.856 PCr                                                 
  331.493  82%   0.129 GABA                                                
    0.000 999%   0.000 Glc                                                 
 1.06E+04  11%   4.114 Gln                                                 
 1.02E+04  13%   3.982 Glu                                                 
  535.064   8%   0.208 GPC                                                 
    0.000 999%   0.000 PCh                                                 
  635.938  32%   0.247 GSH                                                 
 2.59E+03  18%   1.006 Ins                                                 
 3.61E+03  18%   1.404 Lac                                                 
 3.43E+03   4%   1.332 NAA                                                 
    0.000 999%   0.000 NAAG                                                
   83.523  58% 3.2E-02 Scyllo                                              
    0.000 999%   0.000 Tau                                                 
    0.000 999%   0.000 -CrCH2                                              
  535.064   8%   0.208 GPC+PCh                                             
 3.43E+03   4%   1.332 NAA+NAAG                                            
 2.57E+03   4%   1.000 Cr+PCr                                              
 2.08E+04  10%   8.095 Glu+Gln                                             
    0.000 999%   0.000 Lip13a                                              
 1.15E+03  18%   0.448 Lip13b                                              
  307.273  18%   0.119 Lip09                                               
 1.57E+03  15%   0.609 MM09                                                
  172.921  18% 6.7E-02 Lip20                                               
 3.25E+03  13%   1.261 MM20                                                
  402.338  36%   0.156 MM12                                                
 4.75E+03   7%   1.847+MM14                                                
  596.237  44%   0.232 MM17                                                
 1.15E+03  18%   0.448 Lip13a+Lip13b                                       
 6.31E+03   5%   2.452 MM14+Lip13a+Lip13b+MM12                             
 1.87E+03  12%   0.728 MM09+Lip09                                          
 3.42E+03  13%   1.328 MM20+Lip20                                          
   6 lines in following misc. output table
  FWHM = 0.107 ppm    S/N =   7                                            
  Data shift =-0.031 ppm                                                   
  Ph: -16 deg      -7.6 deg/ppm                                            
  alphaB,S = 8.5E+01,   1.2E+02                                            
   14 spline knots.   Ns = 6(2)                                            
   2 inflections.     1 extrema                                            
  498 points on ppm-axis = NY
      4.000000     3.992357     3.984714     3.977070     3.969427     3.961784     3.954141     3.946497     3.938854     3.931211
      3.923568     3.915925     3.908281     3.900638     3.892995     3.885352     3.877708     3.870065     3.862422     3.854779
      3.847136     3.839492     3.831849     3.824206     3.816563     3.808919     3.801276     3.793633     3.785990     3.778347
      3.770703     3.763060     3.755417     3.747774     3.740130     3.732487     3.724844     3.717201     3.709558     3.701914
      3.694271     3.686628     3.678985     3.671341     3.663698     3.656055     3.648412     3.640769     3.633125     3.625482
      3.617839     3.610196     3.602552     3.594909     3.587266     3.579623     3.571980     3.564336     3.556693     3.549050
      3.541407     3.533763     3.526120     3.518477     3.510834     3.503191     3.495547     3.487904     3.480261     3.472618
      3.464974     3.457331     3.449688     3.442045     3.434402     3.426758     3.419115     3.411472     3.403829     3.396185
      3.388542     3.380899     3.373256     3.365613     3.357969     3.350326     3.342683     3.335040     3.327396     3.319753
      3.312110     3.304467     3.296824     3.289180     3.281537     3.273894     3.266251     3.258607     3.250964     3.243321
      3.235678     3.228034     3.220391     3.212748     3.205105     3.197462     3.189818     3.182175     3.174532     3.166889
      3.159245     3.151602     3.143959     3.136316     3.128673     3.121029     3.113386     3.105743     3.098100     3.090456
      3.082813     3.075170     3.067527     3.059884     3.052240     3.044597     3.036954     3.029311     3.021667     3.014024
      3.006381     2.998738     2.991095     2.983451     2.975808     2.968165     2.960522     2.952878     2.945235     2.937592
      2.929949     2.922306     2.914662     2.907019     2.899376     2.891733     2.884089     2.876446     2.868803     2.861160
      2.853517     2.845873     2.838230     2.830587     2.822944     2.815300     2.807657     2.800014     2.792371     2.784728
      2.777084     2.769441     2.761798     2.754155     2.746511     2.738868     2.731225     2.723582     2.715939     2.708295
      2.700652     2.693009     2.685366     2.677722     2.670079     2.662436     2.654793     2.647150     2.639506     2.631863
      2.624220     2.616577     2.608933     2.601290     2.593647     2.586004     2.578361     2.570717     2.563074     2.555431
      2.547788     2.540144     2.532501     2.524858     2.517215     2.509572     2.501928     2.494285     2.486642     2.478999
      2.471355     2.463712     2.456069     2.448426     2.440783     2.433139     2.425496     2.417853     2.410210     2.402566
      2.394923     2.387280     2.379637     2.371994     2.364350     2.356707     2.349064     2.341421     2.333777     2.326134
      2.318491     2.310848     2.303205     2.295561     2.287918     2.280275     2.272632     2.264988     2.257345     2.249702
      2.242059     2.234416     2.226772     2.219129     2.211486     2.203843     2.196199     2.188556     2.180913     2.173270
      2.165627     2.157983     2.150340     2.142697     2.135054     2.127410     2.119767     2.112124     2.104481     2.096838
      2.089194     2.081551     2.073908     2.066265     2.058621     2.050978     2.043335     2.035692     2.028049     2.020405
      2.012762     2.005119     1.997476     1.989833     1.982190     1.974546     1.966903     1.959260     1.951617     1.943974
      1.936331     1.928688     1.921045     1.913402     1.905759     1.898115     1.890472     1.882829     1.875186     1.867543
      1.859900     1.852257     1.844614     1.836971     1.829327     1.821684     1.814041     1.806398     1.798755     1.791112
      1.783469     1.775826     1.768183     1.760540     1.752896     1.745253     1.737610     1.729967     1.722324     1.714681
      1.707038     1.699395     1.691752     1.684108     1.676465     1.668822     1.661179     1.653536     1.645893     1.638250
      1.630607     1.622964     1.615321     1.607677     1.600034     1.592391     1.584748     1.577105     1.569462     1.561819
      1.554176     1.546533     1.538890     1.531246     1.523603     1.515960     1.508317     1.500674     1.493031     1.485388
      1.477745     1.470102     1.462458     1.454815     1.447172     1.439529     1.431886     1.424243     1.416600     1.408957
      1.401314     1.393671     1.386027     1.378384     1.370741     1.363098     1.355455     1.347812     1.340169     1.332526
      1.324883     1.317240     1.309596     1.301953     1.294310     1.286667     1.279024     1.271381     1.263738     1.256095
      1.248452     1.240808     1.233165     1.225522     1.217879     1.210236     1.202593     1.194950     1.187307     1.179664
      1.172021     1.164377     1.156734     1.149091     1.141448     1.133805     1.126162     1.118519     1.110876     1.103233
      1.095590     1.087946     1.080303     1.072660     1.065017     1.057374     1.049731     1.042088     1.034445     1.026802
      1.019158     1.011515     1.003872     0.996229     0.988586     0.980943     0.973300     0.965657     0.958014     0.950371
      0.942727     0.935084     0.927441     0.919798     0.912155     0.904512     0.896869     0.889226     0.881583     0.873940
      0.866296     0.858653     0.851010     0.843367     0.835724     0.828081     0.820438     0.812795     0.805152     0.797508
      0.789865     0.782222     0.774579     0.766936     0.759293     0.751650     0.744007     0.736364     0.728721     0.721077
      0.713434     0.705791     0.698148     0.690505     0.682862     0.675219     0.667576     0.659933     0.652290     0.644646
      0.637003     0.629360     0.621717     0.614074     0.606431     0.598788     0.591145     0.583502     0.575858     0.568215
      0.560572     0.552929     0.545286     0.537643     0.530000     0.522357     0.514714     0.507071     0.499427     0.491784
      0.484141     0.476498     0.468855     0.461212     0.453569     0.445925     0.438282     0.430639     0.422996     0.415353
      0.407710     0.400067     0.392424     0.384780     0.377137     0.369494     0.361851     0.354208     0.346565     0.338922
      0.331278     0.323635     0.315992     0.308349     0.300706     0.293063     0.285420     0.277777     0.270133     0.262490
      0.254847     0.247204     0.239561     0.231918     0.224275     0.216631     0.208988     0.201345
 NY phased data points follow
   2.08697E+01  1.72075E+01  2.89056E+01  2.27418E+01  2.28531E+01  2.60189E+01  3.36480E+01  3.89271E+01  4.50189E+01  4.23437E+01
   5.10160E+01  4.91027E+01  5.39670E+01  5.28820E+01  4.43244E+01  4.00470E+01  4.04883E+01  3.99333E+01  4.20057E+01  3.06379E+01
   3.70380E+01  2.76769E+01  3.26221E+01  2.62460E+01  3.34305E+01  2.26046E+01  2.78233E+01  2.37038E+01  2.66708E+01  2.82011E+01
   3.28021E+01  2.94450E+01  3.45172E+01  3.08294E+01  2.38867E+01  2.31102E+01  2.78792E+01  2.29733E+01  2.11260E+01  2.00890E+01
   3.39296E+01  2.33670E+01  2.62809E+01  2.51425E+01  2.45272E+01  2.46089E+01  1.98075E+01  2.33113E+01  2.97683E+01  2.48348E+01
   2.74976E+01  2.70286E+01  2.63540E+01  2.40287E+01  2.09511E+01  1.68408E+01  1.93765E+01  1.32261E+01  8.65645E+00  1.96231E+01
   1.71743E+01  1.09039E+01  1.59867E+01  7.91641E+00  9.96375E+00  1.59108E+01  1.30649E+01  6.34149E+00  9.42860E+00  7.62144E+00
   1.01726E+01  8.72642E+00  1.10571E+01  8.94109E+00  2.50841E+00  4.84973E+00  9.37033E+00  5.85828E+00  6.98015E+00  2.49736E+00
   6.18351E+00  1.64348E+01  6.76920E+00  8.82976E+00  9.41709E+00  8.30836E-01  9.63217E+00  3.10876E+00  1.11269E+01  4.55315E+00
   1.07188E+01  1.39752E+00  8.65874E+00  1.28145E+01  1.31689E+01  7.47827E+00  1.53179E+01  7.62720E+00  1.92530E+01  2.05750E+01
   3.15024E+01  2.25591E+01  2.56261E+01  2.88115E+01  2.78353E+01  2.88454E+01  3.62996E+01  2.76617E+01  2.82396E+01  2.06890E+01
   2.54837E+01  2.16157E+01  1.78311E+01  1.05842E+01  8.47476E+00  9.81153E+00  8.79278E+00  4.04993E+00  1.05044E+01  9.71576E+00
   1.35757E+01  1.95354E+01  3.16014E+01  2.85101E+01  3.63272E+01  3.67302E+01  4.74247E+01  4.45203E+01  5.22790E+01  4.97935E+01
   5.18006E+01  4.75840E+01  4.34577E+01  3.93484E+01  4.20257E+01  3.39536E+01  2.12545E+01  1.97632E+01  1.67526E+01  9.11530E+00
   1.83981E+01  6.25747E+00  1.61629E+01  9.39729E+00  1.11993E+01  5.22047E+00  1.52575E+01  1.23303E+01  1.53531E+01  6.05243E+00
   3.62198E+00  7.87128E-01  9.29638E+00 -1.50495E+00  4.62766E+00  3.01025E-01 -7.86692E-01  3.44907E+00  9.29191E-01 -1.96135E+00
   7.51105E+00 -3.67461E+00 -7.87981E+00  2.27628E+00  2.98428E+00 -1.24672E+00  4.13668E+00 -3.00851E+00  8.09475E-01  4.16020E-01
   8.08640E+00 -1.29328E+00  4.32493E+00  3.39532E+00 -1.14425E+01 -9.94271E+00 -1.45564E+01 -6.01630E+00 -1.19573E+01 -1.44594E+01
  -1.46919E+01 -1.59311E+01 -1.47521E+01 -1.36303E+01 -8.76336E+00 -1.10515E+01 -6.12073E+00 -6.24282E+00 -5.68553E+00 -1.11960E+01
  -3.69625E+00 -7.04740E-01  4.84880E+00 -7.45295E-01  7.56783E+00  4.05963E+00  9.62377E-01  3.69580E+00  2.29810E+00  5.53009E+00
   8.72968E+00 -2.23029E+00 -1.21564E+00  2.54062E+00  3.30308E+00  1.97248E+00  3.63634E+00  7.72180E+00  5.30654E+00  2.36011E+00
  -6.91064E-01  5.09419E+00  5.10252E+00  6.56687E+00  1.20535E+01  1.26275E+01  1.01956E+01  1.13957E+01  1.62718E+01  1.18972E+01
   1.55379E+01  3.27425E+00  6.92842E+00  1.30761E+01  1.21958E+01  1.93326E+01  1.26646E+01  1.54609E+01  1.31413E+01  1.89535E+01
   2.25991E+01  1.02886E+01  1.75155E+01  1.77552E+01  1.52875E+01  1.56493E+01  2.08523E+01  1.98064E+01  1.89029E+01  1.97450E+01
   1.35143E+01  1.72028E+01  1.77474E+01  2.05086E+01  2.08121E+01  1.95764E+01  2.33567E+01  1.79617E+01  2.86265E+01  2.63634E+01
   1.79260E+01  2.52149E+01  2.82530E+01  3.33557E+01  3.58822E+01  4.18566E+01  4.46321E+01  5.84510E+01  7.03185E+01  6.88231E+01
   7.72995E+01  7.72208E+01  8.89966E+01  8.27289E+01  8.61405E+01  6.55224E+01  6.99061E+01  6.36104E+01  4.12104E+01  4.53328E+01
   3.80226E+01  3.11543E+01  2.44362E+01  2.06117E+01  2.79140E+01  2.18808E+01  2.64369E+01  2.36658E+01  1.34644E+01  1.55266E+01
   1.29978E+01  1.57849E+01  1.72166E+01  1.54038E+01  1.13896E+01  1.29745E+01  1.16722E+01  1.46048E+01  1.17280E+01  6.46269E+00
   8.23013E+00  8.93846E+00  1.59395E+01  8.74412E+00  7.12803E+00  1.28259E+01  1.68225E+01  6.73024E+00  5.36367E+00  1.10053E+01
   5.31582E+00  1.02825E+01  9.53854E+00  6.42521E+00  6.96466E+00  1.50547E+01  1.00099E+01  7.21012E+00  1.08071E+01  1.38063E+01
   1.69151E+01  7.03455E+00  8.19985E+00  1.39318E+01  1.73432E+01  1.07440E+01  1.84871E+01  9.98488E+00  1.30057E+01  1.38926E+01
   1.78609E+01  1.24620E+01  2.35407E+01  2.51710E+01  2.80151E+01  2.15460E+01  2.78285E+01  2.72667E+01  3.38544E+01  3.09346E+01
   3.78194E+01  3.84436E+01  3.78651E+01  4.29556E+01  4.79769E+01  4.99018E+01  5.21702E+01  6.18379E+01  5.57563E+01  6.24667E+01
   5.80036E+01  6.23406E+01  5.98728E+01  5.64163E+01  4.99692E+01  5.24004E+01  4.29926E+01  4.50766E+01  4.22355E+01  4.13350E+01
   4.27201E+01  4.01086E+01  2.76732E+01  2.50398E+01  2.68599E+01  2.34963E+01  1.93002E+01  2.47071E+01  2.17409E+01  1.26228E+01
   1.15819E+01  1.87128E+01  1.35900E+01  1.00165E+01  1.67751E+01  8.52735E+00  7.74754E+00  1.13370E+01  1.41192E+01  7.96257E+00
   9.57050E+00 -2.30670E+00  1.61953E+01  8.79898E+00  3.31530E+00  3.16490E+00  6.17737E+00  5.31483E+00  9.23799E+00  7.81597E+00
   1.29182E+01  8.05257E+00  7.98213E+00 -2.76073E+00  7.37087E+00 -8.51462E-01  6.69164E+00 -2.00448E+00  1.03791E+00  7.13496E+00
   1.08848E+01  5.68119E+00  7.38520E+00  8.51041E+00  9.53643E+00  4.13196E+00  1.80754E+00  8.80395E+00  1.49133E+01  3.09044E+00
   6.01607E+00  6.46249E+00  6.17292E+00  5.83201E+00  1.11180E+01  6.64730E+00  5.22731E+00  1.40612E+01  1.37182E+01  4.83269E+00
   8.92896E+00  8.96397E+00  6.88496E+00  1.38280E+01  9.11240E+00  1.13480E+01  1.15069E+01  1.28128E+01  1.34395E+01  9.11607E+00
   6.49534E+00  2.59572E+00  1.02796E+01  7.80467E+00  1.33263E+01  8.16498E+00  8.17619E+00  7.72940E+00  7.07416E+00  6.05320E+00
   8.84794E+00  8.16317E+00  6.06632E+00  9.80425E+00 -1.16230E+00  4.84025E+00  4.16858E+00  8.65117E+00  3.38872E+00 -1.81568E+00
   1.88646E+00 -3.10565E+00  7.28351E+00  4.04123E+00  2.64962E+00  2.23928E+00  1.38966E+01  4.42060E+00 -6.49896E-01  1.07321E+01
   3.76448E+00  1.15955E+00  4.41493E+00  4.31923E-02  2.33163E+00  4.28372E+00  1.90870E+00  2.20459E+00  1.60247E+00  1.06626E+01
   6.67037E+00 -2.90199E+00 -4.52582E+00  7.75208E+00  4.80751E+00  5.09531E-01  7.59784E+00 -2.80421E+00  8.99721E-01  4.59053E+00
   5.85824E+00 -2.90624E+00  3.90152E+00  4.65182E+00  5.89823E+00  5.75922E+00  5.94856E+00  6.45558E+00  2.57152E+00  6.73432E+00
   7.89838E+00 -1.45296E+00 -1.04559E+01  2.31589E+00  5.36529E+00  6.28089E+00  3.70134E+00  5.10770E+00  7.90865E+00  2.52141E+00
  -6.88360E-01  9.43423E-01  6.12889E-01  6.25826E-01  4.87270E+00  1.14247E-01 -1.13891E+00 -1.89755E+00
 NY points of the fit to the data follow
   2.07932E+01  2.21791E+01  2.37775E+01  2.46342E+01  2.75027E+01  2.77575E+01  3.23394E+01  3.23794E+01  3.86238E+01  3.77371E+01
   4.41843E+01  4.15696E+01  4.73641E+01  4.30480E+01  4.65782E+01  4.09625E+01  4.25666E+01  3.69919E+01  3.72595E+01  3.24730E+01
   3.30265E+01  2.92013E+01  2.94980E+01  2.57289E+01  2.62342E+01  2.35963E+01  2.62876E+01  2.35675E+01  2.81874E+01  2.50116E+01
   3.12218E+01  2.79333E+01  3.42902E+01  2.99156E+01  3.44927E+01  2.96628E+01  3.19733E+01  2.74072E+01  2.84853E+01  2.56959E+01
   2.68156E+01  2.63698E+01  2.67327E+01  2.56686E+01  2.45084E+01  2.36904E+01  2.22302E+01  2.23507E+01  2.31757E+01  2.41607E+01
   2.47354E+01  2.42454E+01  2.35572E+01  2.12248E+01  1.94061E+01  1.77418E+01  1.65071E+01  1.52385E+01  1.44365E+01  1.34185E+01
   1.29047E+01  1.17663E+01  1.15921E+01  1.10177E+01  1.14681E+01  1.09073E+01  1.13203E+01  1.06881E+01  1.10954E+01  1.04538E+01
   1.08778E+01  1.02338E+01  1.06606E+01  1.00020E+01  1.03528E+01  9.77894E+00  1.01015E+01  9.58883E+00  9.92553E+00  9.23457E+00
   9.45225E+00  8.55490E+00  8.77899E+00  7.74659E+00  8.06947E+00  6.90616E+00  7.23643E+00  6.00209E+00  6.51871E+00  5.38395E+00
   6.15323E+00  6.23403E+00  7.58123E+00  8.05208E+00  9.76682E+00  1.10693E+01  1.32876E+01  1.48824E+01  1.74983E+01  1.94113E+01
   2.25294E+01  2.43896E+01  2.79957E+01  2.83873E+01  3.15500E+01  2.96451E+01  3.19250E+01  2.78600E+01  2.90796E+01  2.41513E+01
   2.46138E+01  1.95231E+01  1.95116E+01  1.52727E+01  1.52211E+01  1.30349E+01  1.36593E+01  1.23433E+01  1.40110E+01  1.66826E+01
   2.04958E+01  2.34622E+01  2.85627E+01  3.15523E+01  3.79339E+01  4.00813E+01  4.71035E+01  4.67850E+01  5.32203E+01  4.92996E+01
   5.39578E+01  4.65650E+01  4.89928E+01  4.00356E+01  4.06869E+01  3.13345E+01  3.06468E+01  2.25019E+01  2.11683E+01  1.41841E+01
   1.23095E+01  6.70683E+00  5.14871E+00  4.40344E+00  4.54956E+00  4.09873E+00  4.26303E+00  3.88327E+00  3.96430E+00  3.69566E+00
   3.69941E+00  3.31345E+00  3.21641E+00  2.70158E+00  2.46430E+00  1.98786E+00  1.78128E+00  1.41658E+00  1.27454E+00  8.99217E-01
   7.70140E-01  4.27808E-01  2.69872E-01 -2.23280E-02 -3.02268E-01 -5.03367E-01 -8.77513E-01 -1.08466E+00 -1.58385E+00 -1.85908E+00
  -2.34316E+00 -2.65596E+00 -3.05297E+00 -3.41448E+00 -3.64970E+00 -4.00948E+00 -4.01226E+00 -4.52002E+00 -4.16476E+00 -4.63610E+00
  -3.77718E+00 -4.13783E+00 -3.27550E+00 -3.60656E+00 -2.92117E+00 -3.25154E+00 -2.85467E+00 -3.00063E+00 -2.88761E+00 -2.45092E+00
  -2.45521E+00 -1.50363E+00 -2.03601E+00 -5.28727E-02 -7.27935E-01  1.86552E+00  1.12056E+00  3.64833E+00  2.35508E+00  5.60208E+00
   4.89549E+00  7.96422E+00  6.70346E+00  9.50462E+00  7.83315E+00  8.54001E+00  5.93939E+00  5.14614E+00  2.83629E+00  8.37373E-01
  -2.35953E-01 -1.15957E+00  8.79160E-01  2.38744E-01  4.64776E+00  2.89059E+00  8.03521E+00  4.81437E+00  1.01731E+01  5.28210E+00
   9.91145E+00  6.46886E+00  1.12738E+01  8.72867E+00  1.31442E+01  1.04679E+01  1.20258E+01  1.09682E+01  1.21022E+01  1.31666E+01
   1.38539E+01  1.75073E+01  1.79014E+01  2.15000E+01  2.05921E+01  2.38018E+01  2.17970E+01  2.30511E+01  1.89725E+01  2.00181E+01
   1.73186E+01  1.74535E+01  1.55989E+01  1.49654E+01  1.42612E+01  1.29243E+01  1.32760E+01  1.25895E+01  1.63894E+01  1.73189E+01
   2.31334E+01  2.49751E+01  3.15751E+01  3.49466E+01  4.29953E+01  4.72833E+01  5.64216E+01  6.20112E+01  6.98786E+01  7.35731E+01
   7.89711E+01  8.01835E+01  8.08248E+01  7.90789E+01  7.51284E+01  7.04369E+01  6.37528E+01  5.79104E+01  5.03433E+01  4.47564E+01
   3.80132E+01  3.31499E+01  2.66594E+01  2.20292E+01  1.58743E+01  1.32005E+01  1.29121E+01  1.23220E+01  1.21595E+01  1.21349E+01
   1.18395E+01  1.17183E+01  1.14566E+01  1.13887E+01  1.11282E+01  1.10263E+01  1.07158E+01  1.05082E+01  1.02403E+01  1.01968E+01
   1.00953E+01  1.01394E+01  1.01614E+01  1.02717E+01  1.03537E+01  1.04588E+01  1.05106E+01  1.06017E+01  1.06488E+01  1.07269E+01
   1.07635E+01  1.08360E+01  1.08783E+01  1.09363E+01  1.09652E+01  1.10222E+01  1.10586E+01  1.11140E+01  1.11758E+01  1.12651E+01
   1.13816E+01  1.15505E+01  1.17827E+01  1.21114E+01  1.25802E+01  1.32004E+01  1.37594E+01  1.46262E+01  1.53841E+01  1.66141E+01
   1.74888E+01  1.90432E+01  2.00364E+01  2.21411E+01  2.32617E+01  2.57238E+01  2.67991E+01  2.95446E+01  3.06173E+01  3.34761E+01
   3.46438E+01  3.76099E+01  3.91007E+01  4.22506E+01  4.42940E+01  4.78607E+01  4.94470E+01  5.20540E+01  5.30532E+01  5.47683E+01
   5.46024E+01  5.49096E+01  5.39073E+01  5.44710E+01  5.22725E+01  5.20238E+01  4.84411E+01  4.74829E+01  4.28517E+01  4.08105E+01
   3.55601E+01  3.38381E+01  2.91734E+01  2.86124E+01  2.45782E+01  2.48177E+01  2.16122E+01  2.22228E+01  1.95410E+01  1.94718E+01
   1.75453E+01  1.74746E+01  1.73299E+01  1.85268E+01  1.76376E+01  1.73406E+01  1.61825E+01  1.46559E+01  1.31559E+01  1.01187E+01
   8.51780E+00  7.61709E+00  7.02986E+00  6.61966E+00  6.32289E+00  6.10521E+00  5.94652E+00  5.83469E+00  5.76208E+00  5.72377E+00
   5.71640E+00  5.73786E+00  5.78689E+00  5.86297E+00  5.96592E+00  6.09572E+00  6.25239E+00  6.43605E+00  6.64689E+00  6.88508E+00
   7.15052E+00  7.44278E+00  7.76098E+00  8.10382E+00  8.46946E+00  8.85542E+00  9.25841E+00  9.67427E+00  1.00980E+01  1.05239E+01
   1.09454E+01  1.13555E+01  1.17463E+01  1.21100E+01  1.24385E+01  1.27240E+01  1.29592E+01  1.31377E+01  1.32541E+01  1.33043E+01
   1.32857E+01  1.31976E+01  1.30408E+01  1.28179E+01  1.25329E+01  1.21915E+01  1.18005E+01  1.13675E+01  1.09009E+01  1.04094E+01
   9.90134E+00  9.38512E+00  8.86844E+00  8.35827E+00  7.86072E+00  7.38080E+00  6.92261E+00  6.48913E+00  6.08255E+00  5.70400E+00
   5.35403E+00  5.03230E+00  4.73819E+00  4.47043E+00  4.22774E+00  4.00834E+00  3.81061E+00  3.63261E+00  3.47270E+00  3.32906E+00
   3.20018E+00  3.08444E+00  2.98053E+00  2.88709E+00  2.80304E+00  2.72731E+00  2.65901E+00  2.59730E+00  2.54145E+00  2.49085E+00
   2.44489E+00  2.40315E+00  2.36514E+00  2.33051E+00  2.29887E+00  2.26999E+00  2.24356E+00  2.21939E+00  2.19724E+00  2.17695E+00
   2.15835E+00  2.14130E+00  2.12570E+00  2.11140E+00  2.09836E+00  2.08640E+00  2.07553E+00  2.06560E+00  2.05664E+00  2.04849E+00
   2.04120E+00  2.03462E+00  2.02883E+00  2.02370E+00  2.01928E+00  2.01547E+00  2.01231E+00  2.00975E+00  2.00779E+00  2.00641E+00
   2.00563E+00  2.00543E+00  2.00582E+00  2.00681E+00  2.00842E+00  2.01065E+00  2.01353E+00  2.01708E+00  2.02135E+00  2.02637E+00
   2.03220E+00  2.03888E+00  2.04651E+00  2.05515E+00  2.06492E+00  2.07594E+00  2.08834E+00  2.10231E+00
 NY background values follow
     4.089E+00    4.086E+00    4.083E+00    4.081E+00    4.078E+00    4.075E+00    4.073E+00    4.070E+00    4.067E+00    4.065E+00
     4.062E+00    4.059E+00    4.057E+00    4.054E+00    4.051E+00    4.049E+00    4.046E+00    4.043E+00    4.041E+00    4.038E+00
     4.035E+00    4.033E+00    4.030E+00    4.027E+00    4.025E+00    4.022E+00    4.019E+00    4.017E+00    4.014E+00    4.011E+00
     4.009E+00    4.006E+00    4.003E+00    4.001E+00    3.998E+00    3.995E+00    3.992E+00    3.990E+00    3.987E+00    3.984E+00
     3.982E+00    3.979E+00    3.976E+00    3.974E+00    3.971E+00    3.968E+00    3.966E+00    3.963E+00    3.960E+00    3.958E+00
     3.955E+00    3.952E+00    3.950E+00    3.947E+00    3.944E+00    3.941E+00    3.939E+00    3.936E+00    3.933E+00    3.931E+00
     3.928E+00    3.925E+00    3.923E+00    3.920E+00    3.917E+00    3.915E+00    3.912E+00    3.909E+00    3.907E+00    3.904E+00
     3.901E+00    3.898E+00    3.896E+00    3.893E+00    3.890E+00    3.888E+00    3.885E+00    3.882E+00    3.880E+00    3.877E+00
     3.874E+00    3.871E+00    3.869E+00    3.866E+00    3.863E+00    3.861E+00    3.858E+00    3.855E+00    3.853E+00    3.850E+00
     3.847E+00    3.844E+00    3.842E+00    3.839E+00    3.836E+00    3.834E+00    3.831E+00    3.828E+00    3.825E+00    3.823E+00
     3.820E+00    3.817E+00    3.815E+00    3.812E+00    3.809E+00    3.807E+00    3.804E+00    3.801E+00    3.798E+00    3.796E+00
     3.793E+00    3.790E+00    3.788E+00    3.785E+00    3.782E+00    3.779E+00    3.777E+00    3.774E+00    3.771E+00    3.769E+00
     3.766E+00    3.763E+00    3.760E+00    3.758E+00    3.755E+00    3.752E+00    3.750E+00    3.747E+00    3.744E+00    3.741E+00
     3.739E+00    3.736E+00    3.733E+00    3.730E+00    3.728E+00    3.725E+00    3.722E+00    3.720E+00    3.717E+00    3.714E+00
     3.711E+00    3.709E+00    3.706E+00    3.703E+00    3.701E+00    3.698E+00    3.695E+00    3.692E+00    3.690E+00    3.687E+00
     3.684E+00    3.681E+00    3.679E+00    3.676E+00    3.673E+00    3.671E+00    3.668E+00    3.665E+00    3.662E+00    3.660E+00
     3.657E+00    3.654E+00    3.651E+00    3.649E+00    3.646E+00    3.643E+00    3.641E+00    3.638E+00    3.635E+00    3.632E+00
     3.630E+00    3.627E+00    3.624E+00    3.621E+00    3.619E+00    3.616E+00    3.613E+00    3.610E+00    3.608E+00    3.605E+00
     3.602E+00    3.599E+00    3.597E+00    3.594E+00    3.591E+00    3.589E+00    3.586E+00    3.583E+00    3.580E+00    3.578E+00
     3.575E+00    3.572E+00    3.569E+00    3.567E+00    3.564E+00    3.561E+00    3.558E+00    3.556E+00    3.553E+00    3.550E+00
     3.547E+00    3.545E+00    3.542E+00    3.539E+00    3.536E+00    3.534E+00    3.531E+00    3.528E+00    3.525E+00    3.523E+00
     3.520E+00    3.517E+00    3.514E+00    3.512E+00    3.509E+00    3.506E+00    3.503E+00    3.501E+00    3.498E+00    3.495E+00
     3.493E+00    3.490E+00    3.487E+00    3.484E+00    3.481E+00    3.479E+00    3.476E+00    3.473E+00    3.470E+00    3.468E+00
     3.465E+00    3.462E+00    3.459E+00    3.457E+00    3.454E+00    3.451E+00    3.448E+00    3.446E+00    3.443E+00    3.440E+00
     3.437E+00    3.435E+00    3.432E+00    3.429E+00    3.426E+00    3.424E+00    3.421E+00    3.418E+00    3.415E+00    3.413E+00
     3.410E+00    3.407E+00    3.404E+00    3.402E+00    3.399E+00    3.396E+00    3.393E+00    3.391E+00    3.388E+00    3.385E+00
     3.382E+00    3.379E+00    3.377E+00    3.374E+00    3.371E+00    3.368E+00    3.366E+00    3.363E+00    3.360E+00    3.357E+00
     3.355E+00    3.352E+00    3.349E+00    3.346E+00    3.344E+00    3.341E+00    3.338E+00    3.335E+00    3.332E+00    3.330E+00
     3.327E+00    3.324E+00    3.321E+00    3.319E+00    3.316E+00    3.313E+00    3.310E+00    3.308E+00    3.305E+00    3.302E+00
     3.299E+00    3.296E+00    3.294E+00    3.291E+00    3.288E+00    3.285E+00    3.283E+00    3.280E+00    3.277E+00    3.274E+00
     3.271E+00    3.269E+00    3.266E+00    3.263E+00    3.260E+00    3.258E+00    3.255E+00    3.252E+00    3.249E+00    3.246E+00
     3.244E+00    3.241E+00    3.238E+00    3.235E+00    3.233E+00    3.230E+00    3.227E+00    3.224E+00    3.221E+00    3.219E+00
     3.216E+00    3.213E+00    3.210E+00    3.208E+00    3.205E+00    3.202E+00    3.199E+00    3.196E+00    3.194E+00    3.191E+00
     3.188E+00    3.185E+00    3.183E+00    3.180E+00    3.177E+00    3.174E+00    3.171E+00    3.169E+00    3.166E+00    3.163E+00
     3.160E+00    3.157E+00    3.155E+00    3.152E+00    3.149E+00    3.146E+00    3.144E+00    3.141E+00    3.138E+00    3.135E+00
     3.132E+00    3.130E+00    3.127E+00    3.124E+00    3.121E+00    3.118E+00    3.116E+00    3.113E+00    3.110E+00    3.107E+00
     3.105E+00    3.102E+00    3.099E+00    3.096E+00    3.093E+00    3.091E+00    3.088E+00    3.085E+00    3.082E+00    3.079E+00
     3.077E+00    3.074E+00    3.071E+00    3.068E+00    3.066E+00    3.063E+00    3.060E+00    3.057E+00    3.054E+00    3.052E+00
     3.049E+00    3.046E+00    3.043E+00    3.040E+00    3.038E+00    3.035E+00    3.032E+00    3.029E+00    3.026E+00    3.024E+00
     3.021E+00    3.018E+00    3.015E+00    3.013E+00    3.010E+00    3.007E+00    3.004E+00    3.001E+00    2.999E+00    2.996E+00
     2.993E+00    2.990E+00    2.987E+00    2.985E+00    2.982E+00    2.979E+00    2.976E+00    2.973E+00    2.971E+00    2.968E+00
     2.965E+00    2.962E+00    2.960E+00    2.957E+00    2.954E+00    2.951E+00    2.948E+00    2.946E+00    2.943E+00    2.940E+00
     2.937E+00    2.934E+00    2.932E+00    2.929E+00    2.926E+00    2.923E+00    2.920E+00    2.918E+00    2.915E+00    2.912E+00
     2.909E+00    2.906E+00    2.904E+00    2.901E+00    2.898E+00    2.895E+00    2.893E+00    2.890E+00    2.887E+00    2.884E+00
     2.881E+00    2.879E+00    2.876E+00    2.873E+00    2.870E+00    2.867E+00    2.865E+00    2.862E+00    2.859E+00    2.856E+00
     2.853E+00    2.851E+00    2.848E+00    2.845E+00    2.842E+00    2.839E+00    2.837E+00    2.834E+00    2.831E+00    2.828E+00
     2.825E+00    2.823E+00    2.820E+00    2.817E+00    2.814E+00    2.812E+00    2.809E+00    2.806E+00    2.803E+00    2.800E+00
     2.798E+00    2.795E+00    2.792E+00    2.789E+00    2.786E+00    2.784E+00    2.781E+00    2.778E+00    2.775E+00    2.772E+00
     2.770E+00    2.767E+00    2.764E+00    2.761E+00    2.758E+00    2.756E+00    2.753E+00    2.750E+00    2.747E+00    2.744E+00
     2.742E+00    2.739E+00    2.736E+00    2.733E+00    2.730E+00    2.728E+00    2.725E+00    2.722E+00
 Ala      Conc. = 6.27E+02
