 LCModel (Version 6.3-1L) Copyright: S.W. Provencher.          Ref.: Magn. Reson. Med. 30:672-679 (1993).                
 Slice#2 Row#8 Col#11  PD_05_press_2_raw_act
 36 lines in following concentration table = NCONC+1
    Conc.  %SD /Cr+PCr  Metabolite                                         
    0.000 999%   0.000 Ala                                                 
    1.759 999% 1.8E-03 Asp                                                 
  509.545  74%   0.521 Cr                                                  
  469.198  81%   0.479 PCr                                                 
   52.512 342% 5.4E-02 GABA                                                
  207.538  84%   0.212 Glc                                                 
 1.35E+03  30%   1.382 Gln                                                 
 2.17E+03  21%   2.220 Glu                                                 
  281.801  11%   0.288 GPC                                                 
    0.000 999%   0.000 PCh                                                 
  106.346 107%   0.109 GSH                                                 
  714.796  51%   0.730 Ins                                                 
    0.000 999%   0.000 Lac                                                 
 4.06E+03   3%   4.151 NAA                                                 
    0.000 999%   0.000 NAAG                                                
  114.950  31%   0.117 Scyllo                                              
  784.094  32%   0.801 Tau                                                 
  867.455  16%   0.886 -CrCH2                                              
  281.801  11%   0.288 GPC+PCh                                             
 4.06E+03   3%   4.151 NAA+NAAG                                            
  978.744   8%   1.000 Cr+PCr                                              
 3.52E+03  19%   3.601 Glu+Gln                                             
 2.22E+03  25%   2.269 Lip13a                                              
    0.000 999%   0.000 Lip13b                                              
    0.000 999%   0.000 Lip09                                               
 2.20E+03  11%   2.243 MM09                                                
  411.542  61%   0.420 Lip20                                               
 4.69E+03  10%   4.789 MM20                                                
  681.426  27%   0.696 MM12                                                
 2.46E+03  20%   2.516 MM14                                                
 1.75E+03  19%   1.790 MM17                                                
 2.22E+03  25%   2.269 Lip13a+Lip13b                                       
 5.36E+03   9%   5.481 MM14+Lip13a+Lip13b+MM12                             
 2.20E+03  11%   2.243 MM09+Lip09                                          
 5.10E+03   9%   5.210 MM20+Lip20                                          
   6 lines in following misc. output table
  FWHM = 0.061 ppm    S/N =  13                                            
  Data shift = 0.023 ppm                                                   
  Ph: -53 deg     -20.3 deg/ppm                                            
  alphaB,S = 8.5E+01,   3.3E+02                                            
   14 spline knots.   Ns = 8(1)                                            
   2 inflections.     1 extrema                                            
  498 points on ppm-axis = NY
      4.000000     3.992357     3.984714     3.977070     3.969427     3.961784     3.954141     3.946497     3.938854     3.931211
      3.923568     3.915925     3.908281     3.900638     3.892995     3.885352     3.877708     3.870065     3.862422     3.854779
      3.847136     3.839492     3.831849     3.824206     3.816563     3.808919     3.801276     3.793633     3.785990     3.778347
      3.770703     3.763060     3.755417     3.747774     3.740130     3.732487     3.724844     3.717201     3.709558     3.701914
      3.694271     3.686628     3.678985     3.671341     3.663698     3.656055     3.648412     3.640769     3.633125     3.625482
      3.617839     3.610196     3.602552     3.594909     3.587266     3.579623     3.571980     3.564336     3.556693     3.549050
      3.541407     3.533763     3.526120     3.518477     3.510834     3.503191     3.495547     3.487904     3.480261     3.472618
      3.464974     3.457331     3.449688     3.442045     3.434402     3.426758     3.419115     3.411472     3.403829     3.396185
      3.388542     3.380899     3.373256     3.365613     3.357969     3.350326     3.342683     3.335040     3.327396     3.319753
      3.312110     3.304467     3.296824     3.289180     3.281537     3.273894     3.266251     3.258607     3.250964     3.243321
      3.235678     3.228034     3.220391     3.212748     3.205105     3.197462     3.189818     3.182175     3.174532     3.166889
      3.159245     3.151602     3.143959     3.136316     3.128673     3.121029     3.113386     3.105743     3.098100     3.090456
      3.082813     3.075170     3.067527     3.059884     3.052240     3.044597     3.036954     3.029311     3.021667     3.014024
      3.006381     2.998738     2.991095     2.983451     2.975808     2.968165     2.960522     2.952878     2.945235     2.937592
      2.929949     2.922306     2.914662     2.907019     2.899376     2.891733     2.884089     2.876446     2.868803     2.861160
      2.853517     2.845873     2.838230     2.830587     2.822944     2.815300     2.807657     2.800014     2.792371     2.784728
      2.777084     2.769441     2.761798     2.754155     2.746511     2.738868     2.731225     2.723582     2.715939     2.708295
      2.700652     2.693009     2.685366     2.677722     2.670079     2.662436     2.654793     2.647150     2.639506     2.631863
      2.624220     2.616577     2.608933     2.601290     2.593647     2.586004     2.578361     2.570717     2.563074     2.555431
      2.547788     2.540144     2.532501     2.524858     2.517215     2.509572     2.501928     2.494285     2.486642     2.478999
      2.471355     2.463712     2.456069     2.448426     2.440783     2.433139     2.425496     2.417853     2.410210     2.402566
      2.394923     2.387280     2.379637     2.371994     2.364350     2.356707     2.349064     2.341421     2.333777     2.326134
      2.318491     2.310848     2.303205     2.295561     2.287918     2.280275     2.272632     2.264988     2.257345     2.249702
      2.242059     2.234416     2.226772     2.219129     2.211486     2.203843     2.196199     2.188556     2.180913     2.173270
      2.165627     2.157983     2.150340     2.142697     2.135054     2.127410     2.119767     2.112124     2.104481     2.096838
      2.089194     2.081551     2.073908     2.066265     2.058621     2.050978     2.043335     2.035692     2.028049     2.020405
      2.012762     2.005119     1.997476     1.989833     1.982190     1.974546     1.966903     1.959260     1.951617     1.943974
      1.936331     1.928688     1.921045     1.913402     1.905759     1.898115     1.890472     1.882829     1.875186     1.867543
      1.859900     1.852257     1.844614     1.836971     1.829327     1.821684     1.814041     1.806398     1.798755     1.791112
      1.783469     1.775826     1.768183     1.760540     1.752896     1.745253     1.737610     1.729967     1.722324     1.714681
      1.707038     1.699395     1.691752     1.684108     1.676465     1.668822     1.661179     1.653536     1.645893     1.638250
      1.630607     1.622964     1.615321     1.607677     1.600034     1.592391     1.584748     1.577105     1.569462     1.561819
      1.554176     1.546533     1.538890     1.531246     1.523603     1.515960     1.508317     1.500674     1.493031     1.485388
      1.477745     1.470102     1.462458     1.454815     1.447172     1.439529     1.431886     1.424243     1.416600     1.408957
      1.401314     1.393671     1.386027     1.378384     1.370741     1.363098     1.355455     1.347812     1.340169     1.332526
      1.324883     1.317240     1.309596     1.301953     1.294310     1.286667     1.279024     1.271381     1.263738     1.256095
      1.248452     1.240808     1.233165     1.225522     1.217879     1.210236     1.202593     1.194950     1.187307     1.179664
      1.172021     1.164377     1.156734     1.149091     1.141448     1.133805     1.126162     1.118519     1.110876     1.103233
      1.095590     1.087946     1.080303     1.072660     1.065017     1.057374     1.049731     1.042088     1.034445     1.026802
      1.019158     1.011515     1.003872     0.996229     0.988586     0.980943     0.973300     0.965657     0.958014     0.950371
      0.942727     0.935084     0.927441     0.919798     0.912155     0.904512     0.896869     0.889226     0.881583     0.873940
      0.866296     0.858653     0.851010     0.843367     0.835724     0.828081     0.820438     0.812795     0.805152     0.797508
      0.789865     0.782222     0.774579     0.766936     0.759293     0.751650     0.744007     0.736364     0.728721     0.721077
      0.713434     0.705791     0.698148     0.690505     0.682862     0.675219     0.667576     0.659933     0.652290     0.644646
      0.637003     0.629360     0.621717     0.614074     0.606431     0.598788     0.591145     0.583502     0.575858     0.568215
      0.560572     0.552929     0.545286     0.537643     0.530000     0.522357     0.514714     0.507071     0.499427     0.491784
      0.484141     0.476498     0.468855     0.461212     0.453569     0.445925     0.438282     0.430639     0.422996     0.415353
      0.407710     0.400067     0.392424     0.384780     0.377137     0.369494     0.361851     0.354208     0.346565     0.338922
      0.331278     0.323635     0.315992     0.308349     0.300706     0.293063     0.285420     0.277777     0.270133     0.262490
      0.254847     0.247204     0.239561     0.231918     0.224275     0.216631     0.208988     0.201345
 NY phased data points follow
   1.13416E+01  1.34187E+00 -5.18806E+00 -1.02007E+00  3.35605E-01  4.89758E+00  6.75026E+00  2.07199E+00 -3.67349E+00 -2.00128E+00
   5.61161E+00 -8.75566E-01  9.15556E+00  6.16472E+00  7.82698E+00  6.43319E+00  3.57785E+00  8.22152E+00 -2.33974E+00  8.91317E+00
   2.73699E+00  5.11806E+00  6.84229E+00  6.46906E+00 -3.55607E-01  5.10071E+00  2.44298E+00  4.67755E+00  6.70051E+00  2.04305E+00
  -3.27778E+00  3.87824E+00  1.18039E+01  5.89461E+00  1.14044E+01  1.02458E+01  3.46265E+00  2.02990E+00  5.61898E+00  1.08143E+01
   1.01075E+01  3.48387E+00  3.93710E+00  9.88650E+00  1.41806E+00  6.52116E+00  6.25348E+00  5.37051E+00  1.00420E+01  1.02127E+01
   5.85220E+00  4.95146E+00  8.14647E+00  1.00867E+01  6.15035E+00  1.06062E+01  4.92123E+00  1.16549E+01  5.06495E+00  2.04775E+00
   2.34400E+00  4.68614E+00  1.97459E+00 -2.76627E+00  5.84955E+00  6.04025E+00  5.94161E+00  4.96366E+00  8.92959E+00  8.99872E+00
  -1.85476E+00  6.44959E+00  6.39481E+00  9.55641E+00  3.45749E+00  4.90986E+00  1.07795E+01  3.20986E+00  5.90857E+00  6.05369E+00
   9.64850E+00  1.12732E+01  5.96873E+00  8.31272E+00  1.18664E+01  8.78466E+00  8.46833E+00  4.02126E+00  2.10109E+00  9.52852E+00
   6.54723E+00  9.52066E+00  6.23608E+00  1.04518E+01  1.45365E+01  1.31595E+01  1.12689E+01  1.62732E+01  1.93029E+01  2.64820E+01
   2.13770E+01  2.67983E+01  3.23634E+01  2.25865E+01  1.71169E+01  1.82728E+01  1.51332E+01  1.59233E+01  4.75849E+00  1.16582E+01
   1.13188E+01  1.31263E+01  9.57244E+00  8.17146E+00  1.01376E+01  7.08080E+00  8.31454E+00  3.73178E+00  1.86968E+00  9.04644E+00
   3.78503E+00  1.08807E+01  2.12121E+01  1.66582E+01  2.66911E+01  2.47882E+01  3.63213E+01  3.42233E+01  3.90750E+01  3.40640E+01
   2.76044E+01  1.07919E+01  1.81005E+01  5.72039E+00  8.27112E+00  1.26947E+01  1.02582E+01  6.25893E+00  8.17329E+00  4.13385E+00
   1.07552E+01  4.82652E+00  9.59329E-01  2.17394E+00  3.84206E+00  4.01362E+00  1.06034E+01  1.66041E+00  5.22615E+00  1.22174E+00
   5.17818E+00 -1.64615E+00  6.47269E+00  1.47356E+00  6.30481E+00  3.29248E+00  5.94119E+00  3.84012E+00 -2.00981E+00  2.95659E+00
   7.87040E+00  6.58399E-01  2.01149E+00  6.83042E-01  3.49186E+00  1.85249E-01  3.93923E-01 -3.74813E+00 -1.27426E+00 -9.55121E+00
  -5.65975E+00 -1.38005E+01 -1.19874E+01 -6.92799E+00 -1.67982E+01 -1.75578E+01 -1.73264E+01 -1.89354E+01 -1.02197E+01 -1.16979E+01
  -1.02030E+01 -5.28618E+00 -3.54754E+00 -9.40232E+00 -2.40056E+00 -4.13877E+00 -9.95004E+00 -6.18567E+00 -2.22315E-01  6.51973E-02
   2.79313E+00  2.47146E+00  3.59886E+00 -4.09522E+00 -1.70935E+00 -1.54559E+00 -5.42922E+00 -2.02208E+00 -5.56601E+00 -3.59389E+00
  -2.31083E+00 -1.56841E+00  1.34860E+00  4.55144E+00  4.10644E+00  9.57064E+00  3.37911E+00  5.46519E+00  9.87530E-01 -2.49029E+00
   7.07374E+00  5.19110E+00  1.32994E+01  1.35424E+01  2.02898E+01  2.10137E+01  1.72623E+01  1.92205E+01  1.74465E+01  1.22624E+01
   1.20498E+01  3.92940E+00 -2.71714E-02  4.37627E+00  8.36411E+00  5.05020E+00  1.48733E+01  1.50818E+01  1.38514E+01  7.50150E+00
   1.46846E+01  1.53505E+01  1.06887E+01  1.13477E+01  1.07423E+01  1.32261E+01  1.24510E+01  1.98595E+01  1.67844E+01  1.31426E+01
   7.86924E+00  1.02260E+01  8.53802E+00  6.95423E+00  1.74866E+01  1.85740E+01  1.30088E+01  2.10100E+01  3.07974E+01  2.23963E+01
   3.18902E+01  1.97938E+01  3.34806E+01  3.97549E+01  4.50910E+01  5.97480E+01  7.30885E+01  8.53906E+01  1.01908E+02  1.30031E+02
   1.45907E+02  1.39088E+02  1.21577E+02  1.05827E+02  8.39344E+01  6.19899E+01  4.90389E+01  3.97107E+01  3.10818E+01  2.16642E+01
   2.10693E+01  2.14979E+01  2.01058E+01  1.16408E+01  9.35512E+00  7.45730E+00  7.99210E+00  1.10480E+01  1.66260E+01  1.22257E+01
   1.13104E+01  1.18717E+01  7.22368E+00  3.66518E+00  7.20667E+00  1.20598E+00  9.23220E+00  7.95142E+00  1.05205E+01  1.10957E+01
   1.41389E+01  9.94721E+00  6.86133E+00  9.99795E+00  1.03836E+01  1.01207E+01  9.01697E+00  6.97687E+00  1.45180E+01  7.75493E+00
   1.01126E+01  3.52474E+00  9.97288E+00  4.81079E+00  1.40032E+01  1.63480E+01  1.34868E+01  1.70974E+01  1.47852E+01  9.95796E+00
   2.25696E+01  1.65751E+01  1.49837E+01  2.01325E+01  2.15835E+01  1.33961E+01  1.86762E+01  1.75778E+01  1.12154E+01  1.47052E+01
   1.24262E+01  1.00957E+01  2.25711E+01  1.26153E+01  1.36230E+01  1.46567E+01  1.49067E+01  7.62585E+00  1.47016E+01  1.61275E+01
   2.18168E+01  1.80248E+01  1.82155E+01  1.60934E+01  1.94633E+01  1.72508E+01  1.34774E+01  1.83248E+01  1.73130E+01  1.29761E+01
   1.05210E+01  1.46190E+01  1.51467E+01  1.21831E+01  1.80395E+01  1.46518E+01  2.32068E+01  1.61458E+01  2.64887E+01  2.48292E+01
   1.85395E+01  2.11099E+01  2.25339E+01  2.05813E+01  1.16861E+01  2.16535E+01  9.49390E+00  1.09865E+01  1.49244E+01  1.79953E+01
   1.88435E+01  1.32838E+01  1.31523E+01  2.01245E+01  1.41944E+01  6.57304E+00  8.79955E+00  1.11432E+01  1.50893E+01  1.48470E+01
   1.66598E+01  9.38324E+00  9.76088E+00  3.83991E+00  1.18959E+01  5.35620E+00  4.78985E+00  8.94501E+00  9.86303E+00  8.68370E+00
   1.13809E+01  6.56894E+00  5.40935E+00  8.28162E+00  1.16631E+01  1.66326E+01  9.05006E+00  8.45471E+00  1.04020E+01  3.36399E+00
   7.29081E+00  5.57070E+00  1.16273E+01  8.03723E+00  9.91627E+00  8.27607E+00  1.03814E+01  1.37921E+01  1.60436E+01  9.95748E+00
   1.56516E+01  1.23623E+01  1.38246E+01  1.32240E+01  1.12354E+01  1.07690E+01  1.10045E+01  1.71891E+01  1.12442E+01  1.17808E+01
   1.08568E+01  9.20778E+00  1.51772E+01  7.37323E+00  1.00884E+01  1.23815E+01  8.06081E+00  8.96078E+00  3.38190E+00 -1.17533E+00
   5.28901E+00  7.85964E+00  5.87979E+00  2.87797E+00 -2.33266E+00  3.24484E+00  4.88156E+00  7.89041E+00  2.96644E+00  7.90934E-01
  -5.90450E+00  4.37662E-01  3.75111E+00  1.98929E+00  1.43464E+00  1.54677E+00 -4.21341E+00  2.96379E+00  6.23746E-01 -4.65754E+00
  -1.27736E+00 -5.74606E+00  2.15895E+00 -5.07891E-01  2.01171E+00 -3.04440E+00  3.81002E+00 -6.71966E-01  4.16311E-01 -6.07417E+00
  -4.35309E+00  1.76594E+00  2.35644E+00 -2.11303E+00 -6.33609E+00 -3.67368E+00 -4.51613E+00 -3.66300E+00  3.54832E+00 -1.49035E+00
   1.33509E+00 -5.02837E+00 -6.34939E+00 -4.07824E+00  8.17704E-01  2.67568E-01  3.76045E+00  2.41603E-01 -1.60704E+00  9.89241E-01
   4.29053E+00 -6.11990E-01  3.13364E+00  2.51995E+00  2.28262E-01 -1.08062E+00  1.48384E+00 -9.63953E-01 -3.24983E+00  2.24956E+00
   2.62536E+00 -5.55376E-01  1.58002E+00  4.91109E+00 -8.29571E-01  1.33462E+00 -3.61356E+00 -1.91478E+00  4.59436E+00  4.61757E+00
  -7.58812E-01  3.39453E+00  1.09387E-01 -1.63567E+00  4.12791E+00  2.39513E+00 -5.15987E+00 -9.52141E+00
 NY points of the fit to the data follow
   3.12678E+00  2.73608E+00  2.18200E+00  1.75564E+00  1.57327E+00  1.51841E+00  1.54589E+00  1.73407E+00  2.26411E+00  3.25765E+00
   4.58470E+00  5.89511E+00  6.84185E+00  7.25381E+00  7.15813E+00  6.73745E+00  6.25099E+00  5.86973E+00  5.57492E+00  5.25949E+00
   4.91185E+00  4.62145E+00  4.36627E+00  4.09697E+00  3.86806E+00  3.74787E+00  3.84247E+00  4.29691E+00  5.14486E+00  6.31582E+00
   7.64322E+00  8.80087E+00  9.44871E+00  9.43552E+00  8.76177E+00  7.57690E+00  6.17566E+00  4.93880E+00  4.06641E+00  3.66529E+00
   3.81233E+00  4.42591E+00  5.28496E+00  6.19956E+00  7.08772E+00  7.89276E+00  8.48312E+00  8.73946E+00  8.59887E+00  8.03124E+00
   7.13180E+00  6.13288E+00  5.22929E+00  4.52840E+00  4.07048E+00  3.83719E+00  3.77613E+00  3.86491E+00  4.09819E+00  4.41506E+00
   4.68363E+00  4.85664E+00  4.91826E+00  4.87770E+00  4.80514E+00  4.75366E+00  4.71867E+00  4.73998E+00  4.88431E+00  5.14077E+00
   5.48548E+00  5.89385E+00  6.31417E+00  6.67119E+00  6.89342E+00  6.88472E+00  6.57905E+00  6.04059E+00  5.52735E+00  5.29895E+00
   5.40702E+00  5.83602E+00  6.53366E+00  7.36876E+00  8.16668E+00  8.74935E+00  8.92084E+00  8.55890E+00  7.74949E+00  6.68396E+00
   5.57027E+00  4.62247E+00  3.94105E+00  3.76945E+00  4.68185E+00  6.70146E+00  9.64134E+00  1.32826E+01  1.73136E+01  2.13457E+01
   2.48333E+01  2.70732E+01  2.75394E+01  2.61857E+01  2.34453E+01  1.99965E+01  1.64925E+01  1.33728E+01  1.08013E+01  8.72483E+00
   7.00710E+00  5.74806E+00  5.11426E+00  4.77952E+00  4.53047E+00  4.34839E+00  4.23317E+00  4.21619E+00  4.56338E+00  5.91518E+00
   8.33506E+00  1.15461E+01  1.54000E+01  1.97997E+01  2.45005E+01  2.89115E+01  3.21297E+01  3.33375E+01  3.22751E+01  2.93341E+01
   2.52848E+01  2.09586E+01  1.69792E+01  1.36100E+01  1.08283E+01  8.54725E+00  6.88049E+00  6.04350E+00  5.70391E+00  5.53679E+00
   5.44084E+00  5.36103E+00  5.26161E+00  5.13134E+00  4.97328E+00  4.79156E+00  4.59676E+00  4.39969E+00  4.20782E+00  4.03188E+00
   3.88049E+00  3.75954E+00  3.66530E+00  3.52097E+00  3.26399E+00  2.91851E+00  2.52180E+00  2.13761E+00  1.77037E+00  1.37951E+00
   1.02015E+00  7.97842E-01  7.67315E-01  8.65071E-01  9.27595E-01  7.86520E-01  3.62330E-01 -3.13484E-01 -1.16507E+00 -2.10764E+00
  -2.98582E+00 -3.76291E+00 -4.45626E+00 -5.08518E+00 -5.62530E+00 -5.91949E+00 -5.90876E+00 -5.67345E+00 -5.35061E+00 -5.11585E+00
  -5.01871E+00 -4.92107E+00 -4.71545E+00 -4.35212E+00 -3.81933E+00 -3.13116E+00 -2.29852E+00 -1.30639E+00 -1.41475E-01  1.11167E+00
   2.23617E+00  3.01436E+00  3.43244E+00  3.67121E+00  3.89185E+00  4.18968E+00  4.68365E+00  5.38685E+00  6.27984E+00  7.34498E+00
   8.38633E+00  9.12841E+00  9.30549E+00  8.81402E+00  7.56536E+00  5.50790E+00  2.86930E+00  2.23398E-01 -1.76523E+00 -2.53514E+00
  -1.98349E+00 -2.61921E-01  2.30359E+00  5.28487E+00  8.13147E+00  1.01091E+01  1.07284E+01  9.95638E+00  8.00185E+00  5.29796E+00
   2.51772E+00  4.43263E-01 -4.07469E-01  7.96589E-02  1.70445E+00  4.09199E+00  6.76626E+00  9.17743E+00  1.08805E+01  1.18879E+01
   1.24004E+01  1.26470E+01  1.28022E+01  1.29861E+01  1.33460E+01  1.40006E+01  1.48687E+01  1.57656E+01  1.64853E+01  1.68218E+01
   1.67086E+01  1.62874E+01  1.58536E+01  1.57034E+01  1.59645E+01  1.66125E+01  1.75909E+01  1.88048E+01  2.01030E+01  2.14154E+01
   2.27660E+01  2.44140E+01  2.79874E+01  3.58420E+01  4.72028E+01  6.09944E+01  7.67527E+01  9.40103E+01  1.11386E+02  1.25995E+02
   1.34108E+02  1.33144E+02  1.23229E+02  1.06905E+02  8.77215E+01  6.89513E+01  5.26880E+01  3.94864E+01  2.88773E+01  2.05169E+01
   1.50981E+01  1.28405E+01  1.18203E+01  1.11761E+01  1.07115E+01  1.03225E+01  9.92016E+00  9.48720E+00  9.03042E+00  8.56625E+00
   8.12151E+00  7.72158E+00  7.37834E+00  7.10242E+00  6.90417E+00  6.78128E+00  6.72125E+00  6.71508E+00  6.75858E+00  6.85186E+00
   6.99477E+00  7.18547E+00  7.42671E+00  7.72115E+00  8.06772E+00  8.46470E+00  8.90874E+00  9.39410E+00  9.91233E+00  1.04539E+01
   1.10085E+01  1.15654E+01  1.21125E+01  1.26378E+01  1.31291E+01  1.35755E+01  1.39675E+01  1.42986E+01  1.45643E+01  1.47631E+01
   1.48957E+01  1.49659E+01  1.49796E+01  1.49458E+01  1.48748E+01  1.47780E+01  1.46671E+01  1.45540E+01  1.44499E+01  1.43648E+01
   1.43070E+01  1.42826E+01  1.42953E+01  1.43468E+01  1.44366E+01  1.45621E+01  1.47189E+01  1.49014E+01  1.51029E+01  1.53167E+01
   1.55358E+01  1.57539E+01  1.59651E+01  1.61647E+01  1.63493E+01  1.65169E+01  1.66669E+01  1.67998E+01  1.69169E+01  1.70207E+01
   1.71139E+01  1.71997E+01  1.72806E+01  1.73589E+01  1.74357E+01  1.75112E+01  1.75844E+01  1.76531E+01  1.77136E+01  1.77613E+01
   1.77904E+01  1.77950E+01  1.77686E+01  1.77052E+01  1.75992E+01  1.74457E+01  1.72412E+01  1.69837E+01  1.66727E+01  1.63095E+01
   1.58968E+01  1.54388E+01  1.49410E+01  1.44105E+01  1.38546E+01  1.32815E+01  1.26994E+01  1.21168E+01  1.15416E+01  1.09817E+01
   1.04441E+01  9.93533E+00  9.46098E+00  9.02615E+00  8.63503E+00  8.29138E+00  7.99805E+00  7.75757E+00  7.57173E+00  7.44226E+00
   7.37024E+00  7.35668E+00  7.40189E+00  7.50607E+00  7.66872E+00  7.88911E+00  8.16559E+00  8.49588E+00  8.87645E+00  9.30291E+00
   9.76942E+00  1.02691E+01  1.07933E+01  1.13324E+01  1.18749E+01  1.24090E+01  1.29215E+01  1.33991E+01  1.38284E+01  1.41966E+01
   1.44916E+01  1.47034E+01  1.48234E+01  1.48460E+01  1.47678E+01  1.45884E+01  1.43101E+01  1.39385E+01  1.34810E+01  1.29476E+01
   1.23497E+01  1.17000E+01  1.10115E+01  1.02976E+01  9.57104E+00  8.84387E+00  8.12663E+00  7.42868E+00  6.75756E+00  6.11944E+00
   5.51858E+00  4.95793E+00  4.43880E+00  3.96162E+00  3.52560E+00  3.12944E+00  2.77095E+00  2.44780E+00  2.15716E+00  1.89639E+00
   1.66261E+00  1.45329E+00  1.26571E+00  1.09758E+00  9.46577E-01  8.10879E-01  6.88610E-01  5.78324E-01  4.78464E-01  3.87909E-01
   3.05459E-01  2.30338E-01  1.61618E-01  9.86975E-02  4.07897E-02 -1.25374E-02 -6.18705E-02 -1.07467E-01 -1.49816E-01 -1.89133E-01
  -2.25858E-01 -2.60110E-01 -2.92210E-01 -3.22200E-01 -3.50392E-01 -3.76845E-01 -4.01844E-01 -4.25370E-01 -4.47633E-01 -4.68596E-01
  -4.88496E-01 -5.07317E-01 -5.25262E-01 -5.42247E-01 -5.58432E-01 -5.73753E-01 -5.88415E-01 -6.02360E-01 -6.15742E-01 -6.28444E-01
  -6.40609E-01 -6.52159E-01 -6.63276E-01 -6.73868E-01 -6.84059E-01 -6.93718E-01 -7.02989E-01 -7.11792E-01 -7.20290E-01 -7.28366E-01
  -7.36126E-01 -7.43437E-01 -7.50442E-01 -7.57054E-01 -7.63413E-01 -7.69377E-01 -7.75041E-01 -7.80276E-01 -7.85225E-01 -7.89784E-01
  -7.94066E-01 -7.97910E-01 -8.01399E-01 -8.04402E-01 -8.07047E-01 -8.09199E-01 -8.10929E-01 -8.12041E-01
 NY background values follow
     1.745E+00    1.741E+00    1.738E+00    1.734E+00    1.730E+00    1.727E+00    1.723E+00    1.720E+00    1.716E+00    1.712E+00
     1.709E+00    1.705E+00    1.701E+00    1.698E+00    1.694E+00    1.691E+00    1.687E+00    1.683E+00    1.680E+00    1.676E+00
     1.672E+00    1.669E+00    1.665E+00    1.662E+00    1.658E+00    1.654E+00    1.651E+00    1.647E+00    1.643E+00    1.640E+00
     1.636E+00    1.632E+00    1.629E+00    1.625E+00    1.621E+00    1.618E+00    1.614E+00    1.610E+00    1.607E+00    1.603E+00
     1.599E+00    1.596E+00    1.592E+00    1.588E+00    1.585E+00    1.581E+00    1.577E+00    1.574E+00    1.570E+00    1.566E+00
     1.563E+00    1.559E+00    1.555E+00    1.552E+00    1.548E+00    1.544E+00    1.541E+00    1.537E+00    1.533E+00    1.529E+00
     1.526E+00    1.522E+00    1.518E+00    1.515E+00    1.511E+00    1.507E+00    1.504E+00    1.500E+00    1.496E+00    1.492E+00
     1.489E+00    1.485E+00    1.481E+00    1.478E+00    1.474E+00    1.470E+00    1.466E+00    1.463E+00    1.459E+00    1.455E+00
     1.452E+00    1.448E+00    1.444E+00    1.440E+00    1.437E+00    1.433E+00    1.429E+00    1.425E+00    1.422E+00    1.418E+00
     1.414E+00    1.411E+00    1.407E+00    1.403E+00    1.399E+00    1.396E+00    1.392E+00    1.388E+00    1.384E+00    1.381E+00
     1.377E+00    1.373E+00    1.369E+00    1.366E+00    1.362E+00    1.358E+00    1.354E+00    1.351E+00    1.347E+00    1.343E+00
     1.339E+00    1.336E+00    1.332E+00    1.328E+00    1.324E+00    1.320E+00    1.317E+00    1.313E+00    1.309E+00    1.305E+00
     1.302E+00    1.298E+00    1.294E+00    1.290E+00    1.287E+00    1.283E+00    1.279E+00    1.275E+00    1.271E+00    1.268E+00
     1.264E+00    1.260E+00    1.256E+00    1.253E+00    1.249E+00    1.245E+00    1.241E+00    1.237E+00    1.234E+00    1.230E+00
     1.226E+00    1.222E+00    1.218E+00    1.215E+00    1.211E+00    1.207E+00    1.203E+00    1.199E+00    1.196E+00    1.192E+00
     1.188E+00    1.184E+00    1.180E+00    1.177E+00    1.173E+00    1.169E+00    1.165E+00    1.161E+00    1.158E+00    1.154E+00
     1.150E+00    1.146E+00    1.142E+00    1.139E+00    1.135E+00    1.131E+00    1.127E+00    1.123E+00    1.119E+00    1.116E+00
     1.112E+00    1.108E+00    1.104E+00    1.100E+00    1.097E+00    1.093E+00    1.089E+00    1.085E+00    1.081E+00    1.077E+00
     1.074E+00    1.070E+00    1.066E+00    1.062E+00    1.058E+00    1.055E+00    1.051E+00    1.047E+00    1.043E+00    1.039E+00
     1.035E+00    1.032E+00    1.028E+00    1.024E+00    1.020E+00    1.016E+00    1.012E+00    1.009E+00    1.005E+00    1.001E+00
     9.970E-01    9.932E-01    9.893E-01    9.855E-01    9.817E-01    9.778E-01    9.740E-01    9.701E-01    9.663E-01    9.625E-01
     9.586E-01    9.548E-01    9.509E-01    9.471E-01    9.432E-01    9.394E-01    9.355E-01    9.317E-01    9.279E-01    9.240E-01
     9.202E-01    9.163E-01    9.125E-01    9.086E-01    9.048E-01    9.009E-01    8.971E-01    8.932E-01    8.893E-01    8.855E-01
     8.816E-01    8.778E-01    8.739E-01    8.701E-01    8.662E-01    8.624E-01    8.585E-01    8.547E-01    8.508E-01    8.469E-01
     8.431E-01    8.392E-01    8.354E-01    8.315E-01    8.276E-01    8.238E-01    8.199E-01    8.161E-01    8.122E-01    8.083E-01
     8.045E-01    8.006E-01    7.968E-01    7.929E-01    7.890E-01    7.852E-01    7.813E-01    7.774E-01    7.736E-01    7.697E-01
     7.658E-01    7.620E-01    7.581E-01    7.542E-01    7.504E-01    7.465E-01    7.426E-01    7.388E-01    7.349E-01    7.310E-01
     7.272E-01    7.233E-01    7.194E-01    7.156E-01    7.117E-01    7.078E-01    7.039E-01    7.001E-01    6.962E-01    6.923E-01
     6.885E-01    6.846E-01    6.807E-01    6.769E-01    6.730E-01    6.691E-01    6.652E-01    6.614E-01    6.575E-01    6.536E-01
     6.498E-01    6.459E-01    6.420E-01    6.381E-01    6.343E-01    6.304E-01    6.265E-01    6.226E-01    6.188E-01    6.149E-01
     6.110E-01    6.071E-01    6.033E-01    5.994E-01    5.955E-01    5.916E-01    5.878E-01    5.839E-01    5.800E-01    5.762E-01
     5.723E-01    5.684E-01    5.645E-01    5.607E-01    5.568E-01    5.529E-01    5.490E-01    5.452E-01    5.413E-01    5.374E-01
     5.335E-01    5.297E-01    5.258E-01    5.219E-01    5.180E-01    5.142E-01    5.103E-01    5.064E-01    5.025E-01    4.987E-01
     4.948E-01    4.909E-01    4.870E-01    4.832E-01    4.793E-01    4.754E-01    4.715E-01    4.677E-01    4.638E-01    4.599E-01
     4.561E-01    4.522E-01    4.483E-01    4.444E-01    4.406E-01    4.367E-01    4.328E-01    4.290E-01    4.251E-01    4.212E-01
     4.173E-01    4.135E-01    4.096E-01    4.057E-01    4.019E-01    3.980E-01    3.941E-01    3.902E-01    3.864E-01    3.825E-01
     3.786E-01    3.748E-01    3.709E-01    3.670E-01    3.632E-01    3.593E-01    3.554E-01    3.516E-01    3.477E-01    3.438E-01
     3.400E-01    3.361E-01    3.322E-01    3.284E-01    3.245E-01    3.206E-01    3.168E-01    3.129E-01    3.091E-01    3.052E-01
     3.013E-01    2.975E-01    2.936E-01    2.897E-01    2.859E-01    2.820E-01    2.782E-01    2.743E-01    2.704E-01    2.666E-01
     2.627E-01    2.589E-01    2.550E-01    2.512E-01    2.473E-01    2.434E-01    2.396E-01    2.357E-01    2.319E-01    2.280E-01
     2.242E-01    2.203E-01    2.165E-01    2.126E-01    2.088E-01    2.049E-01    2.011E-01    1.972E-01    1.934E-01    1.895E-01
     1.857E-01    1.818E-01    1.780E-01    1.741E-01    1.703E-01    1.664E-01    1.626E-01    1.587E-01    1.549E-01    1.511E-01
     1.472E-01    1.434E-01    1.395E-01    1.357E-01    1.318E-01    1.280E-01    1.242E-01    1.203E-01    1.165E-01    1.127E-01
     1.088E-01    1.050E-01    1.012E-01    9.732E-02    9.349E-02    8.966E-02    8.582E-02    8.199E-02    7.816E-02    7.433E-02
     7.050E-02    6.668E-02    6.285E-02    5.902E-02    5.520E-02    5.137E-02    4.755E-02    4.372E-02    3.990E-02    3.608E-02
     3.226E-02    2.844E-02    2.462E-02    2.080E-02    1.698E-02    1.316E-02    9.347E-03    5.531E-03    1.717E-03   -2.097E-03
    -5.910E-03   -9.723E-03   -1.353E-02   -1.734E-02   -2.115E-02   -2.496E-02   -2.877E-02   -3.258E-02   -3.639E-02   -4.019E-02
    -4.400E-02   -4.780E-02   -5.160E-02   -5.540E-02   -5.920E-02   -6.300E-02   -6.680E-02   -7.060E-02   -7.440E-02   -7.820E-02
    -8.199E-02   -8.579E-02   -8.958E-02   -9.337E-02   -9.716E-02   -1.010E-01   -1.047E-01   -1.085E-01   -1.123E-01   -1.161E-01
    -1.199E-01   -1.237E-01   -1.275E-01   -1.312E-01   -1.350E-01   -1.388E-01   -1.426E-01   -1.464E-01
 Asp      Conc. = 1.76E+00
