 LCModel (Version 6.3-1L) Copyright: S.W. Provencher.          Ref.: Magn. Reson. Med. 30:672-679 (1993).                
 Slice#2 Row#4 Col#3  PD_05_press_2_raw_act
 36 lines in following concentration table = NCONC+1
    Conc.  %SD /Cr+PCr  Metabolite                                         
    0.000 999%   0.000 Ala                                                 
    0.000 999%   0.000 Asp                                                 
 2.44E+03   5%   1.000 Cr                                                  
    0.000 999%   0.000 PCr                                                 
    6.932 999% 2.8E-03 GABA                                                
    0.000 999%   0.000 Glc                                                 
  928.669  59%   0.380 Gln                                                 
 2.79E+03  23%   1.140 Glu                                                 
  876.946   6%   0.359 GPC                                                 
    0.000 999%   0.000 PCh                                                 
  774.557  22%   0.317 GSH                                                 
 1.17E+03  51%   0.480 Ins                                                 
    0.000 999%   0.000 Lac                                                 
 3.49E+03   8%   1.429 NAA                                                 
  817.220  38%   0.334 NAAG                                                
    0.000 999%   0.000 Scyllo                                              
    0.000 999%   0.000 Tau                                                 
    0.000 999%   0.000 -CrCH2                                              
  876.946   6%   0.359 GPC+PCh                                             
 4.31E+03   5%   1.763 NAA+NAAG                                            
 2.44E+03   5%   1.000 Cr+PCr                                              
 3.71E+03  24%   1.520 Glu+Gln                                             
    0.000 999%   0.000 Lip13a                                              
    0.000 999%   0.000 Lip13b                                              
    0.000 999%   0.000 Lip09                                               
 8.15E+03  11%   3.334 MM09                                                
   69.003 623% 2.8E-02 Lip20                                               
 1.65E+04   9%   6.742 MM20                                                
 4.10E+03  17%   1.679 MM12                                                
    0.000 999%   0.000 MM14                                                
 9.24E+03  16%   3.781 MM17                                                
    0.000 999%   0.000 Lip13a+Lip13b                                       
 4.10E+03  17%   1.679 MM14+Lip13a+Lip13b+MM12                             
 8.15E+03  11%   3.334 MM09+Lip09                                          
 1.66E+04   9%   6.771 MM20+Lip20                                          
   6 lines in following misc. output table
  FWHM = 0.046 ppm    S/N =  10                                            
  Data shift = 0.023 ppm                                                   
  Ph:  21 deg      12.6 deg/ppm                                            
  alphaB,S = 3.9E-01,   1.0E+02                                            
   14 spline knots.   Ns = 7(1)                                            
  ( 7) 4 infls.   ( 5) 1 extrs.                                            
  498 points on ppm-axis = NY
      4.000000     3.992357     3.984714     3.977070     3.969427     3.961784     3.954141     3.946497     3.938854     3.931211
      3.923568     3.915925     3.908281     3.900638     3.892995     3.885352     3.877708     3.870065     3.862422     3.854779
      3.847136     3.839492     3.831849     3.824206     3.816563     3.808919     3.801276     3.793633     3.785990     3.778347
      3.770703     3.763060     3.755417     3.747774     3.740130     3.732487     3.724844     3.717201     3.709558     3.701914
      3.694271     3.686628     3.678985     3.671341     3.663698     3.656055     3.648412     3.640769     3.633125     3.625482
      3.617839     3.610196     3.602552     3.594909     3.587266     3.579623     3.571980     3.564336     3.556693     3.549050
      3.541407     3.533763     3.526120     3.518477     3.510834     3.503191     3.495547     3.487904     3.480261     3.472618
      3.464974     3.457331     3.449688     3.442045     3.434402     3.426758     3.419115     3.411472     3.403829     3.396185
      3.388542     3.380899     3.373256     3.365613     3.357969     3.350326     3.342683     3.335040     3.327396     3.319753
      3.312110     3.304467     3.296824     3.289180     3.281537     3.273894     3.266251     3.258607     3.250964     3.243321
      3.235678     3.228034     3.220391     3.212748     3.205105     3.197462     3.189818     3.182175     3.174532     3.166889
      3.159245     3.151602     3.143959     3.136316     3.128673     3.121029     3.113386     3.105743     3.098100     3.090456
      3.082813     3.075170     3.067527     3.059884     3.052240     3.044597     3.036954     3.029311     3.021667     3.014024
      3.006381     2.998738     2.991095     2.983451     2.975808     2.968165     2.960522     2.952878     2.945235     2.937592
      2.929949     2.922306     2.914662     2.907019     2.899376     2.891733     2.884089     2.876446     2.868803     2.861160
      2.853517     2.845873     2.838230     2.830587     2.822944     2.815300     2.807657     2.800014     2.792371     2.784728
      2.777084     2.769441     2.761798     2.754155     2.746511     2.738868     2.731225     2.723582     2.715939     2.708295
      2.700652     2.693009     2.685366     2.677722     2.670079     2.662436     2.654793     2.647150     2.639506     2.631863
      2.624220     2.616577     2.608933     2.601290     2.593647     2.586004     2.578361     2.570717     2.563074     2.555431
      2.547788     2.540144     2.532501     2.524858     2.517215     2.509572     2.501928     2.494285     2.486642     2.478999
      2.471355     2.463712     2.456069     2.448426     2.440783     2.433139     2.425496     2.417853     2.410210     2.402566
      2.394923     2.387280     2.379637     2.371994     2.364350     2.356707     2.349064     2.341421     2.333777     2.326134
      2.318491     2.310848     2.303205     2.295561     2.287918     2.280275     2.272632     2.264988     2.257345     2.249702
      2.242059     2.234416     2.226772     2.219129     2.211486     2.203843     2.196199     2.188556     2.180913     2.173270
      2.165627     2.157983     2.150340     2.142697     2.135054     2.127410     2.119767     2.112124     2.104481     2.096838
      2.089194     2.081551     2.073908     2.066265     2.058621     2.050978     2.043335     2.035692     2.028049     2.020405
      2.012762     2.005119     1.997476     1.989833     1.982190     1.974546     1.966903     1.959260     1.951617     1.943974
      1.936331     1.928688     1.921045     1.913402     1.905759     1.898115     1.890472     1.882829     1.875186     1.867543
      1.859900     1.852257     1.844614     1.836971     1.829327     1.821684     1.814041     1.806398     1.798755     1.791112
      1.783469     1.775826     1.768183     1.760540     1.752896     1.745253     1.737610     1.729967     1.722324     1.714681
      1.707038     1.699395     1.691752     1.684108     1.676465     1.668822     1.661179     1.653536     1.645893     1.638250
      1.630607     1.622964     1.615321     1.607677     1.600034     1.592391     1.584748     1.577105     1.569462     1.561819
      1.554176     1.546533     1.538890     1.531246     1.523603     1.515960     1.508317     1.500674     1.493031     1.485388
      1.477745     1.470102     1.462458     1.454815     1.447172     1.439529     1.431886     1.424243     1.416600     1.408957
      1.401314     1.393671     1.386027     1.378384     1.370741     1.363098     1.355455     1.347812     1.340169     1.332526
      1.324883     1.317240     1.309596     1.301953     1.294310     1.286667     1.279024     1.271381     1.263738     1.256095
      1.248452     1.240808     1.233165     1.225522     1.217879     1.210236     1.202593     1.194950     1.187307     1.179664
      1.172021     1.164377     1.156734     1.149091     1.141448     1.133805     1.126162     1.118519     1.110876     1.103233
      1.095590     1.087946     1.080303     1.072660     1.065017     1.057374     1.049731     1.042088     1.034445     1.026802
      1.019158     1.011515     1.003872     0.996229     0.988586     0.980943     0.973300     0.965657     0.958014     0.950371
      0.942727     0.935084     0.927441     0.919798     0.912155     0.904512     0.896869     0.889226     0.881583     0.873940
      0.866296     0.858653     0.851010     0.843367     0.835724     0.828081     0.820438     0.812795     0.805152     0.797508
      0.789865     0.782222     0.774579     0.766936     0.759293     0.751650     0.744007     0.736364     0.728721     0.721077
      0.713434     0.705791     0.698148     0.690505     0.682862     0.675219     0.667576     0.659933     0.652290     0.644646
      0.637003     0.629360     0.621717     0.614074     0.606431     0.598788     0.591145     0.583502     0.575858     0.568215
      0.560572     0.552929     0.545286     0.537643     0.530000     0.522357     0.514714     0.507071     0.499427     0.491784
      0.484141     0.476498     0.468855     0.461212     0.453569     0.445925     0.438282     0.430639     0.422996     0.415353
      0.407710     0.400067     0.392424     0.384780     0.377137     0.369494     0.361851     0.354208     0.346565     0.338922
      0.331278     0.323635     0.315992     0.308349     0.300706     0.293063     0.285420     0.277777     0.270133     0.262490
      0.254847     0.247204     0.239561     0.231918     0.224275     0.216631     0.208988     0.201345
 NY phased data points follow
   6.92470E+01  7.05062E+01  7.45301E+01  7.89447E+01  8.08864E+01  9.22723E+01  9.54988E+01  9.77965E+01  1.08228E+02  1.17960E+02
   1.28099E+02  1.46770E+02  1.33940E+02  1.37256E+02  1.27031E+02  1.03848E+02  1.06562E+02  9.48905E+01  8.67096E+01  9.85506E+01
   9.26803E+01  8.31732E+01  8.62612E+01  8.50566E+01  7.01074E+01  8.15833E+01  8.50627E+01  7.30544E+01  7.81355E+01  8.66701E+01
   7.77127E+01  8.74534E+01  8.07424E+01  9.53667E+01  7.84749E+01  6.68035E+01  7.30664E+01  7.11499E+01  7.20624E+01  6.68810E+01
   6.70658E+01  6.98964E+01  5.68759E+01  6.23507E+01  7.02986E+01  7.23950E+01  7.67905E+01  7.18360E+01  8.18647E+01  7.20273E+01
   7.34038E+01  6.04513E+01  6.20123E+01  6.24903E+01  7.48850E+01  5.72672E+01  7.09554E+01  5.20196E+01  5.48648E+01  4.77373E+01
   6.13467E+01  4.77917E+01  5.36755E+01  4.84938E+01  4.25676E+01  4.52646E+01  2.68683E+01  3.68615E+01  3.86694E+01  3.02318E+01
   4.40993E+01  3.66017E+01  3.93882E+01  3.29749E+01  4.64231E+01  3.61132E+01  2.87769E+01  2.88686E+01  3.34829E+01  2.54759E+01
   2.51387E+01  3.37733E+01  3.03289E+01  4.39503E+01  2.21234E+01  3.44746E+01  3.44382E+01  2.38160E+01  2.13119E+01  3.18435E+01
   3.85014E+01  2.16526E+01  3.36741E+01  3.38055E+01  2.54331E+01  3.84089E+01  4.03611E+01  4.32723E+01  4.73506E+01  5.36753E+01
   8.54049E+01  8.05067E+01  9.81189E+01  1.07460E+02  1.05765E+02  1.03359E+02  9.12255E+01  5.86702E+01  5.85647E+01  4.79857E+01
   6.03543E+01  4.52865E+01  3.86729E+01  3.10218E+01  3.02330E+01  3.24821E+01  2.00615E+01  2.85125E+01  3.04768E+01  3.94212E+01
   2.23996E+01  3.77992E+01  4.13732E+01  4.96432E+01  6.11150E+01  7.70711E+01  9.84395E+01  1.11511E+02  1.13343E+02  1.09115E+02
   9.17437E+01  7.16436E+01  5.02463E+01  5.25686E+01  4.57468E+01  3.60344E+01  2.92263E+01  2.32602E+01  2.11849E+01  3.16083E+01
   2.32069E+01  2.14682E+01  1.90786E+01  2.01633E+01  2.89120E+01  2.02311E+01  2.85076E+01  1.22620E+01  2.21737E+01  8.19133E+00
   1.27855E+01  2.07713E+01  1.80730E+01  1.79548E+01  1.36018E+01  4.82799E+00  1.70986E+01  1.44870E+01  1.46557E+01  1.33034E+01
  -3.05659E+00 -8.06689E+00  1.29124E+01  9.13465E+00  1.42855E+01  2.11758E+01  9.72356E+00  7.64163E+00  1.03632E+01  5.88057E+00
  -2.74924E+00 -4.74172E+00  1.79947E+00 -1.08739E+01 -4.75152E+00 -6.06262E+00 -2.13360E+01 -1.16830E+01 -4.78895E+00 -2.91893E+00
  -4.10131E+00 -6.50967E+00 -1.47693E+01 -9.49704E+00 -7.22061E+00  3.82041E+00 -2.15146E+01  9.05727E+00  9.05423E+00  1.17625E+01
   8.67571E+00  1.70695E+00  2.31346E+01  2.58241E+01  1.12890E+01  1.68709E+01 -3.33701E+00  3.04422E+00  1.24924E+01  1.17732E+00
   5.89923E+00 -2.51840E+00  1.11269E+01  2.43727E+01  1.31334E+01  1.24534E+01  5.37793E+00 -6.23710E+00  1.56948E+01 -5.44611E-01
  -5.20227E+00  1.29515E+00  1.57002E+01  1.18953E+00  3.47849E+01  2.65863E+01  2.01257E+01  2.59197E+01  2.19958E+01  1.43506E+01
   7.33526E+00  8.16009E+00 -9.44716E+00 -4.93040E+00  1.16743E+01  5.99399E+00  1.53935E+01  1.58890E+01  1.24399E+01  2.29366E+01
   1.38724E+01  1.32020E+01  1.40363E+01  1.60843E+01  1.36777E+01  1.14587E+01  2.36156E+01  2.05142E+01  2.02307E+01  2.03098E+01
   2.01749E+01  1.25418E+01  2.00423E+01  1.55588E+01  1.86876E+01  3.26935E+01  3.11208E+01  4.00121E+01  4.49721E+01  4.46510E+01
   2.82054E+01  5.02952E+01  4.88946E+01  8.22010E+01  8.63409E+01  8.48869E+01  9.90168E+01  1.07093E+02  1.37168E+02  1.53579E+02
   1.63617E+02  1.54356E+02  1.19602E+02  8.19797E+01  5.17030E+01  3.32941E+01  2.77441E+01  1.56565E+01  7.80495E+00  2.17573E+01
   2.25774E+01 -4.97958E+00 -4.40425E+00  5.86503E+00 -2.60111E+00  7.64720E-01  7.12039E+00 -8.85699E+00 -3.36352E+00 -1.67776E+00
  -5.14062E+00 -7.38227E+00  2.03666E+00 -7.49292E+00 -4.39216E+00  4.83160E-01  6.65652E+00  2.39068E+00  2.83590E+00 -6.05289E+00
   3.03797E+00 -3.07804E+00 -7.68230E+00 -1.30678E+01 -3.45443E+00 -9.72632E+00 -1.38566E+01 -1.39060E+01 -1.31927E+01 -1.67246E+01
  -1.35914E+01 -1.18140E+01 -1.85390E+01 -2.88939E+01 -3.22173E+01 -2.31362E+01 -3.15279E+01 -3.04106E+01 -2.29693E+01 -1.74530E+01
  -2.26667E+01 -3.03229E+01 -2.91965E+01 -3.90674E+01 -3.59551E+01 -4.42015E+01 -4.05351E+01 -5.02312E+01 -5.04205E+01 -6.34934E+01
  -5.03875E+01 -6.12306E+01 -6.91802E+01 -6.32299E+01 -6.63790E+01 -6.23858E+01 -6.91229E+01 -7.19037E+01 -6.55444E+01 -5.15153E+01
  -6.40346E+01 -7.00340E+01 -5.56154E+01 -7.08215E+01 -7.09340E+01 -6.41814E+01 -6.87279E+01 -7.96187E+01 -8.24805E+01 -7.74507E+01
  -8.07006E+01 -7.90521E+01 -7.21624E+01 -7.49143E+01 -7.90014E+01 -6.77140E+01 -5.70310E+01 -6.16342E+01 -7.11409E+01 -6.19085E+01
  -6.97621E+01 -6.14973E+01 -6.61328E+01 -6.26226E+01 -4.94650E+01 -5.49430E+01 -4.42537E+01 -4.43075E+01 -5.79434E+01 -5.26578E+01
  -4.21530E+01 -4.26095E+01 -4.11726E+01 -4.01105E+01 -4.21775E+01 -2.64758E+01 -3.12237E+01 -3.37236E+01 -2.92551E+01 -2.60504E+01
  -1.46874E+01 -2.22972E+01 -2.41776E+01 -1.49625E+01 -2.14837E+01 -1.75196E+01 -2.35656E+01 -2.09503E+01 -1.47133E+01 -2.62801E+01
  -2.34634E+01 -1.91483E+01 -2.16517E+01 -2.48328E+01 -1.21001E+01 -1.58080E+01 -1.57455E+01 -1.06298E+01  3.37147E-01 -9.99968E-01
  -1.34684E+01 -1.34108E+01 -7.69348E+00 -1.79034E+01 -1.73576E+01 -2.48985E+00 -5.25334E+00 -3.91827E+00  4.80432E+00  4.34384E+00
  -3.13203E+00 -1.09891E+01 -5.24645E+00 -3.61426E+00 -7.62297E+00 -6.87716E-01 -1.00964E+01 -1.94558E+01 -2.69366E+00 -8.34857E+00
  -1.12895E+01 -1.27295E+01 -1.78947E+01 -1.51186E+01 -4.15686E+00 -7.61398E+00 -1.99571E+01 -1.95454E+01 -2.44878E+01 -2.13530E+01
  -2.34146E+01 -1.75683E+01 -1.20576E+01 -1.44616E+01 -1.97960E+01 -1.22326E+01 -8.49868E+00 -2.28687E+01 -1.90512E+01 -1.60938E+01
  -1.32043E+01 -1.12041E+01 -4.50508E+00 -1.44644E+01 -3.43126E+01 -1.28454E+01 -9.61406E+00 -2.16880E+01 -2.40182E+01 -2.88539E+01
  -2.26393E+01 -1.21378E+01 -1.58678E+01 -9.24789E+00 -1.43868E+01 -1.27972E+01 -2.03082E+01 -1.54260E+01 -1.54813E+01 -1.99749E+01
  -1.27734E+01 -1.66339E+01 -1.80778E+01 -2.59119E+01 -1.06302E+01 -2.61205E+01 -5.72717E+00 -1.19218E+01 -1.10587E+01 -5.53680E+00
  -1.34471E+01 -2.20487E+01 -2.31872E+01 -1.04479E+01 -1.63365E+01 -9.36533E+00 -1.43038E+01 -1.17170E+01 -2.02626E+01 -1.39610E+01
  -1.10914E+01 -1.18770E+01 -1.30537E+01 -2.42120E+01 -1.40658E+01 -1.03502E+00 -2.56695E+01 -8.86399E+00 -3.91430E+00 -1.45214E+01
  -1.09942E+01 -2.24173E+01 -6.01662E+00 -1.46078E+01 -2.73658E+01 -1.75735E+01 -1.48072E+01 -7.85005E+00 -1.76599E+01 -1.67379E+01
  -2.42885E+01 -1.34549E+01 -1.19670E+01 -1.97289E+01 -4.89181E+00 -1.17057E+01 -2.48617E+01 -2.32521E+01
 NY points of the fit to the data follow
   8.46230E+01  8.39430E+01  8.37368E+01  8.39570E+01  8.52208E+01  8.90753E+01  9.41670E+01  9.98595E+01  1.07309E+02  1.16939E+02
   1.27295E+02  1.35260E+02  1.37651E+02  1.33152E+02  1.23093E+02  1.10994E+02  1.00694E+02  9.38101E+01  8.92238E+01  8.49864E+01
   8.08963E+01  7.82417E+01  7.65703E+01  7.56913E+01  7.53314E+01  7.51254E+01  7.56118E+01  7.73895E+01  8.06133E+01  8.45677E+01
   8.81063E+01  8.99422E+01  8.90831E+01  8.56088E+01  8.05313E+01  7.51789E+01  7.06482E+01  6.72293E+01  6.49512E+01  6.42271E+01
   6.48633E+01  6.59449E+01  6.68589E+01  6.75683E+01  6.84105E+01  6.93315E+01  7.00136E+01  6.99445E+01  6.87684E+01  6.66074E+01
   6.37883E+01  6.08528E+01  5.84812E+01  5.68664E+01  5.56215E+01  5.45672E+01  5.38476E+01  5.34871E+01  5.32468E+01  5.28941E+01
   5.23091E+01  5.13609E+01  5.00304E+01  4.84736E+01  4.69975E+01  4.59148E+01  4.52530E+01  4.48652E+01  4.46335E+01  4.44694E+01
   4.42764E+01  4.39852E+01  4.35247E+01  4.28762E+01  4.20681E+01  4.11748E+01  4.03053E+01  3.95297E+01  3.88397E+01  3.81623E+01
   3.74103E+01  3.66057E+01  3.57387E+01  3.47906E+01  3.37271E+01  3.25468E+01  3.13404E+01  3.02835E+01  2.95517E+01  2.92659E+01
   2.94029E+01  2.97790E+01  3.02098E+01  3.05915E+01  3.09466E+01  3.16222E+01  3.43973E+01  4.04290E+01  4.75848E+01  5.66632E+01
   6.95490E+01  8.58042E+01  1.01875E+02  1.12346E+02  1.12925E+02  1.02960E+02  8.59676E+01  6.80489E+01  5.43395E+01  4.58470E+01
   4.00581E+01  3.46825E+01  3.06048E+01  2.91406E+01  2.87002E+01  2.85474E+01  2.85286E+01  2.86103E+01  2.88357E+01  2.94093E+01
   3.16307E+01  3.75861E+01  4.51069E+01  5.39718E+01  6.60933E+01  8.17371E+01  9.82543E+01  1.10690E+02  1.14220E+02  1.07150E+02
   9.20387E+01  7.44580E+01  5.98389E+01  5.00117E+01  4.28155E+01  3.57129E+01  2.92163E+01  2.58831E+01  2.48649E+01  2.50464E+01
   2.57078E+01  2.61819E+01  2.61304E+01  2.55482E+01  2.45189E+01  2.32515E+01  2.19931E+01  2.08007E+01  1.96436E+01  1.85281E+01
   1.74259E+01  1.64018E+01  1.54652E+01  1.45770E+01  1.37142E+01  1.30304E+01  1.24960E+01  1.19396E+01  1.12131E+01  1.01528E+01
   9.02448E+00  8.26783E+00  8.04762E+00  8.11975E+00  8.03676E+00  7.40761E+00  6.17571E+00  4.69096E+00  3.38663E+00  2.39145E+00
   1.69847E+00  1.17487E+00  4.97791E-01 -3.98649E-01 -1.35117E+00 -2.03696E+00 -2.20746E+00 -1.92204E+00 -1.59221E+00 -1.64828E+00
  -2.14303E+00 -2.59640E+00 -2.64188E+00 -2.21861E+00 -1.50932E+00 -6.82818E-01  4.51035E-01  2.16485E+00  4.50158E+00  7.02811E+00
   8.92015E+00  9.49611E+00  8.86429E+00  7.52400E+00  5.83405E+00  4.10396E+00  2.76304E+00  2.29564E+00  2.85978E+00  4.42025E+00
   6.69954E+00  9.14265E+00  1.10538E+01  1.15915E+01  1.07133E+01  8.63412E+00  5.38204E+00  1.46153E+00 -2.14427E+00 -4.25562E+00
  -4.33939E+00 -2.52708E+00  1.21397E+00  6.38104E+00  1.16902E+01  1.54505E+01  1.63296E+01  1.41696E+01  9.65060E+00  3.61425E+00
  -2.21671E+00 -6.14300E+00 -7.34099E+00 -5.62041E+00 -1.55861E+00  3.87508E+00  9.28605E+00  1.32214E+01  1.52664E+01  1.59074E+01
   1.60748E+01  1.62871E+01  1.66443E+01  1.74853E+01  1.90833E+01  2.11068E+01  2.28619E+01  2.40364E+01  2.45537E+01  2.44497E+01
   2.37783E+01  2.30185E+01  2.29999E+01  2.42222E+01  2.65495E+01  2.93807E+01  3.21648E+01  3.44514E+01  3.63126E+01  3.85564E+01
   4.10512E+01  4.41998E+01  4.96920E+01  6.13186E+01  7.62433E+01  9.06245E+01  1.05445E+02  1.22029E+02  1.38964E+02  1.51601E+02
   1.54319E+02  1.43608E+02  1.20427E+02  9.09379E+01  6.40656E+01  4.54728E+01  3.34104E+01  2.32119E+01  1.34521E+01  7.27113E+00
   4.14133E+00  1.94469E+00  2.67889E-01 -1.00940E+00 -2.06474E+00 -3.08510E+00 -4.07494E+00 -4.99871E+00 -5.77597E+00 -6.31020E+00
  -6.56493E+00 -6.58889E+00 -6.43368E+00 -6.12094E+00 -5.68884E+00 -5.20891E+00 -4.74955E+00 -4.32715E+00 -3.93458E+00 -3.58628E+00
  -3.32454E+00 -3.19181E+00 -3.23630E+00 -3.51004E+00 -4.06390E+00 -4.92273E+00 -6.08195E+00 -7.51769E+00 -9.20108E+00 -1.11041E+01
  -1.31940E+01 -1.54337E+01 -1.78002E+01 -2.02744E+01 -2.28299E+01 -2.54302E+01 -2.80362E+01 -3.06159E+01 -3.31451E+01 -3.55966E+01
  -3.79490E+01 -4.01880E+01 -4.23030E+01 -4.42875E+01 -4.61391E+01 -4.78574E+01 -4.94446E+01 -5.09047E+01 -5.22441E+01 -5.34700E+01
  -5.45902E+01 -5.56121E+01 -5.65429E+01 -5.73900E+01 -5.81605E+01 -5.88608E+01 -5.94964E+01 -6.00722E+01 -6.05925E+01 -6.10613E+01
  -6.14820E+01 -6.18573E+01 -6.21893E+01 -6.24794E+01 -6.27288E+01 -6.29382E+01 -6.31078E+01 -6.32370E+01 -6.33246E+01 -6.33684E+01
  -6.33659E+01 -6.33135E+01 -6.32067E+01 -6.30397E+01 -6.28055E+01 -6.24960E+01 -6.21021E+01 -6.16138E+01 -6.10199E+01 -6.03091E+01
  -5.94699E+01 -5.84916E+01 -5.73654E+01 -5.60843E+01 -5.46450E+01 -5.30481E+01 -5.12992E+01 -4.94102E+01 -4.73990E+01 -4.52897E+01
  -4.31126E+01 -4.09027E+01 -3.86996E+01 -3.65450E+01 -3.44815E+01 -3.25492E+01 -3.07842E+01 -2.92158E+01 -2.78654E+01 -2.67441E+01
  -2.58525E+01 -2.51798E+01 -2.47046E+01 -2.43964E+01 -2.42166E+01 -2.41213E+01 -2.40632E+01 -2.39944E+01 -2.38689E+01 -2.36452E+01
  -2.32878E+01 -2.27693E+01 -2.20709E+01 -2.11831E+01 -2.01064E+01 -1.88504E+01 -1.74334E+01 -1.58811E+01 -1.42256E+01 -1.25039E+01
  -1.07565E+01 -9.02570E+00 -7.35384E+00 -5.78195E+00 -4.34814E+00 -3.08636E+00 -2.02535E+00 -1.18765E+00 -5.88968E-01 -2.37760E-01
  -1.35259E-01 -2.75795E-01 -6.47343E-01 -1.23219E+00 -2.00795E+00 -2.94853E+00 -4.02549E+00 -5.20917E+00 -6.46975E+00 -7.77816E+00
  -9.10702E+00 -1.04314E+01 -1.17292E+01 -1.29818E+01 -1.41739E+01 -1.52937E+01 -1.63323E+01 -1.72839E+01 -1.81455E+01 -1.89163E+01
  -1.95973E+01 -2.01911E+01 -2.07014E+01 -2.11328E+01 -2.14903E+01 -2.17795E+01 -2.20058E+01 -2.21747E+01 -2.22916E+01 -2.23614E+01
  -2.23891E+01 -2.23792E+01 -2.23358E+01 -2.22626E+01 -2.21632E+01 -2.20407E+01 -2.18980E+01 -2.17378E+01 -2.15624E+01 -2.13739E+01
  -2.11742E+01 -2.09652E+01 -2.07484E+01 -2.05253E+01 -2.02971E+01 -2.00651E+01 -1.98304E+01 -1.95940E+01 -1.93569E+01 -1.91200E+01
  -1.88839E+01 -1.86493E+01 -1.84171E+01 -1.81878E+01 -1.79616E+01 -1.77387E+01 -1.75191E+01 -1.73029E+01 -1.70904E+01 -1.68815E+01
  -1.66763E+01 -1.64747E+01 -1.62768E+01 -1.60825E+01 -1.58917E+01 -1.57046E+01 -1.55209E+01 -1.53407E+01 -1.51637E+01 -1.49899E+01
  -1.48193E+01 -1.46516E+01 -1.44869E+01 -1.43248E+01 -1.41653E+01 -1.40083E+01 -1.38536E+01 -1.37012E+01 -1.35507E+01 -1.34020E+01
  -1.32550E+01 -1.31096E+01 -1.29655E+01 -1.28226E+01 -1.26807E+01 -1.25395E+01 -1.23990E+01 -1.22590E+01 -1.21192E+01 -1.19795E+01
  -1.18396E+01 -1.16995E+01 -1.15588E+01 -1.14174E+01 -1.12751E+01 -1.11317E+01 -1.09869E+01 -1.08405E+01
 NY background values follow
     8.066E+01    8.012E+01    7.958E+01    7.904E+01    7.849E+01    7.794E+01    7.739E+01    7.684E+01    7.629E+01    7.574E+01
     7.518E+01    7.463E+01    7.407E+01    7.351E+01    7.295E+01    7.239E+01    7.182E+01    7.126E+01    7.069E+01    7.012E+01
     6.956E+01    6.899E+01    6.841E+01    6.784E+01    6.727E+01    6.669E+01    6.612E+01    6.554E+01    6.496E+01    6.438E+01
     6.380E+01    6.322E+01    6.264E+01    6.206E+01    6.147E+01    6.089E+01    6.030E+01    5.972E+01    5.913E+01    5.854E+01
     5.795E+01    5.736E+01    5.677E+01    5.618E+01    5.559E+01    5.500E+01    5.441E+01    5.381E+01    5.322E+01    5.263E+01
     5.203E+01    5.144E+01    5.084E+01    5.025E+01    4.966E+01    4.906E+01    4.847E+01    4.788E+01    4.729E+01    4.670E+01
     4.612E+01    4.553E+01    4.494E+01    4.436E+01    4.378E+01    4.320E+01    4.263E+01    4.205E+01    4.148E+01    4.091E+01
     4.034E+01    3.978E+01    3.922E+01    3.866E+01    3.811E+01    3.756E+01    3.701E+01    3.647E+01    3.593E+01    3.539E+01
     3.486E+01    3.433E+01    3.381E+01    3.329E+01    3.278E+01    3.227E+01    3.177E+01    3.127E+01    3.077E+01    3.029E+01
     2.980E+01    2.933E+01    2.886E+01    2.839E+01    2.793E+01    2.748E+01    2.703E+01    2.658E+01    2.615E+01    2.571E+01
     2.529E+01    2.487E+01    2.445E+01    2.404E+01    2.363E+01    2.323E+01    2.283E+01    2.244E+01    2.206E+01    2.167E+01
     2.130E+01    2.093E+01    2.056E+01    2.020E+01    1.984E+01    1.948E+01    1.914E+01    1.879E+01    1.845E+01    1.812E+01
     1.779E+01    1.746E+01    1.714E+01    1.682E+01    1.651E+01    1.620E+01    1.589E+01    1.559E+01    1.529E+01    1.500E+01
     1.471E+01    1.442E+01    1.414E+01    1.386E+01    1.358E+01    1.331E+01    1.304E+01    1.278E+01    1.252E+01    1.226E+01
     1.201E+01    1.176E+01    1.151E+01    1.126E+01    1.102E+01    1.078E+01    1.054E+01    1.030E+01    1.007E+01    9.835E+00
     9.605E+00    9.376E+00    9.148E+00    8.922E+00    8.697E+00    8.474E+00    8.251E+00    8.029E+00    7.808E+00    7.587E+00
     7.367E+00    7.148E+00    6.928E+00    6.709E+00    6.489E+00    6.269E+00    6.049E+00    5.829E+00    5.608E+00    5.386E+00
     5.164E+00    4.940E+00    4.715E+00    4.489E+00    4.262E+00    4.033E+00    3.803E+00    3.570E+00    3.336E+00    3.100E+00
     2.862E+00    2.621E+00    2.378E+00    2.132E+00    1.884E+00    1.632E+00    1.378E+00    1.121E+00    8.601E-01    5.960E-01
     3.284E-01    5.706E-02   -2.181E-01   -4.973E-01   -7.805E-01   -1.068E+00   -1.360E+00   -1.656E+00   -1.957E+00   -2.263E+00
    -2.574E+00   -2.890E+00   -3.211E+00   -3.538E+00   -3.870E+00   -4.208E+00   -4.551E+00   -4.901E+00   -5.256E+00   -5.618E+00
    -5.986E+00   -6.361E+00   -6.742E+00   -7.130E+00   -7.525E+00   -7.927E+00   -8.336E+00   -8.752E+00   -9.176E+00   -9.608E+00
    -1.005E+01   -1.049E+01   -1.095E+01   -1.141E+01   -1.188E+01   -1.236E+01   -1.285E+01   -1.335E+01   -1.386E+01   -1.437E+01
    -1.489E+01   -1.542E+01   -1.596E+01   -1.651E+01   -1.706E+01   -1.762E+01   -1.818E+01   -1.876E+01   -1.934E+01   -1.992E+01
    -2.051E+01   -2.111E+01   -2.171E+01   -2.232E+01   -2.294E+01   -2.355E+01   -2.418E+01   -2.481E+01   -2.544E+01   -2.608E+01
    -2.672E+01   -2.736E+01   -2.801E+01   -2.866E+01   -2.932E+01   -2.997E+01   -3.063E+01   -3.130E+01   -3.196E+01   -3.263E+01
    -3.330E+01   -3.397E+01   -3.464E+01   -3.531E+01   -3.599E+01   -3.667E+01   -3.734E+01   -3.802E+01   -3.870E+01   -3.937E+01
    -4.005E+01   -4.073E+01   -4.140E+01   -4.208E+01   -4.275E+01   -4.343E+01   -4.410E+01   -4.477E+01   -4.544E+01   -4.610E+01
    -4.676E+01   -4.742E+01   -4.808E+01   -4.873E+01   -4.938E+01   -5.002E+01   -5.066E+01   -5.129E+01   -5.192E+01   -5.254E+01
    -5.316E+01   -5.377E+01   -5.438E+01   -5.498E+01   -5.557E+01   -5.615E+01   -5.673E+01   -5.730E+01   -5.786E+01   -5.842E+01
    -5.896E+01   -5.950E+01   -6.002E+01   -6.054E+01   -6.105E+01   -6.155E+01   -6.203E+01   -6.251E+01   -6.298E+01   -6.343E+01
    -6.387E+01   -6.430E+01   -6.472E+01   -6.513E+01   -6.553E+01   -6.591E+01   -6.627E+01   -6.663E+01   -6.697E+01   -6.730E+01
    -6.761E+01   -6.791E+01   -6.820E+01   -6.847E+01   -6.873E+01   -6.898E+01   -6.921E+01   -6.942E+01   -6.963E+01   -6.982E+01
    -6.999E+01   -7.015E+01   -7.030E+01   -7.043E+01   -7.055E+01   -7.066E+01   -7.075E+01   -7.083E+01   -7.089E+01   -7.094E+01
    -7.097E+01   -7.099E+01   -7.099E+01   -7.098E+01   -7.096E+01   -7.092E+01   -7.087E+01   -7.080E+01   -7.072E+01   -7.062E+01
    -7.051E+01   -7.038E+01   -7.024E+01   -7.009E+01   -6.992E+01   -6.973E+01   -6.953E+01   -6.932E+01   -6.909E+01   -6.884E+01
    -6.858E+01   -6.831E+01   -6.802E+01   -6.771E+01   -6.739E+01   -6.706E+01   -6.671E+01   -6.635E+01   -6.598E+01   -6.559E+01
    -6.519E+01   -6.478E+01   -6.436E+01   -6.392E+01   -6.348E+01   -6.303E+01   -6.256E+01   -6.209E+01   -6.160E+01   -6.111E+01
    -6.061E+01   -6.010E+01   -5.958E+01   -5.905E+01   -5.852E+01   -5.798E+01   -5.744E+01   -5.689E+01   -5.633E+01   -5.577E+01
    -5.520E+01   -5.463E+01   -5.405E+01   -5.347E+01   -5.289E+01   -5.230E+01   -5.171E+01   -5.112E+01   -5.053E+01   -4.993E+01
    -4.933E+01   -4.874E+01   -4.814E+01   -4.754E+01   -4.694E+01   -4.635E+01   -4.575E+01   -4.515E+01   -4.456E+01   -4.397E+01
    -4.338E+01   -4.279E+01   -4.221E+01   -4.163E+01   -4.105E+01   -4.047E+01   -3.989E+01   -3.932E+01   -3.876E+01   -3.819E+01
    -3.763E+01   -3.707E+01   -3.652E+01   -3.597E+01   -3.543E+01   -3.489E+01   -3.435E+01   -3.382E+01   -3.330E+01   -3.278E+01
    -3.226E+01   -3.175E+01   -3.125E+01   -3.075E+01   -3.026E+01   -2.977E+01   -2.929E+01   -2.882E+01   -2.835E+01   -2.789E+01
    -2.744E+01   -2.699E+01   -2.656E+01   -2.612E+01   -2.570E+01   -2.529E+01   -2.488E+01   -2.448E+01   -2.409E+01   -2.371E+01
    -2.333E+01   -2.297E+01   -2.261E+01   -2.227E+01   -2.193E+01   -2.160E+01   -2.128E+01   -2.097E+01   -2.066E+01   -2.036E+01
    -2.007E+01   -1.979E+01   -1.952E+01   -1.925E+01   -1.899E+01   -1.873E+01   -1.848E+01   -1.824E+01   -1.800E+01   -1.777E+01
    -1.754E+01   -1.732E+01   -1.711E+01   -1.689E+01   -1.669E+01   -1.648E+01   -1.628E+01   -1.608E+01   -1.589E+01   -1.570E+01
    -1.551E+01   -1.533E+01   -1.515E+01   -1.497E+01   -1.479E+01   -1.462E+01   -1.444E+01   -1.427E+01   -1.410E+01   -1.393E+01
    -1.376E+01   -1.359E+01   -1.342E+01   -1.325E+01   -1.308E+01   -1.292E+01   -1.274E+01   -1.257E+01
 Cr       Conc. = 2.44E+03
