 LCModel (Version 6.3-1L) Copyright: S.W. Provencher.          Ref.: Magn. Reson. Med. 30:672-679 (1993).                
 Slice#3 Row#8 Col#6  PD_05_press_2_raw_act
 36 lines in following concentration table = NCONC+1
    Conc.  %SD /Cr+PCr  Metabolite                                         
    0.000 999%   0.000 Ala                                                 
    0.000 999%   0.000 Asp                                                 
 2.37E+03  23%   0.585 Cr                                                  
 1.68E+03  33%   0.415 PCr                                                 
    0.000 999%   0.000 GABA                                                
  169.287 206% 4.2E-02 Glc                                                 
 1.79E+03  32%   0.444 Gln                                                 
 4.49E+03  14%   1.110 Glu                                                 
 1.13E+03   4%   0.279 GPC                                                 
    0.000 999%   0.000 PCh                                                 
 1.81E+03   9%   0.447 GSH                                                 
 4.21E+03  13%   1.042 Ins                                                 
  705.730  43%   0.174 Lac                                                 
 5.18E+03   5%   1.281 NAA                                                 
  393.739  78% 9.7E-02 NAAG                                                
  187.542  31% 4.6E-02 Scyllo                                              
    0.000 999%   0.000 Tau                                                 
    0.000 999%   0.000 -CrCH2                                              
 1.13E+03   4%   0.279 GPC+PCh                                             
 5.57E+03   3%   1.378 NAA+NAAG                                            
 4.04E+03   3%   1.000 Cr+PCr                                              
 6.28E+03  15%   1.553 Glu+Gln                                             
 2.93E+03  32%   0.725 Lip13a                                              
    0.000 999%   0.000 Lip13b                                              
  334.234 125% 8.3E-02 Lip09                                               
 2.19E+03  23%   0.541 MM09                                                
  381.291  75% 9.4E-02 Lip20                                               
 4.51E+03  16%   1.115 MM20                                                
  820.175  39%   0.203 MM12                                                
 3.89E+03  17%   0.962 MM14                                                
 1.15E+03  37%   0.283 MM17                                                
 2.93E+03  32%   0.725 Lip13a+Lip13b                                       
 7.64E+03  10%   1.890 MM14+Lip13a+Lip13b+MM12                             
 2.52E+03  14%   0.624 MM09+Lip09                                          
 4.89E+03  15%   1.210 MM20+Lip20                                          
   6 lines in following misc. output table
  FWHM = 0.061 ppm    S/N =  12                                            
  Data shift = 0.000 ppm                                                   
  Ph:   0 deg      -2.2 deg/ppm                                            
  alphaB,S = 3.3E+00,   1.5E+02                                            
   14 spline knots.   Ns = 7(1)                                            
  (11) 2 infls.   ( 5) 1 extrs.                                            
  498 points on ppm-axis = NY
      4.000000     3.992357     3.984714     3.977070     3.969427     3.961784     3.954141     3.946497     3.938854     3.931211
      3.923568     3.915925     3.908281     3.900638     3.892995     3.885352     3.877708     3.870065     3.862422     3.854779
      3.847136     3.839492     3.831849     3.824206     3.816563     3.808919     3.801276     3.793633     3.785990     3.778347
      3.770703     3.763060     3.755417     3.747774     3.740130     3.732487     3.724844     3.717201     3.709558     3.701914
      3.694271     3.686628     3.678985     3.671341     3.663698     3.656055     3.648412     3.640769     3.633125     3.625482
      3.617839     3.610196     3.602552     3.594909     3.587266     3.579623     3.571980     3.564336     3.556693     3.549050
      3.541407     3.533763     3.526120     3.518477     3.510834     3.503191     3.495547     3.487904     3.480261     3.472618
      3.464974     3.457331     3.449688     3.442045     3.434402     3.426758     3.419115     3.411472     3.403829     3.396185
      3.388542     3.380899     3.373256     3.365613     3.357969     3.350326     3.342683     3.335040     3.327396     3.319753
      3.312110     3.304467     3.296824     3.289180     3.281537     3.273894     3.266251     3.258607     3.250964     3.243321
      3.235678     3.228034     3.220391     3.212748     3.205105     3.197462     3.189818     3.182175     3.174532     3.166889
      3.159245     3.151602     3.143959     3.136316     3.128673     3.121029     3.113386     3.105743     3.098100     3.090456
      3.082813     3.075170     3.067527     3.059884     3.052240     3.044597     3.036954     3.029311     3.021667     3.014024
      3.006381     2.998738     2.991095     2.983451     2.975808     2.968165     2.960522     2.952878     2.945235     2.937592
      2.929949     2.922306     2.914662     2.907019     2.899376     2.891733     2.884089     2.876446     2.868803     2.861160
      2.853517     2.845873     2.838230     2.830587     2.822944     2.815300     2.807657     2.800014     2.792371     2.784728
      2.777084     2.769441     2.761798     2.754155     2.746511     2.738868     2.731225     2.723582     2.715939     2.708295
      2.700652     2.693009     2.685366     2.677722     2.670079     2.662436     2.654793     2.647150     2.639506     2.631863
      2.624220     2.616577     2.608933     2.601290     2.593647     2.586004     2.578361     2.570717     2.563074     2.555431
      2.547788     2.540144     2.532501     2.524858     2.517215     2.509572     2.501928     2.494285     2.486642     2.478999
      2.471355     2.463712     2.456069     2.448426     2.440783     2.433139     2.425496     2.417853     2.410210     2.402566
      2.394923     2.387280     2.379637     2.371994     2.364350     2.356707     2.349064     2.341421     2.333777     2.326134
      2.318491     2.310848     2.303205     2.295561     2.287918     2.280275     2.272632     2.264988     2.257345     2.249702
      2.242059     2.234416     2.226772     2.219129     2.211486     2.203843     2.196199     2.188556     2.180913     2.173270
      2.165627     2.157983     2.150340     2.142697     2.135054     2.127410     2.119767     2.112124     2.104481     2.096838
      2.089194     2.081551     2.073908     2.066265     2.058621     2.050978     2.043335     2.035692     2.028049     2.020405
      2.012762     2.005119     1.997476     1.989833     1.982190     1.974546     1.966903     1.959260     1.951617     1.943974
      1.936331     1.928688     1.921045     1.913402     1.905759     1.898115     1.890472     1.882829     1.875186     1.867543
      1.859900     1.852257     1.844614     1.836971     1.829327     1.821684     1.814041     1.806398     1.798755     1.791112
      1.783469     1.775826     1.768183     1.760540     1.752896     1.745253     1.737610     1.729967     1.722324     1.714681
      1.707038     1.699395     1.691752     1.684108     1.676465     1.668822     1.661179     1.653536     1.645893     1.638250
      1.630607     1.622964     1.615321     1.607677     1.600034     1.592391     1.584748     1.577105     1.569462     1.561819
      1.554176     1.546533     1.538890     1.531246     1.523603     1.515960     1.508317     1.500674     1.493031     1.485388
      1.477745     1.470102     1.462458     1.454815     1.447172     1.439529     1.431886     1.424243     1.416600     1.408957
      1.401314     1.393671     1.386027     1.378384     1.370741     1.363098     1.355455     1.347812     1.340169     1.332526
      1.324883     1.317240     1.309596     1.301953     1.294310     1.286667     1.279024     1.271381     1.263738     1.256095
      1.248452     1.240808     1.233165     1.225522     1.217879     1.210236     1.202593     1.194950     1.187307     1.179664
      1.172021     1.164377     1.156734     1.149091     1.141448     1.133805     1.126162     1.118519     1.110876     1.103233
      1.095590     1.087946     1.080303     1.072660     1.065017     1.057374     1.049731     1.042088     1.034445     1.026802
      1.019158     1.011515     1.003872     0.996229     0.988586     0.980943     0.973300     0.965657     0.958014     0.950371
      0.942727     0.935084     0.927441     0.919798     0.912155     0.904512     0.896869     0.889226     0.881583     0.873940
      0.866296     0.858653     0.851010     0.843367     0.835724     0.828081     0.820438     0.812795     0.805152     0.797508
      0.789865     0.782222     0.774579     0.766936     0.759293     0.751650     0.744007     0.736364     0.728721     0.721077
      0.713434     0.705791     0.698148     0.690505     0.682862     0.675219     0.667576     0.659933     0.652290     0.644646
      0.637003     0.629360     0.621717     0.614074     0.606431     0.598788     0.591145     0.583502     0.575858     0.568215
      0.560572     0.552929     0.545286     0.537643     0.530000     0.522357     0.514714     0.507071     0.499427     0.491784
      0.484141     0.476498     0.468855     0.461212     0.453569     0.445925     0.438282     0.430639     0.422996     0.415353
      0.407710     0.400067     0.392424     0.384780     0.377137     0.369494     0.361851     0.354208     0.346565     0.338922
      0.331278     0.323635     0.315992     0.308349     0.300706     0.293063     0.285420     0.277777     0.270133     0.262490
      0.254847     0.247204     0.239561     0.231918     0.224275     0.216631     0.208988     0.201345
 NY phased data points follow
   1.72588E+01  7.42148E+00  3.01738E+01  3.28118E+01  4.19609E+01  4.78480E+01  7.62313E+01  7.96528E+01  9.30951E+01  1.04037E+02
   1.14296E+02  9.90243E+01  1.03610E+02  7.59741E+01  7.02601E+01  5.96485E+01  4.90054E+01  3.19688E+01  2.84596E+01  3.30721E+01
   3.85479E+01  3.47214E+01  4.29940E+01  3.20381E+01  3.90441E+01  4.17571E+01  4.40548E+01  4.50986E+01  5.08352E+01  5.32262E+01
   5.93827E+01  4.98694E+01  5.81116E+01  4.06089E+01  4.88081E+01  4.30775E+01  4.48676E+01  3.39462E+01  4.23485E+01  3.69323E+01
   4.35547E+01  3.63165E+01  3.50205E+01  3.55138E+01  4.96148E+01  3.98612E+01  4.76511E+01  4.17475E+01  4.71387E+01  3.75215E+01
   4.19296E+01  3.14832E+01  3.53031E+01  1.80120E+01  2.77648E+01  2.84875E+01  2.89737E+01  3.01478E+01  2.68137E+01  1.78278E+01
   1.63396E+01  1.14360E+01 -6.49744E-01  1.31284E+01  1.05418E+01  3.42991E+00  1.35142E+01  2.38748E+00 -2.72513E+00  1.15315E+01
   1.52854E+01  1.59708E+01  1.49449E+01  2.24547E+01  2.23561E+01  1.25061E+01  1.54256E+01  1.75549E+01  1.05686E+01  1.27832E+01
   1.42136E+01  6.95232E+00  1.80029E+01  1.51701E+01  1.86679E+01  1.52731E+01  1.66003E+01  7.06474E+00  2.01915E+01  6.24261E+00
   1.33892E+01  9.61687E+00  1.38608E+01  1.76454E+01  2.50312E+01  1.70400E+01  2.95863E+01  3.46688E+01  3.91269E+01  6.05222E+01
   7.79876E+01  9.07762E+01  9.13343E+01  9.27497E+01  9.57052E+01  7.87578E+01  6.92602E+01  5.54939E+01  4.49255E+01  2.37709E+01
   2.21911E+01  1.78290E+01  9.75409E+00  1.47026E+01  2.13242E+01  1.33354E+01  1.75949E+01  1.14228E+01  1.65115E+01  1.10017E+01
   2.39818E+01  3.00904E+01  4.99235E+01  6.78057E+01  8.70862E+01  1.20677E+02  1.27078E+02  1.21711E+02  1.19804E+02  1.11562E+02
   9.08346E+01  7.08245E+01  5.49637E+01  4.09565E+01  3.98885E+01  2.50406E+01  1.36128E+01  6.76331E+00  1.05341E+01  7.78926E+00
   7.67294E+00  5.36225E+00  9.51733E+00  8.45254E+00  1.19864E+01  1.05535E+01  3.17621E+00  4.55860E+00  1.58600E+01  1.00579E+01
   1.20062E+00 -5.15094E+00  9.82306E+00 -1.45414E+00  7.08553E+00  1.02984E+00 -1.26732E+00  2.66486E+00 -2.34346E+00 -3.05744E+00
   8.04246E-01 -5.51049E+00  3.83376E+00  2.64528E+00  6.26548E+00  1.27990E+00  5.20889E+00 -3.39763E+00  5.38727E+00 -7.55668E+00
  -9.55309E+00 -6.15275E+00 -2.14290E+01 -2.45167E+01 -1.81084E+01 -1.38780E+01 -2.46975E+01 -2.33290E+01 -1.01991E+01 -1.46862E+01
  -2.08677E+01 -2.86645E+01 -1.84926E+01 -1.78946E+01 -2.06644E+01 -2.28275E+01 -1.02575E+01 -1.16776E+01 -7.51432E+00  1.22519E+00
   1.84835E+01  9.76005E+00  1.78930E+01  1.62225E+01  1.38294E+01  1.45548E+01  3.28774E+00 -6.66344E+00 -1.27792E+00 -7.91871E+00
   1.22746E+01  6.62434E+00  1.50480E+01  9.45787E+00  1.00784E+01  5.95326E+00  5.16777E+00 -8.89713E+00 -6.06471E+00  1.66227E+00
   1.29536E+00  2.02637E+01  4.13767E+00  2.01548E+01  2.28977E+01  2.50062E+01  2.95049E+01  2.94812E+01  1.93474E+01  1.16573E+01
   4.35411E+00  2.21069E-01  5.14709E+00 -5.69344E+00  6.33975E+00  8.35952E-01  1.61386E+01  1.90364E+01  1.85225E+01  1.44840E+01
   2.02612E+01  1.66499E+01  1.94716E+01  2.56640E+01  1.13865E+01  2.14928E+01  2.00897E+01  1.44977E+01  7.20687E+00  9.76075E+00
   1.11349E+01  4.88040E+00  1.74791E+01  9.60297E+00  2.00687E+01  1.42347E+01  3.13670E+01  1.69359E+01  1.91959E+01  2.35986E+01
   3.38516E+01  3.81805E+01  4.05754E+01  4.49177E+01  5.66916E+01  7.70333E+01  9.70030E+01  1.22573E+02  1.50953E+02  1.81691E+02
   1.89481E+02  1.78276E+02  1.54079E+02  1.23550E+02  1.08829E+02  7.97963E+01  5.45521E+01  4.96787E+01  3.10315E+01  3.61287E+01
   2.84996E+01  2.34663E+01  8.35286E+00  1.31425E+01  1.34709E+01  2.01876E+01  1.62961E+01  1.59396E+01  8.43423E+00  1.96591E+01
   2.08915E+01  6.82803E+00  6.67572E+00  3.19616E+00  1.30198E+01  9.58946E+00  1.57556E+01  7.64810E+00  6.44465E+00  2.55331E+00
   1.17214E+01  7.63195E+00  7.07260E+00  1.09723E+00  1.19975E+01  1.71359E+01  1.03224E+01  1.55464E+01  1.77133E+01  5.91311E+00
   1.64203E+01  5.03863E+00  8.72792E+00  1.74123E+01  1.12574E+01  4.19337E+00  1.44232E+01  2.18676E+01  1.73567E+01  1.75040E+01
   2.01280E+01  1.62199E+01  1.38421E+01  1.93313E+01  1.97619E+01  8.07242E+00  1.48042E+01  1.75990E+01  1.91680E+01  1.49580E+01
   1.09808E+01  1.26613E+01  1.74930E+01  1.16888E+01  2.84558E+01  2.94747E+01  2.12755E+01  2.82924E+01  3.06160E+01  3.25471E+01
   3.23857E+01  3.41799E+01  4.17082E+01  4.42593E+01  3.31940E+01  3.73874E+01  3.69964E+01  4.39654E+01  4.44248E+01  3.26713E+01
   1.90512E+01  4.01558E+01  3.84334E+01  3.58864E+01  3.64943E+01  3.08997E+01  2.48558E+01  2.37236E+01  2.61857E+01  2.55890E+01
   2.91372E+01  1.49933E+01  1.99999E+01  2.40530E+01  1.77157E+01  2.57200E+01  2.94933E+01  2.27737E+01  3.13209E+01  2.90427E+01
   3.04465E+01  2.42921E+01  2.81288E+01  3.20444E+01  2.99164E+01  2.27047E+01  3.41049E+01  3.15322E+01  1.93857E+01  3.42447E+01
   2.27795E+01  2.32631E+01  1.68528E+01  1.77207E+01  2.43620E+01  1.80968E+01  1.33653E+01  2.57492E+00  1.82018E+01  1.59342E+01
   1.66063E+01  1.21129E+01  2.59594E+01  4.50847E+00  1.57262E+01  1.84822E+01  1.25456E+01  8.15336E+00  1.63208E+01  1.50224E+01
   1.85751E+01  1.05955E+01  9.97530E+00  1.77100E+01  1.80725E+01  2.55052E+01  2.17242E+01  1.45200E+01  1.60554E+01  1.43312E+01
   1.08421E+01  2.48546E+01  2.23524E+01  1.87557E+01  2.40000E+01  2.13941E+01  2.56121E+01  2.10504E+01  1.79222E+01  2.45975E+01
   2.55785E+01  1.97616E+01  2.86945E+01  1.88072E+01  2.06862E+01  1.78202E+01  1.53908E+01  2.59409E+01  1.88670E+01  2.11766E+01
   1.60437E+01  1.24589E+01  1.12069E+01  2.06701E+01  1.92310E+01  2.02505E+01  2.06832E+01  6.52251E+00  1.73949E+01  1.41147E+01
   7.02208E+00  1.19441E+01  1.66452E+01  1.23838E+01  1.39355E+01  9.70085E+00  2.09812E+01  1.49795E+00  1.23923E+01  1.65121E+01
   1.06353E+01  5.03945E+00  8.48770E+00  1.93235E+01  1.77939E+01  7.24719E+00  7.06607E+00  1.14582E+01  1.74161E+01  1.76146E+01
   1.06280E+01  5.74644E+00  1.32887E+01  1.96441E+01  1.45894E+01  1.73454E+01  9.74747E+00  1.44577E+01  4.58241E-01  1.23548E+01
   1.11388E+00  1.85367E+01  9.82065E+00  1.07668E+01  1.29528E+01  1.53330E+01  1.42103E+01  4.66053E+00  1.33928E+01  1.90540E+01
   1.32267E+01  8.34505E+00  1.71248E+01  1.06253E+01  5.62118E+00  7.12899E+00 -5.16530E-01  6.26796E+00  7.54197E+00  6.06133E+00
   3.52389E+00  4.80614E+00 -6.95940E-01  7.60041E+00  1.37087E+01  9.84346E+00  4.76216E+00  1.53616E+01  2.00279E+01  8.58766E+00
   1.00131E+01  1.08364E+01  6.32681E+00  1.04191E+01  4.47752E+00  1.01438E+01  2.86174E+00  1.36829E+01
 NY points of the fit to the data follow
   2.73491E+01  2.72067E+01  2.90878E+01  3.37021E+01  4.17473E+01  5.29620E+01  6.58230E+01  7.91084E+01  9.11113E+01  9.94716E+01
   1.02226E+02  9.88706E+01  9.06040E+01  7.96026E+01  6.80054E+01  5.72427E+01  4.77990E+01  3.95060E+01  3.26417E+01  2.78253E+01
   2.53531E+01  2.44415E+01  2.40703E+01  2.53210E+01  2.82566E+01  3.25713E+01  3.84743E+01  4.57308E+01  5.31862E+01  5.89766E+01
   6.18824E+01  6.14597E+01  5.78539E+01  5.19964E+01  4.50690E+01  3.80438E+01  3.17893E+01  2.63245E+01  2.20828E+01  2.07894E+01
   2.25137E+01  2.61836E+01  3.08194E+01  3.58913E+01  4.08832E+01  4.45778E+01  4.60404E+01  4.47938E+01  4.10316E+01  3.58971E+01
   3.04915E+01  2.56850E+01  2.22292E+01  2.01016E+01  1.89163E+01  1.87297E+01  1.98138E+01  2.16005E+01  2.30096E+01  2.34577E+01
   2.28864E+01  2.14788E+01  1.96672E+01  1.78967E+01  1.67007E+01  1.63384E+01  1.65425E+01  1.70865E+01  1.79597E+01  1.89790E+01
   1.99159E+01  2.05142E+01  2.06322E+01  2.03169E+01  1.96801E+01  1.88796E+01  1.80867E+01  1.73646E+01  1.67839E+01  1.64306E+01
   1.64125E+01  1.64526E+01  1.63862E+01  1.61790E+01  1.56898E+01  1.47821E+01  1.35367E+01  1.22617E+01  1.13045E+01  1.09686E+01
   1.12052E+01  1.17719E+01  1.24291E+01  1.30181E+01  1.36459E+01  1.55630E+01  2.18742E+01  3.23167E+01  4.52233E+01  6.03056E+01
   7.65284E+01  9.08228E+01  9.94003E+01  1.00113E+02  9.33403E+01  8.15005E+01  6.75811E+01  5.39131E+01  4.16789E+01  3.11090E+01
   2.16296E+01  1.36080E+01  9.73378E+00  9.02628E+00  9.06734E+00  9.32728E+00  9.73188E+00  1.03573E+01  1.14780E+01  1.41160E+01
   2.17473E+01  3.54135E+01  5.25581E+01  7.22931E+01  9.35827E+01  1.13137E+02  1.26387E+02  1.30267E+02  1.24437E+02  1.11184E+02
   9.41891E+01  7.64345E+01  5.94401E+01  4.37403E+01  2.90889E+01  1.61195E+01  8.46159E+00  6.59175E+00  7.03267E+00  8.38689E+00
   9.88873E+00  1.10159E+01  1.17218E+01  1.21196E+01  1.20477E+01  1.15153E+01  1.06759E+01  9.56159E+00  8.29028E+00  7.06066E+00
   5.98674E+00  5.23747E+00  4.73865E+00  4.40615E+00  4.04670E+00  3.60596E+00  3.10299E+00  2.53649E+00  2.02472E+00  1.56136E+00
   1.20747E+00  1.11048E+00  1.23653E+00  1.32162E+00  1.09469E+00  5.08545E-01 -3.24746E-01 -1.23910E+00 -2.09517E+00 -2.96897E+00
  -4.04531E+00 -5.13908E+00 -6.17300E+00 -7.09218E+00 -7.74615E+00 -8.09003E+00 -8.11347E+00 -7.91507E+00 -7.77643E+00 -7.87185E+00
  -8.19525E+00 -8.48399E+00 -8.43383E+00 -7.88949E+00 -6.73342E+00 -4.91019E+00 -2.36218E+00  8.99571E-01  4.47878E+00  7.67161E+00
   9.67954E+00  9.99311E+00  8.96727E+00  7.23179E+00  5.31092E+00  3.69147E+00  2.79634E+00  3.17951E+00  5.01742E+00  7.94504E+00
   1.13675E+01  1.45308E+01  1.66913E+01  1.69639E+01  1.53810E+01  1.22863E+01  7.96020E+00  3.05077E+00 -1.00712E+00 -2.75784E+00
  -1.60598E+00  1.79852E+00  6.82760E+00  1.27150E+01  1.80973E+01  2.12327E+01  2.08470E+01  1.71413E+01  1.13640E+01  4.42316E+00
  -2.01459E+00 -6.32349E+00 -7.81793E+00 -6.45782E+00 -3.00539E+00  1.66163E+00  6.69259E+00  1.08164E+01  1.35615E+01  1.50667E+01
   1.61305E+01  1.71544E+01  1.78824E+01  1.86002E+01  1.97617E+01  2.09531E+01  2.13568E+01  2.06401E+01  1.89655E+01  1.68039E+01
   1.44575E+01  1.24206E+01  1.15091E+01  1.20611E+01  1.36478E+01  1.55529E+01  1.76129E+01  1.97108E+01  2.16530E+01  2.38029E+01
   2.63747E+01  2.94192E+01  3.34684E+01  4.26768E+01  5.96868E+01  8.08499E+01  1.04690E+02  1.30714E+02  1.55742E+02  1.73778E+02
   1.79981E+02  1.73253E+02  1.56156E+02  1.33322E+02  1.09334E+02  8.72145E+01  6.77799E+01  5.01866E+01  3.37835E+01  2.25064E+01
   1.83405E+01  1.65735E+01  1.55681E+01  1.49895E+01  1.46288E+01  1.42147E+01  1.37416E+01  1.32288E+01  1.26792E+01  1.21268E+01
   1.16141E+01  1.11342E+01  1.06894E+01  1.03255E+01  1.00603E+01  9.86809E+00  9.72442E+00  9.62969E+00  9.59700E+00  9.62915E+00
   9.70578E+00  9.82573E+00  9.99203E+00  1.01992E+01  1.04354E+01  1.06932E+01  1.09685E+01  1.12590E+01  1.15591E+01  1.18630E+01
   1.21641E+01  1.24584E+01  1.27384E+01  1.29963E+01  1.32262E+01  1.34255E+01  1.35958E+01  1.37411E+01  1.38662E+01  1.39827E+01
   1.41039E+01  1.42434E+01  1.44170E+01  1.46422E+01  1.49350E+01  1.53108E+01  1.57823E+01  1.63605E+01  1.70528E+01  1.78636E+01
   1.87924E+01  1.98337E+01  2.09772E+01  2.22072E+01  2.35042E+01  2.48447E+01  2.62022E+01  2.75475E+01  2.88506E+01  3.00820E+01
   3.12147E+01  3.22248E+01  3.30934E+01  3.38072E+01  3.43605E+01  3.47565E+01  3.50096E+01  3.51480E+01  3.52230E+01  3.53401E+01
   3.57070E+01  3.62231E+01  3.65323E+01  3.65542E+01  3.61695E+01  3.50944E+01  3.30608E+01  3.01009E+01  2.68828E+01  2.41113E+01
   2.21374E+01  2.12119E+01  2.14438E+01  2.26629E+01  2.43989E+01  2.61851E+01  2.78498E+01  2.90848E+01  2.95763E+01  2.94967E+01
   2.90509E+01  2.83700E+01  2.74393E+01  2.62000E+01  2.49912E+01  2.40195E+01  2.31568E+01  2.23409E+01  2.15509E+01  2.07808E+01
   2.00311E+01  1.93052E+01  1.86083E+01  1.79456E+01  1.73226E+01  1.67445E+01  1.62160E+01  1.57410E+01  1.53229E+01  1.49643E+01
   1.46678E+01  1.44354E+01  1.42687E+01  1.41690E+01  1.41374E+01  1.41749E+01  1.42823E+01  1.44600E+01  1.47081E+01  1.50258E+01
   1.54117E+01  1.58636E+01  1.63778E+01  1.69496E+01  1.75722E+01  1.82372E+01  1.89345E+01  1.96525E+01  2.03777E+01  2.10955E+01
   2.17900E+01  2.24452E+01  2.30449E+01  2.35740E+01  2.40184E+01  2.43661E+01  2.46072E+01  2.47351E+01  2.47462E+01  2.46404E+01
   2.44209E+01  2.40936E+01  2.36676E+01  2.31541E+01  2.25662E+01  2.19181E+01  2.12246E+01  2.04999E+01  1.97583E+01  1.90126E+01
   1.82745E+01  1.75541E+01  1.68594E+01  1.61967E+01  1.55708E+01  1.49848E+01  1.44405E+01  1.39383E+01  1.34776E+01  1.30570E+01
   1.26747E+01  1.23283E+01  1.20155E+01  1.17334E+01  1.14793E+01  1.12506E+01  1.10449E+01  1.08600E+01  1.06936E+01  1.05438E+01
   1.04088E+01  1.02870E+01  1.01772E+01  1.00780E+01  9.98833E+00  9.90716E+00  9.83359E+00  9.76693E+00  9.70658E+00  9.65193E+00
   9.60238E+00  9.55741E+00  9.51664E+00  9.47978E+00  9.44656E+00  9.41662E+00  9.38964E+00  9.36534E+00  9.34356E+00  9.32420E+00
   9.30706E+00  9.29193E+00  9.27860E+00  9.26696E+00  9.25695E+00  9.24851E+00  9.24151E+00  9.23577E+00  9.23118E+00  9.22770E+00
   9.22534E+00  9.22404E+00  9.22368E+00  9.22414E+00  9.22537E+00  9.22738E+00  9.23018E+00  9.23370E+00  9.23781E+00  9.24244E+00
   9.24757E+00  9.25326E+00  9.25948E+00  9.26614E+00  9.27314E+00  9.28044E+00  9.28807E+00  9.29606E+00  9.30436E+00  9.31286E+00
   9.32149E+00  9.33024E+00  9.33914E+00  9.34819E+00  9.35730E+00  9.36637E+00  9.37533E+00  9.38419E+00
 NY background values follow
     1.077E+01    1.071E+01    1.065E+01    1.059E+01    1.053E+01    1.047E+01    1.041E+01    1.036E+01    1.030E+01    1.024E+01
     1.018E+01    1.012E+01    1.006E+01    1.000E+01    9.941E+00    9.882E+00    9.823E+00    9.763E+00    9.704E+00    9.645E+00
     9.586E+00    9.526E+00    9.467E+00    9.408E+00    9.349E+00    9.289E+00    9.230E+00    9.171E+00    9.112E+00    9.052E+00
     8.993E+00    8.934E+00    8.875E+00    8.816E+00    8.757E+00    8.697E+00    8.638E+00    8.579E+00    8.520E+00    8.461E+00
     8.402E+00    8.343E+00    8.285E+00    8.226E+00    8.167E+00    8.108E+00    8.049E+00    7.991E+00    7.932E+00    7.874E+00
     7.815E+00    7.757E+00    7.698E+00    7.640E+00    7.582E+00    7.524E+00    7.466E+00    7.408E+00    7.350E+00    7.292E+00
     7.235E+00    7.177E+00    7.120E+00    7.062E+00    7.005E+00    6.948E+00    6.891E+00    6.834E+00    6.778E+00    6.721E+00
     6.665E+00    6.609E+00    6.552E+00    6.497E+00    6.441E+00    6.385E+00    6.330E+00    6.275E+00    6.220E+00    6.165E+00
     6.110E+00    6.056E+00    6.001E+00    5.947E+00    5.893E+00    5.840E+00    5.786E+00    5.733E+00    5.680E+00    5.627E+00
     5.575E+00    5.523E+00    5.471E+00    5.419E+00    5.367E+00    5.316E+00    5.265E+00    5.214E+00    5.164E+00    5.113E+00
     5.063E+00    5.014E+00    4.964E+00    4.915E+00    4.866E+00    4.817E+00    4.769E+00    4.721E+00    4.673E+00    4.625E+00
     4.578E+00    4.531E+00    4.485E+00    4.438E+00    4.392E+00    4.347E+00    4.301E+00    4.256E+00    4.211E+00    4.167E+00
     4.123E+00    4.079E+00    4.035E+00    3.992E+00    3.949E+00    3.907E+00    3.865E+00    3.823E+00    3.781E+00    3.740E+00
     3.699E+00    3.659E+00    3.619E+00    3.579E+00    3.540E+00    3.501E+00    3.462E+00    3.424E+00    3.386E+00    3.349E+00
     3.311E+00    3.275E+00    3.238E+00    3.202E+00    3.167E+00    3.131E+00    3.096E+00    3.062E+00    3.028E+00    2.994E+00
     2.961E+00    2.928E+00    2.896E+00    2.864E+00    2.832E+00    2.801E+00    2.770E+00    2.740E+00    2.710E+00    2.680E+00
     2.651E+00    2.622E+00    2.594E+00    2.566E+00    2.539E+00    2.512E+00    2.485E+00    2.459E+00    2.434E+00    2.408E+00
     2.384E+00    2.359E+00    2.335E+00    2.312E+00    2.289E+00    2.267E+00    2.245E+00    2.223E+00    2.202E+00    2.182E+00
     2.161E+00    2.142E+00    2.123E+00    2.104E+00    2.086E+00    2.068E+00    2.051E+00    2.034E+00    2.017E+00    2.001E+00
     1.986E+00    1.971E+00    1.956E+00    1.942E+00    1.928E+00    1.915E+00    1.902E+00    1.890E+00    1.877E+00    1.866E+00
     1.854E+00    1.844E+00    1.833E+00    1.823E+00    1.813E+00    1.804E+00    1.795E+00    1.787E+00    1.778E+00    1.771E+00
     1.763E+00    1.756E+00    1.749E+00    1.743E+00    1.737E+00    1.731E+00    1.726E+00    1.721E+00    1.716E+00    1.712E+00
     1.708E+00    1.704E+00    1.701E+00    1.698E+00    1.695E+00    1.693E+00    1.691E+00    1.689E+00    1.687E+00    1.686E+00
     1.685E+00    1.684E+00    1.684E+00    1.684E+00    1.684E+00    1.685E+00    1.685E+00    1.686E+00    1.688E+00    1.689E+00
     1.691E+00    1.693E+00    1.696E+00    1.699E+00    1.702E+00    1.705E+00    1.708E+00    1.712E+00    1.716E+00    1.721E+00
     1.725E+00    1.730E+00    1.735E+00    1.741E+00    1.746E+00    1.752E+00    1.758E+00    1.765E+00    1.772E+00    1.778E+00
     1.786E+00    1.793E+00    1.801E+00    1.809E+00    1.817E+00    1.825E+00    1.834E+00    1.843E+00    1.852E+00    1.861E+00
     1.871E+00    1.881E+00    1.891E+00    1.901E+00    1.912E+00    1.922E+00    1.933E+00    1.944E+00    1.956E+00    1.967E+00
     1.979E+00    1.991E+00    2.004E+00    2.016E+00    2.029E+00    2.042E+00    2.055E+00    2.068E+00    2.082E+00    2.096E+00
     2.110E+00    2.124E+00    2.138E+00    2.153E+00    2.168E+00    2.183E+00    2.198E+00    2.213E+00    2.229E+00    2.245E+00
     2.260E+00    2.277E+00    2.293E+00    2.309E+00    2.326E+00    2.343E+00    2.360E+00    2.377E+00    2.395E+00    2.412E+00
     2.430E+00    2.448E+00    2.466E+00    2.484E+00    2.503E+00    2.521E+00    2.540E+00    2.559E+00    2.578E+00    2.597E+00
     2.617E+00    2.636E+00    2.656E+00    2.676E+00    2.696E+00    2.716E+00    2.736E+00    2.757E+00    2.777E+00    2.798E+00
     2.819E+00    2.840E+00    2.861E+00    2.883E+00    2.904E+00    2.926E+00    2.947E+00    2.969E+00    2.991E+00    3.014E+00
     3.036E+00    3.058E+00    3.081E+00    3.103E+00    3.126E+00    3.149E+00    3.172E+00    3.195E+00    3.219E+00    3.242E+00
     3.266E+00    3.289E+00    3.313E+00    3.337E+00    3.361E+00    3.385E+00    3.409E+00    3.433E+00    3.458E+00    3.482E+00
     3.507E+00    3.531E+00    3.556E+00    3.581E+00    3.606E+00    3.631E+00    3.657E+00    3.682E+00    3.707E+00    3.733E+00
     3.758E+00    3.784E+00    3.810E+00    3.836E+00    3.862E+00    3.888E+00    3.914E+00    3.940E+00    3.966E+00    3.993E+00
     4.019E+00    4.046E+00    4.072E+00    4.099E+00    4.126E+00    4.153E+00    4.180E+00    4.207E+00    4.234E+00    4.261E+00
     4.289E+00    4.316E+00    4.343E+00    4.371E+00    4.399E+00    4.426E+00    4.454E+00    4.482E+00    4.510E+00    4.538E+00
     4.566E+00    4.594E+00    4.622E+00    4.650E+00    4.679E+00    4.707E+00    4.736E+00    4.764E+00    4.793E+00    4.821E+00
     4.850E+00    4.879E+00    4.908E+00    4.937E+00    4.966E+00    4.995E+00    5.024E+00    5.053E+00    5.082E+00    5.111E+00
     5.141E+00    5.170E+00    5.199E+00    5.229E+00    5.258E+00    5.288E+00    5.317E+00    5.347E+00    5.376E+00    5.406E+00
     5.435E+00    5.465E+00    5.495E+00    5.524E+00    5.554E+00    5.584E+00    5.613E+00    5.643E+00    5.673E+00    5.703E+00
     5.732E+00    5.762E+00    5.792E+00    5.822E+00    5.851E+00    5.881E+00    5.911E+00    5.941E+00    5.970E+00    6.000E+00
     6.030E+00    6.060E+00    6.089E+00    6.119E+00    6.149E+00    6.178E+00    6.208E+00    6.238E+00    6.267E+00    6.297E+00
     6.326E+00    6.356E+00    6.385E+00    6.415E+00    6.445E+00    6.474E+00    6.504E+00    6.533E+00    6.562E+00    6.592E+00
     6.621E+00    6.651E+00    6.680E+00    6.710E+00    6.739E+00    6.769E+00    6.798E+00    6.827E+00    6.857E+00    6.886E+00
     6.915E+00    6.945E+00    6.974E+00    7.003E+00    7.033E+00    7.062E+00    7.091E+00    7.121E+00    7.150E+00    7.179E+00
     7.208E+00    7.238E+00    7.267E+00    7.296E+00    7.325E+00    7.355E+00    7.384E+00    7.413E+00
 Cr       Conc. = 2.37E+03
