 LCModel (Version 6.3-1L) Copyright: S.W. Provencher.          Ref.: Magn. Reson. Med. 30:672-679 (1993).                
 Slice#3 Row#8 Col#12  PD_05_press_2_raw_act
 36 lines in following concentration table = NCONC+1
    Conc.  %SD /Cr+PCr  Metabolite                                         
    3.644 999%   0.162 Ala                                                 
   42.432  87%   1.886 Asp                                                 
   22.499 193%   1.000 Cr                                                  
    0.000 999%   0.000 PCr                                                 
   19.068 116%   0.848 GABA                                                
   19.454 114%   0.865 Glc                                                 
   26.011 999%   1.156 Gln                                                 
  404.639  98%  17.985 Glu                                                 
    0.000 999%   0.000 GPC                                                 
    0.000 999%   0.000 PCh                                                 
   19.082 390%   0.848 GSH                                                 
   58.212 335%   2.587 Ins                                                 
    0.000 999%   0.000 Lac                                                 
  701.169  19%  31.165 NAA                                                 
    0.000 999%   0.000 NAAG                                                
    6.411 111%   0.285 Scyllo                                              
   29.510 123%   1.312 Tau                                                 
    2.247 199%   0.100 -CrCH2                                              
    0.000 999%   0.000 GPC+PCh                                             
  701.169   9%  31.165 NAA+NAAG                                            
   22.499 193%   1.000 Cr+PCr                                              
  430.650 150%  19.141 Glu+Gln                                             
    0.000 999%   0.000 Lip13a                                              
    0.000 999%   0.000 Lip13b                                              
   20.603 281%   0.916 Lip09                                               
   54.031 178%   2.402 MM09                                                
    0.000 999%   0.000 Lip20                                               
    0.000 999%   0.000 MM20                                                
   16.245 315%   0.722 MM12                                                
    0.000 999%   0.000 MM14                                                
   65.247 156%   2.900 MM17                                                
    0.000 999%   0.000 Lip13a+Lip13b                                       
   16.245 315%   0.722 MM14+Lip13a+Lip13b+MM12                             
   74.634 123%   3.317 MM09+Lip09                                          
    0.000 999%   0.000 MM20+Lip20                                          
   6 lines in following misc. output table
  FWHM = 0.084 ppm    S/N =   3                                            
  Data shift = 0.038 ppm                                                   
  Ph: -77 deg     -35.1 deg/ppm                                            
  alphaB,S = 8.5E+01,   2.0E+02                                            
   14 spline knots.   Ns = 9(1)                                            
   2 inflections.     1 extrema                                            
  498 points on ppm-axis = NY
      4.000000     3.992357     3.984714     3.977070     3.969427     3.961784     3.954141     3.946497     3.938854     3.931211
      3.923568     3.915925     3.908281     3.900638     3.892995     3.885352     3.877708     3.870065     3.862422     3.854779
      3.847136     3.839492     3.831849     3.824206     3.816563     3.808919     3.801276     3.793633     3.785990     3.778347
      3.770703     3.763060     3.755417     3.747774     3.740130     3.732487     3.724844     3.717201     3.709558     3.701914
      3.694271     3.686628     3.678985     3.671341     3.663698     3.656055     3.648412     3.640769     3.633125     3.625482
      3.617839     3.610196     3.602552     3.594909     3.587266     3.579623     3.571980     3.564336     3.556693     3.549050
      3.541407     3.533763     3.526120     3.518477     3.510834     3.503191     3.495547     3.487904     3.480261     3.472618
      3.464974     3.457331     3.449688     3.442045     3.434402     3.426758     3.419115     3.411472     3.403829     3.396185
      3.388542     3.380899     3.373256     3.365613     3.357969     3.350326     3.342683     3.335040     3.327396     3.319753
      3.312110     3.304467     3.296824     3.289180     3.281537     3.273894     3.266251     3.258607     3.250964     3.243321
      3.235678     3.228034     3.220391     3.212748     3.205105     3.197462     3.189818     3.182175     3.174532     3.166889
      3.159245     3.151602     3.143959     3.136316     3.128673     3.121029     3.113386     3.105743     3.098100     3.090456
      3.082813     3.075170     3.067527     3.059884     3.052240     3.044597     3.036954     3.029311     3.021667     3.014024
      3.006381     2.998738     2.991095     2.983451     2.975808     2.968165     2.960522     2.952878     2.945235     2.937592
      2.929949     2.922306     2.914662     2.907019     2.899376     2.891733     2.884089     2.876446     2.868803     2.861160
      2.853517     2.845873     2.838230     2.830587     2.822944     2.815300     2.807657     2.800014     2.792371     2.784728
      2.777084     2.769441     2.761798     2.754155     2.746511     2.738868     2.731225     2.723582     2.715939     2.708295
      2.700652     2.693009     2.685366     2.677722     2.670079     2.662436     2.654793     2.647150     2.639506     2.631863
      2.624220     2.616577     2.608933     2.601290     2.593647     2.586004     2.578361     2.570717     2.563074     2.555431
      2.547788     2.540144     2.532501     2.524858     2.517215     2.509572     2.501928     2.494285     2.486642     2.478999
      2.471355     2.463712     2.456069     2.448426     2.440783     2.433139     2.425496     2.417853     2.410210     2.402566
      2.394923     2.387280     2.379637     2.371994     2.364350     2.356707     2.349064     2.341421     2.333777     2.326134
      2.318491     2.310848     2.303205     2.295561     2.287918     2.280275     2.272632     2.264988     2.257345     2.249702
      2.242059     2.234416     2.226772     2.219129     2.211486     2.203843     2.196199     2.188556     2.180913     2.173270
      2.165627     2.157983     2.150340     2.142697     2.135054     2.127410     2.119767     2.112124     2.104481     2.096838
      2.089194     2.081551     2.073908     2.066265     2.058621     2.050978     2.043335     2.035692     2.028049     2.020405
      2.012762     2.005119     1.997476     1.989833     1.982190     1.974546     1.966903     1.959260     1.951617     1.943974
      1.936331     1.928688     1.921045     1.913402     1.905759     1.898115     1.890472     1.882829     1.875186     1.867543
      1.859900     1.852257     1.844614     1.836971     1.829327     1.821684     1.814041     1.806398     1.798755     1.791112
      1.783469     1.775826     1.768183     1.760540     1.752896     1.745253     1.737610     1.729967     1.722324     1.714681
      1.707038     1.699395     1.691752     1.684108     1.676465     1.668822     1.661179     1.653536     1.645893     1.638250
      1.630607     1.622964     1.615321     1.607677     1.600034     1.592391     1.584748     1.577105     1.569462     1.561819
      1.554176     1.546533     1.538890     1.531246     1.523603     1.515960     1.508317     1.500674     1.493031     1.485388
      1.477745     1.470102     1.462458     1.454815     1.447172     1.439529     1.431886     1.424243     1.416600     1.408957
      1.401314     1.393671     1.386027     1.378384     1.370741     1.363098     1.355455     1.347812     1.340169     1.332526
      1.324883     1.317240     1.309596     1.301953     1.294310     1.286667     1.279024     1.271381     1.263738     1.256095
      1.248452     1.240808     1.233165     1.225522     1.217879     1.210236     1.202593     1.194950     1.187307     1.179664
      1.172021     1.164377     1.156734     1.149091     1.141448     1.133805     1.126162     1.118519     1.110876     1.103233
      1.095590     1.087946     1.080303     1.072660     1.065017     1.057374     1.049731     1.042088     1.034445     1.026802
      1.019158     1.011515     1.003872     0.996229     0.988586     0.980943     0.973300     0.965657     0.958014     0.950371
      0.942727     0.935084     0.927441     0.919798     0.912155     0.904512     0.896869     0.889226     0.881583     0.873940
      0.866296     0.858653     0.851010     0.843367     0.835724     0.828081     0.820438     0.812795     0.805152     0.797508
      0.789865     0.782222     0.774579     0.766936     0.759293     0.751650     0.744007     0.736364     0.728721     0.721077
      0.713434     0.705791     0.698148     0.690505     0.682862     0.675219     0.667576     0.659933     0.652290     0.644646
      0.637003     0.629360     0.621717     0.614074     0.606431     0.598788     0.591145     0.583502     0.575858     0.568215
      0.560572     0.552929     0.545286     0.537643     0.530000     0.522357     0.514714     0.507071     0.499427     0.491784
      0.484141     0.476498     0.468855     0.461212     0.453569     0.445925     0.438282     0.430639     0.422996     0.415353
      0.407710     0.400067     0.392424     0.384780     0.377137     0.369494     0.361851     0.354208     0.346565     0.338922
      0.331278     0.323635     0.315992     0.308349     0.300706     0.293063     0.285420     0.277777     0.270133     0.262490
      0.254847     0.247204     0.239561     0.231918     0.224275     0.216631     0.208988     0.201345
 NY phased data points follow
  -3.05678E+00  4.62399E+00 -1.23395E+00 -6.01816E+00 -2.23087E+00 -2.69607E+00 -2.42328E+00 -3.35474E+00 -2.14153E+00 -5.45771E+00
  -2.77918E+00 -2.92690E+00 -1.93829E+00  3.78009E+00 -8.33641E-01 -1.97221E-01  1.23218E+00 -4.69029E+00 -5.90136E+00 -6.85175E-03
  -1.36318E+00 -3.55702E+00 -2.20887E-01 -2.02137E+00 -1.69746E+00 -8.85738E+00  1.27284E+00 -6.17452E+00 -5.71188E+00  2.74980E-01
  -4.35095E+00 -6.67385E+00  1.74718E+00  4.84585E+00 -2.83279E+00  9.77910E-01  1.83669E+00 -8.91894E-01  7.31153E-01  2.12185E+00
  -1.10673E+00 -2.62898E+00  2.61596E-01 -3.09381E+00  1.28850E+00 -6.55722E+00 -2.14616E+00  1.67947E-01 -3.01576E+00  3.32957E-02
  -1.26484E+00 -2.94460E+00 -2.02228E-01 -4.78260E+00 -2.90296E+00  1.76939E+00 -3.01759E+00 -4.07270E+00 -3.80629E+00 -3.30840E+00
  -4.62238E+00 -8.69553E+00 -8.01320E-01 -7.65020E-01 -3.89474E+00 -5.58463E+00 -4.41004E+00 -2.85912E+00 -3.00317E+00 -3.50512E+00
   2.43185E+00 -9.03347E-01  2.61921E+00 -1.68860E+00 -1.82626E+00  1.86936E+00 -3.60670E-01 -5.85024E+00  2.11986E+00 -5.08087E+00
  -1.17483E+00 -5.09592E+00  1.13008E+00 -5.13582E+00 -3.76743E+00 -3.44327E+00 -9.55228E-01 -1.77289E+00  2.24945E+00  7.72622E-01
  -1.28148E+00 -1.79289E+00 -6.79430E+00 -1.85767E+00 -1.66463E+00  4.15846E-01  2.75923E+00  1.49631E+00 -1.14957E+00 -2.93596E+00
  -3.52356E+00 -6.64130E+00 -3.15385E+00 -3.80842E+00  2.77352E+00 -3.90052E+00  3.49340E-01 -2.41215E+00 -3.02516E+00 -2.74013E+00
   2.03997E+00 -4.30195E+00 -3.07612E+00 -2.92445E+00  5.68628E-02 -5.22582E+00 -2.52150E+00 -4.32107E+00  4.95950E-01  5.46753E+00
  -1.41321E+00  2.25420E+00  8.53921E+00 -1.15876E+00 -1.80033E+00 -2.54310E+00 -1.69862E+00 -3.89466E+00 -4.45159E+00  2.04989E+00
  -7.86526E-01 -2.64303E+00 -2.15839E+00  2.26556E-03 -4.04857E+00  1.80801E+00 -6.56021E+00 -4.06765E+00  8.67293E-01  2.82687E+00
  -3.75009E+00 -3.24785E+00 -9.57424E-01  9.35502E-01  2.30251E+00 -1.68164E+00 -3.94266E+00  1.84932E+00 -2.53637E+00 -4.62835E+00
  -1.88529E+00 -1.27662E+00  1.74878E+00 -3.90901E+00 -3.30387E+00 -7.94524E+00 -2.86008E+00 -2.36998E+00  7.54767E-01 -1.06864E+01
  -1.50978E+00  2.82094E+00  2.57623E+00 -5.61209E+00  1.80114E+00 -1.06925E+00 -1.57021E+00  1.18618E+00  2.49486E+00  2.49843E-01
   2.36711E+00 -6.22580E-01 -1.25740E+00 -1.02455E+00 -3.56952E+00  2.99574E+00  1.09602E+00 -1.46736E+00 -9.49657E-01 -2.40846E+00
  -1.79239E+00 -2.50785E+00  1.56539E+00 -3.87382E+00 -3.36650E+00 -9.74126E-01 -1.41905E+00  6.58537E-02  1.01444E+00 -3.07998E+00
  -6.79098E+00 -1.39564E+00  1.43693E+00 -3.04365E+00 -2.54184E+00  6.54665E+00 -3.84652E+00 -4.07360E+00 -2.83043E+00  2.78898E+00
  -1.89711E+00 -1.34218E+00 -1.15293E+00 -7.28453E-01  1.89802E-01  1.12250E+00  2.51436E+00  1.12087E-01 -1.27145E+00 -8.46172E-02
   5.60782E-01  3.63205E+00  1.40477E+00  1.81344E+00  1.70329E+00  1.74427E+00 -1.18237E-01 -2.12553E+00  2.15902E+00 -1.00603E+00
  -3.90354E-01  2.62999E+00 -2.33300E+00  1.24215E-01 -4.48558E+00  6.58027E-01  1.01410E+00  4.79959E+00 -2.51387E+00 -5.41280E+00
   8.16796E-01  2.01145E+00 -1.32987E+00  3.62804E+00 -3.30140E-01  1.69789E-01 -1.34892E+00 -1.53514E+00 -7.38778E+00 -7.87818E-01
   2.27883E-01  2.14639E+00 -1.33627E+00 -4.34439E+00 -3.99378E+00 -2.40176E+00  2.22570E+00  2.00973E+00  2.67269E-02  2.51700E+00
   1.68684E+00 -3.15404E+00  4.38137E+00  9.12754E-01  9.11349E+00  8.87295E+00  7.11326E+00  1.04776E+01  1.17104E+01  1.76103E+01
   1.65219E+01  2.27365E+01  1.76662E+01  1.26287E+01  1.27325E+01  1.34270E+01  1.15594E+01  4.19076E+00  3.52682E+00  3.17845E+00
   3.65103E+00  4.97639E+00  1.46269E+00  1.10054E+00 -9.04198E-01  3.24717E-01  3.26578E+00  1.46316E+00  4.84438E+00 -1.44792E+00
   3.33272E-01  4.12547E+00 -6.90290E-01  4.69042E-02 -1.15323E+00 -5.98518E+00  1.57033E+00 -4.36624E+00  4.30284E-02  6.72508E-01
   2.55031E+00 -4.96883E-01 -1.91026E+00 -4.11784E+00  5.08165E-01 -2.71029E+00  1.41418E+00  4.39569E+00  3.42438E+00 -5.74495E-01
   1.87423E+00  1.99554E+00 -4.38327E+00  2.69207E+00  4.96868E+00  3.09283E+00  3.35824E+00  1.17598E-02  1.92125E+00  7.66978E+00
  -8.29212E-01 -5.18930E-01  1.20284E+00  8.17568E-01 -4.61051E+00  2.72898E+00  4.38797E+00  6.02327E+00  4.55009E+00 -2.06486E+00
   4.63099E-01  3.29350E+00  4.09297E+00  7.05585E-01  5.20072E+00 -3.34353E+00  3.44615E+00 -4.87838E-01  2.10546E+00  4.86337E+00
   3.03318E+00 -2.35958E+00 -2.93630E+00  3.20644E+00 -3.71348E+00 -1.01622E+00 -4.27918E+00  1.82173E+00  8.84383E-01 -1.03504E+00
  -1.42297E+00  1.88185E+00 -8.47763E-01 -6.90235E+00 -1.73917E-01  2.14373E+00 -3.52464E+00  7.85057E-01 -7.84411E-01  3.40233E+00
   2.00982E+00 -1.86519E+00  1.87050E+00  2.30247E+00  3.86473E+00  1.54977E+00  4.66874E-01  3.83751E+00  1.20980E+00 -1.79348E+00
   2.22766E+00 -2.33811E+00 -3.66595E+00  8.99577E-01  2.87876E+00 -2.37878E+00  4.96639E+00  5.66850E+00  6.26052E+00  3.00870E+00
   3.60318E+00  1.86993E+00  6.78189E+00  1.41967E+00  4.56421E+00  3.30566E+00  2.75753E+00  1.14668E+00 -2.00311E+00 -4.18581E-01
  -8.03615E-03 -2.95072E-01  1.46158E+00  1.71120E+00  8.92297E-01  2.98552E+00  4.06600E+00 -1.69466E+00 -3.76239E+00 -9.31069E-01
   5.66304E-01  3.20377E+00  2.03027E+00  6.01872E-01  2.54729E+00  5.60776E+00  6.60220E+00  4.52179E+00  4.97365E+00  2.38113E+00
   3.83401E+00  2.04862E+00  4.13544E+00 -1.11890E+00  4.92793E-01  2.71358E+00 -2.18148E+00  4.88955E+00  1.87733E+00  1.76349E+00
   5.11297E+00 -3.97677E-01  1.62706E+00  2.60849E+00  3.90162E+00  7.89407E-01 -7.81475E-01  2.17161E+00  3.14780E+00  5.91891E+00
   3.99469E+00  5.10484E+00  5.69942E-01  6.03272E+00  1.03456E+00  3.57293E+00  6.77932E+00  2.82231E+00  8.82966E-01  4.93736E+00
   7.26996E+00  6.49016E+00  3.47066E+00  2.25219E+00  2.02617E+00  2.96089E+00  2.04163E+00  6.34250E-01  1.56431E+00 -3.47262E-01
   5.57439E+00  8.64177E+00  5.31088E+00  4.81830E+00  1.66587E+00  7.18406E+00  3.62130E+00  5.60824E+00  8.04178E-02  8.04681E+00
   5.80953E+00  3.32883E+00  6.29541E-01 -1.23032E-02  1.36468E+00  2.26126E+00 -1.76654E+00  4.20456E+00  7.50729E+00  8.96969E-01
   2.81491E-01  4.73599E+00  2.72873E+00  3.47241E+00 -6.98682E-01 -1.14640E+00  2.74266E+00  6.70904E-02  1.08595E+00  1.50700E+00
   6.73275E+00 -3.66046E+00  2.57850E+00  4.45255E+00  1.54899E+00  6.48765E+00  8.44144E-01  4.54904E+00  4.62719E+00 -1.81300E+00
   2.34722E+00 -1.33886E-01  3.61169E+00 -1.78471E+00  1.41518E+00  1.37929E+00  3.53658E+00  9.40472E-01  5.70545E+00  5.81146E+00
   3.78914E+00 -8.23346E-01 -3.30761E+00  1.52377E+00  2.00675E+00  4.48617E+00 -3.71119E+00  5.09276E+00
 NY points of the fit to the data follow
  -2.54421E+00 -2.56185E+00 -2.57056E+00 -2.56245E+00 -2.53825E+00 -2.50412E+00 -2.46411E+00 -2.41882E+00 -2.36991E+00 -2.32067E+00
  -2.27598E+00 -2.24153E+00 -2.21998E+00 -2.21001E+00 -2.20791E+00 -2.20959E+00 -2.21054E+00 -2.20510E+00 -2.19198E+00 -2.18171E+00
  -2.17785E+00 -2.17244E+00 -2.15712E+00 -2.12890E+00 -2.08551E+00 -2.02264E+00 -1.94278E+00 -1.85592E+00 -1.77159E+00 -1.69821E+00
  -1.64257E+00 -1.60361E+00 -1.58114E+00 -1.57929E+00 -1.60320E+00 -1.65436E+00 -1.72689E+00 -1.80982E+00 -1.89345E+00 -1.96878E+00
  -2.01763E+00 -2.02932E+00 -2.00594E+00 -1.95090E+00 -1.87223E+00 -1.78810E+00 -1.72126E+00 -1.68722E+00 -1.68813E+00 -1.71993E+00
  -1.76972E+00 -1.81896E+00 -1.86134E+00 -1.89606E+00 -1.92266E+00 -1.94015E+00 -1.94721E+00 -1.94242E+00 -1.92505E+00 -1.89896E+00
  -1.87117E+00 -1.84799E+00 -1.83157E+00 -1.82013E+00 -1.81156E+00 -1.80430E+00 -1.79538E+00 -1.78143E+00 -1.76221E+00 -1.73891E+00
  -1.71231E+00 -1.68445E+00 -1.65811E+00 -1.63507E+00 -1.61702E+00 -1.60490E+00 -1.59801E+00 -1.59109E+00 -1.58057E+00 -1.56782E+00
  -1.55419E+00 -1.54119E+00 -1.52825E+00 -1.51355E+00 -1.49866E+00 -1.48716E+00 -1.48158E+00 -1.48451E+00 -1.49815E+00 -1.52025E+00
  -1.54592E+00 -1.57279E+00 -1.59883E+00 -1.62075E+00 -1.63650E+00 -1.64510E+00 -1.64519E+00 -1.63651E+00 -1.62496E+00 -1.61544E+00
  -1.60824E+00 -1.60213E+00 -1.59581E+00 -1.58862E+00 -1.58101E+00 -1.57308E+00 -1.56407E+00 -1.55321E+00 -1.54042E+00 -1.52569E+00
  -1.50995E+00 -1.49646E+00 -1.48613E+00 -1.47853E+00 -1.47403E+00 -1.47180E+00 -1.46937E+00 -1.46267E+00 -1.44095E+00 -1.39804E+00
  -1.33764E+00 -1.26466E+00 -1.18314E+00 -1.09616E+00 -1.00675E+00 -9.19940E-01 -8.44505E-01 -7.89720E-01 -7.62652E-01 -7.66119E-01
  -7.97386E-01 -8.50713E-01 -9.19756E-01 -9.98355E-01 -1.07981E+00 -1.15520E+00 -1.21548E+00 -1.25238E+00 -1.26189E+00 -1.25343E+00
  -1.23706E+00 -1.21600E+00 -1.19230E+00 -1.16795E+00 -1.14482E+00 -1.12529E+00 -1.11196E+00 -1.10466E+00 -1.10169E+00 -1.10052E+00
  -1.09838E+00 -1.09625E+00 -1.10381E+00 -1.12699E+00 -1.16288E+00 -1.20311E+00 -1.23566E+00 -1.25905E+00 -1.28000E+00 -1.30195E+00
  -1.32302E+00 -1.33874E+00 -1.34609E+00 -1.34674E+00 -1.34708E+00 -1.35463E+00 -1.37549E+00 -1.41670E+00 -1.48123E+00 -1.55881E+00
  -1.64086E+00 -1.72493E+00 -1.81567E+00 -1.90498E+00 -1.97525E+00 -2.01349E+00 -2.01485E+00 -1.99298E+00 -1.96558E+00 -1.93583E+00
  -1.89434E+00 -1.83185E+00 -1.74364E+00 -1.63250E+00 -1.50594E+00 -1.36862E+00 -1.22027E+00 -1.05804E+00 -8.73438E-01 -6.69204E-01
  -4.68196E-01 -2.91165E-01 -1.49909E-01 -4.19061E-02  4.12097E-02  1.08019E-01  1.60775E-01  1.99041E-01  2.22238E-01  2.41433E-01
   2.65046E-01  2.80593E-01  2.76593E-01  2.43597E-01  1.70552E-01  6.25365E-02 -5.75752E-02 -1.49121E-01 -1.96484E-01 -2.12623E-01
  -2.06379E-01 -1.79753E-01 -1.38711E-01 -1.06237E-01 -1.07140E-01 -1.49391E-01 -2.37994E-01 -3.77028E-01 -5.60911E-01 -7.69963E-01
  -9.78452E-01 -1.16046E+00 -1.28327E+00 -1.32121E+00 -1.26063E+00 -1.09547E+00 -8.38507E-01 -5.20255E-01 -1.97585E-01  8.60267E-02
   3.07470E-01  4.51036E-01  5.10106E-01  4.91892E-01  4.22237E-01  3.41785E-01  2.73991E-01  2.21136E-01  1.82950E-01  1.58300E-01
   1.45023E-01  1.38090E-01  1.32198E-01  1.29130E-01  1.37042E-01  1.60466E-01  1.99959E-01  2.53722E-01  3.22792E-01  4.10809E-01
   5.63089E-01  1.01529E+00  2.03783E+00  3.57947E+00  5.47479E+00  7.56836E+00  9.74259E+00  1.18989E+01  1.39069E+01  1.55811E+01
   1.67081E+01  1.71143E+01  1.67341E+01  1.56371E+01  1.39788E+01  1.19214E+01  9.62005E+00  7.25792E+00  5.04473E+00  3.17200E+00
   1.80565E+00  1.07563E+00  8.46307E-01  7.75081E-01  7.52476E-01  7.52434E-01  7.59981E-01  7.67464E-01  7.73528E-01  7.75363E-01
   7.71717E-01  7.63595E-01  7.53489E-01  7.44305E-01  7.40027E-01  7.43015E-01  7.52751E-01  7.67934E-01  7.87174E-01  8.08931E-01
   8.31961E-01  8.55287E-01  8.78483E-01  9.02033E-01  9.26188E-01  9.51007E-01  9.76559E-01  1.00272E+00  1.02903E+00  1.05484E+00
   1.07967E+00  1.10307E+00  1.12446E+00  1.14333E+00  1.15935E+00  1.17220E+00  1.18173E+00  1.18795E+00  1.19099E+00  1.19106E+00
   1.18846E+00  1.18356E+00  1.17681E+00  1.16871E+00  1.15979E+00  1.15058E+00  1.14155E+00  1.13331E+00  1.12659E+00  1.12141E+00
   1.11716E+00  1.11337E+00  1.10976E+00  1.10617E+00  1.10235E+00  1.09790E+00  1.09303E+00  1.08858E+00  1.08518E+00  1.08340E+00
   1.08373E+00  1.08660E+00  1.09231E+00  1.10102E+00  1.11263E+00  1.12674E+00  1.14257E+00  1.15921E+00  1.17574E+00  1.19095E+00
   1.20425E+00  1.21582E+00  1.22593E+00  1.23500E+00  1.24353E+00  1.25215E+00  1.26174E+00  1.27263E+00  1.28438E+00  1.29669E+00
   1.30945E+00  1.32256E+00  1.33595E+00  1.34959E+00  1.36341E+00  1.37735E+00  1.39136E+00  1.40537E+00  1.41932E+00  1.43317E+00
   1.44686E+00  1.46033E+00  1.47355E+00  1.48648E+00  1.49910E+00  1.51141E+00  1.52342E+00  1.53513E+00  1.54658E+00  1.55784E+00
   1.56896E+00  1.58002E+00  1.59111E+00  1.60232E+00  1.61376E+00  1.62555E+00  1.63783E+00  1.65072E+00  1.66435E+00  1.67886E+00
   1.69440E+00  1.71112E+00  1.72918E+00  1.74873E+00  1.76989E+00  1.79282E+00  1.81761E+00  1.84437E+00  1.87315E+00  1.90394E+00
   1.93669E+00  1.97129E+00  2.00753E+00  2.04515E+00  2.08376E+00  2.12292E+00  2.16210E+00  2.20070E+00  2.23810E+00  2.27364E+00
   2.30666E+00  2.33654E+00  2.36273E+00  2.38477E+00  2.40232E+00  2.41516E+00  2.42324E+00  2.42664E+00  2.42558E+00  2.42043E+00
   2.41167E+00  2.39984E+00  2.38554E+00  2.36943E+00  2.35214E+00  2.33428E+00  2.31640E+00  2.29900E+00  2.28251E+00  2.26724E+00
   2.25347E+00  2.24137E+00  2.23102E+00  2.22247E+00  2.21571E+00  2.21068E+00  2.20729E+00  2.20544E+00  2.20499E+00  2.20583E+00
   2.20781E+00  2.21083E+00  2.21476E+00  2.21950E+00  2.22494E+00  2.23099E+00  2.23758E+00  2.24465E+00  2.25213E+00  2.25997E+00
   2.26812E+00  2.27655E+00  2.28522E+00  2.29411E+00  2.30318E+00  2.31243E+00  2.32182E+00  2.33134E+00  2.34099E+00  2.35075E+00
   2.36060E+00  2.37054E+00  2.38056E+00  2.39065E+00  2.40081E+00  2.41103E+00  2.42131E+00  2.43163E+00  2.44200E+00  2.45242E+00
   2.46288E+00  2.47338E+00  2.48390E+00  2.49446E+00  2.50505E+00  2.51567E+00  2.52632E+00  2.53699E+00  2.54768E+00  2.55839E+00
   2.56912E+00  2.57987E+00  2.59065E+00  2.60144E+00  2.61224E+00  2.62306E+00  2.63390E+00  2.64475E+00  2.65562E+00  2.66649E+00
   2.67738E+00  2.68828E+00  2.69920E+00  2.71013E+00  2.72106E+00  2.73201E+00  2.74296E+00  2.75393E+00  2.76491E+00  2.77590E+00
   2.78690E+00  2.79791E+00  2.80893E+00  2.81997E+00  2.83102E+00  2.84208E+00  2.85315E+00  2.86424E+00
 NY background values follow
    -2.773E+00   -2.762E+00   -2.751E+00   -2.739E+00   -2.728E+00   -2.717E+00   -2.705E+00   -2.694E+00   -2.683E+00   -2.672E+00
    -2.660E+00   -2.649E+00   -2.638E+00   -2.626E+00   -2.615E+00   -2.604E+00   -2.592E+00   -2.581E+00   -2.570E+00   -2.559E+00
    -2.547E+00   -2.536E+00   -2.525E+00   -2.513E+00   -2.502E+00   -2.491E+00   -2.479E+00   -2.468E+00   -2.457E+00   -2.446E+00
    -2.434E+00   -2.423E+00   -2.412E+00   -2.400E+00   -2.389E+00   -2.378E+00   -2.367E+00   -2.355E+00   -2.344E+00   -2.333E+00
    -2.321E+00   -2.310E+00   -2.299E+00   -2.287E+00   -2.276E+00   -2.265E+00   -2.254E+00   -2.242E+00   -2.231E+00   -2.220E+00
    -2.208E+00   -2.197E+00   -2.186E+00   -2.174E+00   -2.163E+00   -2.152E+00   -2.141E+00   -2.129E+00   -2.118E+00   -2.107E+00
    -2.095E+00   -2.084E+00   -2.073E+00   -2.062E+00   -2.050E+00   -2.039E+00   -2.028E+00   -2.016E+00   -2.005E+00   -1.994E+00
    -1.982E+00   -1.971E+00   -1.960E+00   -1.949E+00   -1.937E+00   -1.926E+00   -1.915E+00   -1.903E+00   -1.892E+00   -1.881E+00
    -1.869E+00   -1.858E+00   -1.847E+00   -1.836E+00   -1.824E+00   -1.813E+00   -1.802E+00   -1.790E+00   -1.779E+00   -1.768E+00
    -1.757E+00   -1.745E+00   -1.734E+00   -1.723E+00   -1.711E+00   -1.700E+00   -1.689E+00   -1.677E+00   -1.666E+00   -1.655E+00
    -1.644E+00   -1.632E+00   -1.621E+00   -1.610E+00   -1.598E+00   -1.587E+00   -1.576E+00   -1.564E+00   -1.553E+00   -1.542E+00
    -1.531E+00   -1.519E+00   -1.508E+00   -1.497E+00   -1.485E+00   -1.474E+00   -1.463E+00   -1.452E+00   -1.440E+00   -1.429E+00
    -1.418E+00   -1.406E+00   -1.395E+00   -1.384E+00   -1.372E+00   -1.361E+00   -1.350E+00   -1.339E+00   -1.327E+00   -1.316E+00
    -1.305E+00   -1.293E+00   -1.282E+00   -1.271E+00   -1.259E+00   -1.248E+00   -1.237E+00   -1.226E+00   -1.214E+00   -1.203E+00
    -1.192E+00   -1.180E+00   -1.169E+00   -1.158E+00   -1.147E+00   -1.135E+00   -1.124E+00   -1.113E+00   -1.101E+00   -1.090E+00
    -1.079E+00   -1.067E+00   -1.056E+00   -1.045E+00   -1.034E+00   -1.022E+00   -1.011E+00   -9.997E-01   -9.884E-01   -9.771E-01
    -9.658E-01   -9.545E-01   -9.432E-01   -9.319E-01   -9.206E-01   -9.093E-01   -8.980E-01   -8.867E-01   -8.754E-01   -8.641E-01
    -8.528E-01   -8.415E-01   -8.302E-01   -8.189E-01   -8.076E-01   -7.963E-01   -7.850E-01   -7.737E-01   -7.624E-01   -7.511E-01
    -7.398E-01   -7.285E-01   -7.172E-01   -7.059E-01   -6.946E-01   -6.833E-01   -6.720E-01   -6.608E-01   -6.495E-01   -6.382E-01
    -6.269E-01   -6.156E-01   -6.043E-01   -5.930E-01   -5.817E-01   -5.704E-01   -5.591E-01   -5.478E-01   -5.365E-01   -5.252E-01
    -5.139E-01   -5.026E-01   -4.913E-01   -4.800E-01   -4.687E-01   -4.574E-01   -4.461E-01   -4.348E-01   -4.235E-01   -4.122E-01
    -4.009E-01   -3.896E-01   -3.783E-01   -3.670E-01   -3.557E-01   -3.444E-01   -3.331E-01   -3.218E-01   -3.106E-01   -2.993E-01
    -2.880E-01   -2.767E-01   -2.654E-01   -2.541E-01   -2.428E-01   -2.315E-01   -2.202E-01   -2.089E-01   -1.976E-01   -1.863E-01
    -1.750E-01   -1.637E-01   -1.524E-01   -1.411E-01   -1.298E-01   -1.185E-01   -1.072E-01   -9.591E-02   -8.462E-02   -7.332E-02
    -6.202E-02   -5.073E-02   -3.943E-02   -2.813E-02   -1.684E-02   -5.539E-03    5.758E-03    1.705E-02    2.835E-02    3.965E-02
     5.095E-02    6.224E-02    7.354E-02    8.484E-02    9.613E-02    1.074E-01    1.187E-01    1.300E-01    1.413E-01    1.526E-01
     1.639E-01    1.752E-01    1.865E-01    1.978E-01    2.091E-01    2.204E-01    2.317E-01    2.430E-01    2.543E-01    2.656E-01
     2.769E-01    2.882E-01    2.995E-01    3.108E-01    3.221E-01    3.334E-01    3.447E-01    3.560E-01    3.673E-01    3.786E-01
     3.899E-01    4.011E-01    4.124E-01    4.237E-01    4.350E-01    4.463E-01    4.576E-01    4.689E-01    4.802E-01    4.915E-01
     5.028E-01    5.141E-01    5.254E-01    5.367E-01    5.480E-01    5.593E-01    5.706E-01    5.819E-01    5.932E-01    6.045E-01
     6.158E-01    6.271E-01    6.384E-01    6.497E-01    6.610E-01    6.723E-01    6.836E-01    6.949E-01    7.062E-01    7.175E-01
     7.288E-01    7.401E-01    7.514E-01    7.626E-01    7.739E-01    7.852E-01    7.965E-01    8.078E-01    8.191E-01    8.304E-01
     8.417E-01    8.530E-01    8.643E-01    8.756E-01    8.869E-01    8.982E-01    9.095E-01    9.208E-01    9.321E-01    9.434E-01
     9.547E-01    9.660E-01    9.773E-01    9.886E-01    9.999E-01    1.011E+00    1.022E+00    1.034E+00    1.045E+00    1.056E+00
     1.068E+00    1.079E+00    1.090E+00    1.102E+00    1.113E+00    1.124E+00    1.135E+00    1.147E+00    1.158E+00    1.169E+00
     1.181E+00    1.192E+00    1.203E+00    1.215E+00    1.226E+00    1.237E+00    1.248E+00    1.260E+00    1.271E+00    1.282E+00
     1.294E+00    1.305E+00    1.316E+00    1.327E+00    1.339E+00    1.350E+00    1.361E+00    1.373E+00    1.384E+00    1.395E+00
     1.407E+00    1.418E+00    1.429E+00    1.440E+00    1.452E+00    1.463E+00    1.474E+00    1.486E+00    1.497E+00    1.508E+00
     1.520E+00    1.531E+00    1.542E+00    1.553E+00    1.565E+00    1.576E+00    1.587E+00    1.599E+00    1.610E+00    1.621E+00
     1.633E+00    1.644E+00    1.655E+00    1.666E+00    1.678E+00    1.689E+00    1.700E+00    1.712E+00    1.723E+00    1.734E+00
     1.745E+00    1.757E+00    1.768E+00    1.779E+00    1.791E+00    1.802E+00    1.813E+00    1.825E+00    1.836E+00    1.847E+00
     1.858E+00    1.870E+00    1.881E+00    1.892E+00    1.904E+00    1.915E+00    1.926E+00    1.938E+00    1.949E+00    1.960E+00
     1.971E+00    1.983E+00    1.994E+00    2.005E+00    2.017E+00    2.028E+00    2.039E+00    2.050E+00    2.062E+00    2.073E+00
     2.084E+00    2.096E+00    2.107E+00    2.118E+00    2.130E+00    2.141E+00    2.152E+00    2.163E+00    2.175E+00    2.186E+00
     2.197E+00    2.209E+00    2.220E+00    2.231E+00    2.243E+00    2.254E+00    2.265E+00    2.276E+00    2.288E+00    2.299E+00
     2.310E+00    2.322E+00    2.333E+00    2.344E+00    2.356E+00    2.367E+00    2.378E+00    2.389E+00    2.401E+00    2.412E+00
     2.423E+00    2.435E+00    2.446E+00    2.457E+00    2.468E+00    2.480E+00    2.491E+00    2.502E+00    2.514E+00    2.525E+00
     2.536E+00    2.548E+00    2.559E+00    2.570E+00    2.581E+00    2.593E+00    2.604E+00    2.615E+00    2.627E+00    2.638E+00
     2.649E+00    2.661E+00    2.672E+00    2.683E+00    2.694E+00    2.706E+00    2.717E+00    2.728E+00    2.740E+00    2.751E+00
     2.762E+00    2.773E+00    2.785E+00    2.796E+00    2.807E+00    2.819E+00    2.830E+00    2.841E+00
 Ala      Conc. = 3.64E+00
