 LCModel (Version 6.3-1L) Copyright: S.W. Provencher.          Ref.: Magn. Reson. Med. 30:672-679 (1993).                
 Slice#1 Row#11 Col#7  PD_05_press_2_raw_act
 36 lines in following concentration table = NCONC+1
    Conc.  %SD /Cr+PCr  Metabolite                                         
    0.000 999%   0.000 Ala                                                 
   49.418 119%   0.129 Asp                                                 
  382.119  16%   1.000 Cr                                                  
    0.000 999%   0.000 PCr                                                 
   43.171  83%   0.113 GABA                                                
   38.194  93%   0.100 Glc                                                 
  432.641 122%   1.132 Gln                                                 
    0.000 999%   0.000 Glu                                                 
   11.002 999% 2.9E-02 GPC                                                 
   92.343 129%   0.242 PCh                                                 
  357.125  26%   0.935 GSH                                                 
  866.849  28%   2.269 Ins                                                 
  737.364  35%   1.930 Lac                                                 
  236.441  80%   0.619 NAA                                                 
  376.394  52%   0.985 NAAG                                                
   23.940  47% 6.3E-02 Scyllo                                              
   82.260  70%   0.215 Tau                                                 
  126.419  67%   0.331 -CrCH2                                              
  103.344  21%   0.270 GPC+PCh                                             
  612.835  13%   1.604 NAA+NAAG                                            
  382.119  16%   1.000 Cr+PCr                                              
  432.641 122%   1.132 Glu+Gln                                             
    0.000 999%   0.000 Lip13a                                              
  106.147  76%   0.278 Lip13b                                              
   29.042  81% 7.6E-02 Lip09                                               
  165.779  57%   0.434 MM09                                                
   16.004  87% 4.2E-02 Lip20                                               
  230.666  89%   0.604 MM20                                                
   33.688 179% 8.8E-02 MM12                                                
    0.000 999%   0.000 MM14                                                
   57.828 181%   0.151 MM17                                                
  106.147  76%   0.278 Lip13a+Lip13b                                       
  139.835  64%   0.366 MM14+Lip13a+Lip13b+MM12                             
  194.821  48%   0.510 MM09+Lip09                                          
  246.669  83%   0.646 MM20+Lip20                                          
   6 lines in following misc. output table
  FWHM = 0.138 ppm    S/N =   2                                            
  Data shift = 0.046 ppm                                                   
  Ph:   3 deg       5.4 deg/ppm                                            
  alphaB,S = 8.5E+01,   1.0E+02                                            
   14 spline knots.   Ns = 7(2)                                            
   2 inflections.     1 extrema                                            
  498 points on ppm-axis = NY
      4.000000     3.992357     3.984714     3.977070     3.969427     3.961784     3.954141     3.946497     3.938854     3.931211
      3.923568     3.915925     3.908281     3.900638     3.892995     3.885352     3.877708     3.870065     3.862422     3.854779
      3.847136     3.839492     3.831849     3.824206     3.816563     3.808919     3.801276     3.793633     3.785990     3.778347
      3.770703     3.763060     3.755417     3.747774     3.740130     3.732487     3.724844     3.717201     3.709558     3.701914
      3.694271     3.686628     3.678985     3.671341     3.663698     3.656055     3.648412     3.640769     3.633125     3.625482
      3.617839     3.610196     3.602552     3.594909     3.587266     3.579623     3.571980     3.564336     3.556693     3.549050
      3.541407     3.533763     3.526120     3.518477     3.510834     3.503191     3.495547     3.487904     3.480261     3.472618
      3.464974     3.457331     3.449688     3.442045     3.434402     3.426758     3.419115     3.411472     3.403829     3.396185
      3.388542     3.380899     3.373256     3.365613     3.357969     3.350326     3.342683     3.335040     3.327396     3.319753
      3.312110     3.304467     3.296824     3.289180     3.281537     3.273894     3.266251     3.258607     3.250964     3.243321
      3.235678     3.228034     3.220391     3.212748     3.205105     3.197462     3.189818     3.182175     3.174532     3.166889
      3.159245     3.151602     3.143959     3.136316     3.128673     3.121029     3.113386     3.105743     3.098100     3.090456
      3.082813     3.075170     3.067527     3.059884     3.052240     3.044597     3.036954     3.029311     3.021667     3.014024
      3.006381     2.998738     2.991095     2.983451     2.975808     2.968165     2.960522     2.952878     2.945235     2.937592
      2.929949     2.922306     2.914662     2.907019     2.899376     2.891733     2.884089     2.876446     2.868803     2.861160
      2.853517     2.845873     2.838230     2.830587     2.822944     2.815300     2.807657     2.800014     2.792371     2.784728
      2.777084     2.769441     2.761798     2.754155     2.746511     2.738868     2.731225     2.723582     2.715939     2.708295
      2.700652     2.693009     2.685366     2.677722     2.670079     2.662436     2.654793     2.647150     2.639506     2.631863
      2.624220     2.616577     2.608933     2.601290     2.593647     2.586004     2.578361     2.570717     2.563074     2.555431
      2.547788     2.540144     2.532501     2.524858     2.517215     2.509572     2.501928     2.494285     2.486642     2.478999
      2.471355     2.463712     2.456069     2.448426     2.440783     2.433139     2.425496     2.417853     2.410210     2.402566
      2.394923     2.387280     2.379637     2.371994     2.364350     2.356707     2.349064     2.341421     2.333777     2.326134
      2.318491     2.310848     2.303205     2.295561     2.287918     2.280275     2.272632     2.264988     2.257345     2.249702
      2.242059     2.234416     2.226772     2.219129     2.211486     2.203843     2.196199     2.188556     2.180913     2.173270
      2.165627     2.157983     2.150340     2.142697     2.135054     2.127410     2.119767     2.112124     2.104481     2.096838
      2.089194     2.081551     2.073908     2.066265     2.058621     2.050978     2.043335     2.035692     2.028049     2.020405
      2.012762     2.005119     1.997476     1.989833     1.982190     1.974546     1.966903     1.959260     1.951617     1.943974
      1.936331     1.928688     1.921045     1.913402     1.905759     1.898115     1.890472     1.882829     1.875186     1.867543
      1.859900     1.852257     1.844614     1.836971     1.829327     1.821684     1.814041     1.806398     1.798755     1.791112
      1.783469     1.775826     1.768183     1.760540     1.752896     1.745253     1.737610     1.729967     1.722324     1.714681
      1.707038     1.699395     1.691752     1.684108     1.676465     1.668822     1.661179     1.653536     1.645893     1.638250
      1.630607     1.622964     1.615321     1.607677     1.600034     1.592391     1.584748     1.577105     1.569462     1.561819
      1.554176     1.546533     1.538890     1.531246     1.523603     1.515960     1.508317     1.500674     1.493031     1.485388
      1.477745     1.470102     1.462458     1.454815     1.447172     1.439529     1.431886     1.424243     1.416600     1.408957
      1.401314     1.393671     1.386027     1.378384     1.370741     1.363098     1.355455     1.347812     1.340169     1.332526
      1.324883     1.317240     1.309596     1.301953     1.294310     1.286667     1.279024     1.271381     1.263738     1.256095
      1.248452     1.240808     1.233165     1.225522     1.217879     1.210236     1.202593     1.194950     1.187307     1.179664
      1.172021     1.164377     1.156734     1.149091     1.141448     1.133805     1.126162     1.118519     1.110876     1.103233
      1.095590     1.087946     1.080303     1.072660     1.065017     1.057374     1.049731     1.042088     1.034445     1.026802
      1.019158     1.011515     1.003872     0.996229     0.988586     0.980943     0.973300     0.965657     0.958014     0.950371
      0.942727     0.935084     0.927441     0.919798     0.912155     0.904512     0.896869     0.889226     0.881583     0.873940
      0.866296     0.858653     0.851010     0.843367     0.835724     0.828081     0.820438     0.812795     0.805152     0.797508
      0.789865     0.782222     0.774579     0.766936     0.759293     0.751650     0.744007     0.736364     0.728721     0.721077
      0.713434     0.705791     0.698148     0.690505     0.682862     0.675219     0.667576     0.659933     0.652290     0.644646
      0.637003     0.629360     0.621717     0.614074     0.606431     0.598788     0.591145     0.583502     0.575858     0.568215
      0.560572     0.552929     0.545286     0.537643     0.530000     0.522357     0.514714     0.507071     0.499427     0.491784
      0.484141     0.476498     0.468855     0.461212     0.453569     0.445925     0.438282     0.430639     0.422996     0.415353
      0.407710     0.400067     0.392424     0.384780     0.377137     0.369494     0.361851     0.354208     0.346565     0.338922
      0.331278     0.323635     0.315992     0.308349     0.300706     0.293063     0.285420     0.277777     0.270133     0.262490
      0.254847     0.247204     0.239561     0.231918     0.224275     0.216631     0.208988     0.201345
 NY phased data points follow
   4.63624E+00  3.72621E+00 -5.41834E-01  8.51904E-01  1.48886E+00  5.72366E-01  9.76802E-01  2.36398E+00  5.04700E+00  3.52258E-01
   2.53799E+00  4.02028E+00  4.58647E+00  4.67833E+00  3.44157E+00  7.07196E-01  4.68342E+00  2.05607E-01 -5.92346E-01  6.84155E+00
   3.44976E+00  4.15529E+00  2.29926E+00  1.99884E+00  2.24311E+00  5.60103E+00  1.33593E+00 -2.83055E-01  1.59489E+00  8.53938E+00
   5.71427E+00  6.89263E+00  7.26713E+00  5.83393E+00  5.59701E+00  5.70960E+00  3.83307E+00  8.19290E+00  5.26691E+00  8.33792E+00
   3.67456E+00  3.28556E-01  6.58577E+00  4.74873E+00  8.39520E-01  1.40734E+00 -6.63860E-01  4.65248E+00  6.00955E+00  4.91670E+00
   9.57903E+00  2.16029E+00  4.70039E+00  3.41804E+00 -3.68989E-01  4.49843E+00  6.65263E-01  4.81269E+00  1.64979E+00  4.93956E+00
  -8.34431E-01 -3.17527E-02  4.05507E-01  3.83976E+00  1.19473E+00  1.66059E-01  5.88535E+00 -2.79237E+00  2.80817E+00  4.82762E+00
   4.73040E+00 -6.57317E-01 -3.80066E+00  5.03716E+00 -1.39300E+00  3.05994E+00  5.73763E+00  4.22163E+00  3.45559E+00  2.25855E+00
   3.80080E+00 -3.56467E+00 -1.61383E+00  1.52740E+00 -7.88305E-01  4.99532E+00 -2.28443E-01  6.28249E+00  3.42069E+00  7.66711E+00
   1.16267E+00  2.15467E+00  4.79834E+00  5.22766E+00  9.05573E+00  1.09695E+00  6.98380E+00  4.75249E+00  4.17947E+00  4.20422E+00
   2.09262E+00  2.18389E+00  7.12885E+00  5.71996E+00  3.40075E+00  1.13178E+00  3.92282E-01  3.88923E+00  5.16751E+00 -1.96541E+00
   2.18218E+00  4.16194E-01  4.27440E+00  3.33890E-01  2.05925E+00  7.31312E-01  6.64903E+00  7.65578E+00  7.57642E+00  2.88385E+00
   4.23353E+00  8.08573E+00  4.17984E+00  7.37113E+00  6.33345E+00  6.63021E+00  1.06115E+01  4.78689E+00  7.60976E+00  3.57808E+00
   3.04227E+00  3.94709E+00  6.18544E+00  7.78142E+00  3.52708E+00  3.26033E+00  2.57167E+00  2.86187E+00  2.68195E+00  3.77662E+00
   5.17740E+00 -2.53509E-01 -1.82133E+00 -3.84180E-01 -1.31407E+00  9.94584E-01  3.17117E+00  1.43563E+00 -1.21958E+00 -4.08639E-02
   2.16943E+00  2.79699E+00  3.55402E+00  2.24541E+00  3.66242E+00  8.16314E-01  2.74826E+00  4.97909E+00 -1.18599E+00 -2.13566E+00
  -3.47901E+00  2.21253E+00  2.36933E+00 -1.23208E+00  1.97270E-01 -2.64414E-01  1.33545E+00 -1.37658E+00  1.50593E+00  2.27301E+00
  -8.60813E-02 -9.35799E-01  1.49899E+00 -8.36214E-01 -2.22660E+00 -6.34556E+00  3.09758E+00 -1.91128E+00 -2.77170E+00 -1.35021E+00
  -3.79530E-01  2.14535E+00 -9.96392E-01 -9.44561E-02 -1.80153E-01  4.59363E+00  2.67910E-01 -1.08584E+00  2.13513E+00 -4.74828E+00
  -5.91954E+00 -1.65595E+00 -3.48254E+00 -2.04765E+00 -7.92328E-01 -2.62816E+00  2.87870E+00 -3.52041E+00  7.60355E-01 -8.51815E-01
  -4.35815E+00  4.75924E+00 -2.43496E+00  1.66231E+00  4.62461E+00 -2.36014E+00 -4.87791E+00  1.69517E+00 -3.99232E+00 -9.27832E-01
   2.41473E+00 -8.72383E-01 -1.28393E-01 -3.14855E+00  3.73966E+00  1.64268E+00 -1.92619E+00  5.74452E-02  1.29538E+00  5.74453E+00
  -2.07375E+00 -9.68273E-02  2.39583E+00 -4.99709E+00  2.82220E+00  1.25039E-01  1.25946E+00 -2.66488E+00 -6.97579E-03  3.55193E+00
  -1.31114E-02  4.50515E-01  1.46247E+00  5.47254E+00  1.12011E+00  1.27795E+00  3.35065E+00  4.08391E+00 -1.68163E+00  3.71361E+00
  -1.25091E+00  4.62259E+00  3.39276E+00  1.00412E+00  5.15285E+00  3.43992E+00  5.13931E+00  4.79393E+00  4.97003E-02  1.03066E+01
   8.28615E+00  4.58728E+00  6.90833E+00  1.09018E+01  1.18684E+01  1.07568E+01  8.17071E+00  1.07268E+01  1.59618E+01  1.25684E+01
   9.29768E+00  7.57019E+00  7.48634E+00  7.33005E+00  6.26931E+00  5.19230E+00  3.04866E+00  1.69666E+00  6.44181E-01  3.86812E+00
   8.96514E-01  2.68748E+00 -2.81626E-01 -3.17810E+00  6.24471E+00 -4.94913E+00 -4.43579E+00 -1.91106E+00  3.28446E+00 -1.95239E+00
  -1.73362E+00  3.75726E-01 -5.08654E-01  9.31076E-01  2.47112E+00  5.22992E-01  7.41604E-01 -2.71466E+00 -1.05387E-01 -3.56884E+00
   1.37901E+00 -3.84853E+00 -3.18419E+00 -2.30062E+00  5.96272E+00 -1.48112E+00 -5.16788E-01 -6.37281E-01  6.81543E+00  4.74957E+00
   3.01698E+00  6.29721E-02  4.37192E+00  4.83134E+00  1.75162E+00 -4.31303E+00  1.37621E-01  3.28768E+00 -2.97445E-01  5.18642E+00
   4.83144E+00  6.22001E-01  2.99403E+00  2.50688E+00  1.38899E+00 -5.02420E-01  1.51210E+00 -8.68762E+00 -1.13256E+00 -2.85800E+00
  -2.75551E+00 -3.33542E+00 -2.62158E+00 -3.78966E+00  7.96856E-01 -4.53079E+00 -1.40009E-01 -4.09660E+00  1.91390E+00  1.19524E+00
   2.07630E+00  3.84248E+00  2.08345E+00  2.36020E+00  5.79743E+00  1.08719E+00  2.33063E+00  5.64655E+00  4.07409E+00  1.91172E+00
   2.86325E+00  6.10370E+00  3.90664E+00  2.44123E+00  5.66730E+00  1.14603E+00 -1.89286E+00 -1.71893E+00  2.99049E+00 -1.77192E-01
   3.94532E+00  3.07714E+00 -2.24140E+00  1.64938E+00  2.00534E+00  5.28591E+00  2.10457E+00  4.24232E+00  5.59096E+00 -2.29434E-01
   3.17232E+00  3.08179E+00  1.68833E+00  5.30928E+00  7.05874E+00  5.51733E+00 -2.28248E-01 -2.17649E+00 -1.89775E+00 -3.62324E+00
   2.09484E-01  6.92986E-02  2.35899E+00  3.02040E+00  3.79349E+00 -3.26828E+00  1.19842E+00 -2.09341E+00  2.51519E+00  3.79392E-01
   1.19784E+00 -1.09734E+00 -1.51472E+00  8.16350E-01  3.59701E-01 -2.33075E+00  3.03416E+00  4.46806E+00  1.64638E+00  2.01578E+00
   2.30848E+00  1.94536E+00 -9.06581E-01  5.87495E+00  5.61600E+00  1.01858E+00  3.14404E+00  6.59367E-01 -1.69857E+00  2.66477E+00
   3.90969E+00 -3.15116E+00 -4.33182E-01 -4.16606E-01  1.96316E+00  2.23673E+00 -1.98740E+00 -1.02041E+00  6.98643E-01  2.85855E+00
   1.61394E+00  2.72491E-02  1.35889E+00  2.03300E+00  8.93590E-01  4.49283E+00  2.22274E+00 -1.82449E-01  3.26355E+00  6.85468E+00
   7.63380E+00  4.63959E+00  1.87742E+00  4.91998E+00  9.59035E+00  6.79317E-01  3.66319E+00 -2.69208E+00  2.15682E+00  5.28467E+00
   3.35995E-01  2.82020E+00  5.43584E-01  9.28670E-01  4.66318E-01  2.46886E+00  1.45742E+00  2.24074E+00  4.23038E+00  3.58817E+00
  -9.20187E-01  1.24234E+00 -3.56564E-01  3.77394E+00 -4.09812E+00  4.16585E-01  3.63579E+00 -2.11173E+00 -1.05939E+00  1.38858E+00
   7.97338E-01  7.28095E-01  1.77661E+00 -3.05764E-01 -1.76384E+00 -4.08181E+00 -2.23596E+00  7.31897E+00  2.63809E+00  7.37535E-01
  -1.44480E+00  1.49930E+00  5.16981E+00  6.81864E-01  4.29487E+00 -1.31330E+00  1.83095E+00 -1.81253E+00  1.45573E+00  2.15581E+00
   2.67651E+00 -5.48548E-01  3.73274E+00  1.10602E+00  3.33068E+00  2.28437E+00 -1.55260E+00 -1.66150E+00  1.10803E+00  3.33471E+00
   1.29871E+00  2.82580E-01 -7.18489E-01  4.97750E-02 -8.82172E-01 -3.57718E+00 -3.37797E+00  7.42161E-01 -2.84865E+00 -7.93248E-01
  -4.37759E+00 -3.02287E+00 -1.43969E-01  1.18125E+00  7.33591E-01  1.21783E+00 -1.21165E+00 -1.13373E+00
 NY points of the fit to the data follow
   2.66128E+00  2.56525E+00  2.72403E+00  2.47521E+00  2.78567E+00  2.47807E+00  2.93882E+00  2.61226E+00  3.19658E+00  2.87303E+00
   3.46516E+00  3.03189E+00  3.50360E+00  2.95892E+00  3.26209E+00  2.68928E+00  3.07947E+00  2.83336E+00  3.22099E+00  3.30768E+00
   3.51176E+00  3.80502E+00  3.73251E+00  4.22392E+00  3.99735E+00  4.69285E+00  4.35138E+00  5.17790E+00  4.71419E+00  5.48442E+00
   4.82289E+00  5.42167E+00  4.66222E+00  5.21731E+00  4.55573E+00  5.02094E+00  4.44637E+00  4.74492E+00  4.23275E+00  4.34213E+00
   3.88027E+00  3.82577E+00  3.51525E+00  3.40382E+00  3.27278E+00  3.24056E+00  3.26711E+00  3.30059E+00  3.30654E+00  3.27489E+00
   3.22144E+00  3.09564E+00  2.99621E+00  2.82621E+00  2.72934E+00  2.56501E+00  2.46696E+00  2.31639E+00  2.26902E+00  2.15620E+00
   2.19310E+00  2.14548E+00  2.26968E+00  2.26159E+00  2.41713E+00  2.37542E+00  2.49340E+00  2.40834E+00  2.50139E+00  2.38599E+00
   2.46230E+00  2.34120E+00  2.43433E+00  2.29936E+00  2.36037E+00  2.18345E+00  2.20303E+00  1.97641E+00  1.96008E+00  1.69849E+00
   1.66826E+00  1.39987E+00  1.37458E+00  1.12006E+00  1.10154E+00  8.70020E-01  8.41287E-01  6.51929E-01  6.90850E-01  8.37308E-01
   1.09934E+00  1.40357E+00  1.84041E+00  2.12431E+00  2.66556E+00  2.83060E+00  3.42362E+00  3.46861E+00  4.10436E+00  3.98510E+00
   4.61525E+00  4.31070E+00  4.87785E+00  4.32674E+00  4.75471E+00  4.02562E+00  4.30318E+00  3.47661E+00  3.61406E+00  2.78842E+00
   2.81982E+00  2.09412E+00  2.14944E+00  1.97644E+00  2.14523E+00  2.42847E+00  2.69585E+00  3.27062E+00  3.61809E+00  4.33573E+00
   4.77559E+00  5.43801E+00  5.81836E+00  6.28112E+00  6.51435E+00  6.72481E+00  6.81554E+00  6.69059E+00  6.69222E+00  6.27519E+00
   6.19539E+00  5.53221E+00  5.38694E+00  4.57322E+00  4.38581E+00  3.52173E+00  3.33628E+00  2.47367E+00  2.34274E+00  1.65200E+00
   1.61354E+00  1.16483E+00  1.21136E+00  9.76762E-01  1.04929E+00  8.72979E-01  9.17374E-01  7.77572E-01  7.80809E-01  6.61335E-01
   6.05779E-01  4.95589E-01  3.66351E-01  2.71168E-01  1.18671E-01  4.90762E-02 -9.66315E-02 -1.29344E-01 -2.49363E-01 -2.53030E-01
  -3.53160E-01 -3.53511E-01 -4.54837E-01 -4.54791E-01 -5.48089E-01 -5.45521E-01 -6.28140E-01 -6.41658E-01 -7.23509E-01 -7.59752E-01
  -8.06945E-01 -8.55815E-01 -8.81193E-01 -9.34127E-01 -9.42200E-01 -9.80339E-01 -9.45365E-01 -9.21827E-01 -8.05934E-01 -7.19640E-01
  -5.85403E-01 -4.69709E-01 -3.87613E-01 -2.83804E-01 -3.26507E-01 -2.12428E-01 -2.84637E-01 -1.15580E-01 -1.60278E-01  5.57263E-02
   3.42807E-02  2.77228E-01  2.37574E-01  4.64322E-01  3.83741E-01  5.10136E-01  3.33884E-01  4.22889E-01  2.40635E-01  3.25631E-01
   1.64251E-01  2.47564E-01  1.02386E-01  1.87979E-01  6.49062E-02  1.69662E-01  8.18868E-02  2.09474E-01  1.51969E-01  3.02317E-01
   2.61485E-01  4.18390E-01  3.97142E-01  5.69220E-01  5.88373E-01  7.78654E-01  8.51142E-01  1.02045E+00  1.07536E+00  1.20716E+00
   1.24235E+00  1.31298E+00  1.27267E+00  1.33491E+00  1.27405E+00  1.35510E+00  1.25902E+00  1.38792E+00  1.22859E+00  1.33521E+00
   1.10560E+00  1.17860E+00  9.56810E-01  1.02191E+00  8.31562E-01  8.90376E-01  7.59954E-01  8.12466E-01  7.43558E-01  7.89863E-01
   8.12984E-01  1.00610E+00  1.56124E+00  1.80693E+00  2.76742E+00  2.95694E+00  4.37681E+00  4.55499E+00  6.13848E+00  6.28227E+00
   7.86065E+00  7.90864E+00  9.30102E+00  9.22491E+00  1.03333E+01  1.00720E+01  1.06730E+01  1.02296E+01  1.03212E+01  9.74258E+00
   9.33592E+00  8.68570E+00  7.92611E+00  7.26958E+00  6.28675E+00  5.65795E+00  4.57239E+00  4.05882E+00  3.09036E+00  2.73060E+00
   2.00876E+00  1.76665E+00  1.37855E+00  1.19533E+00  1.01638E+00  8.91440E-01  8.57297E-01  7.84073E-01  7.78011E-01  7.16957E-01
   7.27459E-01  6.75494E-01  6.97147E-01  6.53213E-01  6.80465E-01  6.42199E-01  6.75000E-01  6.46366E-01  6.84930E-01  6.65603E-01
   7.06630E-01  6.94901E-01  7.33748E-01  7.25705E-01  7.60053E-01  7.57436E-01  7.86807E-01  7.89232E-01  8.14218E-01  8.20975E-01
   8.41550E-01  8.49284E-01  8.63107E-01  8.69402E-01  8.75924E-01  8.79502E-01  8.80304E-01  8.81117E-01  8.78522E-01  8.77762E-01
   8.71686E-01  8.69023E-01  8.60666E-01  8.56714E-01  8.48204E-01  8.44728E-01  8.38783E-01  8.38984E-01  8.37990E-01  8.44171E-01
   8.50259E-01  8.64483E-01  8.79860E-01  9.04652E-01  9.32417E-01  9.71726E-01  1.01700E+00  1.07788E+00  1.15082E+00  1.24886E+00
   1.37513E+00  1.55772E+00  1.84521E+00  2.33482E+00  2.58922E+00  2.97569E+00  3.08040E+00  3.15853E+00  3.07553E+00  2.74713E+00
   2.47951E+00  2.21467E+00  2.00469E+00  1.82051E+00  1.72213E+00  1.57519E+00  1.56265E+00  1.37327E+00  1.47701E+00  1.37637E+00
   1.63650E+00  1.65038E+00  2.04467E+00  2.18935E+00  2.64420E+00  2.76036E+00  3.13000E+00  3.12597E+00  3.38590E+00  3.31861E+00
   3.44998E+00  3.34559E+00  3.34819E+00  3.17139E+00  3.03341E+00  2.65566E+00  2.41815E+00  2.01218E+00  1.76183E+00  1.46633E+00
   1.27902E+00  1.15663E+00  1.06696E+00  1.00344E+00  9.51734E-01  9.14690E-01  8.82817E-01  8.61552E-01  8.42952E-01  8.33399E-01
   8.25585E-01  8.26319E-01  8.28611E-01  8.39463E-01  8.52023E-01  8.73366E-01  8.96690E-01  9.29060E-01  9.63623E-01  1.00731E+00
   1.05309E+00  1.10763E+00  1.16362E+00  1.22739E+00  1.29123E+00  1.36104E+00  1.42872E+00  1.49976E+00  1.56572E+00  1.63186E+00
   1.68959E+00  1.74412E+00  1.78699E+00  1.82369E+00  1.84620E+00  1.86054E+00  1.85935E+00  1.84938E+00  1.82402E+00  1.79078E+00
   1.74376E+00  1.69108E+00  1.62733E+00  1.56098E+00  1.48682E+00  1.41337E+00  1.33536E+00  1.26107E+00  1.18494E+00  1.11485E+00
   1.04483E+00  9.82342E-01  9.20973E-01  8.67781E-01  8.16010E-01  7.72412E-01  7.29998E-01  6.95331E-01  6.61294E-01  6.34356E-01
   6.07362E-01  5.86770E-01  5.65450E-01  5.49889E-01  5.33003E-01  5.21326E-01  5.07832E-01  4.99114E-01  4.88204E-01  4.81736E-01
   4.72787E-01  4.68026E-01  4.60571E-01  4.57123E-01  4.50828E-01  4.48402E-01  4.43011E-01  4.41385E-01  4.36710E-01  4.35725E-01
   4.31631E-01  4.31167E-01  4.27543E-01  4.27501E-01  4.24266E-01  4.24580E-01  4.21675E-01  4.22285E-01  4.19654E-01  4.20514E-01
   4.18120E-01  4.19198E-01  4.17009E-01  4.18273E-01  4.16260E-01  4.17686E-01  4.15831E-01  4.17403E-01  4.15686E-01  4.17385E-01
   4.15790E-01  4.17606E-01  4.16126E-01  4.18049E-01  4.16671E-01  4.18690E-01  4.17408E-01  4.19521E-01  4.18333E-01  4.20535E-01
   4.19435E-01  4.21722E-01  4.20711E-01  4.23087E-01  4.22167E-01  4.24632E-01  4.23804E-01  4.26364E-01  4.25638E-01  4.28304E-01
   4.27692E-01  4.30476E-01  4.29995E-01  4.32923E-01  4.32602E-01  4.35707E-01  4.35589E-01  4.38926E-01
 NY background values follow
    -1.931E-01   -1.919E-01   -1.906E-01   -1.894E-01   -1.881E-01   -1.869E-01   -1.856E-01   -1.843E-01   -1.831E-01   -1.818E-01
    -1.806E-01   -1.793E-01   -1.781E-01   -1.768E-01   -1.755E-01   -1.743E-01   -1.730E-01   -1.718E-01   -1.705E-01   -1.692E-01
    -1.680E-01   -1.667E-01   -1.655E-01   -1.642E-01   -1.629E-01   -1.617E-01   -1.604E-01   -1.592E-01   -1.579E-01   -1.567E-01
    -1.554E-01   -1.541E-01   -1.529E-01   -1.516E-01   -1.504E-01   -1.491E-01   -1.478E-01   -1.466E-01   -1.453E-01   -1.441E-01
    -1.428E-01   -1.415E-01   -1.403E-01   -1.390E-01   -1.377E-01   -1.365E-01   -1.352E-01   -1.340E-01   -1.327E-01   -1.314E-01
    -1.302E-01   -1.289E-01   -1.277E-01   -1.264E-01   -1.251E-01   -1.239E-01   -1.226E-01   -1.213E-01   -1.201E-01   -1.188E-01
    -1.176E-01   -1.163E-01   -1.150E-01   -1.138E-01   -1.125E-01   -1.112E-01   -1.100E-01   -1.087E-01   -1.075E-01   -1.062E-01
    -1.049E-01   -1.037E-01   -1.024E-01   -1.011E-01   -9.988E-02   -9.862E-02   -9.736E-02   -9.610E-02   -9.483E-02   -9.357E-02
    -9.230E-02   -9.104E-02   -8.978E-02   -8.851E-02   -8.725E-02   -8.599E-02   -8.472E-02   -8.346E-02   -8.220E-02   -8.093E-02
    -7.967E-02   -7.840E-02   -7.714E-02   -7.587E-02   -7.461E-02   -7.335E-02   -7.208E-02   -7.082E-02   -6.955E-02   -6.829E-02
    -6.702E-02   -6.576E-02   -6.449E-02   -6.323E-02   -6.196E-02   -6.070E-02   -5.943E-02   -5.817E-02   -5.690E-02   -5.564E-02
    -5.437E-02   -5.311E-02   -5.184E-02   -5.058E-02   -4.931E-02   -4.805E-02   -4.678E-02   -4.552E-02   -4.425E-02   -4.298E-02
    -4.172E-02   -4.045E-02   -3.919E-02   -3.792E-02   -3.666E-02   -3.539E-02   -3.412E-02   -3.286E-02   -3.159E-02   -3.032E-02
    -2.906E-02   -2.779E-02   -2.653E-02   -2.526E-02   -2.399E-02   -2.273E-02   -2.146E-02   -2.019E-02   -1.893E-02   -1.766E-02
    -1.639E-02   -1.513E-02   -1.386E-02   -1.259E-02   -1.133E-02   -1.006E-02   -8.793E-03   -7.526E-03   -6.259E-03   -4.992E-03
    -3.725E-03   -2.458E-03   -1.191E-03    7.612E-05    1.343E-03    2.611E-03    3.878E-03    5.145E-03    6.413E-03    7.680E-03
     8.947E-03    1.021E-02    1.148E-02    1.275E-02    1.402E-02    1.529E-02    1.655E-02    1.782E-02    1.909E-02    2.036E-02
     2.162E-02    2.289E-02    2.416E-02    2.543E-02    2.670E-02    2.796E-02    2.923E-02    3.050E-02    3.177E-02    3.304E-02
     3.430E-02    3.557E-02    3.684E-02    3.811E-02    3.938E-02    4.064E-02    4.191E-02    4.318E-02    4.445E-02    4.572E-02
     4.699E-02    4.825E-02    4.952E-02    5.079E-02    5.206E-02    5.333E-02    5.460E-02    5.587E-02    5.713E-02    5.840E-02
     5.967E-02    6.094E-02    6.221E-02    6.348E-02    6.475E-02    6.602E-02    6.728E-02    6.855E-02    6.982E-02    7.109E-02
     7.236E-02    7.363E-02    7.490E-02    7.617E-02    7.744E-02    7.870E-02    7.997E-02    8.124E-02    8.251E-02    8.378E-02
     8.505E-02    8.632E-02    8.759E-02    8.886E-02    9.013E-02    9.140E-02    9.267E-02    9.393E-02    9.520E-02    9.647E-02
     9.774E-02    9.901E-02    1.003E-01    1.015E-01    1.028E-01    1.041E-01    1.054E-01    1.066E-01    1.079E-01    1.092E-01
     1.104E-01    1.117E-01    1.130E-01    1.142E-01    1.155E-01    1.168E-01    1.181E-01    1.193E-01    1.206E-01    1.219E-01
     1.231E-01    1.244E-01    1.257E-01    1.269E-01    1.282E-01    1.295E-01    1.307E-01    1.320E-01    1.333E-01    1.346E-01
     1.358E-01    1.371E-01    1.384E-01    1.396E-01    1.409E-01    1.422E-01    1.434E-01    1.447E-01    1.460E-01    1.473E-01
     1.485E-01    1.498E-01    1.511E-01    1.523E-01    1.536E-01    1.549E-01    1.561E-01    1.574E-01    1.587E-01    1.599E-01
     1.612E-01    1.625E-01    1.638E-01    1.650E-01    1.663E-01    1.676E-01    1.688E-01    1.701E-01    1.714E-01    1.726E-01
     1.739E-01    1.752E-01    1.764E-01    1.777E-01    1.790E-01    1.803E-01    1.815E-01    1.828E-01    1.841E-01    1.853E-01
     1.866E-01    1.879E-01    1.891E-01    1.904E-01    1.917E-01    1.930E-01    1.942E-01    1.955E-01    1.968E-01    1.980E-01
     1.993E-01    2.006E-01    2.018E-01    2.031E-01    2.044E-01    2.056E-01    2.069E-01    2.082E-01    2.095E-01    2.107E-01
     2.120E-01    2.133E-01    2.145E-01    2.158E-01    2.171E-01    2.183E-01    2.196E-01    2.209E-01    2.221E-01    2.234E-01
     2.247E-01    2.259E-01    2.272E-01    2.285E-01    2.298E-01    2.310E-01    2.323E-01    2.336E-01    2.348E-01    2.361E-01
     2.374E-01    2.386E-01    2.399E-01    2.412E-01    2.424E-01    2.437E-01    2.450E-01    2.462E-01    2.475E-01    2.488E-01
     2.501E-01    2.513E-01    2.526E-01    2.539E-01    2.551E-01    2.564E-01    2.577E-01    2.589E-01    2.602E-01    2.615E-01
     2.627E-01    2.640E-01    2.653E-01    2.665E-01    2.678E-01    2.691E-01    2.703E-01    2.716E-01    2.729E-01    2.741E-01
     2.754E-01    2.767E-01    2.779E-01    2.792E-01    2.805E-01    2.818E-01    2.830E-01    2.843E-01    2.856E-01    2.868E-01
     2.881E-01    2.894E-01    2.906E-01    2.919E-01    2.932E-01    2.944E-01    2.957E-01    2.970E-01    2.982E-01    2.995E-01
     3.008E-01    3.020E-01    3.033E-01    3.046E-01    3.058E-01    3.071E-01    3.084E-01    3.096E-01    3.109E-01    3.122E-01
     3.134E-01    3.147E-01    3.160E-01    3.172E-01    3.185E-01    3.198E-01    3.210E-01    3.223E-01    3.236E-01    3.248E-01
     3.261E-01    3.274E-01    3.286E-01    3.299E-01    3.311E-01    3.324E-01    3.337E-01    3.349E-01    3.362E-01    3.375E-01
     3.387E-01    3.400E-01    3.413E-01    3.425E-01    3.438E-01    3.451E-01    3.463E-01    3.476E-01    3.489E-01    3.501E-01
     3.514E-01    3.527E-01    3.539E-01    3.552E-01    3.564E-01    3.577E-01    3.590E-01    3.602E-01    3.615E-01    3.628E-01
     3.640E-01    3.653E-01    3.666E-01    3.678E-01    3.691E-01    3.704E-01    3.716E-01    3.729E-01    3.741E-01    3.754E-01
     3.767E-01    3.779E-01    3.792E-01    3.805E-01    3.817E-01    3.830E-01    3.842E-01    3.855E-01    3.868E-01    3.880E-01
     3.893E-01    3.906E-01    3.918E-01    3.931E-01    3.943E-01    3.956E-01    3.969E-01    3.981E-01    3.994E-01    4.007E-01
     4.019E-01    4.032E-01    4.044E-01    4.057E-01    4.070E-01    4.082E-01    4.095E-01    4.108E-01    4.120E-01    4.133E-01
     4.145E-01    4.158E-01    4.171E-01    4.183E-01    4.196E-01    4.208E-01    4.221E-01    4.234E-01    4.246E-01    4.259E-01
     4.271E-01    4.284E-01    4.297E-01    4.309E-01    4.322E-01    4.334E-01    4.347E-01    4.360E-01
 Asp      Conc. = 4.94E+01
