 LCModel (Version 6.3-1L) Copyright: S.W. Provencher.          Ref.: Magn. Reson. Med. 30:672-679 (1993).                
 Slice#3 Row#11 Col#1  PD_05_press_2_raw_act
 36 lines in following concentration table = NCONC+1
    Conc.  %SD /Cr+PCr  Metabolite                                         
 1.27E+04  21%  35.551 Ala                                                 
    0.000 999%   0.000 Asp                                                 
    0.000 999%   0.000 Cr                                                  
  357.339  35%   1.000 PCr                                                 
    0.000 999%   0.000 GABA                                                
    0.000 999%   0.000 Glc                                                 
 1.30E+04  11%  36.391 Gln                                                 
    0.000 999%   0.000 Glu                                                 
    0.000 999%   0.000 GPC                                                 
    0.000 999%   0.000 PCh                                                 
  380.914  57%   1.066 GSH                                                 
 2.11E+03  28%   5.892 Ins                                                 
 1.00E+03 248%   2.811 Lac                                                 
    0.000 999%   0.000 NAA                                                 
    0.000 999%   0.000 NAAG                                                
  100.944  47%   0.282 Scyllo                                              
  298.649  98%   0.836 Tau                                                 
    0.000 999%   0.000 -CrCH2                                              
    0.000 999%   0.000 GPC+PCh                                             
    0.000 999%   0.000 NAA+NAAG                                            
  357.339  35%   1.000 Cr+PCr                                              
 1.30E+04  11%  36.391 Glu+Gln                                             
    0.000 999%   0.000 Lip13a                                              
 1.33E+03  23%   3.727 Lip13b                                              
    0.000 999%   0.000 Lip09                                               
 1.32E+04   7%  36.885 MM09                                                
  287.654  77%   0.805 Lip20                                               
 2.00E+04   7%  56.018 MM20                                                
 3.96E+03   7%  11.087 MM12                                                
 1.00E+04   8%  28.009 MM14                                                
 5.04E+03   8%  14.102 MM17                                                
 1.33E+03  23%   3.727 Lip13a+Lip13b                                       
 1.53E+04   7%  42.823 MM14+Lip13a+Lip13b+MM12                             
 1.32E+04   7%  36.885 MM09+Lip09                                          
 2.03E+04   7%  56.823 MM20+Lip20                                          
   6 lines in following misc. output table
  FWHM = 0.168 ppm    S/N =  13                                            
  Data shift = 0.046 ppm                                                   
  Ph:  86 deg     -13.7 deg/ppm                                            
  alphaB,S = 4.1E-01,   3.7E+02                                            
   10 spline knots.   Ns = 9(2)                                            
  (13) 2 infls.   ( 5) 1 extrs.                                            
  498 points on ppm-axis = NY
      4.000000     3.992357     3.984714     3.977070     3.969427     3.961784     3.954141     3.946497     3.938854     3.931211
      3.923568     3.915925     3.908281     3.900638     3.892995     3.885352     3.877708     3.870065     3.862422     3.854779
      3.847136     3.839492     3.831849     3.824206     3.816563     3.808919     3.801276     3.793633     3.785990     3.778347
      3.770703     3.763060     3.755417     3.747774     3.740130     3.732487     3.724844     3.717201     3.709558     3.701914
      3.694271     3.686628     3.678985     3.671341     3.663698     3.656055     3.648412     3.640769     3.633125     3.625482
      3.617839     3.610196     3.602552     3.594909     3.587266     3.579623     3.571980     3.564336     3.556693     3.549050
      3.541407     3.533763     3.526120     3.518477     3.510834     3.503191     3.495547     3.487904     3.480261     3.472618
      3.464974     3.457331     3.449688     3.442045     3.434402     3.426758     3.419115     3.411472     3.403829     3.396185
      3.388542     3.380899     3.373256     3.365613     3.357969     3.350326     3.342683     3.335040     3.327396     3.319753
      3.312110     3.304467     3.296824     3.289180     3.281537     3.273894     3.266251     3.258607     3.250964     3.243321
      3.235678     3.228034     3.220391     3.212748     3.205105     3.197462     3.189818     3.182175     3.174532     3.166889
      3.159245     3.151602     3.143959     3.136316     3.128673     3.121029     3.113386     3.105743     3.098100     3.090456
      3.082813     3.075170     3.067527     3.059884     3.052240     3.044597     3.036954     3.029311     3.021667     3.014024
      3.006381     2.998738     2.991095     2.983451     2.975808     2.968165     2.960522     2.952878     2.945235     2.937592
      2.929949     2.922306     2.914662     2.907019     2.899376     2.891733     2.884089     2.876446     2.868803     2.861160
      2.853517     2.845873     2.838230     2.830587     2.822944     2.815300     2.807657     2.800014     2.792371     2.784728
      2.777084     2.769441     2.761798     2.754155     2.746511     2.738868     2.731225     2.723582     2.715939     2.708295
      2.700652     2.693009     2.685366     2.677722     2.670079     2.662436     2.654793     2.647150     2.639506     2.631863
      2.624220     2.616577     2.608933     2.601290     2.593647     2.586004     2.578361     2.570717     2.563074     2.555431
      2.547788     2.540144     2.532501     2.524858     2.517215     2.509572     2.501928     2.494285     2.486642     2.478999
      2.471355     2.463712     2.456069     2.448426     2.440783     2.433139     2.425496     2.417853     2.410210     2.402566
      2.394923     2.387280     2.379637     2.371994     2.364350     2.356707     2.349064     2.341421     2.333777     2.326134
      2.318491     2.310848     2.303205     2.295561     2.287918     2.280275     2.272632     2.264988     2.257345     2.249702
      2.242059     2.234416     2.226772     2.219129     2.211486     2.203843     2.196199     2.188556     2.180913     2.173270
      2.165627     2.157983     2.150340     2.142697     2.135054     2.127410     2.119767     2.112124     2.104481     2.096838
      2.089194     2.081551     2.073908     2.066265     2.058621     2.050978     2.043335     2.035692     2.028049     2.020405
      2.012762     2.005119     1.997476     1.989833     1.982190     1.974546     1.966903     1.959260     1.951617     1.943974
      1.936331     1.928688     1.921045     1.913402     1.905759     1.898115     1.890472     1.882829     1.875186     1.867543
      1.859900     1.852257     1.844614     1.836971     1.829327     1.821684     1.814041     1.806398     1.798755     1.791112
      1.783469     1.775826     1.768183     1.760540     1.752896     1.745253     1.737610     1.729967     1.722324     1.714681
      1.707038     1.699395     1.691752     1.684108     1.676465     1.668822     1.661179     1.653536     1.645893     1.638250
      1.630607     1.622964     1.615321     1.607677     1.600034     1.592391     1.584748     1.577105     1.569462     1.561819
      1.554176     1.546533     1.538890     1.531246     1.523603     1.515960     1.508317     1.500674     1.493031     1.485388
      1.477745     1.470102     1.462458     1.454815     1.447172     1.439529     1.431886     1.424243     1.416600     1.408957
      1.401314     1.393671     1.386027     1.378384     1.370741     1.363098     1.355455     1.347812     1.340169     1.332526
      1.324883     1.317240     1.309596     1.301953     1.294310     1.286667     1.279024     1.271381     1.263738     1.256095
      1.248452     1.240808     1.233165     1.225522     1.217879     1.210236     1.202593     1.194950     1.187307     1.179664
      1.172021     1.164377     1.156734     1.149091     1.141448     1.133805     1.126162     1.118519     1.110876     1.103233
      1.095590     1.087946     1.080303     1.072660     1.065017     1.057374     1.049731     1.042088     1.034445     1.026802
      1.019158     1.011515     1.003872     0.996229     0.988586     0.980943     0.973300     0.965657     0.958014     0.950371
      0.942727     0.935084     0.927441     0.919798     0.912155     0.904512     0.896869     0.889226     0.881583     0.873940
      0.866296     0.858653     0.851010     0.843367     0.835724     0.828081     0.820438     0.812795     0.805152     0.797508
      0.789865     0.782222     0.774579     0.766936     0.759293     0.751650     0.744007     0.736364     0.728721     0.721077
      0.713434     0.705791     0.698148     0.690505     0.682862     0.675219     0.667576     0.659933     0.652290     0.644646
      0.637003     0.629360     0.621717     0.614074     0.606431     0.598788     0.591145     0.583502     0.575858     0.568215
      0.560572     0.552929     0.545286     0.537643     0.530000     0.522357     0.514714     0.507071     0.499427     0.491784
      0.484141     0.476498     0.468855     0.461212     0.453569     0.445925     0.438282     0.430639     0.422996     0.415353
      0.407710     0.400067     0.392424     0.384780     0.377137     0.369494     0.361851     0.354208     0.346565     0.338922
      0.331278     0.323635     0.315992     0.308349     0.300706     0.293063     0.285420     0.277777     0.270133     0.262490
      0.254847     0.247204     0.239561     0.231918     0.224275     0.216631     0.208988     0.201345
 NY phased data points follow
   5.15569E+01  5.14637E+01  4.85966E+01  5.02054E+01  4.57054E+01  4.63053E+01  4.19093E+01  4.39587E+01  4.26309E+01  4.12780E+01
   3.67142E+01  4.62656E+01  4.20217E+01  4.16218E+01  4.00184E+01  3.76213E+01  3.78671E+01  3.56700E+01  3.67935E+01  3.48013E+01
   3.49259E+01  3.95797E+01  3.98233E+01  3.88116E+01  3.33556E+01  3.99721E+01  3.59400E+01  3.33601E+01  3.77500E+01  3.42500E+01
   3.84790E+01  3.41682E+01  3.06381E+01  3.23056E+01  3.17848E+01  3.11900E+01  3.12684E+01  3.01267E+01  3.04264E+01  3.03335E+01
   3.27081E+01  3.03672E+01  2.83239E+01  2.84889E+01  2.99079E+01  3.05747E+01  3.03682E+01  2.96783E+01  2.51806E+01  2.70600E+01
   3.03068E+01  2.14020E+01  3.09110E+01  2.95663E+01  2.70452E+01  2.72613E+01  2.51446E+01  2.90663E+01  2.11179E+01  2.40588E+01
   2.58889E+01  2.35764E+01  2.64150E+01  2.31302E+01  2.52719E+01  2.90461E+01  2.17666E+01  2.71650E+01  1.99105E+01  2.33702E+01
   2.19267E+01  2.54846E+01  2.53418E+01  2.05194E+01  2.09652E+01  2.12414E+01  2.06953E+01  2.02236E+01  2.18493E+01  1.92923E+01
   1.76428E+01  1.92105E+01  1.70506E+01  1.58203E+01  2.01247E+01  1.94424E+01  2.22487E+01  1.18471E+01  1.51784E+01  1.99852E+01
   1.88235E+01  2.07219E+01  1.76580E+01  2.26636E+01  2.13643E+01  1.44577E+01  1.56916E+01  1.93810E+01  1.32303E+01  1.68652E+01
   1.67741E+01  1.50891E+01  1.59410E+01  1.78888E+01  1.44353E+01  1.49120E+01  1.23185E+01  1.35146E+01  1.61426E+01  1.23512E+01
   1.36665E+01  1.35745E+01  1.38934E+01  1.25869E+01  1.74227E+01  1.84451E+01  2.04426E+01  1.79013E+01  2.48749E+01  2.50959E+01
   1.95147E+01  2.24301E+01  2.05616E+01  2.54518E+01  2.24802E+01  1.85777E+01  2.17495E+01  1.87131E+01  2.17879E+01  1.78752E+01
   2.68423E+01  2.50072E+01  2.07870E+01  2.73596E+01  2.24828E+01  2.42085E+01  2.54588E+01  2.24261E+01  2.26308E+01  2.44125E+01
   2.82124E+01  2.19692E+01  2.55623E+01  2.36445E+01  2.12870E+01  2.10953E+01  1.80534E+01  2.29932E+01  2.02880E+01  2.03317E+01
   1.90648E+01  1.65024E+01  1.53848E+01  1.61075E+01  1.50273E+01  1.55889E+01  1.50431E+01  1.74914E+01  1.52001E+01  1.36905E+01
   1.40518E+01  1.43105E+01  1.22230E+01  8.38583E+00  8.48824E+00  1.03708E+01  9.12104E+00  6.52743E+00  9.88500E+00  5.56648E+00
   9.41563E+00  7.06669E+00  8.34722E+00  5.89848E+00  5.44245E+00  7.01083E+00  3.61489E+00  3.36875E+00  1.94158E+00  6.24528E+00
   6.37093E+00  8.62666E+00  4.38289E+00  9.13506E+00  7.47483E+00  9.25021E+00  6.91478E+00  4.80096E+00  6.52941E+00  1.18597E+01
   6.60265E+00  9.40541E+00  8.88549E+00  8.80469E+00  1.26733E+01  1.32812E+01  1.48942E+01  1.50220E+01  1.59458E+01  1.33022E+01
   1.24568E+01  1.45013E+01  1.66899E+01  1.77244E+01  2.05283E+01  1.99669E+01  1.96629E+01  2.55009E+01  2.42995E+01  2.56690E+01
   2.96672E+01  3.00949E+01  3.25961E+01  3.47285E+01  3.47366E+01  3.13514E+01  3.66514E+01  4.48473E+01  4.41361E+01  4.43301E+01
   4.41044E+01  4.58396E+01  5.05896E+01  5.30561E+01  5.45194E+01  5.58615E+01  5.96582E+01  5.74719E+01  5.99043E+01  6.22592E+01
   6.28158E+01  6.33292E+01  6.73481E+01  6.98975E+01  6.69913E+01  6.64520E+01  7.06943E+01  6.82822E+01  6.76014E+01  6.87049E+01
   7.06810E+01  7.29631E+01  6.24802E+01  6.81011E+01  6.68784E+01  6.43527E+01  6.58046E+01  6.42111E+01  6.54870E+01  5.90402E+01
   6.67985E+01  6.33667E+01  6.15082E+01  6.30126E+01  6.13540E+01  5.83048E+01  5.79848E+01  4.90776E+01  5.18523E+01  4.88671E+01
   5.08672E+01  4.68284E+01  4.79550E+01  4.67208E+01  5.03135E+01  4.62564E+01  4.96716E+01  4.14403E+01  4.62689E+01  4.29610E+01
   3.74341E+01  4.11208E+01  3.99856E+01  3.42943E+01  3.25480E+01  3.34727E+01  3.40626E+01  3.07710E+01  3.09166E+01  2.43075E+01
   2.61071E+01  2.58326E+01  2.33713E+01  2.35882E+01  1.80532E+01  1.57348E+01  1.87372E+01  1.91634E+01  1.60049E+01  1.41379E+01
   1.31590E+01  1.43759E+01  7.50915E+00  9.69048E+00  5.94519E+00  7.12422E+00  8.47963E+00  7.26474E+00  8.97247E+00  7.23435E+00
   5.00219E+00  5.51255E+00  1.14432E+01  6.42752E+00  1.08488E+01  1.47956E+01  1.42146E+01  1.78806E+01  1.98364E+01  2.23824E+01
   2.81723E+01  2.96053E+01  3.63194E+01  4.14672E+01  4.96535E+01  5.34489E+01  6.00549E+01  6.77995E+01  7.54227E+01  7.64466E+01
   8.84585E+01  8.59356E+01  9.06017E+01  9.11129E+01  9.90795E+01  1.01377E+02  1.05774E+02  1.09738E+02  1.09043E+02  1.04343E+02
   1.02092E+02  1.04013E+02  9.75628E+01  9.55800E+01  9.37127E+01  9.89538E+01  9.46452E+01  8.74126E+01  8.81801E+01  8.71800E+01
   8.68811E+01  7.77042E+01  7.57243E+01  7.43332E+01  7.38143E+01  7.12846E+01  6.87730E+01  6.68953E+01  6.80034E+01  6.59111E+01
   6.15353E+01  5.84082E+01  5.75527E+01  5.72904E+01  5.48178E+01  5.41203E+01  5.78523E+01  5.42582E+01  5.13134E+01  5.16731E+01
   5.15799E+01  4.49199E+01  4.77974E+01  4.57466E+01  4.40141E+01  4.47618E+01  4.15304E+01  4.08861E+01  4.30001E+01  4.09268E+01
   4.15270E+01  4.31119E+01  4.02521E+01  3.93748E+01  4.42116E+01  4.64826E+01  4.50880E+01  4.13988E+01  4.36430E+01  4.26620E+01
   4.13680E+01  3.75962E+01  4.15837E+01  4.05055E+01  3.94579E+01  3.66336E+01  3.87431E+01  3.92897E+01  4.17322E+01  3.48325E+01
   3.73189E+01  3.63111E+01  3.42118E+01  3.54341E+01  3.76485E+01  3.27863E+01  3.83033E+01  3.38804E+01  3.22202E+01  3.68639E+01
   3.54518E+01  3.62371E+01  3.55360E+01  3.71964E+01  3.52908E+01  3.18809E+01  3.48657E+01  2.91303E+01  3.47091E+01  3.47129E+01
   3.46181E+01  3.54428E+01  3.33087E+01  2.59346E+01  3.29434E+01  3.36895E+01  3.02284E+01  3.17842E+01  3.27223E+01  2.98601E+01
   2.85282E+01  2.73318E+01  3.31562E+01  2.88412E+01  2.73831E+01  3.17629E+01  3.19530E+01  2.77304E+01  2.69285E+01  2.73403E+01
   2.55760E+01  2.74023E+01  2.48227E+01  2.77906E+01  2.79106E+01  2.71092E+01  2.67914E+01  2.72853E+01  2.82568E+01  2.96213E+01
   2.54492E+01  2.94930E+01  2.46161E+01  2.64521E+01  2.64540E+01  2.85215E+01  2.90568E+01  2.69631E+01  2.40431E+01  2.45329E+01
   2.51993E+01  2.68004E+01  2.64889E+01  2.44036E+01  2.58010E+01  2.63056E+01  2.03989E+01  2.41790E+01  2.46739E+01  2.73971E+01
   2.18427E+01  2.26680E+01  2.19592E+01  2.25978E+01  2.14090E+01  2.37133E+01  2.28485E+01  2.52530E+01  2.20656E+01  1.89198E+01
   2.18142E+01  1.98422E+01  2.45152E+01  2.23682E+01  2.26882E+01  2.39810E+01  2.10061E+01  2.34774E+01  2.18372E+01  2.05061E+01
   2.08154E+01  2.47946E+01  1.68251E+01  1.76893E+01  2.04017E+01  2.23556E+01  2.03317E+01  2.29718E+01  2.25743E+01  1.94178E+01
   1.72728E+01  1.95099E+01  1.73808E+01  1.94258E+01  1.78081E+01  1.93756E+01  1.71710E+01  2.22350E+01
 NY points of the fit to the data follow
   4.64635E+01  4.61250E+01  4.54010E+01  4.49489E+01  4.42852E+01  4.38536E+01  4.33129E+01  4.29176E+01  4.20866E+01  4.17067E+01
   4.08281E+01  4.06696E+01  3.99731E+01  4.03567E+01  3.92656E+01  3.98930E+01  3.83257E+01  3.90290E+01  3.71159E+01  3.82965E+01
   3.65828E+01  3.83764E+01  3.66086E+01  3.83465E+01  3.63553E+01  3.76091E+01  3.55470E+01  3.64302E+01  3.48186E+01  3.55371E+01
   3.46813E+01  3.51235E+01  3.50183E+01  3.46006E+01  3.51447E+01  3.38556E+01  3.50505E+01  3.30782E+01  3.48056E+01  3.22780E+01
   3.42415E+01  3.14346E+01  3.37374E+01  3.09042E+01  3.33045E+01  3.06282E+01  3.30072E+01  3.04514E+01  3.17487E+01  2.91639E+01
   2.98085E+01  2.76516E+01  2.80392E+01  2.67737E+01  2.68602E+01  2.61401E+01  2.61543E+01  2.55890E+01  2.53097E+01  2.48043E+01
   2.46110E+01  2.43078E+01  2.38506E+01  2.35037E+01  2.30069E+01  2.27533E+01  2.22794E+01  2.21377E+01  2.17803E+01  2.17788E+01
   2.15667E+01  2.16663E+01  2.14135E+01  2.14542E+01  2.11586E+01  2.11231E+01  2.07834E+01  2.06669E+01  2.02732E+01  2.01188E+01
   1.97026E+01  1.95399E+01  1.91655E+01  1.90278E+01  1.86556E+01  1.85097E+01  1.80456E+01  1.78786E+01  1.73026E+01  1.71498E+01
   1.65289E+01  1.64426E+01  1.58156E+01  1.58144E+01  1.52311E+01  1.53533E+01  1.47914E+01  1.50119E+01  1.45022E+01  1.47692E+01
   1.43227E+01  1.46293E+01  1.43027E+01  1.46620E+01  1.44953E+01  1.49030E+01  1.49018E+01  1.53565E+01  1.55727E+01  1.61115E+01
   1.64075E+01  1.69273E+01  1.72990E+01  1.78637E+01  1.83500E+01  1.90164E+01  1.96046E+01  2.03129E+01  2.09384E+01  2.15953E+01
   2.21975E+01  2.27391E+01  2.32734E+01  2.36945E+01  2.41650E+01  2.44208E+01  2.47932E+01  2.48387E+01  2.50998E+01  2.48802E+01
   2.50259E+01  2.45538E+01  2.45784E+01  2.38635E+01  2.37625E+01  2.28536E+01  2.26407E+01  2.15953E+01  2.13074E+01  2.02028E+01
   1.98737E+01  1.87541E+01  1.84023E+01  1.73444E+01  1.69998E+01  1.60641E+01  1.57544E+01  1.49891E+01  1.47500E+01  1.42579E+01
   1.40942E+01  1.36827E+01  1.35357E+01  1.31983E+01  1.30686E+01  1.28129E+01  1.26986E+01  1.24817E+01  1.23630E+01  1.21922E+01
   1.20853E+01  1.19800E+01  1.19152E+01  1.18715E+01  1.18568E+01  1.18499E+01  1.18697E+01  1.18869E+01  1.19395E+01  1.19861E+01
   1.20660E+01  1.21428E+01  1.22597E+01  1.23627E+01  1.24946E+01  1.25306E+01  1.26438E+01  1.25517E+01  1.25824E+01  1.24000E+01
   1.23628E+01  1.20665E+01  1.20923E+01  1.18024E+01  1.18445E+01  1.15154E+01  1.16997E+01  1.15344E+01  1.19162E+01  1.19715E+01
   1.24266E+01  1.21786E+01  1.28645E+01  1.27145E+01  1.34575E+01  1.31281E+01  1.37184E+01  1.30849E+01  1.37470E+01  1.32137E+01
   1.42911E+01  1.42205E+01  1.56514E+01  1.58455E+01  1.72893E+01  1.74135E+01  1.87047E+01  1.88392E+01  2.02429E+01  2.08970E+01
   2.26900E+01  2.42116E+01  2.63267E+01  2.84036E+01  3.05918E+01  3.29242E+01  3.49396E+01  3.70936E+01  3.90204E+01  4.15071E+01
   4.35834E+01  4.63646E+01  4.88757E+01  5.17319E+01  5.40082E+01  5.62690E+01  5.83485E+01  6.00386E+01  6.16362E+01  6.25924E+01
   6.31105E+01  6.28932E+01  6.28179E+01  6.29190E+01  6.25764E+01  6.31489E+01  6.28622E+01  6.42022E+01  6.38665E+01  6.57976E+01
   6.49938E+01  6.72166E+01  6.56496E+01  6.79075E+01  6.57330E+01  6.80345E+01  6.54345E+01  6.77640E+01  6.49901E+01  6.72830E+01
   6.43540E+01  6.63292E+01  6.32287E+01  6.46475E+01  6.13874E+01  6.22798E+01  5.89575E+01  5.90564E+01  5.60993E+01  5.61543E+01
   5.37327E+01  5.37205E+01  5.17287E+01  5.13007E+01  4.88403E+01  4.79094E+01  4.51776E+01  4.38036E+01  4.11121E+01  3.96020E+01
   3.71723E+01  3.57051E+01  3.38109E+01  3.24716E+01  3.09255E+01  2.96244E+01  2.82820E+01  2.69526E+01  2.56760E+01  2.43806E+01
   2.31198E+01  2.19128E+01  2.07614E+01  1.96716E+01  1.86362E+01  1.76634E+01  1.67487E+01  1.58910E+01  1.50883E+01  1.43390E+01
   1.36418E+01  1.29949E+01  1.24002E+01  1.18561E+01  1.13679E+01  1.09362E+01  1.05717E+01  1.02817E+01  1.00818E+01  9.98616E+00
   1.00194E+01  1.02085E+01  1.05879E+01  1.12008E+01  1.20995E+01  1.33524E+01  1.50468E+01  1.73243E+01  2.04481E+01  2.45258E+01
   2.81203E+01  3.30002E+01  3.72949E+01  4.33750E+01  4.82923E+01  5.54598E+01  5.97241E+01  6.80098E+01  7.16205E+01  7.92805E+01
   8.14844E+01  8.81383E+01  8.92095E+01  9.57713E+01  9.62853E+01  1.02480E+02  1.02269E+02  1.06542E+02  1.05013E+02  1.06314E+02
   1.03837E+02  1.03028E+02  1.00665E+02  9.86329E+01  9.74276E+01  9.44899E+01  9.43940E+01  8.98672E+01  9.02072E+01  8.43022E+01
   8.48029E+01  7.79316E+01  7.87688E+01  7.22011E+01  7.34313E+01  6.76361E+01  6.90351E+01  6.46530E+01  6.64205E+01  6.38229E+01
   6.38130E+01  6.12231E+01  6.02594E+01  5.83589E+01  5.66703E+01  5.52183E+01  5.27224E+01  5.28041E+01  5.11342E+01  5.10109E+01
   4.90923E+01  4.84769E+01  4.65517E+01  4.58887E+01  4.44032E+01  4.40243E+01  4.31707E+01  4.31345E+01  4.28014E+01  4.29276E+01
   4.26587E+01  4.25422E+01  4.22134E+01  4.18441E+01  4.14245E+01  4.08831E+01  4.04482E+01  4.00739E+01  3.97470E+01  3.94714E+01
   3.92532E+01  3.90968E+01  3.90038E+01  3.89723E+01  3.89970E+01  3.90700E+01  3.91811E+01  3.93186E+01  3.94704E+01  3.96240E+01
   3.97675E+01  3.98899E+01  3.99816E+01  4.00344E+01  4.00418E+01  3.99989E+01  3.99029E+01  3.97520E+01  3.95464E+01  3.92874E+01
   3.89773E+01  3.86196E+01  3.82184E+01  3.77785E+01  3.73050E+01  3.68032E+01  3.62787E+01  3.57367E+01  3.51827E+01  3.46215E+01
   3.40579E+01  3.34962E+01  3.29402E+01  3.23935E+01  3.18592E+01  3.13396E+01  3.08370E+01  3.03531E+01  2.98891E+01  2.94461E+01
   2.90245E+01  2.86247E+01  2.82467E+01  2.78903E+01  2.75549E+01  2.72401E+01  2.69450E+01  2.66688E+01  2.64107E+01  2.61703E+01
   2.59465E+01  2.57388E+01  2.55462E+01  2.53678E+01  2.52030E+01  2.50507E+01  2.49102E+01  2.47806E+01  2.46612E+01  2.45511E+01
   2.44496E+01  2.43560E+01  2.42696E+01  2.41897E+01  2.41157E+01  2.40469E+01  2.39828E+01  2.39229E+01  2.38666E+01  2.38135E+01
   2.37630E+01  2.37147E+01  2.36683E+01  2.36232E+01  2.35793E+01  2.35360E+01  2.34931E+01  2.34503E+01  2.34073E+01  2.33638E+01
   2.33195E+01  2.32743E+01  2.32278E+01  2.31799E+01  2.31304E+01  2.30792E+01  2.30259E+01  2.29705E+01  2.29128E+01  2.28527E+01
   2.27899E+01  2.27246E+01  2.26563E+01  2.25852E+01  2.25111E+01  2.24338E+01  2.23533E+01  2.22696E+01  2.21825E+01  2.20920E+01
   2.19979E+01  2.19004E+01  2.17992E+01  2.16944E+01  2.15859E+01  2.14737E+01  2.13577E+01  2.12380E+01  2.11144E+01  2.09871E+01
   2.08559E+01  2.07209E+01  2.05822E+01  2.04396E+01  2.02933E+01  2.01432E+01  1.99896E+01  1.98325E+01
 NY background values follow
     3.643E+01    3.586E+01    3.531E+01    3.476E+01    3.423E+01    3.370E+01    3.319E+01    3.268E+01    3.219E+01    3.170E+01
     3.122E+01    3.075E+01    3.029E+01    2.983E+01    2.939E+01    2.895E+01    2.852E+01    2.810E+01    2.769E+01    2.729E+01
     2.689E+01    2.650E+01    2.612E+01    2.575E+01    2.538E+01    2.502E+01    2.466E+01    2.432E+01    2.398E+01    2.364E+01
     2.331E+01    2.299E+01    2.268E+01    2.237E+01    2.206E+01    2.177E+01    2.147E+01    2.119E+01    2.090E+01    2.063E+01
     2.036E+01    2.009E+01    1.983E+01    1.957E+01    1.932E+01    1.907E+01    1.882E+01    1.858E+01    1.835E+01    1.811E+01
     1.788E+01    1.766E+01    1.744E+01    1.722E+01    1.700E+01    1.679E+01    1.658E+01    1.637E+01    1.617E+01    1.596E+01
     1.577E+01    1.557E+01    1.537E+01    1.518E+01    1.499E+01    1.480E+01    1.461E+01    1.442E+01    1.424E+01    1.405E+01
     1.387E+01    1.369E+01    1.350E+01    1.332E+01    1.314E+01    1.296E+01    1.279E+01    1.261E+01    1.243E+01    1.226E+01
     1.209E+01    1.191E+01    1.174E+01    1.157E+01    1.141E+01    1.124E+01    1.108E+01    1.091E+01    1.075E+01    1.060E+01
     1.044E+01    1.028E+01    1.013E+01    9.980E+00    9.832E+00    9.685E+00    9.541E+00    9.400E+00    9.261E+00    9.124E+00
     8.990E+00    8.859E+00    8.730E+00    8.605E+00    8.482E+00    8.362E+00    8.244E+00    8.130E+00    8.019E+00    7.912E+00
     7.807E+00    7.706E+00    7.608E+00    7.513E+00    7.422E+00    7.335E+00    7.251E+00    7.171E+00    7.095E+00    7.022E+00
     6.953E+00    6.889E+00    6.828E+00    6.771E+00    6.719E+00    6.670E+00    6.626E+00    6.586E+00    6.551E+00    6.520E+00
     6.494E+00    6.472E+00    6.455E+00    6.443E+00    6.435E+00    6.432E+00    6.435E+00    6.442E+00    6.454E+00    6.471E+00
     6.494E+00    6.522E+00    6.555E+00    6.593E+00    6.637E+00    6.685E+00    6.739E+00    6.797E+00    6.860E+00    6.927E+00
     6.999E+00    7.074E+00    7.154E+00    7.237E+00    7.324E+00    7.414E+00    7.508E+00    7.605E+00    7.705E+00    7.807E+00
     7.912E+00    8.020E+00    8.130E+00    8.242E+00    8.357E+00    8.473E+00    8.590E+00    8.710E+00    8.830E+00    8.952E+00
     9.075E+00    9.199E+00    9.324E+00    9.449E+00    9.574E+00    9.700E+00    9.826E+00    9.952E+00    1.008E+01    1.020E+01
     1.033E+01    1.045E+01    1.057E+01    1.070E+01    1.082E+01    1.094E+01    1.105E+01    1.117E+01    1.129E+01    1.140E+01
     1.151E+01    1.162E+01    1.172E+01    1.182E+01    1.192E+01    1.202E+01    1.212E+01    1.221E+01    1.229E+01    1.238E+01
     1.246E+01    1.253E+01    1.261E+01    1.267E+01    1.274E+01    1.280E+01    1.285E+01    1.290E+01    1.294E+01    1.298E+01
     1.302E+01    1.304E+01    1.307E+01    1.308E+01    1.309E+01    1.310E+01    1.310E+01    1.309E+01    1.308E+01    1.306E+01
     1.304E+01    1.300E+01    1.297E+01    1.293E+01    1.288E+01    1.283E+01    1.277E+01    1.270E+01    1.263E+01    1.256E+01
     1.247E+01    1.239E+01    1.230E+01    1.220E+01    1.209E+01    1.199E+01    1.187E+01    1.175E+01    1.163E+01    1.150E+01
     1.136E+01    1.122E+01    1.108E+01    1.093E+01    1.077E+01    1.061E+01    1.044E+01    1.027E+01    1.009E+01    9.913E+00
     9.727E+00    9.536E+00    9.340E+00    9.139E+00    8.933E+00    8.722E+00    8.506E+00    8.286E+00    8.060E+00    7.830E+00
     7.596E+00    7.357E+00    7.113E+00    6.864E+00    6.611E+00    6.353E+00    6.091E+00    5.824E+00    5.553E+00    5.277E+00
     4.997E+00    4.712E+00    4.423E+00    4.130E+00    3.833E+00    3.531E+00    3.225E+00    2.914E+00    2.600E+00    2.281E+00
     1.958E+00    1.631E+00    1.300E+00    9.652E-01    6.260E-01    2.829E-01   -6.395E-02   -4.142E-01   -7.677E-01   -1.124E+00
    -1.483E+00   -1.844E+00   -2.207E+00   -2.573E+00   -2.939E+00   -3.307E+00   -3.675E+00   -4.045E+00   -4.414E+00   -4.784E+00
    -5.154E+00   -5.523E+00   -5.891E+00   -6.258E+00   -6.624E+00   -6.988E+00   -7.350E+00   -7.711E+00   -8.068E+00   -8.423E+00
    -8.775E+00   -9.124E+00   -9.469E+00   -9.810E+00   -1.015E+01   -1.048E+01   -1.081E+01   -1.113E+01   -1.145E+01   -1.176E+01
    -1.207E+01   -1.237E+01   -1.266E+01   -1.295E+01   -1.323E+01   -1.350E+01   -1.377E+01   -1.403E+01   -1.428E+01   -1.452E+01
    -1.475E+01   -1.497E+01   -1.519E+01   -1.539E+01   -1.559E+01   -1.577E+01   -1.595E+01   -1.611E+01   -1.627E+01   -1.641E+01
    -1.654E+01   -1.666E+01   -1.677E+01   -1.686E+01   -1.694E+01   -1.701E+01   -1.707E+01   -1.711E+01   -1.714E+01   -1.716E+01
    -1.716E+01   -1.714E+01   -1.712E+01   -1.707E+01   -1.701E+01   -1.694E+01   -1.685E+01   -1.674E+01   -1.662E+01   -1.649E+01
    -1.634E+01   -1.617E+01   -1.599E+01   -1.580E+01   -1.559E+01   -1.538E+01   -1.514E+01   -1.490E+01   -1.465E+01   -1.438E+01
    -1.410E+01   -1.381E+01   -1.351E+01   -1.320E+01   -1.288E+01   -1.256E+01   -1.222E+01   -1.187E+01   -1.152E+01   -1.115E+01
    -1.078E+01   -1.040E+01   -1.001E+01   -9.622E+00   -9.222E+00   -8.817E+00   -8.405E+00   -7.988E+00   -7.566E+00   -7.139E+00
    -6.708E+00   -6.273E+00   -5.833E+00   -5.391E+00   -4.945E+00   -4.496E+00   -4.045E+00   -3.592E+00   -3.137E+00   -2.681E+00
    -2.224E+00   -1.765E+00   -1.307E+00   -8.481E-01   -3.897E-01    6.811E-02    5.250E-01    9.806E-01    1.435E+00    1.887E+00
     2.337E+00    2.784E+00    3.228E+00    3.669E+00    4.106E+00    4.539E+00    4.968E+00    5.393E+00    5.812E+00    6.226E+00
     6.635E+00    7.037E+00    7.433E+00    7.823E+00    8.205E+00    8.580E+00    8.948E+00    9.307E+00    9.659E+00    1.000E+01
     1.034E+01    1.067E+01    1.099E+01    1.130E+01    1.160E+01    1.190E+01    1.219E+01    1.247E+01    1.274E+01    1.301E+01
     1.327E+01    1.352E+01    1.376E+01    1.400E+01    1.423E+01    1.445E+01    1.466E+01    1.487E+01    1.507E+01    1.526E+01
     1.545E+01    1.563E+01    1.580E+01    1.596E+01    1.612E+01    1.627E+01    1.641E+01    1.655E+01    1.668E+01    1.680E+01
     1.692E+01    1.702E+01    1.713E+01    1.722E+01    1.731E+01    1.739E+01    1.747E+01    1.754E+01    1.760E+01    1.766E+01
     1.771E+01    1.775E+01    1.779E+01    1.782E+01    1.784E+01    1.786E+01    1.787E+01    1.788E+01    1.788E+01    1.787E+01
     1.786E+01    1.784E+01    1.782E+01    1.779E+01    1.775E+01    1.771E+01    1.766E+01    1.761E+01    1.755E+01    1.748E+01
     1.741E+01    1.734E+01    1.725E+01    1.717E+01    1.707E+01    1.698E+01    1.687E+01    1.676E+01
 Ala      Conc. = 1.27E+04
