 LCModel (Version 6.3-1L) Copyright: S.W. Provencher.          Ref.: Magn. Reson. Med. 30:672-679 (1993).                
 Slice#3 Row#4 Col#7  PD_05_press_2_raw_act
 36 lines in following concentration table = NCONC+1
    Conc.  %SD /Cr+PCr  Metabolite                                         
    0.000 999%   0.000 Ala                                                 
  368.644 105%   0.180 Asp                                                 
    0.000 999%   0.000 Cr                                                  
 2.05E+03   8%   1.000 PCr                                                 
  156.697 153% 7.6E-02 GABA                                                
  312.604  77%   0.153 Glc                                                 
 1.02E+03  64%   0.498 Gln                                                 
 1.05E+03  70%   0.512 Glu                                                 
  634.776  58%   0.310 GPC                                                 
  355.870 105%   0.174 PCh                                                 
  703.778  32%   0.343 GSH                                                 
 2.69E+03  28%   1.314 Ins                                                 
    0.000 999%   0.000 Lac                                                 
 2.22E+03  10%   1.083 NAA                                                 
  341.117  70%   0.166 NAAG                                                
  218.327  28%   0.107 Scyllo                                              
  558.434  68%   0.273 Tau                                                 
 1.06E+03  28%   0.517 -CrCH2                                              
  990.646   7%   0.483 GPC+PCh                                             
 2.56E+03   8%   1.250 NAA+NAAG                                            
 2.05E+03   8%   1.000 Cr+PCr                                              
 2.07E+03  48%   1.010 Glu+Gln                                             
 3.01E+03  33%   1.468 Lip13a                                              
    0.000 999%   0.000 Lip13b                                              
  699.463  53%   0.341 Lip09                                               
  790.654  58%   0.386 MM09                                                
  435.899  54%   0.213 Lip20                                               
 1.23E+03  64%   0.599 MM20                                                
  244.842  96%   0.119 MM12                                                
 2.77E+03  20%   1.350 MM14                                                
    0.000 999%   0.000 MM17                                                
 3.01E+03  33%   1.468 Lip13a+Lip13b                                       
 6.02E+03  16%   2.937 MM14+Lip13a+Lip13b+MM12                             
 1.49E+03  30%   0.727 MM09+Lip09                                          
 1.66E+03  47%   0.812 MM20+Lip20                                          
   6 lines in following misc. output table
  FWHM = 0.046 ppm    S/N =   4                                            
  Data shift = 0.031 ppm                                                   
  Ph: -54 deg     -19.6 deg/ppm                                            
  alphaB,S = 1.2E+00,   4.4E+01                                            
   14 spline knots.   Ns = 6(1)                                            
  ( 8) 2 infls.   ( 9) 1 extrs.                                            
  498 points on ppm-axis = NY
      4.000000     3.992357     3.984714     3.977070     3.969427     3.961784     3.954141     3.946497     3.938854     3.931211
      3.923568     3.915925     3.908281     3.900638     3.892995     3.885352     3.877708     3.870065     3.862422     3.854779
      3.847136     3.839492     3.831849     3.824206     3.816563     3.808919     3.801276     3.793633     3.785990     3.778347
      3.770703     3.763060     3.755417     3.747774     3.740130     3.732487     3.724844     3.717201     3.709558     3.701914
      3.694271     3.686628     3.678985     3.671341     3.663698     3.656055     3.648412     3.640769     3.633125     3.625482
      3.617839     3.610196     3.602552     3.594909     3.587266     3.579623     3.571980     3.564336     3.556693     3.549050
      3.541407     3.533763     3.526120     3.518477     3.510834     3.503191     3.495547     3.487904     3.480261     3.472618
      3.464974     3.457331     3.449688     3.442045     3.434402     3.426758     3.419115     3.411472     3.403829     3.396185
      3.388542     3.380899     3.373256     3.365613     3.357969     3.350326     3.342683     3.335040     3.327396     3.319753
      3.312110     3.304467     3.296824     3.289180     3.281537     3.273894     3.266251     3.258607     3.250964     3.243321
      3.235678     3.228034     3.220391     3.212748     3.205105     3.197462     3.189818     3.182175     3.174532     3.166889
      3.159245     3.151602     3.143959     3.136316     3.128673     3.121029     3.113386     3.105743     3.098100     3.090456
      3.082813     3.075170     3.067527     3.059884     3.052240     3.044597     3.036954     3.029311     3.021667     3.014024
      3.006381     2.998738     2.991095     2.983451     2.975808     2.968165     2.960522     2.952878     2.945235     2.937592
      2.929949     2.922306     2.914662     2.907019     2.899376     2.891733     2.884089     2.876446     2.868803     2.861160
      2.853517     2.845873     2.838230     2.830587     2.822944     2.815300     2.807657     2.800014     2.792371     2.784728
      2.777084     2.769441     2.761798     2.754155     2.746511     2.738868     2.731225     2.723582     2.715939     2.708295
      2.700652     2.693009     2.685366     2.677722     2.670079     2.662436     2.654793     2.647150     2.639506     2.631863
      2.624220     2.616577     2.608933     2.601290     2.593647     2.586004     2.578361     2.570717     2.563074     2.555431
      2.547788     2.540144     2.532501     2.524858     2.517215     2.509572     2.501928     2.494285     2.486642     2.478999
      2.471355     2.463712     2.456069     2.448426     2.440783     2.433139     2.425496     2.417853     2.410210     2.402566
      2.394923     2.387280     2.379637     2.371994     2.364350     2.356707     2.349064     2.341421     2.333777     2.326134
      2.318491     2.310848     2.303205     2.295561     2.287918     2.280275     2.272632     2.264988     2.257345     2.249702
      2.242059     2.234416     2.226772     2.219129     2.211486     2.203843     2.196199     2.188556     2.180913     2.173270
      2.165627     2.157983     2.150340     2.142697     2.135054     2.127410     2.119767     2.112124     2.104481     2.096838
      2.089194     2.081551     2.073908     2.066265     2.058621     2.050978     2.043335     2.035692     2.028049     2.020405
      2.012762     2.005119     1.997476     1.989833     1.982190     1.974546     1.966903     1.959260     1.951617     1.943974
      1.936331     1.928688     1.921045     1.913402     1.905759     1.898115     1.890472     1.882829     1.875186     1.867543
      1.859900     1.852257     1.844614     1.836971     1.829327     1.821684     1.814041     1.806398     1.798755     1.791112
      1.783469     1.775826     1.768183     1.760540     1.752896     1.745253     1.737610     1.729967     1.722324     1.714681
      1.707038     1.699395     1.691752     1.684108     1.676465     1.668822     1.661179     1.653536     1.645893     1.638250
      1.630607     1.622964     1.615321     1.607677     1.600034     1.592391     1.584748     1.577105     1.569462     1.561819
      1.554176     1.546533     1.538890     1.531246     1.523603     1.515960     1.508317     1.500674     1.493031     1.485388
      1.477745     1.470102     1.462458     1.454815     1.447172     1.439529     1.431886     1.424243     1.416600     1.408957
      1.401314     1.393671     1.386027     1.378384     1.370741     1.363098     1.355455     1.347812     1.340169     1.332526
      1.324883     1.317240     1.309596     1.301953     1.294310     1.286667     1.279024     1.271381     1.263738     1.256095
      1.248452     1.240808     1.233165     1.225522     1.217879     1.210236     1.202593     1.194950     1.187307     1.179664
      1.172021     1.164377     1.156734     1.149091     1.141448     1.133805     1.126162     1.118519     1.110876     1.103233
      1.095590     1.087946     1.080303     1.072660     1.065017     1.057374     1.049731     1.042088     1.034445     1.026802
      1.019158     1.011515     1.003872     0.996229     0.988586     0.980943     0.973300     0.965657     0.958014     0.950371
      0.942727     0.935084     0.927441     0.919798     0.912155     0.904512     0.896869     0.889226     0.881583     0.873940
      0.866296     0.858653     0.851010     0.843367     0.835724     0.828081     0.820438     0.812795     0.805152     0.797508
      0.789865     0.782222     0.774579     0.766936     0.759293     0.751650     0.744007     0.736364     0.728721     0.721077
      0.713434     0.705791     0.698148     0.690505     0.682862     0.675219     0.667576     0.659933     0.652290     0.644646
      0.637003     0.629360     0.621717     0.614074     0.606431     0.598788     0.591145     0.583502     0.575858     0.568215
      0.560572     0.552929     0.545286     0.537643     0.530000     0.522357     0.514714     0.507071     0.499427     0.491784
      0.484141     0.476498     0.468855     0.461212     0.453569     0.445925     0.438282     0.430639     0.422996     0.415353
      0.407710     0.400067     0.392424     0.384780     0.377137     0.369494     0.361851     0.354208     0.346565     0.338922
      0.331278     0.323635     0.315992     0.308349     0.300706     0.293063     0.285420     0.277777     0.270133     0.262490
      0.254847     0.247204     0.239561     0.231918     0.224275     0.216631     0.208988     0.201345
 NY phased data points follow
  -1.49343E+02 -1.54670E+02 -1.48683E+02 -1.51802E+02 -1.29845E+02 -1.38799E+02 -1.11556E+02 -1.08667E+02 -7.74164E+01 -9.34542E+01
  -8.85572E+01 -9.84201E+01 -9.58872E+01 -1.13450E+02 -1.10667E+02 -1.26383E+02 -1.22288E+02 -1.22794E+02 -1.16717E+02 -1.17352E+02
  -9.97040E+01 -1.09001E+02 -8.99549E+01 -9.80115E+01 -9.88196E+01 -8.92905E+01 -1.02828E+02 -9.56362E+01 -9.07334E+01 -8.45626E+01
  -7.43418E+01 -7.83810E+01 -7.51144E+01 -9.97454E+01 -9.29807E+01 -9.86996E+01 -9.14395E+01 -8.47866E+01 -7.21507E+01 -7.75817E+01
  -8.48925E+01 -9.17296E+01 -6.80740E+01 -6.83685E+01 -6.55152E+01 -7.52163E+01 -5.42695E+01 -6.70137E+01 -4.22608E+01 -6.85991E+01
  -5.85691E+01 -6.48238E+01 -5.87829E+01 -6.41588E+01 -6.37365E+01 -7.54336E+01 -5.07567E+01 -6.10600E+01 -6.22263E+01 -6.79762E+01
  -6.31939E+01 -6.54193E+01 -7.48795E+01 -7.76186E+01 -8.09161E+01 -8.23816E+01 -6.45168E+01 -7.60250E+01 -7.06562E+01 -8.14966E+01
  -7.22881E+01 -6.03786E+01 -5.57406E+01 -6.29370E+01 -3.77885E+01 -6.51841E+01 -4.90095E+01 -5.15371E+01 -5.29538E+01 -5.45936E+01
  -3.57192E+01 -3.05727E+01 -4.95636E+01 -2.64410E+01 -3.80496E+01 -3.49665E+01 -5.24966E+01 -3.96443E+01 -3.81341E+01 -4.42268E+01
  -4.45516E+01 -4.69617E+01 -4.19557E+01 -3.73751E+01 -2.20214E+01 -2.63623E+01 -3.46026E+01 -3.49460E+01 -3.45622E+00 -4.00760E+00
   1.40608E+01  2.69254E+01  4.78253E+01  5.83923E+01  4.83462E+01  2.97101E+01  2.81863E+01 -1.90648E+01  8.72059E+00 -3.77705E+01
  -3.69337E+01 -3.77376E+01 -2.83090E+01 -2.12432E+01 -1.74961E+01 -3.09417E+01 -4.26111E+01 -4.28573E+00 -1.07445E+01 -2.36808E+01
  -2.99984E+01 -3.57042E+01 -1.53074E+01 -7.17157E+00 -3.53634E+00  2.68553E+01  3.16849E+01  3.77697E+01  5.10655E+01  3.89729E+01
   2.66632E+01 -4.90537E+00 -5.52598E+00  1.07215E+01 -1.16415E+01 -3.54363E+01 -7.46797E+00 -2.16918E+01 -3.27644E+01 -1.64991E+01
  -2.56118E+01 -1.35327E+01 -8.12803E+00 -2.05290E+01 -2.50726E+01 -2.99108E+01 -2.01214E+01 -3.09730E+01 -2.35610E+01 -1.67547E+01
  -2.36074E+01 -3.29277E+01 -1.89557E+01 -2.61759E+01 -2.71607E+01 -1.95768E+01 -4.00493E+01 -1.56380E+01 -6.62306E+00 -2.09196E+01
  -2.30256E+01 -4.56154E+01 -2.98793E+01 -1.03778E+01 -8.10948E+00 -1.67994E+01 -3.44694E+00 -2.12719E+01  2.16199E+01 -5.68435E+00
  -3.44611E+00 -1.55042E+01 -1.44096E+01 -1.28399E+01 -2.26242E+01 -6.35451E+00 -2.35679E+01 -1.24973E+01 -3.08335E+01 -2.47045E+01
  -6.32678E+00 -1.55211E+01 -3.21791E+01 -3.00292E+01 -1.78138E+01 -2.82586E+01 -2.40876E+01 -1.26819E+01 -1.01546E+01 -1.27185E+00
   9.42413E+00  7.61088E+00  3.38866E+00 -1.04666E+01 -1.10557E+01 -5.79578E+00  2.31493E+00 -8.10442E+00 -3.83157E+00 -4.13855E+00
  -7.29891E+00  5.40017E-01  8.16312E+00 -7.74556E-01 -9.91187E+00  7.99677E+00 -7.63794E-02  3.06542E-02 -2.35420E+00  3.94734E+00
  -4.93477E-01 -1.68961E+01 -7.79878E+00  6.18900E+00  1.87310E+00  1.82350E+01  3.33305E+01  1.71489E+01  1.02311E+01  2.12131E+01
  -6.80935E-01  1.44613E+00 -7.40678E-01  3.98057E+00 -1.81005E+00  1.67486E+01  5.93121E+00  1.30179E+01  1.33196E+00  7.90956E+00
  -1.37493E-01  1.09728E+01  9.35210E+00 -6.83093E+00  1.21072E+01  2.01928E+01  4.56833E+00  2.99726E+01  1.88592E+01  1.26885E+01
  -1.38243E+00  3.86716E+00  3.03272E+00  9.49134E+00 -3.78805E+00  5.59889E+00  1.03475E+01  1.21711E+01  2.11821E+01  1.86717E+01
   1.18150E+01  3.46193E+01  4.16630E+01  3.64629E+01  2.97165E+01  4.43226E+01  4.97264E+01  6.62150E+01  7.78574E+01  7.88749E+01
   1.03007E+02  1.08592E+02  7.70274E+01  6.90638E+01  6.44438E+01  4.11543E+01  2.97500E+01  2.94403E+01  2.83417E+01  2.91748E+01
   3.28134E+01  1.92563E+01  1.27543E+01  1.51209E+01  6.13394E+00  9.13177E+00  3.65292E+01  6.92579E+00  8.87632E+00  1.22081E+01
   1.45879E+01  1.03137E+01  1.91803E+01  1.61690E+01  1.95491E+01  1.53278E+00 -6.11330E+00  9.53231E+00  1.67652E+01  1.70259E+01
   9.55671E+00  1.53321E+01  2.27115E+01  1.00547E+01  3.45676E+01  3.85818E+00  3.02210E+01  1.00229E+01  1.75951E+01  3.71764E+01
   1.44247E+01  2.60239E+01  1.63557E+01  7.92214E+00  2.25544E+01  1.91942E+01  1.34399E+01  1.14798E+01  2.69795E+01  3.15788E+01
   3.03675E+01  3.53769E+01  2.83413E+01  1.76376E+01  2.49733E+01  3.09138E+01  2.67903E+01  2.17466E+01  2.96272E+01  2.85756E+01
   2.42770E+01  1.94342E+01  4.08319E+01  3.67141E+01  2.43947E+01  2.25616E+01  4.25236E+01  5.92977E+01  5.17658E+01  6.32034E+01
   5.40123E+01  4.51665E+01  7.77730E+01  4.21168E+01  6.12469E+01  4.65726E+01  5.13465E+01  5.71545E+01  7.28369E+01  5.59477E+01
   4.45829E+01  3.49595E+01  3.49607E+01  5.16890E+01  3.90470E+01  6.58671E+01  4.43306E+01  5.75520E+01  5.02863E+01  6.44914E+01
   5.73822E+01  6.05426E+01  4.59520E+01  3.28680E+01  5.52646E+01  3.36441E+01  3.68709E+01  6.90269E+01  3.38180E+01  3.11971E+01
   5.23428E+01  2.95321E+01  3.84353E+01  4.13893E+01  4.41186E+01  4.87212E+01  1.88995E+01  3.59269E+01  3.50983E+01  4.32048E+01
   4.30843E+01  4.53787E+01  5.16813E+01  3.51331E+01  4.05276E+01  4.23790E+01  4.22777E+01  5.57742E+01  5.00839E+01  2.33054E+01
   6.20267E+01  3.39678E+01  5.14260E+01  3.74539E+01  4.28185E+01  3.97275E+01  3.90975E+01  4.55756E+01  4.11465E+01  4.57251E+01
   3.55729E+01  2.14264E+01  4.49414E+01  2.56654E+01  4.64454E+01  4.64139E+01  3.03077E+01  4.92775E+01  3.38032E+01  4.65472E+01
   3.45426E+01  2.56727E+01  3.86437E+01  5.00930E+01  4.21621E+01  3.94113E+01  4.41402E+01  5.28452E+01  3.04634E+01  6.29613E+01
   5.04713E+01  6.96316E+01  5.04315E+01  3.82710E+01  4.39370E+01  3.25936E+01  4.52207E+01  4.11237E+01  4.79829E+01  5.50474E+01
   4.60318E+01  3.84842E+01  4.37190E+01  4.07107E+01  4.04906E+01  2.53753E+01  3.54241E+01  4.98667E+01  3.75040E+01  2.43230E+01
   5.01457E+01  3.95455E+01  4.41437E+01  3.34287E+01  2.00476E+01  5.10520E+01  4.26426E+01  4.83387E+01  5.46801E+01  2.98931E+01
   5.04299E+01  5.99920E+01  3.24314E+01  5.16993E+01  4.94727E+01  4.50566E+01  4.88874E+01  5.83997E+01  4.32975E+01  4.42595E+01
   4.51418E+01  5.01050E+01  3.83811E+01  4.69386E+01  4.43223E+01  3.90611E+01  2.86948E+01  3.40495E+01  2.62272E+01  4.80778E+01
   5.79029E+01  4.45240E+01  4.43613E+01  3.13633E+01  4.22169E+01  5.04302E+01  2.47515E+01  3.98849E+01  2.79979E+01  2.58222E+01
   3.53533E+01  3.77544E+01  5.29737E+01  5.40838E+01  4.61239E+01  5.20772E+01  4.39277E+01  5.72005E+01  5.64539E+01  3.93843E+01
   4.77999E+01  5.65745E+01  2.89082E+01  4.39910E+01  3.88500E+01  3.07935E+01  3.08659E+01  3.58038E+01  3.02839E+01  5.20226E+01
   4.77062E+01  4.08165E+01  4.05294E+01  3.50955E+01  3.55487E+01  3.67735E+01  1.70701E+01  3.12042E+01
 NY points of the fit to the data follow
  -1.24794E+02 -1.24637E+02 -1.24058E+02 -1.22717E+02 -1.19496E+02 -1.15080E+02 -1.10183E+02 -1.04856E+02 -9.93491E+01 -9.45328E+01
  -9.19523E+01 -9.26579E+01 -9.59007E+01 -9.99406E+01 -1.03126E+02 -1.05149E+02 -1.06866E+02 -1.08042E+02 -1.08048E+02 -1.07619E+02
  -1.06912E+02 -1.06041E+02 -1.05258E+02 -1.04452E+02 -1.02833E+02 -1.00257E+02 -9.68554E+01 -9.25317E+01 -8.74421E+01 -8.22172E+01
  -7.81568E+01 -7.64654E+01 -7.71903E+01 -7.94933E+01 -8.22714E+01 -8.47805E+01 -8.69521E+01 -8.84231E+01 -8.88774E+01 -8.88529E+01
  -8.82970E+01 -8.66268E+01 -8.35432E+01 -7.94746E+01 -7.50202E+01 -7.03859E+01 -6.59708E+01 -6.28904E+01 -6.24141E+01 -6.48027E+01
  -6.88386E+01 -7.27805E+01 -7.55884E+01 -7.70284E+01 -7.71862E+01 -7.60749E+01 -7.38987E+01 -7.12504E+01 -6.86285E+01 -6.64021E+01
  -6.49433E+01 -6.44860E+01 -6.49924E+01 -6.59226E+01 -6.66097E+01 -6.67075E+01 -6.60623E+01 -6.47463E+01 -6.30857E+01 -6.12365E+01
  -5.92441E+01 -5.73103E+01 -5.56522E+01 -5.44437E+01 -5.36992E+01 -5.33704E+01 -5.34172E+01 -5.37266E+01 -5.42018E+01 -5.43635E+01
  -5.33665E+01 -5.13655E+01 -4.91005E+01 -4.68334E+01 -4.46851E+01 -4.31353E+01 -4.28186E+01 -4.40933E+01 -4.64132E+01 -4.85925E+01
  -4.96283E+01 -4.95004E+01 -4.89590E+01 -4.82482E+01 -4.70136E+01 -4.51828E+01 -4.14804E+01 -3.29458E+01 -1.97611E+01 -3.96526E+00
   1.38050E+01  3.25138E+01  4.85811E+01  5.62275E+01  5.13681E+01  3.59232E+01  1.63969E+01 -9.04102E-01 -1.39180E+01 -2.43269E+01
  -3.21182E+01 -3.55401E+01 -3.62428E+01 -3.62058E+01 -3.59831E+01 -3.57045E+01 -3.53462E+01 -3.49317E+01 -3.44282E+01 -3.36746E+01
  -3.20633E+01 -2.72226E+01 -1.81146E+01 -6.58480E+00  6.46914E+00  2.07178E+01  3.42390E+01  4.31083E+01  4.32168E+01  3.42670E+01
   2.04591E+01  6.93076E+00 -3.60992E+00 -1.21871E+01 -1.98778E+01 -2.47479E+01 -2.65326E+01 -2.68901E+01 -2.61739E+01 -2.47135E+01
  -2.30053E+01 -2.14122E+01 -2.02181E+01 -1.95745E+01 -1.93174E+01 -1.92807E+01 -1.93954E+01 -1.95780E+01 -1.97810E+01 -1.99322E+01
  -1.99703E+01 -1.99275E+01 -1.98142E+01 -1.96143E+01 -1.93295E+01 -1.90473E+01 -1.88276E+01 -1.86774E+01 -1.86434E+01 -1.86929E+01
  -1.87371E+01 -1.86255E+01 -1.82092E+01 -1.75067E+01 -1.67183E+01 -1.60996E+01 -1.57746E+01 -1.56506E+01 -1.55964E+01 -1.55764E+01
  -1.56054E+01 -1.57041E+01 -1.57883E+01 -1.58043E+01 -1.58368E+01 -1.59070E+01 -1.58693E+01 -1.55510E+01 -1.49839E+01 -1.44310E+01
  -1.40919E+01 -1.39274E+01 -1.36481E+01 -1.30069E+01 -1.21120E+01 -1.10860E+01 -9.80070E+00 -8.14983E+00 -6.16880E+00 -4.17492E+00
  -2.69801E+00 -2.12152E+00 -2.55537E+00 -3.66608E+00 -4.92213E+00 -5.92362E+00 -6.34024E+00 -5.91400E+00 -4.52423E+00 -2.22501E+00
   5.42645E-01  3.09864E+00  4.91602E+00  5.71310E+00  5.23221E+00  3.59871E+00  1.15477E+00 -1.68618E+00 -4.32225E+00 -5.95274E+00
  -5.90852E+00 -4.14395E+00 -1.28556E+00  1.95236E+00  4.99095E+00  7.35496E+00  8.61560E+00  8.33942E+00  6.65587E+00  4.57733E+00
   2.86165E+00  1.80261E+00  1.62343E+00  2.53903E+00  4.49171E+00  6.73051E+00  8.41938E+00  9.34094E+00  9.64346E+00  9.51268E+00
   9.03590E+00  8.64246E+00  8.91651E+00  9.90053E+00  1.12266E+01  1.26169E+01  1.38251E+01  1.45790E+01  1.46732E+01  1.40010E+01
   1.27641E+01  1.14266E+01  1.04639E+01  1.01310E+01  1.05235E+01  1.16980E+01  1.32945E+01  1.47900E+01  1.60727E+01  1.74809E+01
   1.94618E+01  2.19010E+01  2.46556E+01  2.81044E+01  3.40219E+01  4.39183E+01  5.55596E+01  6.71321E+01  7.88030E+01  8.99755E+01
   9.76791E+01  9.75030E+01  8.76072E+01  7.16108E+01  5.53655E+01  4.25607E+01  3.29378E+01  2.48468E+01  1.95039E+01  1.77177E+01
   1.71920E+01  1.70542E+01  1.71660E+01  1.74189E+01  1.76859E+01  1.78924E+01  1.79939E+01  1.79896E+01  1.79151E+01  1.78256E+01
   1.77567E+01  1.77361E+01  1.77864E+01  1.79075E+01  1.80805E+01  1.82778E+01  1.84801E+01  1.86832E+01  1.88837E+01  1.90775E+01
   1.92744E+01  1.94854E+01  1.97030E+01  1.99128E+01  2.01131E+01  2.03057E+01  2.04945E+01  2.06881E+01  2.08902E+01  2.11044E+01
   2.13402E+01  2.16001E+01  2.18775E+01  2.21671E+01  2.24669E+01  2.27796E+01  2.31068E+01  2.34502E+01  2.38154E+01  2.42090E+01
   2.46355E+01  2.51009E+01  2.56107E+01  2.61712E+01  2.67885E+01  2.74688E+01  2.82176E+01  2.90397E+01  2.99384E+01  3.09157E+01
   3.19715E+01  3.31034E+01  3.43057E+01  3.55703E+01  3.68861E+01  3.82391E+01  3.96125E+01  4.09872E+01  4.23420E+01  4.36554E+01
   4.49055E+01  4.60716E+01  4.71342E+01  4.80772E+01  4.88871E+01  4.95554E+01  5.00777E+01  5.04547E+01  5.06910E+01  5.07960E+01
   5.07820E+01  5.06649E+01  5.04618E+01  5.01910E+01  4.98702E+01  4.95164E+01  4.91443E+01  4.87667E+01  4.83929E+01  4.80298E+01
   4.76804E+01  4.73458E+01  4.70241E+01  4.67122E+01  4.64054E+01  4.60985E+01  4.57860E+01  4.54635E+01  4.51266E+01  4.47733E+01
   4.44019E+01  4.40127E+01  4.36069E+01  4.31876E+01  4.27585E+01  4.23244E+01  4.18904E+01  4.14619E+01  4.10441E+01  4.06427E+01
   4.02623E+01  3.99076E+01  3.95821E+01  3.92892E+01  3.90314E+01  3.88110E+01  3.86294E+01  3.84882E+01  3.83877E+01  3.83290E+01
   3.83121E+01  3.83378E+01  3.84062E+01  3.85178E+01  3.86724E+01  3.88706E+01  3.91120E+01  3.93969E+01  3.97243E+01  4.00931E+01
   4.05013E+01  4.09464E+01  4.14244E+01  4.19307E+01  4.24590E+01  4.30020E+01  4.35510E+01  4.40968E+01  4.46288E+01  4.51364E+01
   4.56083E+01  4.60340E+01  4.64035E+01  4.67083E+01  4.69413E+01  4.70974E+01  4.71735E+01  4.71694E+01  4.70867E+01  4.69300E+01
   4.67052E+01  4.64206E+01  4.60849E+01  4.57088E+01  4.53025E+01  4.48769E+01  4.44419E+01  4.40069E+01  4.35800E+01  4.31684E+01
   4.27777E+01  4.24126E+01  4.20757E+01  4.17692E+01  4.14937E+01  4.12492E+01  4.10349E+01  4.08496E+01  4.06913E+01  4.05581E+01
   4.04476E+01  4.03579E+01  4.02868E+01  4.02323E+01  4.01922E+01  4.01649E+01  4.01487E+01  4.01423E+01  4.01442E+01  4.01535E+01
   4.01690E+01  4.01898E+01  4.02152E+01  4.02447E+01  4.02775E+01  4.03132E+01  4.03512E+01  4.03914E+01  4.04331E+01  4.04765E+01
   4.05209E+01  4.05662E+01  4.06122E+01  4.06589E+01  4.07059E+01  4.07534E+01  4.08010E+01  4.08489E+01  4.08967E+01  4.09447E+01
   4.09926E+01  4.10406E+01  4.10883E+01  4.11359E+01  4.11833E+01  4.12307E+01  4.12779E+01  4.13249E+01  4.13716E+01  4.14181E+01
   4.14643E+01  4.15105E+01  4.15564E+01  4.16021E+01  4.16475E+01  4.16929E+01  4.17379E+01  4.17830E+01  4.18277E+01  4.18724E+01
   4.19169E+01  4.19613E+01  4.20056E+01  4.20500E+01  4.20942E+01  4.21384E+01  4.21825E+01  4.22267E+01  4.22710E+01  4.23155E+01
   4.23599E+01  4.24045E+01  4.24492E+01  4.24944E+01  4.25396E+01  4.25854E+01  4.26313E+01  4.26777E+01
 NY background values follow
    -1.317E+02   -1.308E+02   -1.298E+02   -1.289E+02   -1.279E+02   -1.270E+02   -1.261E+02   -1.251E+02   -1.242E+02   -1.233E+02
    -1.223E+02   -1.214E+02   -1.205E+02   -1.195E+02   -1.186E+02   -1.177E+02   -1.167E+02   -1.158E+02   -1.149E+02   -1.139E+02
    -1.130E+02   -1.121E+02   -1.111E+02   -1.102E+02   -1.093E+02   -1.084E+02   -1.074E+02   -1.065E+02   -1.056E+02   -1.047E+02
    -1.038E+02   -1.029E+02   -1.020E+02   -1.010E+02   -1.001E+02   -9.923E+01   -9.833E+01   -9.743E+01   -9.653E+01   -9.564E+01
    -9.474E+01   -9.385E+01   -9.296E+01   -9.208E+01   -9.120E+01   -9.032E+01   -8.944E+01   -8.856E+01   -8.769E+01   -8.683E+01
    -8.596E+01   -8.510E+01   -8.424E+01   -8.339E+01   -8.253E+01   -8.168E+01   -8.084E+01   -8.000E+01   -7.916E+01   -7.832E+01
    -7.749E+01   -7.667E+01   -7.584E+01   -7.502E+01   -7.420E+01   -7.339E+01   -7.258E+01   -7.178E+01   -7.098E+01   -7.018E+01
    -6.939E+01   -6.860E+01   -6.782E+01   -6.704E+01   -6.626E+01   -6.549E+01   -6.472E+01   -6.396E+01   -6.320E+01   -6.245E+01
    -6.170E+01   -6.096E+01   -6.022E+01   -5.948E+01   -5.875E+01   -5.803E+01   -5.731E+01   -5.659E+01   -5.588E+01   -5.518E+01
    -5.448E+01   -5.378E+01   -5.309E+01   -5.241E+01   -5.173E+01   -5.105E+01   -5.038E+01   -4.972E+01   -4.906E+01   -4.841E+01
    -4.776E+01   -4.711E+01   -4.647E+01   -4.584E+01   -4.521E+01   -4.458E+01   -4.397E+01   -4.335E+01   -4.274E+01   -4.214E+01
    -4.154E+01   -4.094E+01   -4.035E+01   -3.976E+01   -3.918E+01   -3.861E+01   -3.803E+01   -3.747E+01   -3.690E+01   -3.635E+01
    -3.579E+01   -3.525E+01   -3.470E+01   -3.416E+01   -3.363E+01   -3.310E+01   -3.257E+01   -3.205E+01   -3.153E+01   -3.102E+01
    -3.051E+01   -3.001E+01   -2.951E+01   -2.902E+01   -2.853E+01   -2.804E+01   -2.756E+01   -2.708E+01   -2.661E+01   -2.614E+01
    -2.568E+01   -2.522E+01   -2.476E+01   -2.431E+01   -2.386E+01   -2.341E+01   -2.297E+01   -2.254E+01   -2.210E+01   -2.167E+01
    -2.125E+01   -2.083E+01   -2.041E+01   -1.999E+01   -1.958E+01   -1.918E+01   -1.877E+01   -1.837E+01   -1.797E+01   -1.758E+01
    -1.719E+01   -1.680E+01   -1.641E+01   -1.603E+01   -1.565E+01   -1.528E+01   -1.491E+01   -1.454E+01   -1.417E+01   -1.381E+01
    -1.344E+01   -1.309E+01   -1.273E+01   -1.238E+01   -1.203E+01   -1.168E+01   -1.133E+01   -1.099E+01   -1.065E+01   -1.031E+01
    -9.975E+00   -9.641E+00   -9.309E+00   -8.980E+00   -8.653E+00   -8.328E+00   -8.005E+00   -7.685E+00   -7.366E+00   -7.050E+00
    -6.735E+00   -6.423E+00   -6.113E+00   -5.805E+00   -5.499E+00   -5.194E+00   -4.892E+00   -4.592E+00   -4.294E+00   -3.997E+00
    -3.703E+00   -3.410E+00   -3.120E+00   -2.831E+00   -2.544E+00   -2.259E+00   -1.975E+00   -1.694E+00   -1.414E+00   -1.136E+00
    -8.598E-01   -5.852E-01   -3.123E-01   -4.115E-02    2.284E-01    4.963E-01    7.625E-01    1.027E+00    1.290E+00    1.552E+00
     1.812E+00    2.070E+00    2.327E+00    2.582E+00    2.836E+00    3.088E+00    3.339E+00    3.589E+00    3.837E+00    4.084E+00
     4.329E+00    4.573E+00    4.816E+00    5.057E+00    5.297E+00    5.536E+00    5.774E+00    6.010E+00    6.246E+00    6.480E+00
     6.713E+00    6.945E+00    7.177E+00    7.407E+00    7.636E+00    7.864E+00    8.091E+00    8.317E+00    8.542E+00    8.767E+00
     8.991E+00    9.213E+00    9.436E+00    9.657E+00    9.877E+00    1.010E+01    1.032E+01    1.053E+01    1.075E+01    1.097E+01
     1.119E+01    1.140E+01    1.162E+01    1.183E+01    1.205E+01    1.226E+01    1.248E+01    1.269E+01    1.290E+01    1.312E+01
     1.333E+01    1.354E+01    1.375E+01    1.396E+01    1.417E+01    1.439E+01    1.460E+01    1.481E+01    1.502E+01    1.523E+01
     1.544E+01    1.565E+01    1.585E+01    1.606E+01    1.627E+01    1.648E+01    1.669E+01    1.689E+01    1.710E+01    1.731E+01
     1.751E+01    1.772E+01    1.792E+01    1.813E+01    1.833E+01    1.853E+01    1.874E+01    1.894E+01    1.914E+01    1.934E+01
     1.954E+01    1.975E+01    1.995E+01    2.015E+01    2.035E+01    2.054E+01    2.074E+01    2.094E+01    2.114E+01    2.133E+01
     2.153E+01    2.173E+01    2.192E+01    2.212E+01    2.231E+01    2.250E+01    2.270E+01    2.289E+01    2.308E+01    2.327E+01
     2.346E+01    2.365E+01    2.384E+01    2.403E+01    2.421E+01    2.440E+01    2.459E+01    2.477E+01    2.496E+01    2.514E+01
     2.532E+01    2.551E+01    2.569E+01    2.587E+01    2.605E+01    2.623E+01    2.641E+01    2.658E+01    2.676E+01    2.694E+01
     2.711E+01    2.728E+01    2.746E+01    2.763E+01    2.780E+01    2.797E+01    2.814E+01    2.831E+01    2.848E+01    2.864E+01
     2.881E+01    2.897E+01    2.914E+01    2.930E+01    2.946E+01    2.962E+01    2.978E+01    2.994E+01    3.010E+01    3.025E+01
     3.041E+01    3.056E+01    3.071E+01    3.086E+01    3.102E+01    3.116E+01    3.131E+01    3.146E+01    3.161E+01    3.175E+01
     3.189E+01    3.204E+01    3.218E+01    3.232E+01    3.246E+01    3.260E+01    3.274E+01    3.287E+01    3.301E+01    3.314E+01
     3.328E+01    3.341E+01    3.354E+01    3.367E+01    3.380E+01    3.393E+01    3.406E+01    3.418E+01    3.431E+01    3.443E+01
     3.456E+01    3.468E+01    3.480E+01    3.493E+01    3.505E+01    3.517E+01    3.529E+01    3.540E+01    3.552E+01    3.564E+01
     3.575E+01    3.587E+01    3.598E+01    3.609E+01    3.621E+01    3.632E+01    3.643E+01    3.654E+01    3.665E+01    3.676E+01
     3.686E+01    3.697E+01    3.708E+01    3.718E+01    3.729E+01    3.739E+01    3.749E+01    3.759E+01    3.770E+01    3.780E+01
     3.790E+01    3.799E+01    3.809E+01    3.819E+01    3.829E+01    3.838E+01    3.847E+01    3.857E+01    3.866E+01    3.875E+01
     3.884E+01    3.893E+01    3.902E+01    3.911E+01    3.920E+01    3.928E+01    3.937E+01    3.945E+01    3.953E+01    3.962E+01
     3.970E+01    3.978E+01    3.986E+01    3.993E+01    4.001E+01    4.009E+01    4.016E+01    4.024E+01    4.031E+01    4.038E+01
     4.045E+01    4.052E+01    4.059E+01    4.066E+01    4.072E+01    4.079E+01    4.085E+01    4.092E+01    4.098E+01    4.104E+01
     4.110E+01    4.116E+01    4.122E+01    4.128E+01    4.134E+01    4.139E+01    4.145E+01    4.150E+01    4.156E+01    4.161E+01
     4.166E+01    4.172E+01    4.177E+01    4.182E+01    4.187E+01    4.192E+01    4.197E+01    4.202E+01    4.207E+01    4.212E+01
     4.216E+01    4.221E+01    4.226E+01    4.231E+01    4.235E+01    4.240E+01    4.244E+01    4.249E+01    4.254E+01    4.258E+01
     4.263E+01    4.267E+01    4.272E+01    4.276E+01    4.281E+01    4.285E+01    4.290E+01    4.294E+01
 Asp      Conc. = 3.69E+02
