 LCModel (Version 6.3-1L) Copyright: S.W. Provencher.          Ref.: Magn. Reson. Med. 30:672-679 (1993).                
 Slice#1 Row#12 Col#5  PD_05_press_2_raw_act
 36 lines in following concentration table = NCONC+1
    Conc.  %SD /Cr+PCr  Metabolite                                         
    0.000 999%   0.000 Ala                                                 
   10.716  45%   0.196 Asp                                                 
   54.782  36%   1.000 Cr                                                  
    0.000 999%   0.000 PCr                                                 
    6.454  45%   0.118 GABA                                                
    6.587  44%   0.120 Glc                                                 
    0.000 999%   0.000 Gln                                                 
   70.180 100%   1.281 Glu                                                 
   18.678  41%   0.341 GPC                                                 
    0.000 999%   0.000 PCh                                                 
   34.603  73%   0.632 GSH                                                 
  203.215  41%   3.710 Ins                                                 
    0.000 999%   0.000 Lac                                                 
  105.327  24%   1.923 NAA                                                 
    0.000 999%   0.000 NAAG                                                
    2.220  44% 4.1E-02 Scyllo                                              
   10.882  45%   0.199 Tau                                                 
    4.269 141% 7.8E-02 -CrCH2                                              
   18.678  41%   0.341 GPC+PCh                                             
  105.327  24%   1.923 NAA+NAAG                                            
   54.782  36%   1.000 Cr+PCr                                              
   70.180 100%   1.281 Glu+Gln                                             
    0.000 999%   0.000 Lip13a                                              
  262.912  20%   4.799 Lip13b                                              
   58.238  62%   1.063 Lip09                                               
  123.758  48%   2.259 MM09                                                
   38.853  65%   0.709 Lip20                                               
  171.457  58%   3.130 MM20                                                
   21.384 136%   0.390 MM12                                                
    0.000 999%   0.000 MM14                                                
  418.432  12%   7.638+MM17                                                
  262.912  20%   4.799 Lip13a+Lip13b                                       
  284.296  20%   5.190 MM14+Lip13a+Lip13b+MM12                             
  181.996  33%   3.322 MM09+Lip09                                          
  210.310  47%   3.839 MM20+Lip20                                          
   6 lines in following misc. output table
  FWHM = 0.038 ppm    S/N =   1                                            
  Data shift = 0.023 ppm                                                   
  Ph:  24 deg     -17.1 deg/ppm                                            
  alphaB,S = 8.5E+01,   1.3E+01                                            
   14 spline knots.   Ns = 5(1)                                            
   2 inflections.     2 extrema                                            
  498 points on ppm-axis = NY
      4.000000     3.992357     3.984714     3.977070     3.969427     3.961784     3.954141     3.946497     3.938854     3.931211
      3.923568     3.915925     3.908281     3.900638     3.892995     3.885352     3.877708     3.870065     3.862422     3.854779
      3.847136     3.839492     3.831849     3.824206     3.816563     3.808919     3.801276     3.793633     3.785990     3.778347
      3.770703     3.763060     3.755417     3.747774     3.740130     3.732487     3.724844     3.717201     3.709558     3.701914
      3.694271     3.686628     3.678985     3.671341     3.663698     3.656055     3.648412     3.640769     3.633125     3.625482
      3.617839     3.610196     3.602552     3.594909     3.587266     3.579623     3.571980     3.564336     3.556693     3.549050
      3.541407     3.533763     3.526120     3.518477     3.510834     3.503191     3.495547     3.487904     3.480261     3.472618
      3.464974     3.457331     3.449688     3.442045     3.434402     3.426758     3.419115     3.411472     3.403829     3.396185
      3.388542     3.380899     3.373256     3.365613     3.357969     3.350326     3.342683     3.335040     3.327396     3.319753
      3.312110     3.304467     3.296824     3.289180     3.281537     3.273894     3.266251     3.258607     3.250964     3.243321
      3.235678     3.228034     3.220391     3.212748     3.205105     3.197462     3.189818     3.182175     3.174532     3.166889
      3.159245     3.151602     3.143959     3.136316     3.128673     3.121029     3.113386     3.105743     3.098100     3.090456
      3.082813     3.075170     3.067527     3.059884     3.052240     3.044597     3.036954     3.029311     3.021667     3.014024
      3.006381     2.998738     2.991095     2.983451     2.975808     2.968165     2.960522     2.952878     2.945235     2.937592
      2.929949     2.922306     2.914662     2.907019     2.899376     2.891733     2.884089     2.876446     2.868803     2.861160
      2.853517     2.845873     2.838230     2.830587     2.822944     2.815300     2.807657     2.800014     2.792371     2.784728
      2.777084     2.769441     2.761798     2.754155     2.746511     2.738868     2.731225     2.723582     2.715939     2.708295
      2.700652     2.693009     2.685366     2.677722     2.670079     2.662436     2.654793     2.647150     2.639506     2.631863
      2.624220     2.616577     2.608933     2.601290     2.593647     2.586004     2.578361     2.570717     2.563074     2.555431
      2.547788     2.540144     2.532501     2.524858     2.517215     2.509572     2.501928     2.494285     2.486642     2.478999
      2.471355     2.463712     2.456069     2.448426     2.440783     2.433139     2.425496     2.417853     2.410210     2.402566
      2.394923     2.387280     2.379637     2.371994     2.364350     2.356707     2.349064     2.341421     2.333777     2.326134
      2.318491     2.310848     2.303205     2.295561     2.287918     2.280275     2.272632     2.264988     2.257345     2.249702
      2.242059     2.234416     2.226772     2.219129     2.211486     2.203843     2.196199     2.188556     2.180913     2.173270
      2.165627     2.157983     2.150340     2.142697     2.135054     2.127410     2.119767     2.112124     2.104481     2.096838
      2.089194     2.081551     2.073908     2.066265     2.058621     2.050978     2.043335     2.035692     2.028049     2.020405
      2.012762     2.005119     1.997476     1.989833     1.982190     1.974546     1.966903     1.959260     1.951617     1.943974
      1.936331     1.928688     1.921045     1.913402     1.905759     1.898115     1.890472     1.882829     1.875186     1.867543
      1.859900     1.852257     1.844614     1.836971     1.829327     1.821684     1.814041     1.806398     1.798755     1.791112
      1.783469     1.775826     1.768183     1.760540     1.752896     1.745253     1.737610     1.729967     1.722324     1.714681
      1.707038     1.699395     1.691752     1.684108     1.676465     1.668822     1.661179     1.653536     1.645893     1.638250
      1.630607     1.622964     1.615321     1.607677     1.600034     1.592391     1.584748     1.577105     1.569462     1.561819
      1.554176     1.546533     1.538890     1.531246     1.523603     1.515960     1.508317     1.500674     1.493031     1.485388
      1.477745     1.470102     1.462458     1.454815     1.447172     1.439529     1.431886     1.424243     1.416600     1.408957
      1.401314     1.393671     1.386027     1.378384     1.370741     1.363098     1.355455     1.347812     1.340169     1.332526
      1.324883     1.317240     1.309596     1.301953     1.294310     1.286667     1.279024     1.271381     1.263738     1.256095
      1.248452     1.240808     1.233165     1.225522     1.217879     1.210236     1.202593     1.194950     1.187307     1.179664
      1.172021     1.164377     1.156734     1.149091     1.141448     1.133805     1.126162     1.118519     1.110876     1.103233
      1.095590     1.087946     1.080303     1.072660     1.065017     1.057374     1.049731     1.042088     1.034445     1.026802
      1.019158     1.011515     1.003872     0.996229     0.988586     0.980943     0.973300     0.965657     0.958014     0.950371
      0.942727     0.935084     0.927441     0.919798     0.912155     0.904512     0.896869     0.889226     0.881583     0.873940
      0.866296     0.858653     0.851010     0.843367     0.835724     0.828081     0.820438     0.812795     0.805152     0.797508
      0.789865     0.782222     0.774579     0.766936     0.759293     0.751650     0.744007     0.736364     0.728721     0.721077
      0.713434     0.705791     0.698148     0.690505     0.682862     0.675219     0.667576     0.659933     0.652290     0.644646
      0.637003     0.629360     0.621717     0.614074     0.606431     0.598788     0.591145     0.583502     0.575858     0.568215
      0.560572     0.552929     0.545286     0.537643     0.530000     0.522357     0.514714     0.507071     0.499427     0.491784
      0.484141     0.476498     0.468855     0.461212     0.453569     0.445925     0.438282     0.430639     0.422996     0.415353
      0.407710     0.400067     0.392424     0.384780     0.377137     0.369494     0.361851     0.354208     0.346565     0.338922
      0.331278     0.323635     0.315992     0.308349     0.300706     0.293063     0.285420     0.277777     0.270133     0.262490
      0.254847     0.247204     0.239561     0.231918     0.224275     0.216631     0.208988     0.201345
 NY phased data points follow
   3.68039E+00  2.25455E+00  2.16454E+00  1.79283E+00  3.13513E+00  7.77606E-01  2.50126E+00  1.15979E+00  4.13527E+00  1.32171E+00
   5.08879E-01  6.86924E+00  5.10342E+00  3.95999E+00  4.11246E+00  3.02083E+00  3.89796E+00  7.13270E-01  4.85174E-01  2.90743E+00
   1.69480E+00  1.21874E+00  2.64153E+00  3.67007E+00  1.13969E+00  1.60828E-01  1.79782E+00  1.88155E+00  3.76208E+00  4.02232E+00
   3.53792E+00  2.86890E-02  2.50008E+00  3.30779E+00  5.09025E+00 -5.02724E-01  5.36202E+00  1.47668E+00  1.22705E+00  2.33552E+00
   3.78008E+00 -5.55379E-01  2.40847E+00  2.38919E+00  7.14832E-01  1.03478E+00  2.06324E+00  4.02838E+00  3.11006E+00  2.47620E+00
   1.89931E+00  1.32117E+00  1.60058E+00  3.42759E+00  1.78977E+00  1.20044E+00  2.02191E+00  2.73929E+00  3.65576E+00  2.15929E+00
   4.25039E+00  2.30505E+00  2.08597E+00  3.06071E+00 -1.04968E+00  1.63139E-01  2.04578E+00  4.62557E-01  2.02176E+00  3.14819E+00
   2.55057E+00  1.90563E+00  5.16972E+00  8.14735E-01  2.46562E+00  9.66501E-01  1.73719E+00  1.98104E-01  3.60696E+00  2.51510E+00
   2.94172E+00  2.37851E-01  1.06504E+00 -4.49075E-01  6.53572E+00  1.82706E+00  3.40053E+00  1.74666E+00 -1.45117E-02 -7.64396E-01
   4.21461E+00 -2.01026E-01  4.60111E-01  9.47744E-02 -1.30488E-01  6.04384E-01 -9.04395E-01 -7.10400E-01 -1.71249E+00  6.84347E-01
  -1.94826E-01 -4.24461E-01  1.42659E+00  1.71044E+00  2.35525E+00  3.90758E+00  4.83656E+00  1.15353E+00  2.80051E+00  1.93309E+00
   2.35165E+00  2.30556E+00  2.27074E+00  1.96281E+00  4.32185E+00  3.89116E-01  2.65164E+00  1.47550E+00 -5.81953E-01  1.30601E+00
   6.05026E-01 -3.27107E+00  1.22920E+00 -3.15464E+00 -1.81224E+00  4.62518E-01  3.35479E+00  3.55923E+00  2.23081E+00  1.52543E+00
   2.54025E+00  2.21119E+00  2.33336E-01  1.99545E+00  3.07322E+00  2.41105E+00  3.83704E-01  7.47420E-01 -5.18602E-01  5.51988E-01
   3.68936E+00  7.44596E-01  2.00587E+00  4.24789E+00  9.89841E-01 -3.45254E-01  1.43159E+00 -2.88309E-01  1.75787E+00  4.11805E-01
  -2.18333E-01  1.15726E+00 -6.42877E-01  7.84380E-01  2.98209E+00  2.27510E+00  3.08658E+00  9.01808E-01 -5.64634E-01  2.77366E+00
   2.20574E+00 -6.58252E-01  2.05902E-01  1.09622E+00  2.47859E+00  9.42658E-01  2.97760E+00  3.88909E+00  2.71919E+00 -7.99357E-02
   2.39261E+00 -1.55785E+00  2.54164E+00 -3.65464E-01  1.42323E-01  1.33613E+00 -2.30531E+00 -1.11429E+00  3.71155E-01 -6.68988E-01
   1.06055E-01 -4.05550E-01  2.37361E+00  1.18851E-01 -1.00568E+00  7.99842E-01  3.01351E+00  1.89350E-01 -3.56638E-02  1.42149E+00
  -2.48534E+00 -1.37462E+00 -9.07622E-01 -1.51932E+00  1.45184E+00  6.72453E-01 -2.21065E+00 -1.89309E+00 -1.58981E+00 -6.98485E-01
   1.55880E+00  2.13564E+00  1.01651E+00 -2.65664E+00  3.89037E-02 -3.03469E+00  9.60070E-02  2.34109E+00  2.10099E+00 -1.30353E+00
  -1.68599E+00  8.22969E-01  1.80513E+00 -3.95573E-01  1.69164E+00  5.87186E-01 -8.43236E-01  1.05177E+00 -1.07430E+00  5.54141E-01
   5.72302E-01 -6.06447E-01  2.09325E+00 -2.26721E+00 -6.56182E-01 -4.66072E-01  1.08040E+00 -6.22438E-01 -6.44263E-01  1.98395E+00
   1.35476E+00  2.99802E+00  4.41292E-01 -1.69946E+00 -2.04113E-02  3.55633E-01  4.19077E-01 -5.63526E-01  1.59154E+00  1.69500E+00
   1.29835E+00 -7.39292E-01 -1.30690E+00  9.10393E-01  9.34639E-01  6.87451E+00  3.94971E+00  4.13355E+00  1.84031E+00  9.51754E-01
   3.07390E+00  1.38150E+00  4.22061E-01 -4.19629E-01 -4.63309E-01 -1.20802E+00 -2.55476E+00  4.80641E-01 -8.63064E-02  3.72565E+00
   6.28098E+00  4.54029E+00  8.97275E+00  3.27273E+00  3.86661E+00  2.49582E+00  3.26578E+00  1.71582E+00  1.47310E+00 -1.10847E+00
   2.24498E+00  2.33860E+00 -7.18825E-01  2.16319E+00 -1.10596E+00 -1.17801E+00  1.48087E+00  1.33386E+00  1.75113E+00  2.14810E+00
   1.79616E+00  5.63193E-01  5.81622E-01  1.74752E+00  9.43444E-01  5.13588E+00  3.89281E-01  1.86813E+00 -1.37040E+00 -1.66781E+00
   1.86267E+00  2.40584E+00  3.73009E+00  1.54883E+00  2.49083E+00  9.72017E-01  3.33263E-01  2.96759E+00 -1.73926E-01 -5.81624E-01
  -6.70348E-01  1.95752E+00  2.72248E+00  2.47049E+00  4.03901E+00  1.20953E+00  4.05823E+00  4.31554E+00  5.09435E+00  3.29099E+00
   4.96749E+00  3.78892E+00  8.55077E+00  7.25038E+00  1.88113E+00  5.02459E+00  5.49159E+00  6.33489E+00  7.56660E+00  9.14535E+00
   7.45524E+00  7.71222E+00  1.06141E+01  6.73504E+00  5.28291E+00  2.90698E+00  1.58322E+00  2.55347E-02 -1.81993E-01 -3.71745E+00
  -1.89963E+00 -1.64497E+00 -3.24088E-01 -1.90864E+00 -2.55284E+00 -1.04848E+00 -4.29312E+00 -7.66958E+00 -5.97709E+00 -7.65272E+00
  -4.23322E+00 -7.57094E+00 -1.47236E+00 -2.54489E+00 -5.89931E-01 -3.38796E+00  1.25570E+00 -3.17940E-01  1.41340E+00  2.57965E-01
   2.94321E+00  5.51061E+00  6.70786E+00  5.31999E+00  3.53497E+00  4.60451E+00  6.67295E+00  2.96548E+00  2.89180E+00 -1.15069E-02
  -7.59963E-02 -1.78102E+00 -2.15653E-01 -1.22526E+00 -1.04941E+00 -1.76191E+00 -3.57142E-01 -1.40718E+00 -3.11754E+00 -2.75978E+00
  -8.09482E-02  5.62721E-01 -9.18770E-01 -4.50839E-01  1.09630E+00 -2.13853E+00 -2.26785E+00 -5.54639E-01 -1.49424E+00 -1.85534E+00
  -1.13465E+00  6.90502E-01 -2.23303E+00 -2.34932E+00 -3.28946E-01  1.21733E+00  2.48473E+00  1.21480E+00  2.81312E+00  1.95867E+00
   2.19570E+00  1.09122E+00  3.47491E+00  7.33244E-01  1.27552E+00  6.88331E-01 -1.28767E+00 -1.09528E+00  3.22987E+00  1.92819E+00
   6.63891E-01  2.81515E-01 -2.02013E+00 -9.73831E-01  2.71582E+00  1.17833E+00 -1.53561E-01  1.50414E+00  1.64718E+00 -3.93744E-01
  -4.97975E-01 -9.73140E-01  6.06322E-01 -3.18154E+00  1.53539E+00 -1.59660E+00  1.50936E+00  3.14520E+00  1.01809E+00  5.29919E-01
  -8.27056E-01  2.38644E+00 -1.95245E+00  1.84953E+00 -4.75812E-01  1.04337E+00 -1.54362E+00  1.93674E+00 -1.14618E+00 -2.02881E+00
  -7.00428E-01  2.10263E+00 -5.53493E-01  1.27949E+00  1.16567E+00 -6.27812E-01 -1.92336E+00 -3.26171E-01 -7.53927E-01 -4.05079E-01
  -1.32658E+00 -1.06549E+00  1.11890E+00 -9.80857E-01  5.81570E-01 -1.75885E+00 -2.18288E-01  3.91823E-01 -1.27681E+00  5.83515E-01
   2.93307E+00  3.22855E+00  6.21656E-01 -1.64379E-01 -2.19913E-01 -3.31645E-01 -6.82776E-01  1.03665E-02 -2.11203E+00  6.02374E-01
   2.73315E-01  2.59704E+00  2.72722E+00  1.19670E+00 -1.27462E+00  2.95125E-02 -1.54996E+00 -1.00495E+00  8.35683E-01  8.53150E-01
   7.30956E-02 -2.19219E-02  1.32674E+00  6.39797E-01  1.71264E+00 -2.45527E+00  3.95484E-01  8.91115E-01  4.87658E-01 -2.06837E+00
  -1.74932E+00  5.33613E-01  2.35723E+00 -1.13076E-01  1.10469E-01  3.22791E-03  9.49316E-01 -3.92998E-01  2.36944E+00 -2.31846E-01
  -2.33586E+00 -1.55935E+00  1.36459E+00  2.07644E+00  5.65382E-01  5.08014E-01 -2.80704E+00  1.98606E-01
 NY points of the fit to the data follow
   1.96838E+00  1.78552E+00  1.63836E+00  1.56733E+00  1.55257E+00  1.52400E+00  1.33477E+00  1.11898E+00  1.20244E+00  1.67864E+00
   2.37720E+00  2.97720E+00  3.25546E+00  3.20527E+00  2.94956E+00  2.62004E+00  2.26317E+00  1.90179E+00  1.67080E+00  1.60131E+00
   1.58485E+00  1.56720E+00  1.53519E+00  1.51556E+00  1.46230E+00  1.28642E+00  1.17418E+00  1.29733E+00  1.65763E+00  2.11797E+00
   2.49935E+00  2.70616E+00  2.71169E+00  2.57769E+00  2.42686E+00  2.26104E+00  2.09008E+00  1.96852E+00  1.81457E+00  1.61558E+00
   1.43391E+00  1.26324E+00  1.01086E+00  7.69184E-01  8.86933E-01  1.55172E+00  2.52971E+00  3.39575E+00  3.80395E+00  3.67770E+00
   3.17771E+00  2.52333E+00  1.88288E+00  1.36318E+00  1.03093E+00  9.09499E-01  9.55135E-01  1.13798E+00  1.46710E+00  1.86045E+00
   2.18324E+00  2.32052E+00  2.22818E+00  1.98156E+00  1.67306E+00  1.40360E+00  1.24798E+00  1.19471E+00  1.24634E+00  1.39413E+00
   1.58233E+00  1.75078E+00  1.85876E+00  1.89790E+00  1.88795E+00  1.84373E+00  1.78078E+00  1.69089E+00  1.58845E+00  1.51318E+00
   1.46181E+00  1.42906E+00  1.45271E+00  1.53010E+00  1.58215E+00  1.51278E+00  1.29679E+00  9.95313E-01  7.14236E-01  5.39910E-01
   5.08829E-01  5.85679E-01  7.48814E-01  9.78046E-01  1.19397E+00  1.32827E+00  1.34208E+00  1.20779E+00  8.10183E-01  4.08295E-01
   4.94920E-01  1.17583E+00  2.18424E+00  3.06467E+00  3.49087E+00  3.42533E+00  3.03135E+00  2.50838E+00  1.96682E+00  1.46260E+00
   1.16958E+00  1.09038E+00  1.06735E+00  1.06086E+00  1.05813E+00  1.06051E+00  1.05841E+00  1.04437E+00  1.02004E+00  9.88169E-01
   9.46579E-01  8.47463E-01  5.44363E-01  3.50222E-01  6.89449E-01  1.57934E+00  2.68307E+00  3.51979E+00  3.81664E+00  3.62890E+00
   3.20466E+00  2.74315E+00  2.28407E+00  1.81879E+00  1.47742E+00  1.22547E+00  9.83551E-01  7.99039E-01  7.29386E-01  7.71080E-01
   8.91117E-01  1.03322E+00  1.13527E+00  1.18305E+00  1.18279E+00  1.14667E+00  1.09768E+00  1.04837E+00  1.00661E+00  9.76644E-01
   9.48998E-01  9.17627E-01  8.83643E-01  8.54858E-01  8.36813E-01  8.35103E-01  8.57179E-01  8.77602E-01  8.63392E-01  8.05242E-01
   7.17122E-01  6.51980E-01  6.42465E-01  6.80452E-01  7.33808E-01  7.69354E-01  7.77722E-01  7.64696E-01  7.32517E-01  6.94650E-01
   6.65061E-01  6.52733E-01  6.49982E-01  6.11561E-01  5.38724E-01  4.69898E-01  4.49206E-01  4.72757E-01  4.97226E-01  4.95782E-01
   4.79503E-01  4.72777E-01  4.88344E-01  4.86912E-01  4.30424E-01  3.46623E-01  2.85009E-01  2.99224E-01  4.06808E-01  5.78773E-01
   7.60988E-01  8.99116E-01  9.67887E-01  9.79283E-01  9.11238E-01  7.81274E-01  6.41666E-01  5.38712E-01  4.93694E-01  4.90519E-01
   5.23970E-01  5.92512E-01  6.97810E-01  8.18653E-01  9.12085E-01  9.56087E-01  9.54045E-01  9.14078E-01  8.46992E-01  7.35864E-01
   5.82398E-01  4.10575E-01  3.29560E-01  4.29238E-01  6.76037E-01  9.64090E-01  1.18422E+00  1.28113E+00  1.23422E+00  1.01256E+00
   6.42640E-01  2.59818E-01  4.61553E-03 -2.38205E-02  1.34288E-01  3.83809E-01  6.62041E-01  9.02027E-01  1.03108E+00  1.01629E+00
   8.94094E-01  7.60876E-01  6.86526E-01  6.97938E-01  8.22227E-01  1.02913E+00  1.23851E+00  1.35981E+00  1.34783E+00  1.20781E+00
   9.91043E-01  7.70912E-01  6.32385E-01  6.19138E-01  7.36519E-01  9.45041E-01  1.16505E+00  1.32713E+00  1.38954E+00  1.36038E+00
   1.26654E+00  1.15995E+00  1.08873E+00  1.06777E+00  1.00840E+00  6.03123E-01  4.61205E-02  2.90987E-01  1.64168E+00  3.65515E+00
   5.45388E+00  6.34265E+00  6.21175E+00  5.36713E+00  4.23299E+00  3.06734E+00  1.96849E+00  1.22526E+00  9.57875E-01  8.24767E-01
   7.25479E-01  6.57439E-01  6.18755E-01  6.01691E-01  6.01366E-01  6.07054E-01  6.09076E-01  5.99563E-01  5.76961E-01  5.42514E-01
   5.01980E-01  4.62813E-01  4.29071E-01  4.03437E-01  3.86624E-01  3.76413E-01  3.70884E-01  3.68634E-01  3.67942E-01  3.69749E-01
   3.75074E-01  3.84791E-01  4.00738E-01  4.25443E-01  4.61169E-01  5.09932E-01  5.74192E-01  6.56525E-01  7.58734E-01  8.82321E-01
   1.02873E+00  1.19836E+00  1.39072E+00  1.60410E+00  1.83541E+00  2.08026E+00  2.33303E+00  2.58700E+00  2.83449E+00  3.06717E+00
   3.27656E+00  3.45452E+00  3.59367E+00  3.68806E+00  3.73344E+00  3.72759E+00  3.67048E+00  3.56426E+00  3.41315E+00  3.22316E+00
   3.00162E+00  2.75668E+00  2.49687E+00  2.23060E+00  1.96574E+00  1.70917E+00  1.46661E+00  1.24236E+00  1.03941E+00  8.59408E-01
   7.02884E-01  5.69359E-01  4.57586E-01  3.65798E-01  2.91976E-01  2.34122E-01  1.90514E-01  1.59987E-01  1.42283E-01  1.38479E-01
   1.51441E-01  1.86206E-01  2.50140E-01  3.52691E-01  5.04516E-01  7.15816E-01  9.93846E-01  1.33989E+00  1.74630E+00  2.19450E+00
   2.65485E+00  3.08896E+00  3.45452E+00  3.71185E+00  3.83088E+00  3.79689E+00  3.61341E+00  3.30164E+00  2.89630E+00  2.43928E+00
   1.97249E+00  1.53174E+00  1.14276E+00  8.19773E-01  5.66405E-01  3.78153E-01  2.45478E-01  1.56766E-01  1.00591E-01  6.71032E-02
   4.86024E-02  3.95533E-02  3.62789E-02  3.65454E-02  3.91380E-02  4.35048E-02  4.94812E-02  5.71224E-02  6.66104E-02  7.82136E-02
   9.22485E-02  1.09049E-01  1.28936E-01  1.52213E-01  1.79171E-01  2.10074E-01  2.45142E-01  2.84505E-01  3.28178E-01  3.76049E-01
   4.27868E-01  4.83230E-01  5.41548E-01  6.02030E-01  6.63686E-01  7.25360E-01  7.85756E-01  8.43482E-01  8.97078E-01  9.45071E-01
   9.86042E-01  1.01871E+00  1.04202E+00  1.05512E+00  1.05749E+00  1.04888E+00  1.02940E+00  9.99476E-01  9.59865E-01  9.11567E-01
   8.55780E-01  7.93848E-01  7.27200E-01  6.57299E-01  5.85571E-01  5.13344E-01  4.41797E-01  3.71947E-01  3.04642E-01  2.40552E-01
   1.80163E-01  1.23780E-01  7.15461E-02  2.34821E-02 -2.04886E-02 -6.05174E-02 -9.68249E-02 -1.29682E-01 -1.59386E-01 -1.86230E-01
  -2.10498E-01 -2.32457E-01 -2.52371E-01 -2.70490E-01 -2.87040E-01 -3.02213E-01 -3.16172E-01 -3.29063E-01 -3.41028E-01 -3.52190E-01
  -3.62655E-01 -3.72500E-01 -3.81792E-01 -3.90594E-01 -3.98972E-01 -4.06981E-01 -4.14663E-01 -4.22043E-01 -4.29146E-01 -4.36005E-01
  -4.42653E-01 -4.49116E-01 -4.55408E-01 -4.61535E-01 -4.67508E-01 -4.73347E-01 -4.79073E-01 -4.84695E-01 -4.90216E-01 -4.95635E-01
  -5.00962E-01 -5.06214E-01 -5.11403E-01 -5.16530E-01 -5.21589E-01 -5.26580E-01 -5.31515E-01 -5.36407E-01 -5.41260E-01 -5.46071E-01
  -5.50833E-01 -5.55549E-01 -5.60231E-01 -5.64887E-01 -5.69518E-01 -5.74114E-01 -5.78673E-01 -5.83200E-01 -5.87707E-01 -5.92200E-01
  -5.96672E-01 -6.01115E-01 -6.05528E-01 -6.09921E-01 -6.14304E-01 -6.18675E-01 -6.23027E-01 -6.27351E-01 -6.31653E-01 -6.35942E-01
  -6.40225E-01 -6.44497E-01 -6.48747E-01 -6.52972E-01 -6.57179E-01 -6.61377E-01 -6.65570E-01 -6.69746E-01
 NY background values follow
     1.371E+00    1.367E+00    1.363E+00    1.359E+00    1.355E+00    1.351E+00    1.347E+00    1.343E+00    1.339E+00    1.335E+00
     1.331E+00    1.327E+00    1.323E+00    1.319E+00    1.315E+00    1.311E+00    1.307E+00    1.303E+00    1.299E+00    1.295E+00
     1.291E+00    1.287E+00    1.282E+00    1.278E+00    1.274E+00    1.270E+00    1.266E+00    1.262E+00    1.258E+00    1.254E+00
     1.250E+00    1.246E+00    1.242E+00    1.238E+00    1.234E+00    1.230E+00    1.226E+00    1.222E+00    1.218E+00    1.214E+00
     1.210E+00    1.206E+00    1.201E+00    1.197E+00    1.193E+00    1.189E+00    1.185E+00    1.181E+00    1.177E+00    1.173E+00
     1.169E+00    1.165E+00    1.161E+00    1.157E+00    1.153E+00    1.149E+00    1.145E+00    1.141E+00    1.137E+00    1.133E+00
     1.128E+00    1.124E+00    1.120E+00    1.116E+00    1.112E+00    1.108E+00    1.104E+00    1.100E+00    1.096E+00    1.092E+00
     1.088E+00    1.084E+00    1.080E+00    1.076E+00    1.072E+00    1.068E+00    1.063E+00    1.059E+00    1.055E+00    1.051E+00
     1.047E+00    1.043E+00    1.039E+00    1.035E+00    1.031E+00    1.027E+00    1.023E+00    1.019E+00    1.015E+00    1.011E+00
     1.007E+00    1.003E+00    9.984E-01    9.944E-01    9.903E-01    9.862E-01    9.822E-01    9.781E-01    9.740E-01    9.700E-01
     9.659E-01    9.618E-01    9.578E-01    9.537E-01    9.496E-01    9.456E-01    9.415E-01    9.374E-01    9.333E-01    9.293E-01
     9.252E-01    9.211E-01    9.171E-01    9.130E-01    9.089E-01    9.048E-01    9.008E-01    8.967E-01    8.926E-01    8.885E-01
     8.845E-01    8.804E-01    8.763E-01    8.723E-01    8.682E-01    8.641E-01    8.600E-01    8.560E-01    8.519E-01    8.478E-01
     8.437E-01    8.397E-01    8.356E-01    8.315E-01    8.274E-01    8.234E-01    8.193E-01    8.152E-01    8.111E-01    8.070E-01
     8.030E-01    7.989E-01    7.948E-01    7.907E-01    7.867E-01    7.826E-01    7.785E-01    7.744E-01    7.703E-01    7.663E-01
     7.622E-01    7.581E-01    7.540E-01    7.499E-01    7.459E-01    7.418E-01    7.377E-01    7.336E-01    7.295E-01    7.255E-01
     7.214E-01    7.173E-01    7.132E-01    7.091E-01    7.051E-01    7.010E-01    6.969E-01    6.928E-01    6.887E-01    6.847E-01
     6.806E-01    6.765E-01    6.724E-01    6.683E-01    6.642E-01    6.602E-01    6.561E-01    6.520E-01    6.479E-01    6.438E-01
     6.397E-01    6.357E-01    6.316E-01    6.275E-01    6.234E-01    6.193E-01    6.152E-01    6.112E-01    6.071E-01    6.030E-01
     5.989E-01    5.948E-01    5.907E-01    5.866E-01    5.826E-01    5.785E-01    5.744E-01    5.703E-01    5.662E-01    5.621E-01
     5.580E-01    5.540E-01    5.499E-01    5.458E-01    5.417E-01    5.376E-01    5.335E-01    5.294E-01    5.254E-01    5.213E-01
     5.172E-01    5.131E-01    5.090E-01    5.049E-01    5.008E-01    4.967E-01    4.927E-01    4.886E-01    4.845E-01    4.804E-01
     4.763E-01    4.722E-01    4.681E-01    4.640E-01    4.600E-01    4.559E-01    4.518E-01    4.477E-01    4.436E-01    4.395E-01
     4.354E-01    4.313E-01    4.273E-01    4.232E-01    4.191E-01    4.150E-01    4.109E-01    4.068E-01    4.027E-01    3.986E-01
     3.945E-01    3.905E-01    3.864E-01    3.823E-01    3.782E-01    3.741E-01    3.700E-01    3.659E-01    3.618E-01    3.577E-01
     3.537E-01    3.496E-01    3.455E-01    3.414E-01    3.373E-01    3.332E-01    3.291E-01    3.250E-01    3.209E-01    3.168E-01
     3.128E-01    3.087E-01    3.046E-01    3.005E-01    2.964E-01    2.923E-01    2.882E-01    2.841E-01    2.800E-01    2.759E-01
     2.719E-01    2.678E-01    2.637E-01    2.596E-01    2.555E-01    2.514E-01    2.473E-01    2.432E-01    2.391E-01    2.350E-01
     2.310E-01    2.269E-01    2.228E-01    2.187E-01    2.146E-01    2.105E-01    2.064E-01    2.023E-01    1.982E-01    1.941E-01
     1.901E-01    1.860E-01    1.819E-01    1.778E-01    1.737E-01    1.696E-01    1.655E-01    1.614E-01    1.573E-01    1.532E-01
     1.492E-01    1.451E-01    1.410E-01    1.369E-01    1.328E-01    1.287E-01    1.246E-01    1.205E-01    1.164E-01    1.124E-01
     1.083E-01    1.042E-01    1.001E-01    9.600E-02    9.191E-02    8.782E-02    8.373E-02    7.964E-02    7.555E-02    7.146E-02
     6.737E-02    6.328E-02    5.919E-02    5.510E-02    5.102E-02    4.693E-02    4.284E-02    3.875E-02    3.466E-02    3.057E-02
     2.648E-02    2.240E-02    1.831E-02    1.422E-02    1.013E-02    6.042E-03    1.954E-03   -2.134E-03   -6.222E-03   -1.031E-02
    -1.440E-02   -1.849E-02   -2.257E-02   -2.666E-02   -3.075E-02   -3.484E-02   -3.892E-02   -4.301E-02   -4.710E-02   -5.118E-02
    -5.527E-02   -5.936E-02   -6.345E-02   -6.753E-02   -7.162E-02   -7.571E-02   -7.979E-02   -8.388E-02   -8.796E-02   -9.205E-02
    -9.614E-02   -1.002E-01   -1.043E-01   -1.084E-01   -1.125E-01   -1.166E-01   -1.207E-01   -1.247E-01   -1.288E-01   -1.329E-01
    -1.370E-01   -1.411E-01   -1.452E-01   -1.492E-01   -1.533E-01   -1.574E-01   -1.615E-01   -1.656E-01   -1.697E-01   -1.738E-01
    -1.778E-01   -1.819E-01   -1.860E-01   -1.901E-01   -1.942E-01   -1.983E-01   -2.023E-01   -2.064E-01   -2.105E-01   -2.146E-01
    -2.187E-01   -2.227E-01   -2.268E-01   -2.309E-01   -2.350E-01   -2.391E-01   -2.432E-01   -2.472E-01   -2.513E-01   -2.554E-01
    -2.595E-01   -2.636E-01   -2.676E-01   -2.717E-01   -2.758E-01   -2.799E-01   -2.840E-01   -2.880E-01   -2.921E-01   -2.962E-01
    -3.003E-01   -3.044E-01   -3.084E-01   -3.125E-01   -3.166E-01   -3.207E-01   -3.248E-01   -3.288E-01   -3.329E-01   -3.370E-01
    -3.411E-01   -3.451E-01   -3.492E-01   -3.533E-01   -3.574E-01   -3.615E-01   -3.655E-01   -3.696E-01   -3.737E-01   -3.778E-01
    -3.818E-01   -3.859E-01   -3.900E-01   -3.941E-01   -3.981E-01   -4.022E-01   -4.063E-01   -4.104E-01   -4.144E-01   -4.185E-01
    -4.226E-01   -4.267E-01   -4.307E-01   -4.348E-01   -4.389E-01   -4.430E-01   -4.470E-01   -4.511E-01   -4.552E-01   -4.592E-01
    -4.633E-01   -4.674E-01   -4.715E-01   -4.755E-01   -4.796E-01   -4.837E-01   -4.877E-01   -4.918E-01   -4.959E-01   -5.000E-01
    -5.040E-01   -5.081E-01   -5.122E-01   -5.162E-01   -5.203E-01   -5.244E-01   -5.284E-01   -5.325E-01   -5.366E-01   -5.406E-01
    -5.447E-01   -5.488E-01   -5.528E-01   -5.569E-01   -5.610E-01   -5.650E-01   -5.691E-01   -5.732E-01   -5.772E-01   -5.813E-01
    -5.854E-01   -5.894E-01   -5.935E-01   -5.976E-01   -6.016E-01   -6.057E-01   -6.098E-01   -6.138E-01   -6.179E-01   -6.219E-01
    -6.260E-01   -6.301E-01   -6.341E-01   -6.382E-01   -6.423E-01   -6.463E-01   -6.504E-01   -6.544E-01
 Asp      Conc. = 1.07E+01
