 LCModel (Version 6.3-1L) Copyright: S.W. Provencher.          Ref.: Magn. Reson. Med. 30:672-679 (1993).                
 Slice#3 Row#2 Col#2  PD_05_press_2_raw_act
 36 lines in following concentration table = NCONC+1
    Conc.  %SD /Cr+PCr  Metabolite                                         
    0.000 999%   0.000 Ala                                                 
   27.957  74%   0.602 Asp                                                 
   46.471 135%   1.000 Cr                                                  
    0.000 999%   0.000 PCr                                                 
   16.262  76%   0.350 GABA                                                
   16.376  75%   0.352 Glc                                                 
  506.300  60%  10.895 Gln                                                 
    1.653 999% 3.6E-02 Glu                                                 
   92.414  29%   1.989 GPC                                                 
    0.000 999%   0.000 PCh                                                 
  142.542  70%   3.067 GSH                                                 
  468.384  64%  10.079 Ins                                                 
    0.000 999%   0.000 Lac                                                 
  223.353  37%   4.806 NAA                                                 
    0.000 999%   0.000 NAAG                                                
    5.984  69%   0.129 Scyllo                                              
   28.441  72%   0.612 Tau                                                 
    0.000 999%   0.000 -CrCH2                                              
   92.414  29%   1.989 GPC+PCh                                             
  223.353  37%   4.806 NAA+NAAG                                            
   46.471 135%   1.000 Cr+PCr                                              
  507.953  87%  10.931 Glu+Gln                                             
    0.000 999%   0.000 Lip13a                                              
  554.932  34%  11.941 Lip13b                                              
  146.804  39%   3.159 Lip09                                               
  949.089  21%  20.423 MM09                                                
   83.085  41%   1.788 Lip20                                               
 1.24E+03  31%  26.699 MM20                                                
  217.402  70%   4.678 MM12                                                
 2.31E+03  16%  49.625 MM14                                                
  574.643  49%  12.366 MM17                                                
  554.932  34%  11.941 Lip13a+Lip13b                                       
 3.08E+03  11%  66.244 MM14+Lip13a+Lip13b+MM12                             
 1.10E+03  18%  23.582 MM09+Lip09                                          
 1.32E+03  29%  28.487 MM20+Lip20                                          
   6 lines in following misc. output table
  FWHM = 0.054 ppm    S/N =   1                                            
  Data shift =-0.023 ppm                                                   
  Ph:   8 deg       3.4 deg/ppm                                            
  alphaB,S = 8.5E+01,   2.6E+01                                            
   14 spline knots.   Ns = 5(1)                                            
   2 inflections.     1 extrema                                            
  498 points on ppm-axis = NY
      4.000000     3.992357     3.984714     3.977070     3.969427     3.961784     3.954141     3.946497     3.938854     3.931211
      3.923568     3.915925     3.908281     3.900638     3.892995     3.885352     3.877708     3.870065     3.862422     3.854779
      3.847136     3.839492     3.831849     3.824206     3.816563     3.808919     3.801276     3.793633     3.785990     3.778347
      3.770703     3.763060     3.755417     3.747774     3.740130     3.732487     3.724844     3.717201     3.709558     3.701914
      3.694271     3.686628     3.678985     3.671341     3.663698     3.656055     3.648412     3.640769     3.633125     3.625482
      3.617839     3.610196     3.602552     3.594909     3.587266     3.579623     3.571980     3.564336     3.556693     3.549050
      3.541407     3.533763     3.526120     3.518477     3.510834     3.503191     3.495547     3.487904     3.480261     3.472618
      3.464974     3.457331     3.449688     3.442045     3.434402     3.426758     3.419115     3.411472     3.403829     3.396185
      3.388542     3.380899     3.373256     3.365613     3.357969     3.350326     3.342683     3.335040     3.327396     3.319753
      3.312110     3.304467     3.296824     3.289180     3.281537     3.273894     3.266251     3.258607     3.250964     3.243321
      3.235678     3.228034     3.220391     3.212748     3.205105     3.197462     3.189818     3.182175     3.174532     3.166889
      3.159245     3.151602     3.143959     3.136316     3.128673     3.121029     3.113386     3.105743     3.098100     3.090456
      3.082813     3.075170     3.067527     3.059884     3.052240     3.044597     3.036954     3.029311     3.021667     3.014024
      3.006381     2.998738     2.991095     2.983451     2.975808     2.968165     2.960522     2.952878     2.945235     2.937592
      2.929949     2.922306     2.914662     2.907019     2.899376     2.891733     2.884089     2.876446     2.868803     2.861160
      2.853517     2.845873     2.838230     2.830587     2.822944     2.815300     2.807657     2.800014     2.792371     2.784728
      2.777084     2.769441     2.761798     2.754155     2.746511     2.738868     2.731225     2.723582     2.715939     2.708295
      2.700652     2.693009     2.685366     2.677722     2.670079     2.662436     2.654793     2.647150     2.639506     2.631863
      2.624220     2.616577     2.608933     2.601290     2.593647     2.586004     2.578361     2.570717     2.563074     2.555431
      2.547788     2.540144     2.532501     2.524858     2.517215     2.509572     2.501928     2.494285     2.486642     2.478999
      2.471355     2.463712     2.456069     2.448426     2.440783     2.433139     2.425496     2.417853     2.410210     2.402566
      2.394923     2.387280     2.379637     2.371994     2.364350     2.356707     2.349064     2.341421     2.333777     2.326134
      2.318491     2.310848     2.303205     2.295561     2.287918     2.280275     2.272632     2.264988     2.257345     2.249702
      2.242059     2.234416     2.226772     2.219129     2.211486     2.203843     2.196199     2.188556     2.180913     2.173270
      2.165627     2.157983     2.150340     2.142697     2.135054     2.127410     2.119767     2.112124     2.104481     2.096838
      2.089194     2.081551     2.073908     2.066265     2.058621     2.050978     2.043335     2.035692     2.028049     2.020405
      2.012762     2.005119     1.997476     1.989833     1.982190     1.974546     1.966903     1.959260     1.951617     1.943974
      1.936331     1.928688     1.921045     1.913402     1.905759     1.898115     1.890472     1.882829     1.875186     1.867543
      1.859900     1.852257     1.844614     1.836971     1.829327     1.821684     1.814041     1.806398     1.798755     1.791112
      1.783469     1.775826     1.768183     1.760540     1.752896     1.745253     1.737610     1.729967     1.722324     1.714681
      1.707038     1.699395     1.691752     1.684108     1.676465     1.668822     1.661179     1.653536     1.645893     1.638250
      1.630607     1.622964     1.615321     1.607677     1.600034     1.592391     1.584748     1.577105     1.569462     1.561819
      1.554176     1.546533     1.538890     1.531246     1.523603     1.515960     1.508317     1.500674     1.493031     1.485388
      1.477745     1.470102     1.462458     1.454815     1.447172     1.439529     1.431886     1.424243     1.416600     1.408957
      1.401314     1.393671     1.386027     1.378384     1.370741     1.363098     1.355455     1.347812     1.340169     1.332526
      1.324883     1.317240     1.309596     1.301953     1.294310     1.286667     1.279024     1.271381     1.263738     1.256095
      1.248452     1.240808     1.233165     1.225522     1.217879     1.210236     1.202593     1.194950     1.187307     1.179664
      1.172021     1.164377     1.156734     1.149091     1.141448     1.133805     1.126162     1.118519     1.110876     1.103233
      1.095590     1.087946     1.080303     1.072660     1.065017     1.057374     1.049731     1.042088     1.034445     1.026802
      1.019158     1.011515     1.003872     0.996229     0.988586     0.980943     0.973300     0.965657     0.958014     0.950371
      0.942727     0.935084     0.927441     0.919798     0.912155     0.904512     0.896869     0.889226     0.881583     0.873940
      0.866296     0.858653     0.851010     0.843367     0.835724     0.828081     0.820438     0.812795     0.805152     0.797508
      0.789865     0.782222     0.774579     0.766936     0.759293     0.751650     0.744007     0.736364     0.728721     0.721077
      0.713434     0.705791     0.698148     0.690505     0.682862     0.675219     0.667576     0.659933     0.652290     0.644646
      0.637003     0.629360     0.621717     0.614074     0.606431     0.598788     0.591145     0.583502     0.575858     0.568215
      0.560572     0.552929     0.545286     0.537643     0.530000     0.522357     0.514714     0.507071     0.499427     0.491784
      0.484141     0.476498     0.468855     0.461212     0.453569     0.445925     0.438282     0.430639     0.422996     0.415353
      0.407710     0.400067     0.392424     0.384780     0.377137     0.369494     0.361851     0.354208     0.346565     0.338922
      0.331278     0.323635     0.315992     0.308349     0.300706     0.293063     0.285420     0.277777     0.270133     0.262490
      0.254847     0.247204     0.239561     0.231918     0.224275     0.216631     0.208988     0.201345
 NY phased data points follow
  -1.13404E+01  4.91696E+00  2.27752E+00  1.13774E+01 -4.08178E+00  2.22712E-02 -7.42108E+00  9.75028E+00  1.56972E+01  8.51431E+00
   6.04271E+00  7.99093E+00 -7.95093E-01  1.53706E+01  8.26765E+00  8.28579E+00 -1.25285E+01 -4.19900E-01  9.21359E+00  1.53883E+01
   8.45605E+00 -3.45868E+00  4.39180E+00 -2.38113E+00  3.20543E+00  5.28502E+00 -4.84008E+00  4.37721E+00  1.39629E+01  9.10268E+00
   8.43334E+00  9.48564E+00  8.02096E-02  8.57765E+00  2.24730E+00  6.60373E+00  5.88297E+00 -7.57108E+00  6.20743E+00 -1.58181E+00
   7.14917E+00  2.75056E-01 -3.90247E+00  3.90189E+00  2.58217E+00  7.35245E+00  1.52605E+01 -3.08698E+00  1.40465E-01  1.78270E+00
   3.97064E-01  4.65116E+00 -5.01124E+00  3.24908E+00  8.92521E+00  2.20058E+00 -9.49150E+00  9.15482E+00 -2.07109E+00  5.76974E+00
  -3.19175E+00  6.16985E+00  1.94541E+00  9.42364E+00  1.67024E+00  7.14444E+00 -4.56075E-01  1.54435E+00  1.20024E+01 -2.97150E+00
  -1.35412E+00  9.58031E+00  1.21377E+01  5.67522E+00 -6.05503E-01  4.08923E+00 -2.42330E+00  1.44758E+00  1.30992E-01 -7.44615E-01
  -6.03475E+00  3.44116E+00  9.11366E+00  8.85284E+00  2.60683E+00 -4.20673E+00  1.55215E+00  7.85755E-01  6.40457E+00  9.21692E+00
   8.52831E-01  4.91168E+00  4.51226E+00  3.68116E+00  2.21699E+00 -2.53512E+00 -1.60214E+00  7.47111E+00  8.38852E-01 -4.68411E-01
   1.84738E+00  1.23431E+01  1.41926E+01  1.33097E+01  4.93221E+00  7.35487E+00  4.05966E+00  3.18856E+00 -3.66781E-01  4.42268E+00
   7.69867E+00 -8.33734E+00  1.36477E+00  3.36174E+00 -1.53965E+00 -6.57290E-01  1.37523E+00  1.68687E-01  1.92473E+00  2.23807E+00
   4.63754E+00  3.04198E+00  1.16460E+00  5.86807E-01  1.10138E+01  1.00413E+00 -6.46473E+00  2.73449E+00  3.33312E+00  4.21446E+00
  -1.37901E+01 -6.89279E+00 -2.51618E+00 -2.07300E+00  6.22490E+00 -9.53282E+00  5.99077E+00 -8.10292E+00  2.12598E+00 -9.66869E+00
   6.38732E+00  6.49502E+00 -7.77648E-01  3.76929E+00 -4.82843E+00 -9.01080E+00 -1.63332E+00  1.43254E+00 -4.89942E-01  5.69050E+00
  -2.41739E+00 -1.30286E+00  1.28289E+00  5.90799E+00  8.18806E+00  3.17032E+00 -4.59273E-01 -2.12602E+00  2.29689E+00  1.33855E+00
   1.18458E+00 -4.15295E+00 -8.34342E-02 -1.03084E+01 -2.43767E+00  7.50870E+00 -1.01120E+01  1.70647E+00 -2.72393E-01  5.07573E+00
   5.10533E+00  1.23047E+00  2.38875E+00  2.26670E+00  3.16515E+00  7.59897E+00  1.80801E+00  1.87084E+00  7.04103E+00  4.19585E+00
  -7.41189E+00  8.76137E+00  6.90307E+00 -2.61621E+00 -4.71409E+00 -7.20149E+00  7.38465E-01 -7.86486E+00 -7.67379E+00 -3.61019E+00
  -8.28621E+00 -1.00223E+01 -7.07863E+00  5.45382E+00 -5.24900E+00 -1.06949E+01 -3.22044E+00  5.02769E+00  8.33225E+00 -4.04232E+00
  -4.65222E+00 -6.61636E+00  5.66484E+00 -5.51327E+00  2.32379E+00  4.19649E+00 -3.75138E+00  2.26752E+00 -2.91209E-01  4.49907E-01
   2.62968E+00 -1.55203E+00 -9.31622E+00 -8.21110E+00 -1.29783E+00  8.35751E-02  5.41947E+00  2.86456E+00  1.84037E+00 -9.47049E-02
  -2.86613E+00  6.52137E+00 -2.10025E+00  1.01582E+01 -1.27848E+00 -5.41219E+00  9.82324E+00 -4.47308E-01  9.72014E-01  1.52626E+00
   8.92337E+00  1.14372E-01  2.49749E+00  5.49753E+00  3.81228E+00  8.31478E+00  1.25016E+01  3.34484E+00  1.43891E+01  1.16748E+01
   8.07674E+00 -5.79766E-01  2.13196E-01 -4.90512E-01 -3.08455E+00  3.18987E+00  4.85376E+00  5.03904E+00  1.07961E+00 -6.47601E+00
   1.05698E+01  1.25704E+01 -5.17838E-01 -2.47943E+00  1.65366E+00  2.32240E+00  2.17573E+01  2.12823E+00  1.47633E+01  9.96612E+00
   5.37495E+00  1.45414E+01  2.06947E+01  5.87296E+00 -1.05765E+00  6.75254E+00  9.29347E+00  1.10536E+01  7.24860E+00 -7.77950E-01
   3.98592E+00  5.96741E+00 -4.75261E-01  9.32350E+00  8.22908E-01  1.33624E+01  5.22958E+00 -3.87545E-01  8.71430E+00 -2.10494E+00
  -1.81401E+00  8.28882E+00  7.03204E-01  9.59256E+00  7.16419E+00  6.67154E+00  6.21404E+00  2.38594E+00  2.80789E+00  4.71099E+00
   3.47724E-01  8.59451E+00  3.59398E+00 -3.90791E+00  6.28185E-01  2.40374E+00  2.21638E+00  8.73989E+00  7.04899E+00  3.82673E+00
  -3.32851E+00 -2.10756E+00  2.66508E+00  2.06619E+00  1.23044E+00  2.29094E+00 -5.52027E-01  8.13593E+00  2.57798E+00  7.56020E+00
   5.71002E+00  3.86195E+00  5.52417E+00  7.50651E+00  3.50942E+00  1.37695E+00  3.39281E+00  1.47146E+01 -3.06410E-01  8.66799E+00
   7.46982E+00  1.62937E+00  7.32911E+00 -3.04808E+00  1.71845E+00  8.19303E+00  1.07747E+01  1.08932E+01  1.14730E+01  6.59406E+00
   1.78897E+01  1.19143E+01  1.18950E+01  2.11223E+01  1.55211E+01  1.62213E+01  1.54396E+01  2.41889E+01  1.15596E+01  1.80925E+01
   1.45358E+01  2.48765E+01  9.42209E+00  9.73525E+00  2.26744E+00  9.08420E+00  6.74161E+00  1.47344E+01  1.54263E+01  1.66199E+01
   1.20968E+01  1.14912E+01  5.79816E+00  8.69063E+00  1.72151E+01  2.68434E+01  1.43918E+00  1.13759E+01  7.32813E+00  7.56254E+00
   5.04016E+00  1.36662E+01  1.64147E+00  3.82411E-01  5.22748E+00 -5.88404E+00  1.47829E+01  1.07364E+00 -4.65825E+00 -1.10284E+00
   5.53623E-01 -3.99664E+00 -2.19293E+00 -5.80818E+00 -3.05649E+00  1.10024E+00 -7.80865E+00  7.94113E-01 -4.38791E+00  6.70179E+00
   2.18651E+00  3.08626E+00  1.28929E+00  4.75565E+00  4.04050E+00  8.30973E+00  3.86163E+00 -2.02403E+00  1.32889E+01  1.32916E+01
   6.44683E+00  4.65049E+00  1.78340E+00  1.20498E+01  7.04301E+00  4.23204E+00  9.69200E+00  9.15228E+00  6.49317E+00  4.68904E+00
   8.88425E+00  1.14957E+01  6.51963E+00 -3.10354E+00  8.63868E+00  1.16222E+00  1.04978E+01 -1.45506E+00  7.27265E+00  1.30610E+01
   2.49535E+00  6.59141E+00  3.07535E+00  4.82463E-01 -8.36805E+00  6.79590E+00 -4.16094E+00  6.28404E-01  1.53787E+00  9.55937E+00
   4.04693E+00  3.35023E+00  7.95269E+00  1.68550E+00  6.10139E+00  1.29888E+00  6.40272E-01  5.99032E+00  8.61264E+00 -3.72763E+00
   2.24739E+00  1.60767E+00 -2.51997E+00  1.19734E-01  8.35816E+00 -3.59664E+00  2.76803E+00  2.30793E+00 -3.22950E+00 -7.95344E+00
  -2.10351E+00 -2.76354E+00  1.93856E+00  9.43252E+00 -8.30114E+00 -2.11387E+00 -2.04261E+00 -3.89254E+00  8.09557E+00 -2.47523E-01
  -9.26048E-01  8.90580E+00 -6.02161E+00  3.44711E+00  4.05417E-01 -7.75558E+00  3.07434E-01 -4.22026E+00  8.36270E+00  1.28730E+00
   8.08785E+00 -6.12574E+00 -2.61356E+00  2.29931E+00 -4.87180E+00 -3.39921E+00 -2.67203E+00 -3.58438E+00 -2.95405E+00 -2.00581E+00
   3.44645E+00  8.58824E+00 -7.27436E+00 -1.08149E+00  6.27864E+00 -4.89235E+00 -3.84363E+00  1.48357E+00 -6.49292E+00 -4.33743E+00
  -3.49682E+00 -4.18859E+00 -4.02258E+00 -4.75910E+00  1.58186E+00 -7.95514E+00 -2.25185E+00  5.38034E+00  1.49764E+00  9.60805E+00
   4.89070E+00  4.27959E+00 -1.66373E+00 -8.62377E-01 -5.91504E+00 -9.10236E-01 -5.42998E+00 -3.34253E+00
 NY points of the fit to the data follow
   2.14662E+00  2.00839E+00  1.94730E+00  1.97373E+00  2.04897E+00  2.14853E+00  2.34088E+00  2.63538E+00  2.93693E+00  3.14710E+00
   3.22176E+00  3.18714E+00  3.09893E+00  2.97657E+00  2.82096E+00  2.65029E+00  2.49647E+00  2.38646E+00  2.36401E+00  2.39993E+00
   2.43593E+00  2.33786E+00  2.04584E+00  1.64672E+00  1.34904E+00  1.58617E+00  2.51159E+00  3.92766E+00  5.37933E+00  6.39379E+00
   6.75577E+00  6.46969E+00  5.70358E+00  4.68758E+00  3.69909E+00  2.88892E+00  2.26664E+00  1.89854E+00  1.76934E+00  1.81748E+00
   1.93226E+00  2.11047E+00  2.56539E+00  3.41091E+00  4.41383E+00  5.19985E+00  5.52973E+00  5.36747E+00  4.82792E+00  4.06626E+00
   3.23895E+00  2.49145E+00  1.90302E+00  1.50483E+00  1.39598E+00  1.61562E+00  2.03679E+00  2.49844E+00  2.83672E+00  2.96175E+00
   2.86683E+00  2.60175E+00  2.26895E+00  1.96598E+00  1.75961E+00  1.65138E+00  1.65255E+00  1.79585E+00  2.02741E+00  2.26861E+00
   2.44926E+00  2.54791E+00  2.56488E+00  2.50927E+00  2.39884E+00  2.24847E+00  2.09259E+00  1.95113E+00  1.83285E+00  1.75936E+00
   1.72243E+00  1.71050E+00  1.65478E+00  1.48484E+00  1.18559E+00  8.28569E-01  5.17716E-01  3.26144E-01  2.74688E-01  3.57826E-01
   5.41670E-01  7.95207E-01  1.06388E+00  1.28282E+00  1.40388E+00  1.42081E+00  1.40606E+00  1.64639E+00  2.94402E+00  5.28190E+00
   7.74120E+00  9.51946E+00  1.01934E+01  9.87928E+00  8.90029E+00  7.47472E+00  5.83109E+00  4.26775E+00  2.95406E+00  1.93426E+00
   1.43709E+00  1.32573E+00  1.30424E+00  1.30940E+00  1.32098E+00  1.32513E+00  1.31770E+00  1.30719E+00  1.30223E+00  1.31536E+00
   1.36772E+00  1.50697E+00  1.85784E+00  2.37637E+00  2.88910E+00  3.26112E+00  3.43793E+00  3.45367E+00  3.40137E+00  3.34886E+00
   3.24293E+00  3.01334E+00  2.63934E+00  2.15094E+00  1.68974E+00  1.35773E+00  1.17750E+00  1.19004E+00  1.34905E+00  1.56579E+00
   1.77433E+00  1.94397E+00  2.02899E+00  2.01248E+00  1.92105E+00  1.77868E+00  1.61487E+00  1.46009E+00  1.31683E+00  1.19944E+00
   1.09395E+00  9.99674E-01  9.26279E-01  8.78139E-01  8.48687E-01  8.19689E-01  7.66439E-01  6.86355E-01  6.00854E-01  5.36153E-01
   5.18214E-01  5.31974E-01  5.46944E-01  5.51145E-01  5.42501E-01  5.21547E-01  4.90977E-01  4.53164E-01  4.08858E-01  3.65444E-01
   3.20088E-01  2.52761E-01  1.65931E-01  9.06121E-02  4.64330E-02  3.38435E-02  2.17650E-02 -6.77557E-03 -3.70759E-02 -4.63587E-02
  -4.44783E-02 -6.11365E-02 -1.10530E-01 -1.70716E-01 -1.86346E-01 -9.79518E-02  1.15599E-01  4.26390E-01  7.39944E-01  9.27300E-01
   9.40094E-01  7.40279E-01  3.44851E-01 -1.97443E-01 -7.40879E-01 -1.09342E+00 -1.07477E+00 -6.20533E-01  1.59495E-01  1.07061E+00
   1.96416E+00  2.65777E+00  3.01394E+00  2.92571E+00  2.28979E+00  1.02438E+00 -4.36033E-01 -1.54920E+00 -2.05975E+00 -1.96183E+00
  -1.44123E+00 -6.96267E-01  1.73892E-01  1.02383E+00  1.71241E+00  2.20873E+00  2.51256E+00  2.58790E+00  2.58077E+00  2.60356E+00
   2.64033E+00  2.67521E+00  2.70882E+00  2.73700E+00  2.75819E+00  2.76367E+00  2.71852E+00  2.58349E+00  2.40977E+00  2.27742E+00
   2.16101E+00  1.94599E+00  1.76322E+00  1.82977E+00  2.20729E+00  2.83870E+00  3.63183E+00  4.36559E+00  4.77784E+00  4.76998E+00
   4.39401E+00  3.84955E+00  3.31879E+00  2.86736E+00  2.60273E+00  2.62997E+00  2.95704E+00  3.51022E+00  4.20349E+00  4.87701E+00
   5.38985E+00  5.71529E+00  5.85556E+00  5.86352E+00  5.87659E+00  6.47278E+00  8.02346E+00  9.90546E+00  1.14196E+01  1.21025E+01
   1.19047E+01  1.10774E+01  9.84094E+00  8.35213E+00  6.84071E+00  5.50068E+00  4.36669E+00  3.59124E+00  3.22877E+00  2.99988E+00
   2.81150E+00  2.64896E+00  2.50915E+00  2.38568E+00  2.27196E+00  2.16532E+00  2.06365E+00  1.96607E+00  1.87482E+00  1.79217E+00
   1.72205E+00  1.66935E+00  1.63615E+00  1.62332E+00  1.63118E+00  1.65829E+00  1.70254E+00  1.76270E+00  1.83731E+00  1.92465E+00
   2.02388E+00  2.13384E+00  2.25350E+00  2.38191E+00  2.51712E+00  2.65634E+00  2.79671E+00  2.93518E+00  3.06806E+00  3.19198E+00
   3.30421E+00  3.40235E+00  3.48466E+00  3.55017E+00  3.59881E+00  3.63156E+00  3.65049E+00  3.65870E+00  3.66028E+00  3.66032E+00
   3.66480E+00  3.68041E+00  3.71433E+00  3.77404E+00  3.86694E+00  4.00021E+00  4.18054E+00  4.41383E+00  4.70482E+00  5.05685E+00
   5.47155E+00  5.94866E+00  6.48581E+00  7.07832E+00  7.71909E+00  8.39862E+00  9.10520E+00  9.82507E+00  1.05428E+01  1.12418E+01
   1.19048E+01  1.25142E+01  1.30534E+01  1.35072E+01  1.38623E+01  1.41083E+01  1.42382E+01  1.42487E+01  1.41417E+01  1.39238E+01
   1.36076E+01  1.32121E+01  1.27629E+01  1.22924E+01  1.18383E+01  1.14417E+01  1.11423E+01  1.09730E+01  1.09527E+01  1.10800E+01
   1.13280E+01  1.16444E+01  1.19556E+01  1.21767E+01  1.22263E+01  1.20406E+01  1.15863E+01  1.08672E+01  9.92306E+00  8.82193E+00
   7.64683E+00  6.48125E+00  5.39636E+00  4.44265E+00  3.64698E+00  3.01441E+00  2.53343E+00  2.18235E+00  1.93544E+00  1.76762E+00
   1.65740E+00  1.58816E+00  1.54819E+00  1.53002E+00  1.52948E+00  1.54472E+00  1.57551E+00  1.62270E+00  1.68773E+00  1.77240E+00
   1.87865E+00  2.00841E+00  2.16352E+00  2.34557E+00  2.55581E+00  2.79492E+00  3.06291E+00  3.35895E+00  3.68128E+00  4.02707E+00
   4.39234E+00  4.77189E+00  5.15935E+00  5.54734E+00  5.92760E+00  6.29130E+00  6.62928E+00  6.93246E+00  7.19224E+00  7.40091E+00
   7.55205E+00  7.64084E+00  7.66427E+00  7.62131E+00  7.51296E+00  7.34223E+00  7.11392E+00  6.83432E+00  6.51093E+00  6.15202E+00
   5.76633E+00  5.36259E+00  4.94926E+00  4.53414E+00  4.12417E+00  3.72528E+00  3.34232E+00  2.97903E+00  2.63809E+00  2.32112E+00
   2.02888E+00  1.76140E+00  1.51811E+00  1.29798E+00  1.09965E+00  9.21525E-01  7.61895E-01  6.19041E-01  4.91281E-01  3.77005E-01
   2.74688E-01  1.82920E-01  1.00432E-01  2.61037E-02 -4.10511E-02 -1.01912E-01 -1.57264E-01 -2.07795E-01 -2.54087E-01 -2.96632E-01
  -3.35857E-01 -3.72147E-01 -4.05843E-01 -4.37240E-01 -4.66577E-01 -4.94057E-01 -5.19862E-01 -5.44168E-01 -5.67134E-01 -5.88890E-01
  -6.09534E-01 -6.29153E-01 -6.47837E-01 -6.65677E-01 -6.82755E-01 -6.99129E-01 -7.14841E-01 -7.29935E-01 -7.44465E-01 -7.58487E-01
  -7.72041E-01 -7.85150E-01 -7.97830E-01 -8.10109E-01 -8.22028E-01 -8.33622E-01 -8.44910E-01 -8.55899E-01 -8.66598E-01 -8.77030E-01
  -8.87226E-01 -8.97206E-01 -9.06973E-01 -9.16526E-01 -9.25872E-01 -9.35034E-01 -9.44036E-01 -9.52886E-01 -9.61578E-01 -9.70110E-01
  -9.78493E-01 -9.86748E-01 -9.94890E-01 -1.00292E+00 -1.01082E+00 -1.01860E+00 -1.02627E+00 -1.03386E+00 -1.04135E+00 -1.04876E+00
  -1.05606E+00 -1.06327E+00 -1.07039E+00 -1.07745E+00 -1.08444E+00 -1.09134E+00 -1.09816E+00 -1.10489E+00
 NY background values follow
     1.112E+00    1.107E+00    1.102E+00    1.098E+00    1.093E+00    1.088E+00    1.084E+00    1.079E+00    1.074E+00    1.069E+00
     1.065E+00    1.060E+00    1.055E+00    1.051E+00    1.046E+00    1.041E+00    1.036E+00    1.032E+00    1.027E+00    1.022E+00
     1.018E+00    1.013E+00    1.008E+00    1.003E+00    9.987E-01    9.940E-01    9.893E-01    9.846E-01    9.799E-01    9.752E-01
     9.705E-01    9.658E-01    9.610E-01    9.563E-01    9.516E-01    9.469E-01    9.422E-01    9.375E-01    9.328E-01    9.281E-01
     9.234E-01    9.187E-01    9.139E-01    9.092E-01    9.045E-01    8.998E-01    8.951E-01    8.904E-01    8.857E-01    8.810E-01
     8.763E-01    8.716E-01    8.668E-01    8.621E-01    8.574E-01    8.527E-01    8.480E-01    8.433E-01    8.386E-01    8.339E-01
     8.292E-01    8.245E-01    8.198E-01    8.150E-01    8.103E-01    8.056E-01    8.009E-01    7.962E-01    7.915E-01    7.868E-01
     7.821E-01    7.774E-01    7.727E-01    7.679E-01    7.632E-01    7.585E-01    7.538E-01    7.491E-01    7.444E-01    7.397E-01
     7.350E-01    7.303E-01    7.256E-01    7.208E-01    7.161E-01    7.114E-01    7.067E-01    7.020E-01    6.973E-01    6.926E-01
     6.879E-01    6.832E-01    6.785E-01    6.737E-01    6.690E-01    6.643E-01    6.596E-01    6.549E-01    6.502E-01    6.455E-01
     6.408E-01    6.361E-01    6.314E-01    6.267E-01    6.219E-01    6.172E-01    6.125E-01    6.078E-01    6.031E-01    5.984E-01
     5.937E-01    5.890E-01    5.843E-01    5.796E-01    5.748E-01    5.701E-01    5.654E-01    5.607E-01    5.560E-01    5.513E-01
     5.466E-01    5.419E-01    5.372E-01    5.325E-01    5.278E-01    5.230E-01    5.183E-01    5.136E-01    5.089E-01    5.042E-01
     4.995E-01    4.948E-01    4.901E-01    4.854E-01    4.807E-01    4.760E-01    4.712E-01    4.665E-01    4.618E-01    4.571E-01
     4.524E-01    4.477E-01    4.430E-01    4.383E-01    4.336E-01    4.289E-01    4.242E-01    4.194E-01    4.147E-01    4.100E-01
     4.053E-01    4.006E-01    3.959E-01    3.912E-01    3.865E-01    3.818E-01    3.771E-01    3.724E-01    3.676E-01    3.629E-01
     3.582E-01    3.535E-01    3.488E-01    3.441E-01    3.394E-01    3.347E-01    3.300E-01    3.253E-01    3.206E-01    3.159E-01
     3.111E-01    3.064E-01    3.017E-01    2.970E-01    2.923E-01    2.876E-01    2.829E-01    2.782E-01    2.735E-01    2.688E-01
     2.641E-01    2.594E-01    2.546E-01    2.499E-01    2.452E-01    2.405E-01    2.358E-01    2.311E-01    2.264E-01    2.217E-01
     2.170E-01    2.123E-01    2.076E-01    2.029E-01    1.981E-01    1.934E-01    1.887E-01    1.840E-01    1.793E-01    1.746E-01
     1.699E-01    1.652E-01    1.605E-01    1.558E-01    1.511E-01    1.464E-01    1.416E-01    1.369E-01    1.322E-01    1.275E-01
     1.228E-01    1.181E-01    1.134E-01    1.087E-01    1.040E-01    9.928E-02    9.457E-02    8.986E-02    8.515E-02    8.044E-02
     7.574E-02    7.103E-02    6.632E-02    6.161E-02    5.691E-02    5.220E-02    4.749E-02    4.278E-02    3.808E-02    3.337E-02
     2.866E-02    2.395E-02    1.924E-02    1.454E-02    9.829E-03    5.122E-03    4.143E-04   -4.293E-03   -9.001E-03   -1.371E-02
    -1.842E-02   -2.312E-02   -2.783E-02   -3.254E-02   -3.725E-02   -4.195E-02   -4.666E-02   -5.137E-02   -5.608E-02   -6.078E-02
    -6.549E-02   -7.020E-02   -7.491E-02   -7.961E-02   -8.432E-02   -8.903E-02   -9.373E-02   -9.844E-02   -1.031E-01   -1.079E-01
    -1.126E-01   -1.173E-01   -1.220E-01   -1.267E-01   -1.314E-01   -1.361E-01   -1.408E-01   -1.455E-01   -1.502E-01   -1.549E-01
    -1.596E-01   -1.643E-01   -1.691E-01   -1.738E-01   -1.785E-01   -1.832E-01   -1.879E-01   -1.926E-01   -1.973E-01   -2.020E-01
    -2.067E-01   -2.114E-01   -2.161E-01   -2.208E-01   -2.255E-01   -2.302E-01   -2.350E-01   -2.397E-01   -2.444E-01   -2.491E-01
    -2.538E-01   -2.585E-01   -2.632E-01   -2.679E-01   -2.726E-01   -2.773E-01   -2.820E-01   -2.867E-01   -2.914E-01   -2.961E-01
    -3.009E-01   -3.056E-01   -3.103E-01   -3.150E-01   -3.197E-01   -3.244E-01   -3.291E-01   -3.338E-01   -3.385E-01   -3.432E-01
    -3.479E-01   -3.526E-01   -3.573E-01   -3.620E-01   -3.668E-01   -3.715E-01   -3.762E-01   -3.809E-01   -3.856E-01   -3.903E-01
    -3.950E-01   -3.997E-01   -4.044E-01   -4.091E-01   -4.138E-01   -4.185E-01   -4.232E-01   -4.279E-01   -4.327E-01   -4.374E-01
    -4.421E-01   -4.468E-01   -4.515E-01   -4.562E-01   -4.609E-01   -4.656E-01   -4.703E-01   -4.750E-01   -4.797E-01   -4.844E-01
    -4.891E-01   -4.938E-01   -4.986E-01   -5.033E-01   -5.080E-01   -5.127E-01   -5.174E-01   -5.221E-01   -5.268E-01   -5.315E-01
    -5.362E-01   -5.409E-01   -5.456E-01   -5.503E-01   -5.550E-01   -5.597E-01   -5.645E-01   -5.692E-01   -5.739E-01   -5.786E-01
    -5.833E-01   -5.880E-01   -5.927E-01   -5.974E-01   -6.021E-01   -6.068E-01   -6.115E-01   -6.162E-01   -6.209E-01   -6.256E-01
    -6.304E-01   -6.351E-01   -6.398E-01   -6.445E-01   -6.492E-01   -6.539E-01   -6.586E-01   -6.633E-01   -6.680E-01   -6.727E-01
    -6.774E-01   -6.821E-01   -6.868E-01   -6.915E-01   -6.963E-01   -7.010E-01   -7.057E-01   -7.104E-01   -7.151E-01   -7.198E-01
    -7.245E-01   -7.292E-01   -7.339E-01   -7.386E-01   -7.433E-01   -7.480E-01   -7.527E-01   -7.574E-01   -7.621E-01   -7.669E-01
    -7.716E-01   -7.763E-01   -7.810E-01   -7.857E-01   -7.904E-01   -7.951E-01   -7.998E-01   -8.045E-01   -8.092E-01   -8.139E-01
    -8.186E-01   -8.233E-01   -8.280E-01   -8.328E-01   -8.375E-01   -8.422E-01   -8.469E-01   -8.516E-01   -8.563E-01   -8.610E-01
    -8.657E-01   -8.704E-01   -8.751E-01   -8.798E-01   -8.845E-01   -8.892E-01   -8.939E-01   -8.987E-01   -9.034E-01   -9.081E-01
    -9.128E-01   -9.175E-01   -9.222E-01   -9.269E-01   -9.316E-01   -9.363E-01   -9.410E-01   -9.457E-01   -9.504E-01   -9.551E-01
    -9.598E-01   -9.645E-01   -9.693E-01   -9.740E-01   -9.787E-01   -9.834E-01   -9.881E-01   -9.928E-01   -9.975E-01   -1.002E+00
    -1.007E+00   -1.012E+00   -1.016E+00   -1.021E+00   -1.026E+00   -1.030E+00   -1.035E+00   -1.040E+00   -1.045E+00   -1.049E+00
    -1.054E+00   -1.059E+00   -1.063E+00   -1.068E+00   -1.073E+00   -1.078E+00   -1.082E+00   -1.087E+00   -1.092E+00   -1.096E+00
    -1.101E+00   -1.106E+00   -1.110E+00   -1.115E+00   -1.120E+00   -1.125E+00   -1.129E+00   -1.134E+00   -1.139E+00   -1.143E+00
    -1.148E+00   -1.153E+00   -1.158E+00   -1.162E+00   -1.167E+00   -1.172E+00   -1.176E+00   -1.181E+00   -1.186E+00   -1.190E+00
    -1.195E+00   -1.200E+00   -1.205E+00   -1.209E+00   -1.214E+00   -1.219E+00   -1.223E+00   -1.228E+00
 Asp      Conc. = 2.80E+01
