 LCModel (Version 6.3-1L) Copyright: S.W. Provencher.          Ref.: Magn. Reson. Med. 30:672-679 (1993).                
 Slice#2 Row#5 Col#2  PD_05_press_2_raw_act
 36 lines in following concentration table = NCONC+1
    Conc.  %SD /Cr+PCr  Metabolite                                         
    0.000 999%   0.000 Ala                                                 
   36.123 968% 1.9E-02 Asp                                                 
 1.85E+03   7%   1.000 Cr                                                  
    0.000 999%   0.000 PCr                                                 
   28.842 745% 1.6E-02 GABA                                                
   14.851 999% 8.0E-03 Glc                                                 
  303.898 134%   0.164 Gln                                                 
 1.49E+03  31%   0.803 Glu                                                 
  504.148   9%   0.272 GPC                                                 
    0.000 999%   0.000 PCh                                                 
  623.717  24%   0.337 GSH                                                 
 1.34E+03  37%   0.724 Ins                                                 
    0.000 999%   0.000 Lac                                                 
 3.07E+03   8%   1.655 NAA                                                 
  673.643  38%   0.364 NAAG                                                
   35.513 138% 1.9E-02 Scyllo                                              
    0.000 999%   0.000 Tau                                                 
  394.711  54%   0.213 -CrCH2                                              
  504.148   9%   0.272 GPC+PCh                                             
 3.74E+03   5%   2.019 NAA+NAAG                                            
 1.85E+03   7%   1.000 Cr+PCr                                              
 1.79E+03  34%   0.967 Glu+Gln                                             
    0.000 999%   0.000 Lip13a                                              
    0.000 999%   0.000 Lip13b                                              
    0.000 999%   0.000 Lip09                                               
 6.27E+03  11%   3.385 MM09                                                
  279.950 267%   0.151 Lip20                                               
 1.11E+04  11%   5.979 MM20                                                
 3.52E+03  10%   1.897 MM12                                                
    0.000 999%   0.000 MM14                                                
 5.59E+03  15%   3.018 MM17                                                
    0.000 999%   0.000 Lip13a+Lip13b                                       
 3.52E+03  10%   1.897 MM14+Lip13a+Lip13b+MM12                             
 6.27E+03  11%   3.385 MM09+Lip09                                          
 1.14E+04  10%   6.131 MM20+Lip20                                          
   6 lines in following misc. output table
  FWHM = 0.038 ppm    S/N =  10                                            
  Data shift = 0.008 ppm                                                   
  Ph:  24 deg      16.8 deg/ppm                                            
  alphaB,S = 4.3E-01,   2.4E+01                                            
   14 spline knots.   Ns = 6(1)                                            
  (10) 2 infls.   (11) 1 extrs.                                            
  498 points on ppm-axis = NY
      4.000000     3.992357     3.984714     3.977070     3.969427     3.961784     3.954141     3.946497     3.938854     3.931211
      3.923568     3.915925     3.908281     3.900638     3.892995     3.885352     3.877708     3.870065     3.862422     3.854779
      3.847136     3.839492     3.831849     3.824206     3.816563     3.808919     3.801276     3.793633     3.785990     3.778347
      3.770703     3.763060     3.755417     3.747774     3.740130     3.732487     3.724844     3.717201     3.709558     3.701914
      3.694271     3.686628     3.678985     3.671341     3.663698     3.656055     3.648412     3.640769     3.633125     3.625482
      3.617839     3.610196     3.602552     3.594909     3.587266     3.579623     3.571980     3.564336     3.556693     3.549050
      3.541407     3.533763     3.526120     3.518477     3.510834     3.503191     3.495547     3.487904     3.480261     3.472618
      3.464974     3.457331     3.449688     3.442045     3.434402     3.426758     3.419115     3.411472     3.403829     3.396185
      3.388542     3.380899     3.373256     3.365613     3.357969     3.350326     3.342683     3.335040     3.327396     3.319753
      3.312110     3.304467     3.296824     3.289180     3.281537     3.273894     3.266251     3.258607     3.250964     3.243321
      3.235678     3.228034     3.220391     3.212748     3.205105     3.197462     3.189818     3.182175     3.174532     3.166889
      3.159245     3.151602     3.143959     3.136316     3.128673     3.121029     3.113386     3.105743     3.098100     3.090456
      3.082813     3.075170     3.067527     3.059884     3.052240     3.044597     3.036954     3.029311     3.021667     3.014024
      3.006381     2.998738     2.991095     2.983451     2.975808     2.968165     2.960522     2.952878     2.945235     2.937592
      2.929949     2.922306     2.914662     2.907019     2.899376     2.891733     2.884089     2.876446     2.868803     2.861160
      2.853517     2.845873     2.838230     2.830587     2.822944     2.815300     2.807657     2.800014     2.792371     2.784728
      2.777084     2.769441     2.761798     2.754155     2.746511     2.738868     2.731225     2.723582     2.715939     2.708295
      2.700652     2.693009     2.685366     2.677722     2.670079     2.662436     2.654793     2.647150     2.639506     2.631863
      2.624220     2.616577     2.608933     2.601290     2.593647     2.586004     2.578361     2.570717     2.563074     2.555431
      2.547788     2.540144     2.532501     2.524858     2.517215     2.509572     2.501928     2.494285     2.486642     2.478999
      2.471355     2.463712     2.456069     2.448426     2.440783     2.433139     2.425496     2.417853     2.410210     2.402566
      2.394923     2.387280     2.379637     2.371994     2.364350     2.356707     2.349064     2.341421     2.333777     2.326134
      2.318491     2.310848     2.303205     2.295561     2.287918     2.280275     2.272632     2.264988     2.257345     2.249702
      2.242059     2.234416     2.226772     2.219129     2.211486     2.203843     2.196199     2.188556     2.180913     2.173270
      2.165627     2.157983     2.150340     2.142697     2.135054     2.127410     2.119767     2.112124     2.104481     2.096838
      2.089194     2.081551     2.073908     2.066265     2.058621     2.050978     2.043335     2.035692     2.028049     2.020405
      2.012762     2.005119     1.997476     1.989833     1.982190     1.974546     1.966903     1.959260     1.951617     1.943974
      1.936331     1.928688     1.921045     1.913402     1.905759     1.898115     1.890472     1.882829     1.875186     1.867543
      1.859900     1.852257     1.844614     1.836971     1.829327     1.821684     1.814041     1.806398     1.798755     1.791112
      1.783469     1.775826     1.768183     1.760540     1.752896     1.745253     1.737610     1.729967     1.722324     1.714681
      1.707038     1.699395     1.691752     1.684108     1.676465     1.668822     1.661179     1.653536     1.645893     1.638250
      1.630607     1.622964     1.615321     1.607677     1.600034     1.592391     1.584748     1.577105     1.569462     1.561819
      1.554176     1.546533     1.538890     1.531246     1.523603     1.515960     1.508317     1.500674     1.493031     1.485388
      1.477745     1.470102     1.462458     1.454815     1.447172     1.439529     1.431886     1.424243     1.416600     1.408957
      1.401314     1.393671     1.386027     1.378384     1.370741     1.363098     1.355455     1.347812     1.340169     1.332526
      1.324883     1.317240     1.309596     1.301953     1.294310     1.286667     1.279024     1.271381     1.263738     1.256095
      1.248452     1.240808     1.233165     1.225522     1.217879     1.210236     1.202593     1.194950     1.187307     1.179664
      1.172021     1.164377     1.156734     1.149091     1.141448     1.133805     1.126162     1.118519     1.110876     1.103233
      1.095590     1.087946     1.080303     1.072660     1.065017     1.057374     1.049731     1.042088     1.034445     1.026802
      1.019158     1.011515     1.003872     0.996229     0.988586     0.980943     0.973300     0.965657     0.958014     0.950371
      0.942727     0.935084     0.927441     0.919798     0.912155     0.904512     0.896869     0.889226     0.881583     0.873940
      0.866296     0.858653     0.851010     0.843367     0.835724     0.828081     0.820438     0.812795     0.805152     0.797508
      0.789865     0.782222     0.774579     0.766936     0.759293     0.751650     0.744007     0.736364     0.728721     0.721077
      0.713434     0.705791     0.698148     0.690505     0.682862     0.675219     0.667576     0.659933     0.652290     0.644646
      0.637003     0.629360     0.621717     0.614074     0.606431     0.598788     0.591145     0.583502     0.575858     0.568215
      0.560572     0.552929     0.545286     0.537643     0.530000     0.522357     0.514714     0.507071     0.499427     0.491784
      0.484141     0.476498     0.468855     0.461212     0.453569     0.445925     0.438282     0.430639     0.422996     0.415353
      0.407710     0.400067     0.392424     0.384780     0.377137     0.369494     0.361851     0.354208     0.346565     0.338922
      0.331278     0.323635     0.315992     0.308349     0.300706     0.293063     0.285420     0.277777     0.270133     0.262490
      0.254847     0.247204     0.239561     0.231918     0.224275     0.216631     0.208988     0.201345
 NY phased data points follow
   1.46389E+01  5.67847E+00  7.68069E+00  5.38658E+00  1.03644E+01  7.33769E+00  2.02474E+01  1.18359E+01  2.56696E+01  3.45736E+01
   5.58374E+01  4.68067E+01  6.99364E+01  4.91233E+01  5.52619E+01  3.58644E+01  4.56572E+01  1.96616E+01  3.47407E+01  2.46743E+01
   3.15623E+01  2.08038E+01  1.81603E+01  2.21224E+01  1.96753E+01  2.11143E+01  3.04193E+01  1.66860E+01  3.14609E+01  2.48102E+01
   2.56539E+01  3.16666E+01  3.42487E+01  2.82478E+01  2.41061E+01  2.38584E+01  2.52660E+01  1.73018E+01  2.21091E+01  1.50138E+01
   2.06100E+01  1.99358E+01  1.60856E+01  2.28700E+01  2.58687E+01  2.56458E+01  2.07402E+01  2.72694E+01  3.32994E+01  2.68013E+01
   2.91885E+01  2.09326E+01  1.59617E+01  1.30551E+01  1.59920E+01  2.18656E+01  2.48536E+01  1.53190E+01  2.33082E+01  7.43310E+00
   1.54636E+01  1.65374E+01  1.15600E+01  8.26204E+00  8.33731E+00  5.58947E-01  4.68070E+00 -3.63306E+00  3.04134E-01 -8.45863E+00
  -5.64713E+00 -1.03640E+01  2.74167E+00  1.16851E+01  7.37920E+00 -3.79109E+00  1.01054E+01 -2.03899E+00  1.85022E+00 -1.01292E+01
  -3.27091E-01  1.62513E+00 -2.45295E+00  9.64540E-02  4.66430E+00  2.29665E+00 -2.70278E+00 -2.28058E+00  3.63601E+00  7.64964E+00
  -8.55202E-01 -6.55343E+00  1.85378E-01 -7.39161E+00  4.81673E+00 -4.58738E+00  1.22682E-01 -2.41622E+00  5.71346E+00 -9.95887E-01
   1.58366E+01  2.48803E+01  5.69483E+01  4.62020E+01  5.46853E+01  4.32885E+01  4.29893E+01  3.05723E+01  2.33330E+01  6.34145E+00
   2.28256E+00  2.85576E+00  1.93247E+01  3.29182E+00  3.63896E+00 -2.42138E+00  8.05358E+00 -3.05820E+00  2.79156E+00 -3.80503E+00
   5.75946E+00 -1.46066E+00  1.18192E+01  1.27664E+01  2.38448E+01  4.83551E+01  6.23571E+01  6.72378E+01  7.52870E+01  6.64166E+01
   6.06386E+01  4.53696E+01  2.08215E+01  1.72784E+01  1.50316E+01  9.92492E+00  5.37159E+00  3.72036E+00  1.81789E+00 -1.01510E+01
  -5.90350E-01  1.70187E+00 -1.63467E+00 -2.69939E+00 -3.32040E-01 -4.16424E+00 -8.00295E-01 -2.57313E+00 -4.91141E-01 -1.37460E+01
  -1.14730E+01 -1.14211E+01 -1.09072E-01 -1.67642E+01 -1.31563E+01 -4.36168E+00 -4.97937E+00 -7.22226E+00  3.78343E+00 -5.23310E+00
  -7.08191E+00 -2.03740E+01 -2.26040E+01 -1.70710E+01 -7.67988E+00 -6.73404E+00 -1.02844E+01 -7.40307E+00 -8.77647E+00 -2.48972E+01
  -2.10264E+01 -2.15929E+01 -1.68636E+01 -2.69243E+01 -2.59957E+01 -3.86245E+01 -3.04310E+01 -3.43686E+01 -3.13274E+01 -2.37649E+01
  -2.73066E+01 -2.85136E+01 -2.33464E+01 -2.61149E+01 -1.44677E+01 -2.84382E+01 -2.54395E+01 -1.74401E+01 -1.36596E+01 -2.12019E+01
  -7.03425E+00 -1.29427E+01  3.17204E+00 -1.05080E+01 -2.25789E+00 -5.79552E+00 -3.96019E+00 -7.23533E+00 -1.64464E+01 -1.72435E+00
  -1.07490E+01 -1.10706E+01  1.73592E+00 -9.84844E+00 -1.02051E+01 -5.54787E+00 -8.69620E-01 -1.68027E+01 -2.17373E+01 -1.19388E+01
  -1.61003E+01 -1.41470E+01 -9.83162E+00 -1.29562E+01 -7.81801E+00 -8.49919E-01  6.31784E+00 -7.20692E+00  4.16144E+00 -9.01881E+00
  -6.70887E+00 -1.95807E+01 -2.01211E+01 -1.37591E+01 -1.04667E+01 -3.70368E+00 -1.67625E+00 -3.92246E+00  2.73508E+00 -2.94763E+00
   1.53292E+00 -4.81847E+00 -1.24786E+01 -5.51890E+00  8.79713E-01 -1.60241E+01 -4.30502E+00 -6.10666E+00  4.83748E+00 -1.03960E+01
  -4.18078E+00 -3.29741E+00 -2.08473E+00 -5.06476E+00 -6.17682E-02  1.49824E+01  9.86927E+00  1.34719E+01  1.07110E+01  1.55743E+01
   2.40390E+01  1.17247E+01  3.39832E+01  2.47151E+01  4.08222E+01  5.46942E+01  6.03257E+01  7.29932E+01  1.01349E+02  1.22913E+02
   1.34542E+02  1.24253E+02  1.01188E+02  6.23737E+01  3.37856E+01  8.92961E+00 -8.93497E+00 -1.71187E+01 -7.80295E+00 -2.04036E+01
  -1.95948E+01 -1.89795E+01 -1.46191E+01 -2.75042E+01 -2.03607E+01 -1.96344E+01 -1.87852E+01 -2.93145E+01 -2.42182E+01 -9.68687E+00
  -2.02794E+01 -2.02651E+01 -2.29740E+01 -2.46013E+01 -1.31716E+01 -2.78361E+01 -2.17293E+01 -1.85877E+01 -1.20771E+01 -9.56004E+00
  -1.94653E+01 -1.39813E+01 -8.84178E+00 -1.71692E+01 -7.84446E+00 -1.34657E+01 -1.82132E+01 -7.30286E+00 -1.63950E+01 -1.71367E+01
  -4.91241E+00 -1.89535E+01 -7.38715E+00 -1.68780E+01 -1.41353E+01 -1.24463E+01 -1.28240E+01 -2.27969E+01 -1.87212E+01 -8.07368E+00
  -3.17504E+00 -9.63502E+00 -2.14322E+01 -1.55282E+01 -2.41330E+01 -2.77090E+01 -1.68191E+01 -1.92348E+01 -3.00340E+01 -3.53396E+01
  -3.67479E+01 -3.55236E+01 -3.50042E+01 -4.65920E+01 -4.64651E+01 -5.16471E+01 -4.33851E+01 -5.09722E+01 -5.65422E+01 -5.56704E+01
  -5.63236E+01 -5.76190E+01 -5.89948E+01 -5.29573E+01 -4.80763E+01 -5.42177E+01 -5.59249E+01 -6.20404E+01 -5.70464E+01 -6.13078E+01
  -5.42449E+01 -5.70536E+01 -5.69611E+01 -6.23656E+01 -5.24604E+01 -5.67915E+01 -5.44372E+01 -5.06203E+01 -4.42090E+01 -4.88412E+01
  -5.26093E+01 -4.59969E+01 -4.30228E+01 -3.23472E+01 -2.99728E+01 -2.50385E+01 -2.71183E+01 -2.53573E+01 -2.35309E+01 -2.33372E+01
  -2.61610E+01 -2.81918E+01 -2.77595E+01 -2.70447E+01 -2.22750E+01 -1.92898E+01 -1.16517E+01 -1.00682E+01 -3.79862E+00 -3.51350E+00
  -6.40062E+00  5.89316E+00  1.31407E+01  1.00012E+01  3.43617E+00 -8.66148E-01  1.08983E+01  1.73125E+01  4.35728E-01 -8.76121E-01
   1.72739E+01  9.61915E+00  8.75475E-02  2.44218E+00  9.87407E-01 -3.63267E+00 -4.29656E+00  6.65901E+00 -1.89587E-01 -1.42684E+01
  -4.59611E+00 -8.78548E-02 -1.00187E+01 -8.72236E+00 -8.23190E+00 -1.10514E+01 -4.11191E+00  3.48383E+00 -1.41882E+01 -2.65303E+00
  -1.06952E+01 -1.55900E+01 -4.48071E+00 -8.04827E+00 -5.54840E+00 -1.58740E+01 -7.67599E+00 -1.81716E+01 -7.45357E+00 -2.11417E+01
  -1.12093E+01 -1.97662E+01 -1.54546E+01 -1.58898E+01 -1.73629E+01 -1.94636E+01 -1.91928E+01 -1.10903E+01 -2.40627E+01 -1.09683E+01
  -1.35365E+01 -1.09425E+01 -1.60668E+01 -1.53316E+01 -1.12051E+01 -1.56468E+01 -1.11599E+01 -1.77798E+01 -1.05364E+01 -1.30968E+01
  -1.70690E+01 -2.68911E+01 -1.21695E+01 -1.69851E+01 -9.55031E+00 -1.49019E+01 -1.44634E+01 -1.58098E+01 -2.60137E+01 -1.62236E+01
  -4.68565E+00 -2.47948E+01 -1.70718E+01 -1.59890E+01 -1.02319E+01 -2.40435E+01 -1.91773E+01 -1.38095E+01 -1.80085E+01 -7.75970E+00
  -1.91060E+01 -1.39861E+01 -1.45156E+01 -2.19092E+01 -1.73334E+01 -2.16870E+01 -8.57076E+00 -1.03671E+01 -2.01261E+01 -1.27702E+01
  -1.17164E+01 -1.13196E+01 -1.23611E+01 -1.97871E+01 -1.12409E+01 -2.11825E+01 -1.45524E+01 -1.04223E+01 -1.35995E+01 -1.05461E+01
  -8.48402E+00 -1.67347E+01 -1.64980E+01 -1.46067E+01 -1.43488E+01 -5.71529E+00 -7.50246E+00 -1.80432E+01 -1.56599E+01 -1.05717E+01
  -8.50655E+00 -2.16897E+01 -8.87616E+00 -1.12220E+01 -8.52116E+00 -6.67483E+00 -2.15598E+01 -1.36561E+01 -2.23434E+00 -1.48558E+01
  -1.34289E+01 -2.31377E+01 -7.22969E+00 -8.13205E+00 -1.05690E+01 -6.85385E+00 -1.42991E+01 -1.02261E+01
 NY points of the fit to the data follow
   1.95576E+01  1.87058E+01  1.80454E+01  1.73977E+01  1.71105E+01  1.75344E+01  1.87349E+01  1.95603E+01  2.33620E+01  3.31040E+01
   4.61831E+01  5.66682E+01  6.16594E+01  6.01015E+01  5.34735E+01  4.39875E+01  3.43866E+01  2.68900E+01  2.28902E+01  2.11024E+01
   2.01398E+01  1.93176E+01  1.83434E+01  1.75618E+01  1.74962E+01  1.74840E+01  1.76358E+01  1.96676E+01  2.38646E+01  2.85302E+01
   3.20863E+01  3.37940E+01  3.32212E+01  3.04080E+01  2.61224E+01  2.14601E+01  1.75712E+01  1.51223E+01  1.39151E+01  1.34156E+01
   1.35438E+01  1.44012E+01  1.54612E+01  1.64182E+01  1.79611E+01  2.04572E+01  2.30185E+01  2.44022E+01  2.39953E+01  2.19818E+01
   1.89664E+01  1.55971E+01  1.25480E+01  1.05895E+01  9.85522E+00  9.82434E+00  1.01873E+01  1.08833E+01  1.17627E+01  1.25094E+01
   1.27567E+01  1.22858E+01  1.11728E+01  9.65632E+00  8.11537E+00  6.97190E+00  6.51005E+00  6.57842E+00  6.98395E+00  7.57383E+00
   8.16031E+00  8.48927E+00  8.45729E+00  8.09014E+00  7.50774E+00  6.83355E+00  6.17527E+00  5.59807E+00  5.16999E+00  4.86781E+00
   4.66898E+00  4.42979E+00  4.15356E+00  3.97688E+00  3.79672E+00  3.24624E+00  2.23147E+00  9.80150E-01 -1.42317E-01 -8.84465E-01
  -1.07484E+00 -7.46688E-01 -7.23415E-02  6.96587E-01  1.28284E+00  1.47685E+00  1.45039E+00  2.52288E+00  5.47432E+00  8.75747E+00
   1.57726E+01  2.89579E+01  4.40167E+01  5.41171E+01  5.66812E+01  5.13217E+01  4.05845E+01  2.76593E+01  1.56935E+01  7.10284E+00
   3.15780E+00  1.82966E+00  1.41502E+00  1.28863E+00  1.26428E+00  1.30214E+00  1.37961E+00  1.45966E+00  1.56064E+00  1.79744E+00
   2.47269E+00  5.09658E+00  1.01650E+01  1.57151E+01  2.57814E+01  4.28811E+01  6.13646E+01  7.32074E+01  7.56465E+01  6.84310E+01
   5.49720E+01  3.93227E+01  2.48076E+01  1.37987E+01  7.57730E+00  3.79140E+00  1.05356E+00 -7.64100E-01 -1.44505E+00 -1.00723E+00
   1.54394E-01  1.23000E+00  1.71894E+00  1.47561E+00  6.21612E-01 -5.83702E-01 -1.79840E+00 -2.87341E+00 -3.77208E+00 -4.56270E+00
  -5.30292E+00 -6.07239E+00 -6.87641E+00 -7.58793E+00 -8.14596E+00 -8.57804E+00 -8.76904E+00 -9.00731E+00 -9.72247E+00 -1.08438E+01
  -1.20803E+01 -1.29059E+01 -1.29296E+01 -1.25081E+01 -1.23041E+01 -1.25344E+01 -1.33158E+01 -1.46051E+01 -1.60098E+01 -1.71476E+01
  -1.79412E+01 -1.83186E+01 -1.86434E+01 -1.94730E+01 -2.06021E+01 -2.14170E+01 -2.14990E+01 -2.10895E+01 -2.06979E+01 -2.07113E+01
  -2.09442E+01 -2.12147E+01 -2.12764E+01 -2.12676E+01 -2.12347E+01 -2.08988E+01 -1.98136E+01 -1.80544E+01 -1.57410E+01 -1.31299E+01
  -1.08130E+01 -9.50939E+00 -9.66713E+00 -1.08257E+01 -1.24707E+01 -1.44230E+01 -1.62928E+01 -1.73015E+01 -1.72564E+01 -1.64270E+01
  -1.49650E+01 -1.30478E+01 -1.11243E+01 -9.76402E+00 -9.61055E+00 -1.06290E+01 -1.25615E+01 -1.53080E+01 -1.81060E+01 -2.02001E+01
  -2.11366E+01 -2.09133E+01 -1.91857E+01 -1.57966E+01 -1.15868E+01 -8.26332E+00 -7.02784E+00 -8.01963E+00 -1.06961E+01 -1.46606E+01
  -1.90984E+01 -2.23216E+01 -2.29273E+01 -2.09344E+01 -1.72933E+01 -1.30838E+01 -9.24501E+00 -6.34287E+00 -4.94003E+00 -5.06022E+00
  -5.86870E+00 -6.27146E+00 -5.81391E+00 -4.55405E+00 -2.63930E+00 -3.06554E-01  1.77268E+00  2.77373E+00  2.63176E+00  1.69527E+00
   4.62947E-01 -4.49720E-01 -2.34869E-01  1.39046E+00  4.13822E+00  7.25997E+00  1.00687E+01  1.20380E+01  1.30300E+01  1.35912E+01
   1.47819E+01  1.62961E+01  1.94873E+01  2.65458E+01  3.92720E+01  5.18086E+01  6.22698E+01  7.93863E+01  1.04284E+02  1.24529E+02
   1.30653E+02  1.21144E+02  9.89293E+01  6.98225E+01  3.99234E+01  1.47428E+01 -1.06539E+00 -8.06857E+00 -1.14216E+01 -1.36422E+01
  -1.53811E+01 -1.67554E+01 -1.78519E+01 -1.87837E+01 -1.97147E+01 -2.07259E+01 -2.17861E+01 -2.28303E+01 -2.38051E+01 -2.46292E+01
  -2.51969E+01 -2.54855E+01 -2.55467E+01 -2.54376E+01 -2.51867E+01 -2.48045E+01 -2.42834E+01 -2.36312E+01 -2.28225E+01 -2.18078E+01
  -2.05751E+01 -1.91690E+01 -1.76486E+01 -1.60863E+01 -1.45406E+01 -1.30767E+01 -1.17543E+01 -1.06032E+01 -9.62843E+00 -8.85394E+00
  -8.31050E+00 -8.03298E+00 -8.05237E+00 -8.39104E+00 -9.05810E+00 -1.00495E+01 -1.13376E+01 -1.28832E+01 -1.46420E+01 -1.65656E+01
  -1.86045E+01 -2.07110E+01 -2.28392E+01 -2.49462E+01 -2.69938E+01 -2.89500E+01 -3.07893E+01 -3.24936E+01 -3.40513E+01 -3.54565E+01
  -3.67089E+01 -3.78124E+01 -3.87744E+01 -3.96045E+01 -4.03135E+01 -4.09128E+01 -4.14142E+01 -4.18290E+01 -4.21680E+01 -4.24412E+01
  -4.26568E+01 -4.28224E+01 -4.29442E+01 -4.30279E+01 -4.30780E+01 -4.30983E+01 -4.30911E+01 -4.30585E+01 -4.30019E+01 -4.29223E+01
  -4.28196E+01 -4.26931E+01 -4.25409E+01 -4.23604E+01 -4.21479E+01 -4.18984E+01 -4.16051E+01 -4.12591E+01 -4.08497E+01 -4.03640E+01
  -3.97873E+01 -3.91029E+01 -3.82922E+01 -3.73360E+01 -3.62150E+01 -3.49116E+01 -3.34112E+01 -3.17036E+01 -2.97848E+01 -2.76592E+01
  -2.53407E+01 -2.28540E+01 -2.02349E+01 -1.75295E+01 -1.47935E+01 -1.20893E+01 -9.48379E+00 -7.04413E+00 -4.83352E+00 -2.90722E+00
  -1.30856E+00 -6.61458E-02  8.08455E-01  1.32160E+00  1.49742E+00  1.37590E+00  1.00991E+00  4.61136E-01 -2.04080E-01 -9.19372E-01
  -1.62248E+00 -2.25926E+00 -2.78667E+00 -3.17485E+00 -3.40777E+00 -3.48301E+00 -3.41061E+00 -3.21140E+00 -2.91468E+00 -2.55559E+00
  -2.17213E+00 -1.80267E+00 -1.48352E+00 -1.24724E+00 -1.12116E+00 -1.12632E+00 -1.27675E+00 -1.57947E+00 -2.03480E+00 -2.63711E+00
  -3.37556E+00 -4.23504E+00 -5.19708E+00 -6.24110E+00 -7.34544E+00 -8.48851E+00 -9.64942E+00 -1.08087E+01 -1.19486E+01 -1.30538E+01
  -1.41113E+01 -1.51111E+01 -1.60455E+01 -1.69091E+01 -1.76986E+01 -1.84128E+01 -1.90520E+01 -1.96179E+01 -2.01133E+01 -2.05415E+01
  -2.09064E+01 -2.12122E+01 -2.14634E+01 -2.16645E+01 -2.18198E+01 -2.19333E+01 -2.20088E+01 -2.20501E+01 -2.20606E+01 -2.20435E+01
  -2.20015E+01 -2.19370E+01 -2.18524E+01 -2.17498E+01 -2.16312E+01 -2.14981E+01 -2.13521E+01 -2.11944E+01 -2.10263E+01 -2.08489E+01
  -2.06632E+01 -2.04700E+01 -2.02702E+01 -2.00643E+01 -1.98530E+01 -1.96371E+01 -1.94170E+01 -1.91932E+01 -1.89661E+01 -1.87361E+01
  -1.85035E+01 -1.82689E+01 -1.80326E+01 -1.77945E+01 -1.75551E+01 -1.73143E+01 -1.70726E+01 -1.68299E+01 -1.65865E+01 -1.63423E+01
  -1.60973E+01 -1.58519E+01 -1.56060E+01 -1.53598E+01 -1.51132E+01 -1.48661E+01 -1.46188E+01 -1.43713E+01 -1.41236E+01 -1.38758E+01
  -1.36278E+01 -1.33795E+01 -1.31312E+01 -1.28827E+01 -1.26341E+01 -1.23854E+01 -1.21365E+01 -1.18874E+01 -1.16382E+01 -1.13889E+01
  -1.11395E+01 -1.08898E+01 -1.06399E+01 -1.03897E+01 -1.01393E+01 -9.88867E+00 -9.63777E+00 -9.38645E+00 -9.13474E+00 -8.88263E+00
  -8.63017E+00 -8.37728E+00 -8.12384E+00 -7.86976E+00 -7.61507E+00 -7.35975E+00 -7.10379E+00 -6.84706E+00
 NY background values follow
     1.773E+01    1.756E+01    1.739E+01    1.722E+01    1.705E+01    1.687E+01    1.670E+01    1.653E+01    1.635E+01    1.618E+01
     1.601E+01    1.583E+01    1.566E+01    1.548E+01    1.531E+01    1.513E+01    1.495E+01    1.478E+01    1.460E+01    1.442E+01
     1.424E+01    1.406E+01    1.388E+01    1.370E+01    1.352E+01    1.334E+01    1.316E+01    1.297E+01    1.279E+01    1.261E+01
     1.242E+01    1.224E+01    1.205E+01    1.186E+01    1.167E+01    1.149E+01    1.130E+01    1.111E+01    1.092E+01    1.072E+01
     1.053E+01    1.034E+01    1.014E+01    9.947E+00    9.750E+00    9.553E+00    9.355E+00    9.156E+00    8.955E+00    8.755E+00
     8.553E+00    8.350E+00    8.147E+00    7.943E+00    7.739E+00    7.533E+00    7.328E+00    7.121E+00    6.915E+00    6.708E+00
     6.500E+00    6.292E+00    6.084E+00    5.875E+00    5.666E+00    5.457E+00    5.248E+00    5.039E+00    4.830E+00    4.620E+00
     4.411E+00    4.202E+00    3.992E+00    3.783E+00    3.574E+00    3.365E+00    3.157E+00    2.949E+00    2.741E+00    2.533E+00
     2.326E+00    2.119E+00    1.913E+00    1.708E+00    1.502E+00    1.298E+00    1.094E+00    8.909E-01    6.885E-01    4.868E-01
     2.859E-01    8.593E-02   -1.132E-01   -3.116E-01   -5.091E-01   -7.058E-01   -9.017E-01   -1.097E+00   -1.291E+00   -1.485E+00
    -1.678E+00   -1.871E+00   -2.062E+00   -2.253E+00   -2.444E+00   -2.634E+00   -2.823E+00   -3.012E+00   -3.200E+00   -3.387E+00
    -3.575E+00   -3.761E+00   -3.948E+00   -4.133E+00   -4.319E+00   -4.504E+00   -4.688E+00   -4.872E+00   -5.056E+00   -5.240E+00
    -5.423E+00   -5.606E+00   -5.789E+00   -5.971E+00   -6.153E+00   -6.335E+00   -6.517E+00   -6.699E+00   -6.881E+00   -7.062E+00
    -7.243E+00   -7.424E+00   -7.606E+00   -7.787E+00   -7.968E+00   -8.149E+00   -8.330E+00   -8.511E+00   -8.692E+00   -8.873E+00
    -9.055E+00   -9.236E+00   -9.418E+00   -9.599E+00   -9.781E+00   -9.963E+00   -1.015E+01   -1.033E+01   -1.051E+01   -1.069E+01
    -1.088E+01   -1.106E+01   -1.124E+01   -1.143E+01   -1.161E+01   -1.180E+01   -1.198E+01   -1.217E+01   -1.236E+01   -1.254E+01
    -1.273E+01   -1.292E+01   -1.311E+01   -1.330E+01   -1.349E+01   -1.368E+01   -1.387E+01   -1.406E+01   -1.425E+01   -1.444E+01
    -1.464E+01   -1.483E+01   -1.502E+01   -1.522E+01   -1.542E+01   -1.561E+01   -1.581E+01   -1.601E+01   -1.621E+01   -1.641E+01
    -1.661E+01   -1.681E+01   -1.701E+01   -1.722E+01   -1.742E+01   -1.763E+01   -1.784E+01   -1.804E+01   -1.825E+01   -1.846E+01
    -1.867E+01   -1.889E+01   -1.910E+01   -1.931E+01   -1.953E+01   -1.974E+01   -1.996E+01   -2.018E+01   -2.040E+01   -2.062E+01
    -2.084E+01   -2.106E+01   -2.129E+01   -2.151E+01   -2.174E+01   -2.196E+01   -2.219E+01   -2.242E+01   -2.265E+01   -2.288E+01
    -2.312E+01   -2.335E+01   -2.359E+01   -2.383E+01   -2.406E+01   -2.430E+01   -2.454E+01   -2.479E+01   -2.503E+01   -2.527E+01
    -2.552E+01   -2.577E+01   -2.602E+01   -2.627E+01   -2.652E+01   -2.677E+01   -2.703E+01   -2.728E+01   -2.754E+01   -2.780E+01
    -2.806E+01   -2.832E+01   -2.858E+01   -2.884E+01   -2.911E+01   -2.937E+01   -2.964E+01   -2.990E+01   -3.017E+01   -3.043E+01
    -3.070E+01   -3.097E+01   -3.124E+01   -3.151E+01   -3.177E+01   -3.204E+01   -3.231E+01   -3.258E+01   -3.285E+01   -3.312E+01
    -3.339E+01   -3.365E+01   -3.392E+01   -3.419E+01   -3.445E+01   -3.472E+01   -3.498E+01   -3.525E+01   -3.551E+01   -3.577E+01
    -3.603E+01   -3.629E+01   -3.655E+01   -3.681E+01   -3.707E+01   -3.732E+01   -3.758E+01   -3.783E+01   -3.808E+01   -3.833E+01
    -3.858E+01   -3.882E+01   -3.907E+01   -3.931E+01   -3.955E+01   -3.979E+01   -4.002E+01   -4.025E+01   -4.048E+01   -4.071E+01
    -4.094E+01   -4.116E+01   -4.138E+01   -4.160E+01   -4.181E+01   -4.203E+01   -4.223E+01   -4.244E+01   -4.264E+01   -4.284E+01
    -4.304E+01   -4.323E+01   -4.342E+01   -4.360E+01   -4.378E+01   -4.396E+01   -4.413E+01   -4.430E+01   -4.447E+01   -4.463E+01
    -4.479E+01   -4.494E+01   -4.509E+01   -4.523E+01   -4.537E+01   -4.550E+01   -4.563E+01   -4.576E+01   -4.588E+01   -4.599E+01
    -4.610E+01   -4.621E+01   -4.631E+01   -4.640E+01   -4.649E+01   -4.657E+01   -4.665E+01   -4.672E+01   -4.679E+01   -4.685E+01
    -4.690E+01   -4.695E+01   -4.699E+01   -4.703E+01   -4.706E+01   -4.709E+01   -4.711E+01   -4.713E+01   -4.714E+01   -4.714E+01
    -4.714E+01   -4.713E+01   -4.712E+01   -4.710E+01   -4.707E+01   -4.704E+01   -4.701E+01   -4.697E+01   -4.692E+01   -4.687E+01
    -4.681E+01   -4.674E+01   -4.667E+01   -4.660E+01   -4.652E+01   -4.643E+01   -4.634E+01   -4.624E+01   -4.614E+01   -4.603E+01
    -4.592E+01   -4.580E+01   -4.567E+01   -4.554E+01   -4.540E+01   -4.526E+01   -4.511E+01   -4.496E+01   -4.480E+01   -4.464E+01
    -4.447E+01   -4.429E+01   -4.411E+01   -4.392E+01   -4.373E+01   -4.354E+01   -4.333E+01   -4.313E+01   -4.291E+01   -4.270E+01
    -4.248E+01   -4.225E+01   -4.202E+01   -4.178E+01   -4.155E+01   -4.130E+01   -4.106E+01   -4.080E+01   -4.055E+01   -4.029E+01
    -4.003E+01   -3.976E+01   -3.949E+01   -3.922E+01   -3.895E+01   -3.867E+01   -3.839E+01   -3.811E+01   -3.782E+01   -3.753E+01
    -3.724E+01   -3.695E+01   -3.665E+01   -3.635E+01   -3.605E+01   -3.575E+01   -3.545E+01   -3.514E+01   -3.483E+01   -3.453E+01
    -3.422E+01   -3.391E+01   -3.360E+01   -3.328E+01   -3.297E+01   -3.266E+01   -3.234E+01   -3.202E+01   -3.171E+01   -3.139E+01
    -3.108E+01   -3.076E+01   -3.044E+01   -3.013E+01   -2.981E+01   -2.949E+01   -2.917E+01   -2.886E+01   -2.854E+01   -2.822E+01
    -2.790E+01   -2.759E+01   -2.727E+01   -2.695E+01   -2.664E+01   -2.632E+01   -2.601E+01   -2.569E+01   -2.538E+01   -2.506E+01
    -2.475E+01   -2.443E+01   -2.412E+01   -2.381E+01   -2.350E+01   -2.319E+01   -2.288E+01   -2.257E+01   -2.226E+01   -2.196E+01
    -2.165E+01   -2.135E+01   -2.104E+01   -2.074E+01   -2.044E+01   -2.014E+01   -1.984E+01   -1.955E+01   -1.925E+01   -1.896E+01
    -1.866E+01   -1.837E+01   -1.808E+01   -1.779E+01   -1.751E+01   -1.722E+01   -1.694E+01   -1.666E+01   -1.638E+01   -1.610E+01
    -1.582E+01   -1.554E+01   -1.527E+01   -1.499E+01   -1.472E+01   -1.445E+01   -1.417E+01   -1.390E+01   -1.363E+01   -1.337E+01
    -1.310E+01   -1.283E+01   -1.257E+01   -1.230E+01   -1.204E+01   -1.177E+01   -1.151E+01   -1.125E+01   -1.099E+01   -1.073E+01
    -1.046E+01   -1.020E+01   -9.944E+00   -9.684E+00   -9.425E+00   -9.166E+00   -8.907E+00   -8.649E+00   -8.390E+00   -8.132E+00
    -7.873E+00   -7.615E+00   -7.357E+00   -7.099E+00   -6.840E+00   -6.582E+00   -6.323E+00   -6.064E+00
 Asp      Conc. = 3.61E+01
