 LCModel (Version 6.3-1L) Copyright: S.W. Provencher.          Ref.: Magn. Reson. Med. 30:672-679 (1993).                
 Slice#2 Row#7 Col#10  PD_05_press_2_raw_act
 36 lines in following concentration table = NCONC+1
    Conc.  %SD /Cr+PCr  Metabolite                                         
    0.000 999%   0.000 Ala                                                 
    0.000 999%   0.000 Asp                                                 
  239.805 183%   0.136 Cr                                                  
 1.52E+03  30%   0.864 PCr                                                 
   57.957 438% 3.3E-02 GABA                                                
  215.189 119%   0.122 Glc                                                 
 1.35E+03  31%   0.767 Gln                                                 
 2.76E+03  18%   1.572 Glu                                                 
  861.926   6%   0.490 GPC                                                 
    0.000 999%   0.000 PCh                                                 
  512.140  28%   0.291 GSH                                                 
 2.75E+03  17%   1.566 Ins                                                 
  412.036  52%   0.234 Lac                                                 
 3.66E+03   7%   2.084 NAA                                                 
  759.999  34%   0.432 NAAG                                                
  222.760  24%   0.127 Scyllo                                              
  344.038 103%   0.196 Tau                                                 
 1.24E+03  16%   0.707 -CrCH2                                              
  861.926   6%   0.490 GPC+PCh                                             
 4.42E+03   4%   2.517 NAA+NAAG                                            
 1.76E+03   7%   1.000 Cr+PCr                                              
 4.11E+03  16%   2.339 Glu+Gln                                             
 2.33E+03  37%   1.327 Lip13a                                              
    0.000 999%   0.000 Lip13b                                              
  556.000  77%   0.316 Lip09                                               
 1.90E+03  26%   1.083 MM09                                                
  317.157  92%   0.180 Lip20                                               
 4.03E+03  17%   2.292 MM20                                                
  543.022  68%   0.309 MM12                                                
  989.092  61%   0.563 MM14                                                
  625.017  58%   0.356 MM17                                                
 2.33E+03  37%   1.327 Lip13a+Lip13b                                       
 3.86E+03  16%   2.199 MM14+Lip13a+Lip13b+MM12                             
 2.46E+03  14%   1.399 MM09+Lip09                                          
 4.34E+03  15%   2.472 MM20+Lip20                                          
   6 lines in following misc. output table
  FWHM = 0.038 ppm    S/N =  11                                            
  Data shift = 0.015 ppm                                                   
  Ph: -33 deg      -6.2 deg/ppm                                            
  alphaB,S = 8.5E+00,   2.6E+01                                            
   14 spline knots.   Ns = 6(1)                                            
  ( 8) 2 infls.   ( 3) 1 extrs.                                            
  498 points on ppm-axis = NY
      4.000000     3.992357     3.984714     3.977070     3.969427     3.961784     3.954141     3.946497     3.938854     3.931211
      3.923568     3.915925     3.908281     3.900638     3.892995     3.885352     3.877708     3.870065     3.862422     3.854779
      3.847136     3.839492     3.831849     3.824206     3.816563     3.808919     3.801276     3.793633     3.785990     3.778347
      3.770703     3.763060     3.755417     3.747774     3.740130     3.732487     3.724844     3.717201     3.709558     3.701914
      3.694271     3.686628     3.678985     3.671341     3.663698     3.656055     3.648412     3.640769     3.633125     3.625482
      3.617839     3.610196     3.602552     3.594909     3.587266     3.579623     3.571980     3.564336     3.556693     3.549050
      3.541407     3.533763     3.526120     3.518477     3.510834     3.503191     3.495547     3.487904     3.480261     3.472618
      3.464974     3.457331     3.449688     3.442045     3.434402     3.426758     3.419115     3.411472     3.403829     3.396185
      3.388542     3.380899     3.373256     3.365613     3.357969     3.350326     3.342683     3.335040     3.327396     3.319753
      3.312110     3.304467     3.296824     3.289180     3.281537     3.273894     3.266251     3.258607     3.250964     3.243321
      3.235678     3.228034     3.220391     3.212748     3.205105     3.197462     3.189818     3.182175     3.174532     3.166889
      3.159245     3.151602     3.143959     3.136316     3.128673     3.121029     3.113386     3.105743     3.098100     3.090456
      3.082813     3.075170     3.067527     3.059884     3.052240     3.044597     3.036954     3.029311     3.021667     3.014024
      3.006381     2.998738     2.991095     2.983451     2.975808     2.968165     2.960522     2.952878     2.945235     2.937592
      2.929949     2.922306     2.914662     2.907019     2.899376     2.891733     2.884089     2.876446     2.868803     2.861160
      2.853517     2.845873     2.838230     2.830587     2.822944     2.815300     2.807657     2.800014     2.792371     2.784728
      2.777084     2.769441     2.761798     2.754155     2.746511     2.738868     2.731225     2.723582     2.715939     2.708295
      2.700652     2.693009     2.685366     2.677722     2.670079     2.662436     2.654793     2.647150     2.639506     2.631863
      2.624220     2.616577     2.608933     2.601290     2.593647     2.586004     2.578361     2.570717     2.563074     2.555431
      2.547788     2.540144     2.532501     2.524858     2.517215     2.509572     2.501928     2.494285     2.486642     2.478999
      2.471355     2.463712     2.456069     2.448426     2.440783     2.433139     2.425496     2.417853     2.410210     2.402566
      2.394923     2.387280     2.379637     2.371994     2.364350     2.356707     2.349064     2.341421     2.333777     2.326134
      2.318491     2.310848     2.303205     2.295561     2.287918     2.280275     2.272632     2.264988     2.257345     2.249702
      2.242059     2.234416     2.226772     2.219129     2.211486     2.203843     2.196199     2.188556     2.180913     2.173270
      2.165627     2.157983     2.150340     2.142697     2.135054     2.127410     2.119767     2.112124     2.104481     2.096838
      2.089194     2.081551     2.073908     2.066265     2.058621     2.050978     2.043335     2.035692     2.028049     2.020405
      2.012762     2.005119     1.997476     1.989833     1.982190     1.974546     1.966903     1.959260     1.951617     1.943974
      1.936331     1.928688     1.921045     1.913402     1.905759     1.898115     1.890472     1.882829     1.875186     1.867543
      1.859900     1.852257     1.844614     1.836971     1.829327     1.821684     1.814041     1.806398     1.798755     1.791112
      1.783469     1.775826     1.768183     1.760540     1.752896     1.745253     1.737610     1.729967     1.722324     1.714681
      1.707038     1.699395     1.691752     1.684108     1.676465     1.668822     1.661179     1.653536     1.645893     1.638250
      1.630607     1.622964     1.615321     1.607677     1.600034     1.592391     1.584748     1.577105     1.569462     1.561819
      1.554176     1.546533     1.538890     1.531246     1.523603     1.515960     1.508317     1.500674     1.493031     1.485388
      1.477745     1.470102     1.462458     1.454815     1.447172     1.439529     1.431886     1.424243     1.416600     1.408957
      1.401314     1.393671     1.386027     1.378384     1.370741     1.363098     1.355455     1.347812     1.340169     1.332526
      1.324883     1.317240     1.309596     1.301953     1.294310     1.286667     1.279024     1.271381     1.263738     1.256095
      1.248452     1.240808     1.233165     1.225522     1.217879     1.210236     1.202593     1.194950     1.187307     1.179664
      1.172021     1.164377     1.156734     1.149091     1.141448     1.133805     1.126162     1.118519     1.110876     1.103233
      1.095590     1.087946     1.080303     1.072660     1.065017     1.057374     1.049731     1.042088     1.034445     1.026802
      1.019158     1.011515     1.003872     0.996229     0.988586     0.980943     0.973300     0.965657     0.958014     0.950371
      0.942727     0.935084     0.927441     0.919798     0.912155     0.904512     0.896869     0.889226     0.881583     0.873940
      0.866296     0.858653     0.851010     0.843367     0.835724     0.828081     0.820438     0.812795     0.805152     0.797508
      0.789865     0.782222     0.774579     0.766936     0.759293     0.751650     0.744007     0.736364     0.728721     0.721077
      0.713434     0.705791     0.698148     0.690505     0.682862     0.675219     0.667576     0.659933     0.652290     0.644646
      0.637003     0.629360     0.621717     0.614074     0.606431     0.598788     0.591145     0.583502     0.575858     0.568215
      0.560572     0.552929     0.545286     0.537643     0.530000     0.522357     0.514714     0.507071     0.499427     0.491784
      0.484141     0.476498     0.468855     0.461212     0.453569     0.445925     0.438282     0.430639     0.422996     0.415353
      0.407710     0.400067     0.392424     0.384780     0.377137     0.369494     0.361851     0.354208     0.346565     0.338922
      0.331278     0.323635     0.315992     0.308349     0.300706     0.293063     0.285420     0.277777     0.270133     0.262490
      0.254847     0.247204     0.239561     0.231918     0.224275     0.216631     0.208988     0.201345
 NY phased data points follow
   1.62855E+01  2.22444E+01  2.61210E+01  1.81488E+01  1.45274E+01  1.90754E+01  6.77995E+00  1.93790E+01  3.42666E+01  2.27689E+01
   3.08781E+01  1.71067E+01  1.76119E+01  2.74788E+01  2.30334E+01  1.85341E+01  2.81129E+01  2.46923E+01  2.76794E+01  1.50079E+01
   1.81859E+01  2.26243E+01  1.69088E+01  1.68854E+01  1.77902E+01  1.77457E+01  2.83858E+01  2.39261E+01  1.91142E+01  2.77227E+01
   2.18816E+01  1.88761E+01  2.47347E+01  1.97020E+01  2.29615E+01  3.01579E+01  3.49814E+01  2.94849E+01  1.91952E+01  2.03729E+01
   2.36193E+01  2.94947E+01  2.56351E+01  2.00157E+01  2.68761E+01  3.55761E+01  3.62518E+01  3.20822E+01  3.21588E+01  3.50354E+01
   2.97460E+01  2.92620E+01  1.98893E+01  2.23131E+01  2.24530E+01  1.73113E+01  2.53025E+01  2.10274E+01  1.86783E+01  1.73993E+01
   1.62954E+01  1.57957E+01  1.49404E+01  7.79371E+00 -1.66798E+00  4.79238E-01  6.24765E+00  9.45368E+00  8.44665E+00  1.13889E+01
   1.60842E+01  1.21430E+01  1.75423E+01  1.23803E+01  1.07073E+01  6.95518E+00  1.48493E+01  1.23092E+01  2.12582E+01  1.13493E+01
   1.10316E+01  9.00356E+00  1.06740E+01  1.07897E+01  2.33051E+01  1.77521E+01  2.08450E+01  2.27870E+01  1.46084E+01  1.74952E+01
   1.84163E+01  1.70057E+01  2.00871E+01  1.50079E+01  2.73907E+01  2.15341E+01  2.06714E+01  1.18553E+01  2.68188E+01  3.77619E+01
   5.98105E+01  7.37789E+01  8.91486E+01  9.61612E+01  8.56604E+01  6.74296E+01  5.82203E+01  4.70309E+01  3.70336E+01  1.42191E+01
   2.92974E+01  6.06596E+00  1.67868E+01  1.67278E+01  1.38698E+01  1.19703E+01  6.47421E+00  1.08443E+01  1.13332E+01  1.45880E+01
   1.09522E+01  1.03972E+01  1.01344E+01  5.61571E+00  3.53817E+01  5.08886E+01  7.12762E+01  7.91273E+01  7.62089E+01  6.35579E+01
   4.67365E+01  4.24122E+01  1.82408E+01  2.71599E+01  1.24919E+01  1.92559E+01  1.23780E+01  1.13735E+01  1.08794E+01  7.96289E+00
   1.89487E+01  1.30922E+01  1.16403E+01  8.83390E+00  1.16958E+00  4.37155E+00  8.73566E+00  2.95189E+00  5.91182E+00  3.85154E+00
   1.04920E+01  8.66442E+00  1.06824E+01  1.67596E+01  8.15389E+00 -1.89593E+00  1.50530E+01  1.11376E+01  1.82267E+01  8.98622E+00
   1.16700E+01  5.38058E+00  1.11565E+01 -3.93535E+00  2.57431E+00  8.96375E+00  6.21907E-01 -5.96305E+00 -1.59295E+01 -1.85508E+01
  -1.37223E+01 -1.24706E+01 -2.31316E+01 -1.53093E+01 -1.46144E+01 -2.54409E+01 -2.41290E+01 -3.05037E+01 -2.09779E+01 -1.86939E+01
  -6.31659E+00 -1.75986E+01 -9.25795E+00 -7.94074E-01 -4.85781E+00 -3.52615E+00 -5.67967E+00 -2.64663E+01 -1.61694E+01 -1.02449E+01
  -1.09219E+01  6.37309E+00  1.24648E+00  4.26187E+00  6.36732E+00 -1.17782E+01 -9.07116E+00 -1.69413E+01 -1.73108E+01 -9.36661E+00
  -1.59573E+00 -1.41750E+01  3.97588E+00  1.02546E+00  1.46004E+01  1.43833E+01  8.71585E+00  5.36219E-01 -3.67221E-01 -7.30696E-01
  -1.00138E+01  3.69969E+00  1.01439E+01  8.83504E+00  2.39977E+01  2.28989E+01  2.94054E+01  3.30047E+01  2.07779E+01  2.46121E+01
   6.20608E+00  5.64624E-01 -3.13717E+00 -2.21807E-01 -8.93992E+00  1.01443E+01  5.99339E+00  1.71214E+01  1.73925E+01  1.63343E+01
   1.70358E+01  2.23238E+01  1.91499E+01  1.27091E+01  2.07203E+01  1.70813E+01  2.00865E+01  1.62512E+01  2.34204E+01  2.57948E+01
   1.25997E+01  1.47331E+01  1.17179E+01  1.13219E+00  8.08182E+00  7.91271E+00  1.75481E+01  2.89692E+01  1.77771E+01  1.70402E+01
   1.69782E+01  3.01411E+01  3.05628E+01  4.32107E+01  5.30905E+01  6.21515E+01  6.39078E+01  8.85242E+01  1.16919E+02  1.46958E+02
   1.73476E+02  1.68620E+02  1.49639E+02  1.12816E+02  7.96660E+01  6.04907E+01  3.70556E+01  2.17584E+01  9.65995E+00  1.24964E+01
   1.72460E+01  1.76794E+01  2.48518E+01  1.39548E+01  1.29468E+01  7.62818E+00 -6.49190E+00  1.23321E+01  4.48554E+00  6.55808E+00
   1.17353E+00  1.52347E+00  3.69951E+00  2.42101E+00  1.04908E+01  7.80724E+00  1.91914E+00  1.05855E+01  5.12198E+00  1.38760E+01
   8.95918E+00  1.22125E+01  1.11707E+01  1.02618E+01  1.63089E+01  1.83626E+01  1.10203E+01  1.11908E+01  3.60635E+00 -6.99763E-01
   9.09840E+00  4.57863E+00  1.48506E+01  4.16638E+00  2.55752E+00  7.51942E+00  4.33911E+00  6.04698E+00  1.28563E+01  3.39247E+00
  -6.38243E+00  1.02012E+00  9.36050E+00  9.59973E-01  1.39095E+01  5.82656E+00  1.83621E+00  1.71151E+01  1.20763E+01  1.41395E+01
   1.11206E+00 -3.02374E+00  9.78281E+00  8.97800E+00  4.33024E+00  3.10731E+00  1.03254E+01  5.01244E-01  3.91615E+00  1.16901E+01
   7.97616E+00  1.49278E+01 -4.32329E-01  9.29186E+00  1.24193E+01  1.05849E+01  7.77370E+00  1.16711E+01  8.30201E+00  4.29659E+00
   1.76016E+01  1.50569E+01  8.51552E+00  1.47175E+01  2.27831E+01  1.90671E+01  2.52516E+01  2.89865E+01  1.93139E+01  1.34542E+01
   1.57680E+01  1.06359E+01  8.20114E+00  9.95258E+00  1.85853E+01  1.94860E+01  1.28149E+01  1.84005E+01  9.74683E+00  1.68448E+01
   1.80510E+01  1.28019E+01  2.02575E+01  1.72140E+01  1.71540E+01  7.09799E+00  8.04882E+00  1.20378E+01  1.48495E+01  1.77678E+01
   6.46182E+00  1.32789E+01  1.51970E+01  1.09830E+01  1.01718E+01  5.50552E+00  8.75916E+00  1.17708E+01  5.31615E+00  1.11430E+00
   5.07632E+00  3.78151E+00 -1.57953E+00  1.51798E+01  9.33759E+00  9.99728E+00  1.72737E+01  1.46126E+01  3.58095E+00  1.12098E+01
   4.57356E+00  1.66383E+01  6.82623E+00  1.31209E+01  1.76232E+01  1.03257E+01  1.28159E+01  1.58079E+01  2.02730E+01  2.05989E+01
   1.57225E+01  1.61148E+01  1.94428E+01  1.51307E+01  1.02302E+01  2.44800E+01  1.42250E+01  1.65503E+01  1.93961E+01  1.05191E+01
   1.39075E+01  1.76524E+01  1.21939E+01  2.04447E+01  2.11492E+01  9.09711E+00  8.49885E+00  1.20075E+01  1.79080E+01  8.25446E+00
   4.46862E-01  1.12410E+01 -6.25173E-01  1.14251E+01  1.45042E+01 -2.99469E+00  4.81658E+00  9.84603E+00  5.67410E+00  1.04665E+01
   1.68383E+01  4.12436E+00  2.15418E+00  4.84589E+00  2.47836E-01 -2.47757E-02 -8.66292E+00  4.87540E+00  1.05510E+01  3.12850E-01
   1.03425E+01  1.10585E+01  1.26089E+01  1.94026E+00  4.40499E+00  1.89422E+00  1.41388E+00 -4.56764E+00 -3.54157E+00  7.65744E+00
  -2.84831E+00  4.95522E+00 -4.32397E+00  1.85645E+00 -2.88707E+00 -8.56833E+00 -3.41687E-01  5.41226E+00 -2.03088E+00  1.10837E+01
   1.16112E+00  1.32518E+00 -1.42217E+00  5.89355E+00 -3.26607E+00 -4.83914E+00  1.51845E+00  2.96448E+00 -6.50790E+00 -2.68687E+00
   6.85478E+00 -7.12688E-01  7.54611E+00 -9.25637E-01  6.42548E+00  1.17055E+00  3.73203E+00  1.09687E+01  1.39484E+00 -6.13368E+00
  -4.19734E+00  2.17631E+00  8.36533E+00  1.41384E+01 -6.83570E-01 -5.04394E+00  1.53263E+00 -3.87551E+00  2.39077E+00  2.51878E+00
   5.19030E+00 -4.02678E+00  1.53594E+00 -6.70320E+00  3.02717E+00  1.03704E+01  1.31599E+00  1.87581E+00
 NY points of the fit to the data follow
   1.50217E+01  1.43548E+01  1.42830E+01  1.47179E+01  1.58809E+01  1.75450E+01  1.96951E+01  2.20394E+01  2.45315E+01  2.67818E+01
   2.79445E+01  2.77350E+01  2.63169E+01  2.42423E+01  2.22184E+01  2.04823E+01  1.91146E+01  1.79252E+01  1.69538E+01  1.63707E+01
   1.61126E+01  1.61751E+01  1.59834E+01  1.58599E+01  1.61112E+01  1.56034E+01  1.58499E+01  1.75463E+01  2.01958E+01  2.39552E+01
   2.75922E+01  3.03467E+01  3.15527E+01  3.07479E+01  2.85235E+01  2.53843E+01  2.12157E+01  1.69642E+01  1.39226E+01  1.24752E+01
   1.29248E+01  1.46461E+01  1.67497E+01  1.95534E+01  2.38236E+01  2.93625E+01  3.46160E+01  3.73726E+01  3.61182E+01  3.13782E+01
   2.51879E+01  1.96792E+01  1.57118E+01  1.31888E+01  1.15349E+01  1.11051E+01  1.21623E+01  1.41140E+01  1.64856E+01  1.85483E+01
   1.94738E+01  1.88866E+01  1.68712E+01  1.45163E+01  1.26247E+01  1.16827E+01  1.16437E+01  1.20570E+01  1.29127E+01  1.42028E+01
   1.55053E+01  1.64492E+01  1.70757E+01  1.73562E+01  1.71756E+01  1.67661E+01  1.61229E+01  1.51753E+01  1.39850E+01  1.30217E+01
   1.28604E+01  1.32635E+01  1.34124E+01  1.47729E+01  1.73635E+01  1.95102E+01  2.04394E+01  1.95321E+01  1.69397E+01  1.40298E+01
   1.21760E+01  1.14774E+01  1.13660E+01  1.14059E+01  1.14798E+01  1.25460E+01  1.57180E+01  2.00902E+01  2.30395E+01  3.37190E+01
   5.41364E+01  7.63122E+01  9.38207E+01  9.95170E+01  9.08610E+01  7.33355E+01  5.49240E+01  4.05421E+01  2.93973E+01  1.94388E+01
   1.16631E+01  8.80295E+00  8.10309E+00  7.88476E+00  7.83056E+00  7.84396E+00  7.90082E+00  7.97828E+00  8.15119E+00  8.57508E+00
   9.96341E+00  1.36676E+01  1.61731E+01  2.12076E+01  3.43601E+01  5.13507E+01  6.67323E+01  7.55463E+01  7.35567E+01  6.26996E+01
   4.92022E+01  3.79102E+01  2.92229E+01  2.13366E+01  1.33681E+01  8.27318E+00  6.11405E+00  5.25772E+00  5.49434E+00  6.40224E+00
   7.42512E+00  8.27952E+00  8.74715E+00  8.71180E+00  8.33111E+00  7.84851E+00  7.33983E+00  6.86231E+00  6.38140E+00  5.97682E+00
   5.65843E+00  5.26250E+00  4.83686E+00  4.50240E+00  4.23304E+00  4.09721E+00  4.39916E+00  4.55642E+00  4.02461E+00  3.02812E+00
   1.65372E+00  9.25217E-01  1.36549E+00  2.28396E+00  2.97392E+00  2.88811E+00  1.88655E+00  5.34119E-01 -5.37610E-01 -1.32116E+00
  -1.91286E+00 -2.22756E+00 -2.63370E+00 -3.57678E+00 -4.70857E+00 -5.48910E+00 -5.30777E+00 -4.35146E+00 -3.53001E+00 -3.35789E+00
  -3.70982E+00 -4.06616E+00 -3.59491E+00 -2.79012E+00 -2.49766E+00 -2.32082E+00 -1.49435E+00  3.20749E-01  3.20951E+00  6.36001E+00
   8.60389E+00  9.52378E+00  9.12481E+00  8.09434E+00  6.72054E+00  5.06358E+00  3.77674E+00  3.35731E+00  4.03679E+00  5.72033E+00
   8.34356E+00  1.14639E+01  1.40761E+01  1.57695E+01  1.58230E+01  1.43512E+01  1.05325E+01  4.54968E+00 -1.15804E+00 -5.37831E+00
  -7.42725E+00 -6.53880E+00 -3.54499E+00  2.24526E+00  9.94581E+00  1.71577E+01  2.18362E+01  2.23533E+01  1.87519E+01  1.24256E+01
   4.53962E+00 -2.90440E+00 -7.82352E+00 -9.15347E+00 -6.39087E+00 -3.99988E-01  6.03071E+00  1.11332E+01  1.41958E+01  1.55272E+01
   1.57259E+01  1.51949E+01  1.40711E+01  1.33126E+01  1.36553E+01  1.46265E+01  1.58927E+01  1.74704E+01  1.89084E+01  1.91645E+01
   1.76594E+01  1.51587E+01  1.29950E+01  1.20101E+01  1.23709E+01  1.39914E+01  1.61442E+01  1.80660E+01  1.95110E+01  2.09889E+01
   2.30520E+01  2.42879E+01  2.74725E+01  3.54971E+01  4.99806E+01  6.15346E+01  6.98581E+01  9.05641E+01  1.20362E+02  1.49199E+02
   1.68687E+02  1.67760E+02  1.45602E+02  1.13486E+02  8.51834E+01  6.44349E+01  4.71551E+01  3.04347E+01  1.94306E+01  1.56954E+01
   1.37797E+01  1.25248E+01  1.18403E+01  1.16210E+01  1.15102E+01  1.13031E+01  1.09423E+01  1.04260E+01  9.79809E+00  9.18713E+00
   8.65390E+00  8.17387E+00  7.80799E+00  7.60844E+00  7.49326E+00  7.37548E+00  7.24168E+00  7.09393E+00  6.96551E+00  6.88155E+00
   6.85336E+00  6.91165E+00  7.03516E+00  7.16799E+00  7.29090E+00  7.37929E+00  7.42385E+00  7.44523E+00  7.44586E+00  7.43802E+00
   7.45042E+00  7.48514E+00  7.51933E+00  7.53705E+00  7.52914E+00  7.49806E+00  7.44069E+00  7.35268E+00  7.24120E+00  7.11984E+00
   6.99176E+00  6.86400E+00  6.73945E+00  6.62532E+00  6.52464E+00  6.44498E+00  6.38777E+00  6.35769E+00  6.35409E+00  6.38135E+00
   6.43910E+00  6.53038E+00  6.65169E+00  6.80370E+00  6.98277E+00  7.19047E+00  7.42331E+00  7.68141E+00  7.95959E+00  8.25772E+00
   8.57218E+00  8.90480E+00  9.25274E+00  9.61755E+00  9.99676E+00  1.03943E+01  1.08121E+01  1.12588E+01  1.17422E+01  1.22827E+01
   1.29245E+01  1.37564E+01  1.45158E+01  1.53346E+01  1.68120E+01  1.82381E+01  1.87811E+01  1.81629E+01  1.63145E+01  1.40688E+01
   1.19468E+01  1.03310E+01  1.00370E+01  1.10114E+01  1.28971E+01  1.54697E+01  1.78637E+01  1.91261E+01  1.92944E+01  1.88891E+01
   1.83136E+01  1.76004E+01  1.66069E+01  1.55865E+01  1.47773E+01  1.40722E+01  1.34132E+01  1.27839E+01  1.21765E+01  1.15934E+01
   1.10352E+01  1.05082E+01  1.00139E+01  9.55771E+00  9.14101E+00  8.76950E+00  8.44469E+00  8.17174E+00  7.95091E+00  7.78648E+00
   7.67882E+00  7.63291E+00  7.64943E+00  7.73272E+00  7.88237E+00  8.10201E+00  8.39103E+00  8.75249E+00  9.18401E+00  9.68563E+00
   1.02515E+01  1.08785E+01  1.15575E+01  1.22816E+01  1.30369E+01  1.38113E+01  1.45866E+01  1.53478E+01  1.60747E+01  1.67511E+01
   1.73562E+01  1.78744E+01  1.82881E+01  1.85871E+01  1.87599E+01  1.88027E+01  1.87111E+01  1.84890E+01  1.81401E+01  1.76761E+01
   1.71076E+01  1.64509E+01  1.57200E+01  1.49335E+01  1.41070E+01  1.32592E+01  1.24037E+01  1.15560E+01  1.07257E+01  9.92463E+00
   9.15884E+00  8.43617E+00  7.75826E+00  7.12870E+00  6.54587E+00  6.01120E+00  5.52145E+00  5.07632E+00  4.67082E+00  4.30350E+00
   3.96923E+00  3.66705E+00  3.39224E+00  3.14375E+00  2.91662E+00  2.71009E+00  2.52014E+00  2.34700E+00  2.18715E+00  2.04067E+00
   1.90399E+00  1.77771E+00  1.65917E+00  1.54958E+00  1.44624E+00  1.35002E+00  1.25816E+00  1.17209E+00  1.08978E+00  1.01281E+00
   9.38791E-01  8.68940E-01  8.01010E-01  7.36803E-01  6.74536E-01  6.15871E-01  5.58511E-01  5.03864E-01  4.49991E-01  3.98863E-01
   3.48724E-01  3.01166E-01  2.53970E-01  2.08722E-01  1.63702E-01  1.20932E-01  7.85966E-02  3.81887E-02 -2.42304E-03 -4.14902E-02
  -8.05948E-02 -1.17772E-01 -1.54929E-01 -1.90607E-01 -2.26795E-01 -2.61609E-01 -2.96571E-01 -3.29842E-01 -3.63426E-01 -3.95864E-01
  -4.28982E-01 -4.60801E-01 -4.92866E-01 -5.23479E-01 -5.54687E-01 -5.84960E-01 -6.15965E-01 -6.45695E-01 -6.75773E-01 -7.04644E-01
  -7.34349E-01 -7.63254E-01 -7.92895E-01 -8.21304E-01 -8.50216E-01 -8.78185E-01 -9.07185E-01 -9.35465E-01
 NY background values follow
     6.712E+00    6.692E+00    6.672E+00    6.651E+00    6.631E+00    6.611E+00    6.590E+00    6.570E+00    6.550E+00    6.529E+00
     6.509E+00    6.488E+00    6.468E+00    6.448E+00    6.427E+00    6.407E+00    6.387E+00    6.366E+00    6.346E+00    6.326E+00
     6.305E+00    6.285E+00    6.264E+00    6.244E+00    6.224E+00    6.203E+00    6.183E+00    6.162E+00    6.142E+00    6.122E+00
     6.101E+00    6.081E+00    6.060E+00    6.040E+00    6.020E+00    5.999E+00    5.979E+00    5.958E+00    5.938E+00    5.917E+00
     5.897E+00    5.877E+00    5.856E+00    5.836E+00    5.815E+00    5.795E+00    5.774E+00    5.754E+00    5.734E+00    5.713E+00
     5.693E+00    5.672E+00    5.652E+00    5.631E+00    5.611E+00    5.591E+00    5.570E+00    5.550E+00    5.529E+00    5.509E+00
     5.488E+00    5.468E+00    5.448E+00    5.427E+00    5.407E+00    5.386E+00    5.366E+00    5.345E+00    5.325E+00    5.305E+00
     5.284E+00    5.264E+00    5.243E+00    5.223E+00    5.203E+00    5.182E+00    5.162E+00    5.141E+00    5.121E+00    5.101E+00
     5.080E+00    5.060E+00    5.039E+00    5.019E+00    4.999E+00    4.978E+00    4.958E+00    4.938E+00    4.917E+00    4.897E+00
     4.876E+00    4.856E+00    4.836E+00    4.815E+00    4.795E+00    4.775E+00    4.755E+00    4.734E+00    4.714E+00    4.694E+00
     4.673E+00    4.653E+00    4.633E+00    4.612E+00    4.592E+00    4.572E+00    4.552E+00    4.531E+00    4.511E+00    4.491E+00
     4.471E+00    4.451E+00    4.430E+00    4.410E+00    4.390E+00    4.370E+00    4.350E+00    4.329E+00    4.309E+00    4.289E+00
     4.269E+00    4.249E+00    4.229E+00    4.209E+00    4.189E+00    4.169E+00    4.148E+00    4.128E+00    4.108E+00    4.088E+00
     4.068E+00    4.048E+00    4.028E+00    4.008E+00    3.988E+00    3.968E+00    3.948E+00    3.928E+00    3.908E+00    3.888E+00
     3.869E+00    3.849E+00    3.829E+00    3.809E+00    3.789E+00    3.769E+00    3.749E+00    3.730E+00    3.710E+00    3.690E+00
     3.670E+00    3.650E+00    3.631E+00    3.611E+00    3.591E+00    3.572E+00    3.552E+00    3.532E+00    3.513E+00    3.493E+00
     3.473E+00    3.454E+00    3.434E+00    3.415E+00    3.395E+00    3.376E+00    3.356E+00    3.337E+00    3.317E+00    3.298E+00
     3.278E+00    3.259E+00    3.240E+00    3.220E+00    3.201E+00    3.182E+00    3.162E+00    3.143E+00    3.124E+00    3.105E+00
     3.086E+00    3.066E+00    3.047E+00    3.028E+00    3.009E+00    2.990E+00    2.971E+00    2.952E+00    2.933E+00    2.914E+00
     2.895E+00    2.876E+00    2.857E+00    2.838E+00    2.819E+00    2.801E+00    2.782E+00    2.763E+00    2.744E+00    2.726E+00
     2.707E+00    2.688E+00    2.669E+00    2.651E+00    2.632E+00    2.614E+00    2.595E+00    2.576E+00    2.558E+00    2.539E+00
     2.521E+00    2.502E+00    2.484E+00    2.465E+00    2.447E+00    2.429E+00    2.410E+00    2.392E+00    2.374E+00    2.355E+00
     2.337E+00    2.319E+00    2.301E+00    2.282E+00    2.264E+00    2.246E+00    2.228E+00    2.210E+00    2.191E+00    2.173E+00
     2.155E+00    2.137E+00    2.119E+00    2.101E+00    2.083E+00    2.065E+00    2.047E+00    2.029E+00    2.011E+00    1.993E+00
     1.975E+00    1.958E+00    1.940E+00    1.922E+00    1.904E+00    1.886E+00    1.868E+00    1.851E+00    1.833E+00    1.815E+00
     1.798E+00    1.780E+00    1.762E+00    1.745E+00    1.727E+00    1.709E+00    1.692E+00    1.674E+00    1.657E+00    1.639E+00
     1.622E+00    1.604E+00    1.587E+00    1.569E+00    1.552E+00    1.534E+00    1.517E+00    1.499E+00    1.482E+00    1.465E+00
     1.447E+00    1.430E+00    1.413E+00    1.396E+00    1.378E+00    1.361E+00    1.344E+00    1.327E+00    1.309E+00    1.292E+00
     1.275E+00    1.258E+00    1.241E+00    1.224E+00    1.207E+00    1.190E+00    1.173E+00    1.155E+00    1.138E+00    1.121E+00
     1.104E+00    1.087E+00    1.071E+00    1.054E+00    1.037E+00    1.020E+00    1.003E+00    9.860E-01    9.692E-01    9.523E-01
     9.355E-01    9.187E-01    9.019E-01    8.851E-01    8.684E-01    8.516E-01    8.349E-01    8.182E-01    8.015E-01    7.848E-01
     7.682E-01    7.515E-01    7.349E-01    7.183E-01    7.016E-01    6.851E-01    6.685E-01    6.519E-01    6.354E-01    6.188E-01
     6.023E-01    5.858E-01    5.693E-01    5.529E-01    5.364E-01    5.199E-01    5.035E-01    4.871E-01    4.707E-01    4.543E-01
     4.379E-01    4.216E-01    4.052E-01    3.889E-01    3.726E-01    3.562E-01    3.399E-01    3.237E-01    3.074E-01    2.911E-01
     2.749E-01    2.587E-01    2.424E-01    2.262E-01    2.100E-01    1.939E-01    1.777E-01    1.615E-01    1.454E-01    1.293E-01
     1.131E-01    9.704E-02    8.094E-02    6.486E-02    4.879E-02    3.273E-02    1.668E-02    6.437E-04   -1.538E-02   -3.140E-02
    -4.740E-02   -6.339E-02   -7.937E-02   -9.534E-02   -1.113E-01   -1.272E-01   -1.432E-01   -1.591E-01   -1.750E-01   -1.909E-01
    -2.068E-01   -2.227E-01   -2.386E-01   -2.544E-01   -2.703E-01   -2.861E-01   -3.020E-01   -3.178E-01   -3.336E-01   -3.494E-01
    -3.652E-01   -3.810E-01   -3.968E-01   -4.125E-01   -4.283E-01   -4.440E-01   -4.598E-01   -4.755E-01   -4.912E-01   -5.069E-01
    -5.226E-01   -5.383E-01   -5.540E-01   -5.697E-01   -5.854E-01   -6.010E-01   -6.167E-01   -6.323E-01   -6.479E-01   -6.636E-01
    -6.792E-01   -6.948E-01   -7.104E-01   -7.260E-01   -7.416E-01   -7.572E-01   -7.727E-01   -7.883E-01   -8.039E-01   -8.194E-01
    -8.349E-01   -8.505E-01   -8.660E-01   -8.815E-01   -8.971E-01   -9.126E-01   -9.281E-01   -9.436E-01   -9.590E-01   -9.745E-01
    -9.900E-01   -1.005E+00   -1.021E+00   -1.036E+00   -1.052E+00   -1.067E+00   -1.083E+00   -1.098E+00   -1.114E+00   -1.129E+00
    -1.144E+00   -1.160E+00   -1.175E+00   -1.191E+00   -1.206E+00   -1.221E+00   -1.237E+00   -1.252E+00   -1.268E+00   -1.283E+00
    -1.298E+00   -1.314E+00   -1.329E+00   -1.344E+00   -1.360E+00   -1.375E+00   -1.390E+00   -1.406E+00   -1.421E+00   -1.436E+00
    -1.452E+00   -1.467E+00   -1.482E+00   -1.498E+00   -1.513E+00   -1.528E+00   -1.544E+00   -1.559E+00   -1.574E+00   -1.590E+00
    -1.605E+00   -1.620E+00   -1.635E+00   -1.651E+00   -1.666E+00   -1.681E+00   -1.697E+00   -1.712E+00   -1.727E+00   -1.742E+00
    -1.758E+00   -1.773E+00   -1.788E+00   -1.803E+00   -1.819E+00   -1.834E+00   -1.849E+00   -1.864E+00   -1.880E+00   -1.895E+00
    -1.910E+00   -1.925E+00   -1.941E+00   -1.956E+00   -1.971E+00   -1.986E+00   -2.002E+00   -2.017E+00   -2.032E+00   -2.047E+00
    -2.062E+00   -2.078E+00   -2.093E+00   -2.108E+00   -2.123E+00   -2.139E+00   -2.154E+00   -2.169E+00
 Cr       Conc. = 2.40E+02
