 LCModel (Version 6.3-1L) Copyright: S.W. Provencher.          Ref.: Magn. Reson. Med. 30:672-679 (1993).                
 Slice#1 Row#7 Col#4  PD_05_press_2_raw_act
 36 lines in following concentration table = NCONC+1
    Conc.  %SD /Cr+PCr  Metabolite                                         
   30.198 722% 2.1E-02 Ala                                                 
    0.000 999%   0.000 Asp                                                 
  523.649  63%   0.366 Cr                                                  
  905.154  38%   0.634 PCr                                                 
  186.236 112%   0.130 GABA                                                
  246.608  86%   0.173 Glc                                                 
  334.206 132%   0.234 Gln                                                 
 1.57E+03  32%   1.097 Glu                                                 
  643.536   7%   0.450 GPC                                                 
    0.000 999%   0.000 PCh                                                 
  514.078  30%   0.360 GSH                                                 
 2.90E+03  17%   2.031 Ins                                                 
  604.134  40%   0.423 Lac                                                 
 3.02E+03   7%   2.116 NAA                                                 
  524.058  44%   0.367 NAAG                                                
  109.297  44% 7.6E-02 Scyllo                                              
  329.000  95%   0.230 Tau                                                 
  258.626  74%   0.181 -CrCH2                                              
  643.536   7%   0.450 GPC+PCh                                             
 3.55E+03   5%   2.482 NAA+NAAG                                            
 1.43E+03   8%   1.000 Cr+PCr                                              
 1.90E+03  35%   1.331 Glu+Gln                                             
 1.19E+03  77%   0.831 Lip13a                                              
    0.000 999%   0.000 Lip13b                                              
  327.048  84%   0.229 Lip09                                               
 1.71E+03  23%   1.200 MM09                                                
  166.677  97%   0.117 Lip20                                               
 1.82E+03  36%   1.273 MM20                                                
  493.182  58%   0.345 MM12                                                
 3.03E+03  23%   2.124 MM14                                                
    0.000 999%   0.000 MM17                                                
 1.19E+03  77%   0.831 Lip13a+Lip13b                                       
 4.71E+03  13%   3.300 MM14+Lip13a+Lip13b+MM12                             
 2.04E+03  15%   1.429 MM09+Lip09                                          
 1.99E+03  31%   1.389 MM20+Lip20                                          
   6 lines in following misc. output table
  FWHM = 0.046 ppm    S/N =   7                                            
  Data shift = 0.008 ppm                                                   
  Ph: -24 deg      -3.0 deg/ppm                                            
  alphaB,S = 8.5E+01,   7.6E+01                                            
   14 spline knots.   Ns = 6(1)                                            
   2 inflections.     1 extrema                                            
  498 points on ppm-axis = NY
      4.000000     3.992357     3.984714     3.977070     3.969427     3.961784     3.954141     3.946497     3.938854     3.931211
      3.923568     3.915925     3.908281     3.900638     3.892995     3.885352     3.877708     3.870065     3.862422     3.854779
      3.847136     3.839492     3.831849     3.824206     3.816563     3.808919     3.801276     3.793633     3.785990     3.778347
      3.770703     3.763060     3.755417     3.747774     3.740130     3.732487     3.724844     3.717201     3.709558     3.701914
      3.694271     3.686628     3.678985     3.671341     3.663698     3.656055     3.648412     3.640769     3.633125     3.625482
      3.617839     3.610196     3.602552     3.594909     3.587266     3.579623     3.571980     3.564336     3.556693     3.549050
      3.541407     3.533763     3.526120     3.518477     3.510834     3.503191     3.495547     3.487904     3.480261     3.472618
      3.464974     3.457331     3.449688     3.442045     3.434402     3.426758     3.419115     3.411472     3.403829     3.396185
      3.388542     3.380899     3.373256     3.365613     3.357969     3.350326     3.342683     3.335040     3.327396     3.319753
      3.312110     3.304467     3.296824     3.289180     3.281537     3.273894     3.266251     3.258607     3.250964     3.243321
      3.235678     3.228034     3.220391     3.212748     3.205105     3.197462     3.189818     3.182175     3.174532     3.166889
      3.159245     3.151602     3.143959     3.136316     3.128673     3.121029     3.113386     3.105743     3.098100     3.090456
      3.082813     3.075170     3.067527     3.059884     3.052240     3.044597     3.036954     3.029311     3.021667     3.014024
      3.006381     2.998738     2.991095     2.983451     2.975808     2.968165     2.960522     2.952878     2.945235     2.937592
      2.929949     2.922306     2.914662     2.907019     2.899376     2.891733     2.884089     2.876446     2.868803     2.861160
      2.853517     2.845873     2.838230     2.830587     2.822944     2.815300     2.807657     2.800014     2.792371     2.784728
      2.777084     2.769441     2.761798     2.754155     2.746511     2.738868     2.731225     2.723582     2.715939     2.708295
      2.700652     2.693009     2.685366     2.677722     2.670079     2.662436     2.654793     2.647150     2.639506     2.631863
      2.624220     2.616577     2.608933     2.601290     2.593647     2.586004     2.578361     2.570717     2.563074     2.555431
      2.547788     2.540144     2.532501     2.524858     2.517215     2.509572     2.501928     2.494285     2.486642     2.478999
      2.471355     2.463712     2.456069     2.448426     2.440783     2.433139     2.425496     2.417853     2.410210     2.402566
      2.394923     2.387280     2.379637     2.371994     2.364350     2.356707     2.349064     2.341421     2.333777     2.326134
      2.318491     2.310848     2.303205     2.295561     2.287918     2.280275     2.272632     2.264988     2.257345     2.249702
      2.242059     2.234416     2.226772     2.219129     2.211486     2.203843     2.196199     2.188556     2.180913     2.173270
      2.165627     2.157983     2.150340     2.142697     2.135054     2.127410     2.119767     2.112124     2.104481     2.096838
      2.089194     2.081551     2.073908     2.066265     2.058621     2.050978     2.043335     2.035692     2.028049     2.020405
      2.012762     2.005119     1.997476     1.989833     1.982190     1.974546     1.966903     1.959260     1.951617     1.943974
      1.936331     1.928688     1.921045     1.913402     1.905759     1.898115     1.890472     1.882829     1.875186     1.867543
      1.859900     1.852257     1.844614     1.836971     1.829327     1.821684     1.814041     1.806398     1.798755     1.791112
      1.783469     1.775826     1.768183     1.760540     1.752896     1.745253     1.737610     1.729967     1.722324     1.714681
      1.707038     1.699395     1.691752     1.684108     1.676465     1.668822     1.661179     1.653536     1.645893     1.638250
      1.630607     1.622964     1.615321     1.607677     1.600034     1.592391     1.584748     1.577105     1.569462     1.561819
      1.554176     1.546533     1.538890     1.531246     1.523603     1.515960     1.508317     1.500674     1.493031     1.485388
      1.477745     1.470102     1.462458     1.454815     1.447172     1.439529     1.431886     1.424243     1.416600     1.408957
      1.401314     1.393671     1.386027     1.378384     1.370741     1.363098     1.355455     1.347812     1.340169     1.332526
      1.324883     1.317240     1.309596     1.301953     1.294310     1.286667     1.279024     1.271381     1.263738     1.256095
      1.248452     1.240808     1.233165     1.225522     1.217879     1.210236     1.202593     1.194950     1.187307     1.179664
      1.172021     1.164377     1.156734     1.149091     1.141448     1.133805     1.126162     1.118519     1.110876     1.103233
      1.095590     1.087946     1.080303     1.072660     1.065017     1.057374     1.049731     1.042088     1.034445     1.026802
      1.019158     1.011515     1.003872     0.996229     0.988586     0.980943     0.973300     0.965657     0.958014     0.950371
      0.942727     0.935084     0.927441     0.919798     0.912155     0.904512     0.896869     0.889226     0.881583     0.873940
      0.866296     0.858653     0.851010     0.843367     0.835724     0.828081     0.820438     0.812795     0.805152     0.797508
      0.789865     0.782222     0.774579     0.766936     0.759293     0.751650     0.744007     0.736364     0.728721     0.721077
      0.713434     0.705791     0.698148     0.690505     0.682862     0.675219     0.667576     0.659933     0.652290     0.644646
      0.637003     0.629360     0.621717     0.614074     0.606431     0.598788     0.591145     0.583502     0.575858     0.568215
      0.560572     0.552929     0.545286     0.537643     0.530000     0.522357     0.514714     0.507071     0.499427     0.491784
      0.484141     0.476498     0.468855     0.461212     0.453569     0.445925     0.438282     0.430639     0.422996     0.415353
      0.407710     0.400067     0.392424     0.384780     0.377137     0.369494     0.361851     0.354208     0.346565     0.338922
      0.331278     0.323635     0.315992     0.308349     0.300706     0.293063     0.285420     0.277777     0.270133     0.262490
      0.254847     0.247204     0.239561     0.231918     0.224275     0.216631     0.208988     0.201345
 NY phased data points follow
  -7.38743E+00  1.21208E+01 -2.75389E+00  2.66588E+01  3.98609E+00  2.33313E+01  2.60666E+01  3.90111E+01  2.68750E+01  3.49182E+01
   2.07996E+01  3.64449E+01  9.15104E+00  4.28610E+01  2.41181E+01  1.64558E+01  9.51744E+00  2.62122E+01  1.15290E+01  1.24592E+01
   9.86909E+00  3.06473E+01  1.12282E+01  1.59502E+01  1.59868E+01  9.05373E+00  7.74778E+00  2.98094E+01  3.58924E+00  2.28062E+01
   1.30579E+01  2.21252E+01  1.80156E+01  2.06775E+01  1.76993E+01  2.22110E+01  1.46349E+01  2.29072E+01  2.58880E+01  1.55121E+01
   1.88455E+01  6.63059E+00  1.81157E+01  2.31527E+01  1.37524E+01  2.37558E+01  1.96322E+01  4.25275E+01  3.23535E+01  1.67576E+01
  -1.01013E+00  2.41378E+01  8.00575E+00  1.77651E+01  1.25455E+01  2.05216E+01  1.38949E+01  1.45558E+01  8.31119E+00  2.54648E+01
   1.81534E+01  2.60169E+01  1.77840E+01  1.86690E+00 -3.72939E+00  6.03763E-01  9.24893E+00  1.39128E+01  2.21987E+00  1.04775E+01
   3.73847E+00  1.11978E+01  1.66486E+01  6.57498E+00  5.33672E+00  2.30462E+01  1.61183E+01  6.58843E+00 -3.58155E+00  1.28679E+01
  -6.86282E-01  1.84388E+01  1.05422E+01  2.93061E+00  2.87927E+00  7.83666E+00  6.38517E+00  1.33269E+01  3.50490E+00  1.02365E+01
  -2.55689E+00  1.19513E+01  4.02892E+00  1.11688E+01  6.63914E-01  2.26755E+01  1.22328E+01  2.71662E+00  1.40655E+01  1.80458E+01
   3.18020E+01  6.60509E+01  7.53065E+01  6.04296E+01  6.92235E+01  4.83251E+01  3.27664E+01  2.54127E+01  8.25245E+00  2.19909E+01
   1.39364E+01  6.85783E+00  1.36163E+01  8.21086E+00  1.41385E+01  1.08945E+01  1.33036E+01  2.02581E+01  5.46754E-01  6.69521E+00
   5.14063E+00  1.35836E+01  1.11296E+01  2.18580E+01  2.91670E+01  4.94096E+01  5.34223E+01  6.02886E+01  4.67314E+01  5.11183E+01
   2.28323E+01  2.24438E+01  1.32822E+01  1.85209E+01  9.16607E+00  1.30985E+01  1.21694E+00  9.48760E+00  3.75306E+00  1.56071E+01
  -1.86856E+00  8.62997E+00  1.11749E+01  1.78868E+01  1.85062E+00  4.18833E+00  4.77922E+00 -6.41767E+00 -3.53334E+00 -3.37566E+00
   3.80016E+00  1.77507E+01  6.68800E+00  1.03182E+01 -2.32580E+00  6.61944E+00  1.16432E+00  1.42688E+01  1.22318E+01  3.19288E+00
  -2.41613E+00  5.86117E+00 -1.84869E+00  3.07088E+00 -3.69395E+00  6.15164E+00  7.47518E+00  1.07408E+01 -5.94622E+00 -4.81508E+00
  -1.13077E+01 -9.96502E+00 -1.61966E+01 -1.30944E+01 -1.55945E+01 -1.53769E+01 -2.40628E+01 -2.08373E+01 -2.83770E+01 -1.70165E+01
  -1.59401E+01 -3.48942E+00 -1.87676E+01 -7.69283E+00 -9.47518E+00  7.43276E+00 -2.85321E+00  3.26248E+00 -5.61433E-01 -4.56718E+00
   1.10326E+01  2.60480E+00 -2.38086E+00 -8.78817E+00 -2.51521E+01 -1.25032E+01 -1.35165E+01 -8.36015E-01 -2.15066E+01 -3.83096E+00
  -1.16359E+01 -7.09197E+00 -9.99057E+00  4.39559E+00 -3.93096E+00  5.41899E+00 -3.43787E+00 -1.41573E+01 -2.14968E+00 -1.87956E+00
  -3.26957E+00  6.65172E+00  5.98299E+00  1.71977E+01  1.22843E+01  1.74336E+01  5.99730E+00  1.31560E+01  3.86944E+00 -4.50572E-01
  -3.38567E+00  3.47907E+00 -7.18958E+00 -8.79853E+00 -3.58960E+00  1.44351E+01 -3.23924E+00  1.09303E+01 -1.31877E+00  5.95743E+00
  -3.38953E+00  1.72918E+01 -4.58408E+00  3.83003E+00 -6.80354E-01 -2.16092E+00  4.67964E+00  1.63165E+01  1.15138E+00  5.32720E+00
   1.51342E+01 -1.57090E+01  1.49259E-01  1.07023E+01  6.53937E+00  4.10886E+00  2.63916E+01  1.82919E+01  1.82917E+01  2.01501E+01
  -1.33794E+00  1.50547E+01  1.31028E+01  3.03295E+01  2.70521E+01  5.91398E+01  6.39656E+01  8.62276E+01  9.70217E+01  1.16068E+02
   1.26983E+02  1.29230E+02  1.02688E+02  6.62728E+01  3.65736E+01  3.47640E+01  1.16780E+01  1.41193E+00  1.64387E+00  2.25497E+00
  -5.18650E+00 -4.06392E-01 -5.55886E+00 -1.55205E+00  1.76416E+00  3.12800E+00 -7.25430E+00  2.72510E+00 -7.78903E+00 -5.18722E+00
  -1.43410E+01 -1.73567E+00  4.91797E+00 -3.58296E+00  1.19426E-01 -2.55040E+00 -8.40116E+00  7.08042E+00 -9.68510E+00  2.91678E-01
  -8.89061E+00  6.34411E+00  6.67545E+00 -6.95113E+00  4.21869E+00 -1.10307E+00  1.09346E+00 -1.36070E+00 -1.40616E+01  6.14363E+00
  -5.55156E+00 -6.62718E+00 -2.81284E+00  6.53428E+00 -3.27800E+00 -5.76839E+00  1.18901E-02 -9.44456E+00  5.46809E-01  4.40615E-01
  -7.85971E-01  4.44864E+00 -7.44594E+00  3.39409E+00 -8.40096E+00  1.92286E+00 -5.27061E-01  8.08006E+00 -7.61431E+00  1.28877E+01
   4.63038E+00  7.15146E+00  1.49090E+01  9.86235E+00 -1.88402E+00  4.48281E+00  9.38019E-01  1.09676E+01  1.86977E+00  1.75579E+01
   2.11214E+01  1.21624E+01  1.60840E+01  1.29809E+01  1.88454E+01  1.68257E+01  1.85681E+01  1.76705E+01  1.88673E+01  2.71481E+01
   1.70136E+01  3.79494E+01  1.18969E+01  3.16840E+01  3.30243E+01  2.92327E+01  3.28055E+01  1.99379E+01  1.50606E+01  1.34132E+01
   2.89619E+00  1.33183E+01  8.37455E+00  1.07847E+01  3.82870E+00  2.18534E+01  1.20592E+01  1.51785E+01  1.49071E+01  1.12603E+01
  -1.67133E+00  5.31620E+00 -5.05324E+00  3.03657E+00  2.61667E+00  5.85500E+00  7.82746E+00  1.77523E+01  1.72079E+01 -5.26032E-02
   1.82037E+01  1.02370E+01  1.92088E+01 -6.62633E+00 -6.09068E+00  1.10320E+01 -6.40044E-01  9.96635E-01 -7.53100E+00  4.59470E+00
  -8.46483E+00 -1.22948E+00  3.82508E+00 -2.50586E+00 -6.07039E-02  8.51731E-01  4.08002E+00  2.97560E+00  1.26739E+01  6.09873E+00
   3.30117E+00  7.46043E-01  1.87593E+01  5.64753E+00  7.82985E+00  1.58232E+01  1.01781E+01  1.47332E+01  9.75914E+00  1.09569E+01
   1.15830E+01  2.47200E+01  1.68500E+00  1.83998E+00  1.33121E+01  2.55632E+01  1.50134E+01  7.25203E+00  1.18151E+01  3.51657E+00
   1.76231E+01  1.32405E+01  1.47592E+01  7.54338E+00  4.19339E+00  8.87785E+00 -5.82828E+00  9.75279E+00  3.38449E+00  4.36154E-01
   4.42000E+00  5.10464E+00  1.42975E+01 -2.28565E+00 -9.48582E+00 -3.25973E+00 -2.63014E+00 -1.61079E+00 -2.80233E+00  6.74465E+00
  -3.99048E-01 -9.25255E+00 -4.31504E+00  3.96318E+00  4.33959E-02 -8.37767E+00  1.03660E+00  3.96981E+00 -8.30978E+00 -1.70751E+00
   2.54696E+00  1.90323E+00  4.66082E+00 -6.33263E+00 -3.47802E+00 -1.47181E+01  7.95961E-01 -8.76531E+00 -1.57645E+01  8.65854E+00
  -2.16518E+00  3.02511E+00  3.59034E+00  2.48658E+00 -4.28812E+00 -3.21255E-01  1.34409E+00 -3.52952E+00  5.78252E+00 -6.41208E+00
   2.83735E-02 -2.74316E+00 -3.62983E+00 -6.39306E+00 -1.05303E+01 -5.34483E+00 -6.20169E+00 -1.62737E+00 -3.33048E+00 -7.00682E+00
  -2.89715E+00  3.37540E+00 -3.79021E+00  2.69891E+00  2.18668E+00  1.04941E+01  4.20609E+00 -5.27299E+00  7.00979E+00 -1.15548E+01
  -3.88766E+00 -1.04667E+01  9.63354E+00  5.36519E+00 -4.06401E+00 -2.12455E-01 -3.31558E+00  1.23030E+01 -6.04484E+00 -3.85595E+00
  -1.65894E+01 -4.76879E+00 -1.69533E+00  2.41966E+00  5.68139E+00 -1.17172E+01 -1.18760E+01  5.51636E+00
 NY points of the fit to the data follow
   8.93221E+00  8.50274E+00  8.95588E+00  1.06820E+01  1.35173E+01  1.73647E+01  2.22493E+01  2.73623E+01  3.15814E+01  3.39948E+01
   3.40872E+01  3.20266E+01  2.85492E+01  2.43865E+01  2.00742E+01  1.62640E+01  1.35616E+01  1.19584E+01  1.07966E+01  9.94301E+00
   9.52239E+00  9.30036E+00  9.00115E+00  8.77652E+00  9.17006E+00  1.02318E+01  1.19839E+01  1.45467E+01  1.77261E+01  2.08790E+01
   2.30933E+01  2.36823E+01  2.25329E+01  2.02331E+01  1.76565E+01  1.50804E+01  1.25111E+01  1.03227E+01  8.85540E+00  7.93111E+00
   7.81537E+00  9.21773E+00  1.22922E+01  1.65368E+01  2.14133E+01  2.62852E+01  2.99678E+01  3.10152E+01  2.86127E+01  2.32408E+01
   1.68376E+01  1.15241E+01  8.19518E+00  6.66878E+00  6.54807E+00  7.66612E+00  9.67650E+00  1.19438E+01  1.39326E+01  1.51827E+01
   1.52650E+01  1.40432E+01  1.18565E+01  9.56330E+00  7.91874E+00  7.28469E+00  7.65817E+00  8.71177E+00  1.00079E+01  1.12916E+01
   1.24441E+01  1.32930E+01  1.37223E+01  1.36828E+01  1.32042E+01  1.24407E+01  1.15206E+01  1.05081E+01  9.46236E+00  8.65656E+00
   8.41337E+00  8.63178E+00  8.90146E+00  8.99249E+00  8.74792E+00  7.95600E+00  6.56976E+00  4.81976E+00  3.20225E+00  2.31197E+00
   2.51352E+00  3.46327E+00  4.49315E+00  5.24653E+00  5.70915E+00  6.01265E+00  6.81597E+00  1.04716E+01  1.77937E+01  2.81338E+01
   4.11424E+01  5.51034E+01  6.63440E+01  7.06755E+01  6.57847E+01  5.30958E+01  3.77348E+01  2.50027E+01  1.64692E+01  1.07218E+01
   6.65013E+00  4.63170E+00  4.04231E+00  3.80296E+00  3.62931E+00  3.46200E+00  3.31852E+00  3.20207E+00  3.17876E+00  3.46611E+00
   4.88527E+00  8.89893E+00  1.57085E+01  2.47590E+01  3.54341E+01  4.61154E+01  5.39713E+01  5.61942E+01  5.16339E+01  4.18805E+01
   3.07589E+01  2.15486E+01  1.48286E+01  9.58011E+00  5.35206E+00  2.59315E+00  1.22670E+00  9.48823E-01  1.56576E+00  2.69280E+00
   3.85722E+00  4.69789E+00  5.02927E+00  4.86037E+00  4.39416E+00  3.85272E+00  3.36023E+00  2.95741E+00  2.60000E+00  2.25027E+00
   1.92034E+00  1.60598E+00  1.34453E+00  1.20046E+00  1.17487E+00  1.13681E+00  1.01013E+00  7.33838E-01  2.36811E-01 -3.66156E-01
  -9.06442E-01 -1.16256E+00 -9.67786E-01 -4.65719E-01 -1.08663E-01 -3.08360E-01 -1.09034E+00 -2.11969E+00 -3.00268E+00 -3.61390E+00
  -4.09896E+00 -4.61993E+00 -5.14720E+00 -5.65493E+00 -6.12904E+00 -6.45713E+00 -6.42649E+00 -5.99272E+00 -5.41730E+00 -5.09127E+00
  -5.17238E+00 -5.47634E+00 -5.57096E+00 -5.24283E+00 -4.65648E+00 -3.86564E+00 -2.60792E+00 -7.14030E-01  1.64802E+00  3.94606E+00
   5.57174E+00  6.17894E+00  5.75792E+00  4.70055E+00  3.45140E+00  2.29550E+00  1.48393E+00  1.20760E+00  1.58013E+00  2.56221E+00
   3.99803E+00  5.53197E+00  6.76235E+00  7.38132E+00  7.06701E+00  5.74390E+00  3.54746E+00  8.79435E-01 -1.57232E+00 -3.16664E+00
  -3.38904E+00 -2.20245E+00  1.49489E-01  3.17822E+00  6.11661E+00  8.00565E+00  7.93213E+00  5.60371E+00  1.75156E+00 -2.23372E+00
  -5.25039E+00 -6.70730E+00 -6.30454E+00 -4.07795E+00 -5.86311E-01  2.88054E+00  5.20052E+00  6.12540E+00  6.03436E+00  5.44749E+00
   4.75392E+00  4.43242E+00  4.88017E+00  6.02490E+00  7.37472E+00  8.41543E+00  8.78670E+00  8.31710E+00  7.14612E+00  5.58838E+00
   4.13408E+00  3.31157E+00  3.45424E+00  4.52253E+00  6.16146E+00  7.90717E+00  9.26413E+00  9.95587E+00  1.01310E+01  1.04130E+01
   1.17859E+01  1.44753E+01  1.84550E+01  2.41215E+01  3.38148E+01  4.86537E+01  6.60079E+01  8.48008E+01  1.03893E+02  1.19584E+02
   1.26166E+02  1.18905E+02  9.80345E+01  7.07286E+01  4.67135E+01  3.01767E+01  1.90805E+01  1.09264E+01  6.05119E+00  4.30932E+00
   3.58599E+00  3.30065E+00  3.31419E+00  3.45130E+00  3.53363E+00  3.45488E+00  3.17867E+00  2.75510E+00  2.27385E+00  1.81781E+00
   1.43760E+00  1.15688E+00  9.79970E-01  8.87284E-01  8.38048E-01  7.87489E-01  7.22234E-01  6.48741E-01  5.72207E-01  5.01589E-01
   4.54150E-01  4.34969E-01  4.28444E-01  4.10200E-01  3.69777E-01  3.07691E-01  2.34657E-01  1.65975E-01  1.11280E-01  7.78387E-02
   7.53788E-02  1.03283E-01  1.49182E-01  2.01564E-01  2.56207E-01  3.14789E-01  3.79505E-01  4.52160E-01  5.37871E-01  6.41463E-01
   7.65976E-01  9.14889E-01  1.09169E+00  1.30080E+00  1.54744E+00  1.83739E+00  2.17632E+00  2.57008E+00  3.02455E+00  3.54679E+00
   4.14600E+00  4.83373E+00  5.60095E+00  6.42995E+00  7.30838E+00  8.21508E+00  9.12263E+00  1.00137E+01  1.08929E+01  1.18011E+01
   1.27875E+01  1.38600E+01  1.49921E+01  1.61471E+01  1.72888E+01  1.83746E+01  1.93456E+01  2.01618E+01  2.08368E+01  2.14403E+01
   2.21016E+01  2.30180E+01  2.40201E+01  2.47460E+01  2.49946E+01  2.44168E+01  2.25647E+01  1.92239E+01  1.47383E+01  1.03245E+01
   7.23624E+00  6.04780E+00  6.64240E+00  8.52332E+00  1.11235E+01  1.37645E+01  1.54889E+01  1.56815E+01  1.46401E+01  1.31353E+01
   1.17007E+01  1.03977E+01  9.16524E+00  8.15367E+00  7.37696E+00  6.72754E+00  6.15704E+00  5.64372E+00  5.17591E+00  4.74726E+00
   4.35413E+00  3.99487E+00  3.66882E+00  3.37639E+00  3.11846E+00  2.89663E+00  2.71260E+00  2.56850E+00  2.46646E+00  2.40914E+00
   2.39927E+00  2.43993E+00  2.53403E+00  2.68458E+00  2.89425E+00  3.16568E+00  3.50079E+00  3.90080E+00  4.36549E+00  4.89326E+00
   5.48055E+00  6.12197E+00  6.80962E+00  7.53323E+00  8.27975E+00  9.03396E+00  9.77857E+00  1.04950E+01  1.11637E+01  1.17650E+01
   1.22799E+01  1.26914E+01  1.29847E+01  1.31490E+01  1.31770E+01  1.30659E+01  1.28171E+01  1.24368E+01  1.19352E+01  1.13261E+01
   1.06258E+01  9.85244E+00  9.02516E+00  8.16332E+00  7.28544E+00  6.40874E+00  5.54813E+00  4.71635E+00  3.92345E+00  3.17718E+00
   2.48268E+00  1.84291E+00  1.25861E+00  7.29056E-01  2.52178E-01 -1.74809E-01 -5.55530E-01 -8.93902E-01 -1.19422E+00 -1.46050E+00
  -1.69667E+00 -1.90622E+00 -2.09255E+00 -2.25867E+00 -2.40740E+00 -2.54103E+00 -2.66159E+00 -2.77069E+00 -2.86996E+00 -2.96069E+00
  -3.04415E+00 -3.12113E+00 -3.19244E+00 -3.25866E+00 -3.32051E+00 -3.37851E+00 -3.43319E+00 -3.48476E+00 -3.53355E+00 -3.57978E+00
  -3.62386E+00 -3.66598E+00 -3.70638E+00 -3.74505E+00 -3.78217E+00 -3.81784E+00 -3.85234E+00 -3.88574E+00 -3.91813E+00 -3.94944E+00
  -3.97983E+00 -4.00935E+00 -4.03822E+00 -4.06639E+00 -4.09390E+00 -4.12068E+00 -4.14687E+00 -4.17252E+00 -4.19779E+00 -4.22256E+00
  -4.24688E+00 -4.27065E+00 -4.29405E+00 -4.31710E+00 -4.33989E+00 -4.36228E+00 -4.38432E+00 -4.40596E+00 -4.42736E+00 -4.44853E+00
  -4.46950E+00 -4.49013E+00 -4.51047E+00 -4.53049E+00 -4.55037E+00 -4.57005E+00 -4.58954E+00 -4.60869E+00 -4.62759E+00 -4.64624E+00
  -4.66477E+00 -4.68308E+00 -4.70116E+00 -4.71888E+00 -4.73634E+00 -4.75355E+00 -4.77058E+00 -4.78729E+00
 NY background values follow
     3.008E+00    2.992E+00    2.976E+00    2.961E+00    2.945E+00    2.929E+00    2.913E+00    2.898E+00    2.882E+00    2.866E+00
     2.850E+00    2.835E+00    2.819E+00    2.803E+00    2.787E+00    2.772E+00    2.756E+00    2.740E+00    2.724E+00    2.709E+00
     2.693E+00    2.677E+00    2.661E+00    2.646E+00    2.630E+00    2.614E+00    2.598E+00    2.582E+00    2.567E+00    2.551E+00
     2.535E+00    2.519E+00    2.504E+00    2.488E+00    2.472E+00    2.456E+00    2.441E+00    2.425E+00    2.409E+00    2.393E+00
     2.378E+00    2.362E+00    2.346E+00    2.330E+00    2.315E+00    2.299E+00    2.283E+00    2.267E+00    2.252E+00    2.236E+00
     2.220E+00    2.204E+00    2.189E+00    2.173E+00    2.157E+00    2.141E+00    2.125E+00    2.110E+00    2.094E+00    2.078E+00
     2.062E+00    2.047E+00    2.031E+00    2.015E+00    1.999E+00    1.984E+00    1.968E+00    1.952E+00    1.936E+00    1.921E+00
     1.905E+00    1.889E+00    1.873E+00    1.858E+00    1.842E+00    1.826E+00    1.810E+00    1.795E+00    1.779E+00    1.763E+00
     1.747E+00    1.732E+00    1.716E+00    1.700E+00    1.684E+00    1.668E+00    1.653E+00    1.637E+00    1.621E+00    1.605E+00
     1.590E+00    1.574E+00    1.558E+00    1.542E+00    1.527E+00    1.511E+00    1.495E+00    1.479E+00    1.464E+00    1.448E+00
     1.432E+00    1.416E+00    1.401E+00    1.385E+00    1.369E+00    1.353E+00    1.338E+00    1.322E+00    1.306E+00    1.290E+00
     1.274E+00    1.259E+00    1.243E+00    1.227E+00    1.211E+00    1.196E+00    1.180E+00    1.164E+00    1.148E+00    1.133E+00
     1.117E+00    1.101E+00    1.085E+00    1.070E+00    1.054E+00    1.038E+00    1.022E+00    1.007E+00    9.909E-01    9.751E-01
     9.593E-01    9.436E-01    9.278E-01    9.121E-01    8.963E-01    8.806E-01    8.648E-01    8.490E-01    8.333E-01    8.175E-01
     8.018E-01    7.860E-01    7.703E-01    7.545E-01    7.388E-01    7.230E-01    7.073E-01    6.915E-01    6.757E-01    6.600E-01
     6.442E-01    6.285E-01    6.127E-01    5.970E-01    5.812E-01    5.655E-01    5.497E-01    5.340E-01    5.182E-01    5.025E-01
     4.867E-01    4.710E-01    4.552E-01    4.394E-01    4.237E-01    4.079E-01    3.922E-01    3.764E-01    3.607E-01    3.449E-01
     3.292E-01    3.134E-01    2.977E-01    2.819E-01    2.662E-01    2.504E-01    2.347E-01    2.190E-01    2.032E-01    1.875E-01
     1.717E-01    1.560E-01    1.402E-01    1.245E-01    1.087E-01    9.297E-02    7.722E-02    6.148E-02    4.573E-02    2.999E-02
     1.424E-02   -1.503E-03   -1.725E-02   -3.299E-02   -4.874E-02   -6.448E-02   -8.022E-02   -9.597E-02   -1.117E-01   -1.275E-01
    -1.432E-01   -1.589E-01   -1.747E-01   -1.904E-01   -2.062E-01   -2.219E-01   -2.376E-01   -2.534E-01   -2.691E-01   -2.849E-01
    -3.006E-01   -3.163E-01   -3.321E-01   -3.478E-01   -3.636E-01   -3.793E-01   -3.950E-01   -4.108E-01   -4.265E-01   -4.422E-01
    -4.580E-01   -4.737E-01   -4.895E-01   -5.052E-01   -5.209E-01   -5.367E-01   -5.524E-01   -5.681E-01   -5.839E-01   -5.996E-01
    -6.153E-01   -6.311E-01   -6.468E-01   -6.625E-01   -6.783E-01   -6.940E-01   -7.097E-01   -7.254E-01   -7.412E-01   -7.569E-01
    -7.726E-01   -7.884E-01   -8.041E-01   -8.198E-01   -8.356E-01   -8.513E-01   -8.670E-01   -8.827E-01   -8.985E-01   -9.142E-01
    -9.299E-01   -9.456E-01   -9.614E-01   -9.771E-01   -9.928E-01   -1.009E+00   -1.024E+00   -1.040E+00   -1.056E+00   -1.071E+00
    -1.087E+00   -1.103E+00   -1.119E+00   -1.134E+00   -1.150E+00   -1.166E+00   -1.181E+00   -1.197E+00   -1.213E+00   -1.229E+00
    -1.244E+00   -1.260E+00   -1.276E+00   -1.292E+00   -1.307E+00   -1.323E+00   -1.339E+00   -1.354E+00   -1.370E+00   -1.386E+00
    -1.402E+00   -1.417E+00   -1.433E+00   -1.449E+00   -1.464E+00   -1.480E+00   -1.496E+00   -1.512E+00   -1.527E+00   -1.543E+00
    -1.559E+00   -1.574E+00   -1.590E+00   -1.606E+00   -1.622E+00   -1.637E+00   -1.653E+00   -1.669E+00   -1.684E+00   -1.700E+00
    -1.716E+00   -1.732E+00   -1.747E+00   -1.763E+00   -1.779E+00   -1.794E+00   -1.810E+00   -1.826E+00   -1.841E+00   -1.857E+00
    -1.873E+00   -1.889E+00   -1.904E+00   -1.920E+00   -1.936E+00   -1.951E+00   -1.967E+00   -1.983E+00   -1.998E+00   -2.014E+00
    -2.030E+00   -2.046E+00   -2.061E+00   -2.077E+00   -2.093E+00   -2.108E+00   -2.124E+00   -2.140E+00   -2.155E+00   -2.171E+00
    -2.187E+00   -2.203E+00   -2.218E+00   -2.234E+00   -2.250E+00   -2.265E+00   -2.281E+00   -2.297E+00   -2.312E+00   -2.328E+00
    -2.344E+00   -2.360E+00   -2.375E+00   -2.391E+00   -2.407E+00   -2.422E+00   -2.438E+00   -2.454E+00   -2.469E+00   -2.485E+00
    -2.501E+00   -2.516E+00   -2.532E+00   -2.548E+00   -2.564E+00   -2.579E+00   -2.595E+00   -2.611E+00   -2.626E+00   -2.642E+00
    -2.658E+00   -2.673E+00   -2.689E+00   -2.705E+00   -2.720E+00   -2.736E+00   -2.752E+00   -2.767E+00   -2.783E+00   -2.799E+00
    -2.815E+00   -2.830E+00   -2.846E+00   -2.862E+00   -2.877E+00   -2.893E+00   -2.909E+00   -2.924E+00   -2.940E+00   -2.956E+00
    -2.971E+00   -2.987E+00   -3.003E+00   -3.018E+00   -3.034E+00   -3.050E+00   -3.065E+00   -3.081E+00   -3.097E+00   -3.112E+00
    -3.128E+00   -3.144E+00   -3.160E+00   -3.175E+00   -3.191E+00   -3.207E+00   -3.222E+00   -3.238E+00   -3.254E+00   -3.269E+00
    -3.285E+00   -3.301E+00   -3.316E+00   -3.332E+00   -3.348E+00   -3.363E+00   -3.379E+00   -3.395E+00   -3.410E+00   -3.426E+00
    -3.442E+00   -3.457E+00   -3.473E+00   -3.489E+00   -3.504E+00   -3.520E+00   -3.536E+00   -3.551E+00   -3.567E+00   -3.583E+00
    -3.598E+00   -3.614E+00   -3.630E+00   -3.645E+00   -3.661E+00   -3.677E+00   -3.692E+00   -3.708E+00   -3.724E+00   -3.739E+00
    -3.755E+00   -3.771E+00   -3.786E+00   -3.802E+00   -3.818E+00   -3.833E+00   -3.849E+00   -3.865E+00   -3.880E+00   -3.896E+00
    -3.912E+00   -3.927E+00   -3.943E+00   -3.959E+00   -3.974E+00   -3.990E+00   -4.006E+00   -4.021E+00   -4.037E+00   -4.053E+00
    -4.068E+00   -4.084E+00   -4.100E+00   -4.115E+00   -4.131E+00   -4.147E+00   -4.162E+00   -4.178E+00   -4.193E+00   -4.209E+00
    -4.225E+00   -4.240E+00   -4.256E+00   -4.272E+00   -4.287E+00   -4.303E+00   -4.319E+00   -4.334E+00   -4.350E+00   -4.366E+00
    -4.381E+00   -4.397E+00   -4.413E+00   -4.428E+00   -4.444E+00   -4.460E+00   -4.475E+00   -4.491E+00   -4.507E+00   -4.522E+00
    -4.538E+00   -4.554E+00   -4.569E+00   -4.585E+00   -4.600E+00   -4.616E+00   -4.632E+00   -4.647E+00   -4.663E+00   -4.679E+00
    -4.694E+00   -4.710E+00   -4.726E+00   -4.741E+00   -4.757E+00   -4.773E+00   -4.788E+00   -4.804E+00
 Ala      Conc. = 3.02E+01
