 LCModel (Version 6.3-1L) Copyright: S.W. Provencher.          Ref.: Magn. Reson. Med. 30:672-679 (1993).                
 Slice#3 Row#9 Col#10  PD_05_press_2_raw_act
 36 lines in following concentration table = NCONC+1
    Conc.  %SD /Cr+PCr  Metabolite                                         
  364.032  59%   0.161 Ala                                                 
    0.000 999%   0.000 Asp                                                 
    0.000 999%   0.000 Cr                                                  
 2.27E+03   4%   1.000 PCr                                                 
   75.175 316% 3.3E-02 GABA                                                
    0.000 999%   0.000 Glc                                                 
 1.89E+03  24%   0.834 Gln                                                 
 2.64E+03  20%   1.165 Glu                                                 
  618.917   6%   0.273 GPC                                                 
    0.000 999%   0.000 PCh                                                 
  739.592  17%   0.326 GSH                                                 
 2.32E+03  17%   1.024 Ins                                                 
    0.000 999%   0.000 Lac                                                 
 3.51E+03   4%   1.547 NAA                                                 
    0.000 999%   0.000 NAAG                                                
  144.417  29% 6.4E-02 Scyllo                                              
  166.866 176% 7.4E-02 Tau                                                 
 1.13E+03  14%   0.499 -CrCH2                                              
  618.917   6%   0.273 GPC+PCh                                             
 3.51E+03   4%   1.547 NAA+NAAG                                            
 2.27E+03   4%   1.000 Cr+PCr                                              
 4.53E+03  17%   1.999 Glu+Gln                                             
  844.610  74%   0.373 Lip13a                                              
    0.000 999%   0.000 Lip13b                                              
    9.598 999% 4.2E-03 Lip09                                               
 1.92E+03  18%   0.845 MM09                                                
  117.059 139% 5.2E-02 Lip20                                               
 4.57E+03  11%   2.017 MM20                                                
  640.468  37%   0.283 MM12                                                
 2.85E+03  19%   1.256 MM14                                                
 1.17E+03  26%   0.516 MM17                                                
  844.610  74%   0.373 Lip13a+Lip13b                                       
 4.33E+03  10%   1.911 MM14+Lip13a+Lip13b+MM12                             
 1.93E+03  13%   0.849 MM09+Lip09                                          
 4.69E+03  11%   2.068 MM20+Lip20                                          
   6 lines in following misc. output table
  FWHM = 0.054 ppm    S/N =  12                                            
  Data shift = 0.023 ppm                                                   
  Ph:   2 deg       3.6 deg/ppm                                            
  alphaB,S = 2.6E+00,   7.6E+01                                            
   14 spline knots.   Ns = 8(1)                                            
  (13) 4 infls.   (11) 1 extrs.                                            
  498 points on ppm-axis = NY
      4.000000     3.992357     3.984714     3.977070     3.969427     3.961784     3.954141     3.946497     3.938854     3.931211
      3.923568     3.915925     3.908281     3.900638     3.892995     3.885352     3.877708     3.870065     3.862422     3.854779
      3.847136     3.839492     3.831849     3.824206     3.816563     3.808919     3.801276     3.793633     3.785990     3.778347
      3.770703     3.763060     3.755417     3.747774     3.740130     3.732487     3.724844     3.717201     3.709558     3.701914
      3.694271     3.686628     3.678985     3.671341     3.663698     3.656055     3.648412     3.640769     3.633125     3.625482
      3.617839     3.610196     3.602552     3.594909     3.587266     3.579623     3.571980     3.564336     3.556693     3.549050
      3.541407     3.533763     3.526120     3.518477     3.510834     3.503191     3.495547     3.487904     3.480261     3.472618
      3.464974     3.457331     3.449688     3.442045     3.434402     3.426758     3.419115     3.411472     3.403829     3.396185
      3.388542     3.380899     3.373256     3.365613     3.357969     3.350326     3.342683     3.335040     3.327396     3.319753
      3.312110     3.304467     3.296824     3.289180     3.281537     3.273894     3.266251     3.258607     3.250964     3.243321
      3.235678     3.228034     3.220391     3.212748     3.205105     3.197462     3.189818     3.182175     3.174532     3.166889
      3.159245     3.151602     3.143959     3.136316     3.128673     3.121029     3.113386     3.105743     3.098100     3.090456
      3.082813     3.075170     3.067527     3.059884     3.052240     3.044597     3.036954     3.029311     3.021667     3.014024
      3.006381     2.998738     2.991095     2.983451     2.975808     2.968165     2.960522     2.952878     2.945235     2.937592
      2.929949     2.922306     2.914662     2.907019     2.899376     2.891733     2.884089     2.876446     2.868803     2.861160
      2.853517     2.845873     2.838230     2.830587     2.822944     2.815300     2.807657     2.800014     2.792371     2.784728
      2.777084     2.769441     2.761798     2.754155     2.746511     2.738868     2.731225     2.723582     2.715939     2.708295
      2.700652     2.693009     2.685366     2.677722     2.670079     2.662436     2.654793     2.647150     2.639506     2.631863
      2.624220     2.616577     2.608933     2.601290     2.593647     2.586004     2.578361     2.570717     2.563074     2.555431
      2.547788     2.540144     2.532501     2.524858     2.517215     2.509572     2.501928     2.494285     2.486642     2.478999
      2.471355     2.463712     2.456069     2.448426     2.440783     2.433139     2.425496     2.417853     2.410210     2.402566
      2.394923     2.387280     2.379637     2.371994     2.364350     2.356707     2.349064     2.341421     2.333777     2.326134
      2.318491     2.310848     2.303205     2.295561     2.287918     2.280275     2.272632     2.264988     2.257345     2.249702
      2.242059     2.234416     2.226772     2.219129     2.211486     2.203843     2.196199     2.188556     2.180913     2.173270
      2.165627     2.157983     2.150340     2.142697     2.135054     2.127410     2.119767     2.112124     2.104481     2.096838
      2.089194     2.081551     2.073908     2.066265     2.058621     2.050978     2.043335     2.035692     2.028049     2.020405
      2.012762     2.005119     1.997476     1.989833     1.982190     1.974546     1.966903     1.959260     1.951617     1.943974
      1.936331     1.928688     1.921045     1.913402     1.905759     1.898115     1.890472     1.882829     1.875186     1.867543
      1.859900     1.852257     1.844614     1.836971     1.829327     1.821684     1.814041     1.806398     1.798755     1.791112
      1.783469     1.775826     1.768183     1.760540     1.752896     1.745253     1.737610     1.729967     1.722324     1.714681
      1.707038     1.699395     1.691752     1.684108     1.676465     1.668822     1.661179     1.653536     1.645893     1.638250
      1.630607     1.622964     1.615321     1.607677     1.600034     1.592391     1.584748     1.577105     1.569462     1.561819
      1.554176     1.546533     1.538890     1.531246     1.523603     1.515960     1.508317     1.500674     1.493031     1.485388
      1.477745     1.470102     1.462458     1.454815     1.447172     1.439529     1.431886     1.424243     1.416600     1.408957
      1.401314     1.393671     1.386027     1.378384     1.370741     1.363098     1.355455     1.347812     1.340169     1.332526
      1.324883     1.317240     1.309596     1.301953     1.294310     1.286667     1.279024     1.271381     1.263738     1.256095
      1.248452     1.240808     1.233165     1.225522     1.217879     1.210236     1.202593     1.194950     1.187307     1.179664
      1.172021     1.164377     1.156734     1.149091     1.141448     1.133805     1.126162     1.118519     1.110876     1.103233
      1.095590     1.087946     1.080303     1.072660     1.065017     1.057374     1.049731     1.042088     1.034445     1.026802
      1.019158     1.011515     1.003872     0.996229     0.988586     0.980943     0.973300     0.965657     0.958014     0.950371
      0.942727     0.935084     0.927441     0.919798     0.912155     0.904512     0.896869     0.889226     0.881583     0.873940
      0.866296     0.858653     0.851010     0.843367     0.835724     0.828081     0.820438     0.812795     0.805152     0.797508
      0.789865     0.782222     0.774579     0.766936     0.759293     0.751650     0.744007     0.736364     0.728721     0.721077
      0.713434     0.705791     0.698148     0.690505     0.682862     0.675219     0.667576     0.659933     0.652290     0.644646
      0.637003     0.629360     0.621717     0.614074     0.606431     0.598788     0.591145     0.583502     0.575858     0.568215
      0.560572     0.552929     0.545286     0.537643     0.530000     0.522357     0.514714     0.507071     0.499427     0.491784
      0.484141     0.476498     0.468855     0.461212     0.453569     0.445925     0.438282     0.430639     0.422996     0.415353
      0.407710     0.400067     0.392424     0.384780     0.377137     0.369494     0.361851     0.354208     0.346565     0.338922
      0.331278     0.323635     0.315992     0.308349     0.300706     0.293063     0.285420     0.277777     0.270133     0.262490
      0.254847     0.247204     0.239561     0.231918     0.224275     0.216631     0.208988     0.201345
 NY phased data points follow
   2.79468E+00  1.34726E+01  2.22163E+01  2.07207E+01  1.84265E+01  1.17918E+01  2.32963E+01  2.66593E+01  2.58285E+01  2.88706E+01
   2.58203E+01  1.90491E+01  1.79076E+01  1.79061E+01  1.14180E+01  1.87621E+01  1.24699E+01  1.63480E+01  1.57606E+01  1.03560E+01
   1.28625E+01  1.30070E+01  1.86735E+01  1.52176E+01  1.81379E+01  1.14858E+01  2.11254E+01  9.42303E+00  1.52619E+01  1.45947E+01
   1.91718E+01  1.72873E+01  1.96425E+01  1.82946E+01  1.26087E+01  1.44790E+01  1.20668E+01  7.97366E+00  1.07778E+01  1.88361E+01
   1.58875E+01  1.11662E+01  1.68699E+01  1.62744E+01  1.06217E+01  1.07172E+01  1.35484E+01  2.47325E+01  2.14919E+01  1.86863E+01
   1.83297E+01  1.48824E+01  1.61426E+01  1.43284E+01  1.23836E+01  1.50033E+01  1.67263E+01  9.09723E+00  9.53372E+00  9.43155E+00
   1.17975E+01  6.32686E+00  8.57125E+00 -1.35703E+00  5.93708E-01 -8.88865E-01  4.03714E+00  8.02856E+00  3.51746E+00  6.29962E+00
   5.63799E+00 -6.86464E-01  3.14876E+00  3.76520E-01  6.62363E+00  2.28062E+00  3.12953E+00  3.31780E+00  7.12149E+00  9.03452E-01
   7.15806E+00  2.30966E+00  2.38179E+00  3.14960E+00  5.48606E+00  5.73065E+00  5.67705E+00  4.36307E+00  1.07466E+01  8.29300E+00
   3.96483E+00  2.91847E+00  3.00677E+00  7.04432E+00  1.32163E+01  1.29682E+01  1.95790E+01  2.57338E+01  2.38088E+01  1.72417E+01
   3.57628E+01  3.92788E+01  4.54769E+01  5.12061E+01  4.26549E+01  3.36533E+01  3.02223E+01  2.72654E+01  1.70585E+01  1.82631E+01
   1.43404E+01  1.12791E+01  1.20365E+01  8.72473E+00  3.81869E+00  1.00573E+01  6.69951E+00  4.42134E+00  9.36815E+00  2.04757E+01
   1.61775E+01  2.42708E+01  2.97250E+01  3.69744E+01  4.64368E+01  5.35878E+01  6.36009E+01  6.49125E+01  6.73207E+01  5.44234E+01
   4.89380E+01  3.11292E+01  2.90033E+01  2.09208E+01  1.64475E+01  8.80777E+00  8.70290E+00  6.64108E+00  1.39902E+01  4.96931E+00
   6.04627E+00  9.47696E+00 -1.18384E+00  1.38944E+00  2.36450E+00  6.33150E+00  7.07927E+00 -1.18225E+00  6.42196E+00  7.87081E+00
   2.06348E+00  5.39041E+00  3.47887E+00  4.04517E+00  2.92597E+00  3.06119E-01  2.08031E+00 -3.24982E+00 -1.52293E+00 -1.51238E+01
   3.20396E+00 -6.06400E+00 -2.63121E+00 -4.86839E+00 -2.72098E+00 -1.66358E+00 -6.41510E+00 -2.42229E+00 -5.61623E+00 -9.13872E+00
  -1.21904E+01 -1.80877E+01 -1.90742E+01 -1.90198E+01 -1.65737E+01 -2.79919E+01 -1.91321E+01 -2.08239E+01 -2.01261E+01 -2.22228E+01
  -2.65766E+01 -1.20761E+01 -8.17039E+00 -7.19593E+00 -6.25662E+00 -1.28636E+01 -1.03367E+01 -1.11936E+01 -1.18837E+01 -8.75720E+00
  -4.99305E+00  1.35518E+00  2.37105E+00 -5.67052E+00 -4.32040E+00 -3.77032E+00 -5.02365E+00 -7.13370E+00 -1.01141E+01 -1.17563E+01
  -8.37257E+00 -9.07277E-01 -1.63760E+00 -3.13983E+00 -6.79222E-01 -3.82975E+00  9.94322E-01 -5.05115E+00 -7.25523E+00 -1.47575E-01
  -1.50555E+00  1.73135E+00  4.69412E+00  5.53989E+00  1.33181E+01  1.78424E+01  1.82739E+01  9.87091E+00  1.06197E+01  5.07391E+00
   2.65941E+00  2.23010E-01 -2.31996E+00 -3.16500E-01 -1.53446E+00  5.36175E+00  6.07396E+00  8.16439E+00  1.39378E+01  8.55648E+00
   1.27309E+01  8.28476E+00  7.15825E+00  1.30737E+01  8.83264E+00  8.67193E+00  1.15642E+01  1.03035E+01  1.03046E+01  8.92305E+00
   4.12435E+00  8.34044E+00  5.13148E+00  8.99853E+00  8.36438E+00  1.15453E+01  1.78198E+01  1.90510E+01  2.16510E+01  1.97313E+01
   2.45630E+01  3.23365E+01  3.42131E+01  3.88299E+01  4.91620E+01  5.37273E+01  6.78507E+01  7.45969E+01  9.03700E+01  1.14465E+02
   1.18847E+02  1.16763E+02  9.56919E+01  7.13146E+01  5.94484E+01  4.21092E+01  3.51686E+01  1.83927E+01  1.86333E+01  1.25763E+01
   1.58355E+01  1.02104E+01  1.41442E+01  6.77668E+00  4.22248E+00  9.52051E+00  6.36685E+00  8.82772E+00  7.39570E+00  6.57865E+00
   1.68065E+00  1.75489E+00  3.87384E+00  2.64693E+00  3.39430E+00 -4.25403E+00 -2.17700E+00  5.73481E+00  3.30575E+00 -9.33539E-01
  -1.85587E+00  2.78819E+00  4.37125E+00  1.07386E+00  2.97982E+00  9.83466E-01  3.11496E+00  7.12242E-01  1.13545E+01  1.06281E+01
   2.70297E+00  7.90317E+00  7.58541E+00  7.22783E-01  7.54801E+00  6.00818E+00  4.74137E+00  8.88773E+00  8.70604E+00  1.20208E+01
   9.31750E+00  2.20751E+00  5.88830E+00  7.92511E+00  9.62197E+00  1.57274E+01  4.73351E+00  4.66099E+00  1.27143E+00  1.41345E+01
   1.05317E+01  1.49139E+01  7.48363E+00  1.30733E+01  5.30979E+00  1.07553E+01  1.23149E+01  6.22851E+00  9.25026E+00  1.31391E+01
   1.61399E+01  3.13222E+00  1.09808E+01  1.20855E+01  1.33110E+01  1.34128E+01  1.10228E+01  1.04793E+01  1.57828E+01  9.63714E+00
   1.19787E+01  1.99738E+01  2.05812E+01  1.30750E+01  1.07755E+01  2.33236E+01  1.72949E+01  1.57710E+01  1.11459E+01  1.63782E+01
   1.59258E+01  8.00032E+00  1.26407E+01  1.05561E+01  1.18559E+01  9.16560E+00  5.34606E+00  2.50031E+00  8.22033E+00  1.23924E+01
   2.08912E+00  8.27438E+00  6.46781E+00  1.19159E+01  9.02617E+00  6.36148E+00  4.33507E+00  1.08612E+01  1.34795E+01  1.08271E+01
   5.44676E+00  1.45500E+00  3.28258E+00  3.86975E-01  4.87703E-01  1.02952E+00 -5.29445E-01  9.11900E+00  4.30621E+00  4.13704E+00
   6.91308E+00  2.61900E+00  2.17554E+00  2.92979E-01  6.51951E+00  6.15806E+00  9.03554E+00  4.14939E+00  4.74172E+00  8.47880E+00
   6.42501E+00  5.96618E+00  4.40624E+00  3.14488E+00  6.41373E+00  4.15134E+00  1.20490E+01  7.48265E+00  2.88874E+00  1.29461E+01
   1.25577E+01  6.36899E+00  1.03349E+01  4.06914E+00  7.38219E+00  5.16158E+00  1.06487E+01  1.14986E+01  1.24782E+01  2.73823E+00
   5.17434E+00  8.82612E+00  1.35197E+01  1.37030E+01  8.41201E+00  4.05632E+00  1.01990E+01  8.82968E+00  1.37208E+00  7.48702E+00
   7.25660E+00  2.50387E+00 -1.21129E+00 -4.26821E+00  2.71840E+00  4.69783E+00 -2.74398E-02 -4.89201E-01 -2.78989E+00  3.44798E+00
   4.05682E+00 -4.23962E+00  9.29230E+00  3.04896E+00  3.03743E+00 -5.87188E+00 -3.48413E-01  2.63901E-01 -1.51374E+00  4.06406E+00
  -7.97591E+00 -2.05231E+00  3.15429E-02 -1.96853E+00  2.99396E+00  8.22482E+00  1.96352E+00  1.03491E+00 -3.80565E+00 -1.65972E+00
  -2.60173E+00  4.34689E+00 -5.51787E+00  8.53468E-01 -5.51109E+00 -2.91796E+00 -3.59774E+00 -7.09407E-01  1.19332E-01  4.24123E-01
   4.78022E-01 -1.95568E+00  1.12237E+00  1.08613E+00 -1.04850E+00 -8.50503E-01  2.08714E+00  1.52069E+00  1.22009E+00  4.51111E-01
   4.18020E+00 -3.92017E+00  1.45804E-01  1.51462E+00  2.25007E-01 -1.26109E+00 -6.64624E-02  2.49960E-01 -4.09132E-01 -4.59207E+00
  -1.35021E+00 -6.00364E+00 -4.51465E+00  3.29197E+00  3.31275E+00  4.70882E+00 -2.96001E+00  1.03356E+00  1.28991E+00  3.38546E+00
   2.25504E-01 -3.09645E+00 -1.01087E+00 -1.21347E+00 -3.45507E+00 -5.15963E+00  3.22490E-01 -5.32819E+00
 NY points of the fit to the data follow
   1.05414E+01  1.22844E+01  1.38182E+01  1.49250E+01  1.61986E+01  1.82010E+01  2.12646E+01  2.49912E+01  2.80074E+01  2.88870E+01
   2.71253E+01  2.36817E+01  2.01334E+01  1.73330E+01  1.53551E+01  1.39042E+01  1.27561E+01  1.14537E+01  9.94603E+00  9.18701E+00
   8.68057E+00  8.93839E+00  1.02479E+01  1.14461E+01  1.21320E+01  1.25166E+01  1.32934E+01  1.49841E+01  1.74956E+01  2.04035E+01
   2.27990E+01  2.36101E+01  2.26314E+01  2.03182E+01  1.72972E+01  1.42756E+01  1.16163E+01  9.78119E+00  8.70734E+00  8.69688E+00
   9.96318E+00  1.14107E+01  1.24441E+01  1.31835E+01  1.43091E+01  1.61783E+01  1.83363E+01  1.98368E+01  1.97666E+01  1.77868E+01
   1.45310E+01  1.12884E+01  8.97492E+00  7.69704E+00  7.12890E+00  6.76326E+00  6.41263E+00  6.29585E+00  6.72739E+00  7.56404E+00
   8.25562E+00  8.34599E+00  7.72548E+00  6.66539E+00  5.74885E+00  5.22361E+00  5.08440E+00  5.31261E+00  5.69687E+00  6.07507E+00
   6.45441E+00  6.78356E+00  7.00414E+00  7.01297E+00  6.80375E+00  6.45176E+00  6.00368E+00  5.56942E+00  5.44301E+00  5.74573E+00
   5.79920E+00  5.48709E+00  5.29288E+00  5.48766E+00  6.00322E+00  6.54764E+00  6.67214E+00  6.01766E+00  4.76587E+00  3.52046E+00
   2.72532E+00  2.52547E+00  2.74733E+00  3.42693E+00  5.68204E+00  1.12093E+01  1.64096E+01  1.96252E+01  2.21513E+01  2.58939E+01
   3.21699E+01  4.04255E+01  4.78349E+01  5.06965E+01  4.73400E+01  3.94064E+01  3.05189E+01  2.31488E+01  1.76283E+01  1.35570E+01
   1.03841E+01  7.32826E+00  4.09665E+00  2.61261E+00  2.40706E+00  2.54475E+00  2.94471E+00  3.83376E+00  6.71597E+00  1.38806E+01
   2.10317E+01  2.57832E+01  2.98050E+01  3.54757E+01  4.42269E+01  5.53531E+01  6.51317E+01  6.87966E+01  6.44831E+01  5.44196E+01
   4.31449E+01  3.38070E+01  2.66329E+01  2.08650E+01  1.57044E+01  1.04351E+01  5.21013E+00  2.71137E+00  2.43683E+00  2.95693E+00
   3.63859E+00  4.04455E+00  3.96660E+00  3.59202E+00  3.13837E+00  2.65394E+00  2.19093E+00  1.75470E+00  1.29579E+00  8.55256E-01
   3.92184E-01 -1.06261E-02 -4.30688E-01 -1.00297E+00 -1.44490E+00 -1.63955E+00 -1.61529E+00 -1.55923E+00 -1.93309E+00 -2.65395E+00
  -3.35942E+00 -3.68397E+00 -3.51558E+00 -3.09039E+00 -2.87261E+00 -3.16533E+00 -3.92332E+00 -4.91925E+00 -5.95194E+00 -6.59168E+00
  -6.77824E+00 -6.97423E+00 -7.44582E+00 -8.31243E+00 -9.10255E+00 -9.35091E+00 -9.13000E+00 -8.72547E+00 -8.49861E+00 -8.68381E+00
  -8.80477E+00 -8.53192E+00 -7.88885E+00 -7.10779E+00 -6.42381E+00 -5.88361E+00 -5.23978E+00 -4.13814E+00 -2.58280E+00 -1.02908E+00
  -9.12358E-02  1.09449E-01 -2.08235E-01 -6.77809E-01 -1.11506E+00 -1.27722E+00 -8.53780E-01 -3.83253E-03  1.31942E+00  2.94071E+00
   4.42816E+00  5.18457E+00  5.18180E+00  4.98561E+00  4.06319E+00  1.85748E+00 -1.12022E+00 -4.07048E+00 -5.84173E+00 -6.21769E+00
  -5.44158E+00 -3.43603E+00 -5.36770E-01  2.70528E+00  5.62219E+00  7.53896E+00  8.20824E+00  7.49628E+00  5.28885E+00  2.08914E+00
  -1.43762E+00 -4.12221E+00 -5.15441E+00 -4.43567E+00 -2.11017E+00  9.80395E-01  3.98087E+00  5.98775E+00  7.01068E+00  7.72763E+00
   8.21609E+00  8.63774E+00  9.11612E+00  9.42446E+00  9.46802E+00  9.75512E+00  1.06271E+01  1.19047E+01  1.28564E+01  1.28400E+01
   1.19765E+01  1.06342E+01  9.42942E+00  9.09762E+00  9.94720E+00  1.15710E+01  1.33439E+01  1.50489E+01  1.64855E+01  1.77191E+01
   1.90262E+01  2.27834E+01  3.41753E+01  4.64851E+01  5.39935E+01  5.90551E+01  6.59093E+01  7.74769E+01  9.34460E+01  1.09038E+02
   1.16545E+02  1.11319E+02  9.55329E+01  7.65110E+01  5.99270E+01  4.71028E+01  3.73348E+01  2.97125E+01  2.25894E+01  1.46142E+01
   9.83610E+00  8.14776E+00  7.28152E+00  6.72992E+00  6.37819E+00  6.09401E+00  5.69607E+00  5.22670E+00  4.72579E+00  4.22095E+00
   3.73821E+00  3.32273E+00  2.97302E+00  2.68810E+00  2.47829E+00  2.33924E+00  2.25229E+00  2.21207E+00  2.21496E+00  2.26822E+00
   2.37190E+00  2.51148E+00  2.68749E+00  2.90515E+00  3.16062E+00  3.45300E+00  3.77757E+00  4.12965E+00  4.49787E+00  4.87473E+00
   5.25230E+00  5.62376E+00  5.97722E+00  6.30632E+00  6.60102E+00  6.85654E+00  7.06731E+00  7.23358E+00  7.35475E+00  7.43617E+00
   7.48245E+00  7.50342E+00  7.50694E+00  7.50660E+00  7.51535E+00  7.55190E+00  7.63581E+00  7.79886E+00  8.09920E+00  8.64250E+00
   9.16903E+00  9.37452E+00  9.50364E+00  9.76283E+00  1.01668E+01  1.05387E+01  1.05623E+01  1.02080E+01  9.76575E+00  9.23314E+00
   8.82135E+00  8.76325E+00  9.14327E+00  1.00227E+01  1.14025E+01  1.30405E+01  1.44834E+01  1.54906E+01  1.60085E+01  1.60752E+01
   1.59149E+01  1.56574E+01  1.53540E+01  1.50177E+01  1.45522E+01  1.39489E+01  1.34254E+01  1.29638E+01  1.25263E+01  1.21041E+01
   1.16929E+01  1.12937E+01  1.09051E+01  1.05285E+01  1.01626E+01  9.80835E+00  9.46314E+00  9.12670E+00  8.79574E+00  8.47010E+00
   8.14706E+00  7.82691E+00  7.50719E+00  7.18859E+00  6.86965E+00  6.55248E+00  6.23697E+00  5.92606E+00  5.62007E+00  5.32247E+00
   5.03448E+00  4.76047E+00  4.50211E+00  4.26365E+00  4.04644E+00  3.85464E+00  3.68987E+00  3.55642E+00  3.45557E+00  3.39091E+00
   3.36315E+00  3.37571E+00  3.42928E+00  3.52696E+00  3.66862E+00  3.85622E+00  4.08867E+00  4.36714E+00  4.68951E+00  5.05525E+00
   5.45998E+00  5.90073E+00  6.37085E+00  6.86522E+00  7.37484E+00  7.89191E+00  8.40484E+00  8.90384E+00  9.37630E+00  9.81214E+00
   1.01989E+01  1.05273E+01  1.07864E+01  1.09698E+01  1.10704E+01  1.10861E+01  1.10145E+01  1.08577E+01  1.06179E+01  1.03022E+01
   9.91698E+00  9.47274E+00  8.97830E+00  8.44553E+00  7.88410E+00  7.30614E+00  6.72076E+00  6.13847E+00  5.56605E+00  5.01145E+00
   4.47902E+00  3.97437E+00  3.49938E+00  3.05701E+00  2.64669E+00  2.26947E+00  1.92351E+00  1.60888E+00  1.32277E+00  1.06433E+00
   8.30162E-01  6.19343E-01  4.28762E-01  2.57715E-01  1.03094E-01 -3.58476E-02 -1.61988E-01 -2.75552E-01 -3.78851E-01 -4.71838E-01
  -5.56818E-01 -6.33709E-01 -7.04494E-01 -7.68614E-01 -8.27710E-01 -8.81214E-01 -9.30901E-01 -9.76175E-01 -1.01850E+00 -1.05692E+00
  -1.09279E+00 -1.12534E+00 -1.15607E+00 -1.18410E+00 -1.21064E+00 -1.23459E+00 -1.25722E+00 -1.27767E+00 -1.29731E+00 -1.31511E+00
  -1.33213E+00 -1.34727E+00 -1.36178E+00 -1.37477E+00 -1.38746E+00 -1.39874E+00 -1.40963E+00 -1.41906E+00 -1.42828E+00 -1.43639E+00
  -1.44447E+00 -1.45138E+00 -1.45811E+00 -1.46368E+00 -1.46931E+00 -1.47403E+00 -1.47887E+00 -1.48266E+00 -1.48644E+00 -1.48927E+00
  -1.49235E+00 -1.49464E+00 -1.49711E+00 -1.49861E+00 -1.50023E+00 -1.50106E+00 -1.50224E+00 -1.50268E+00 -1.50331E+00 -1.50303E+00
  -1.50299E+00 -1.50226E+00 -1.50191E+00 -1.50080E+00 -1.49986E+00 -1.49808E+00 -1.49658E+00 -1.49443E+00
 NY background values follow
     8.971E-01    8.756E-01    8.541E-01    8.325E-01    8.110E-01    7.895E-01    7.679E-01    7.464E-01    7.249E-01    7.033E-01
     6.818E-01    6.602E-01    6.387E-01    6.172E-01    5.956E-01    5.741E-01    5.526E-01    5.310E-01    5.095E-01    4.880E-01
     4.664E-01    4.449E-01    4.234E-01    4.019E-01    3.804E-01    3.588E-01    3.373E-01    3.158E-01    2.943E-01    2.728E-01
     2.513E-01    2.298E-01    2.084E-01    1.869E-01    1.654E-01    1.439E-01    1.225E-01    1.010E-01    7.959E-02    5.815E-02
     3.672E-02    1.529E-02   -6.125E-03   -2.753E-02   -4.894E-02   -7.033E-02   -9.171E-02   -1.131E-01   -1.345E-01   -1.558E-01
    -1.771E-01   -1.985E-01   -2.198E-01   -2.411E-01   -2.624E-01   -2.837E-01   -3.049E-01   -3.262E-01   -3.474E-01   -3.686E-01
    -3.898E-01   -4.110E-01   -4.321E-01   -4.533E-01   -4.744E-01   -4.955E-01   -5.166E-01   -5.376E-01   -5.587E-01   -5.797E-01
    -6.006E-01   -6.216E-01   -6.425E-01   -6.634E-01   -6.843E-01   -7.052E-01   -7.260E-01   -7.468E-01   -7.675E-01   -7.883E-01
    -8.090E-01   -8.297E-01   -8.503E-01   -8.709E-01   -8.915E-01   -9.120E-01   -9.325E-01   -9.530E-01   -9.734E-01   -9.938E-01
    -1.014E+00   -1.035E+00   -1.055E+00   -1.075E+00   -1.095E+00   -1.115E+00   -1.136E+00   -1.156E+00   -1.176E+00   -1.196E+00
    -1.216E+00   -1.235E+00   -1.255E+00   -1.275E+00   -1.295E+00   -1.315E+00   -1.334E+00   -1.354E+00   -1.373E+00   -1.393E+00
    -1.412E+00   -1.432E+00   -1.451E+00   -1.470E+00   -1.490E+00   -1.509E+00   -1.528E+00   -1.547E+00   -1.566E+00   -1.585E+00
    -1.604E+00   -1.623E+00   -1.641E+00   -1.660E+00   -1.679E+00   -1.697E+00   -1.716E+00   -1.734E+00   -1.752E+00   -1.771E+00
    -1.789E+00   -1.807E+00   -1.825E+00   -1.843E+00   -1.861E+00   -1.879E+00   -1.897E+00   -1.914E+00   -1.932E+00   -1.950E+00
    -1.967E+00   -1.984E+00   -2.002E+00   -2.019E+00   -2.036E+00   -2.053E+00   -2.070E+00   -2.087E+00   -2.104E+00   -2.120E+00
    -2.137E+00   -2.153E+00   -2.170E+00   -2.186E+00   -2.202E+00   -2.218E+00   -2.234E+00   -2.250E+00   -2.265E+00   -2.281E+00
    -2.296E+00   -2.312E+00   -2.327E+00   -2.342E+00   -2.357E+00   -2.372E+00   -2.386E+00   -2.401E+00   -2.415E+00   -2.430E+00
    -2.444E+00   -2.458E+00   -2.472E+00   -2.485E+00   -2.499E+00   -2.513E+00   -2.526E+00   -2.539E+00   -2.552E+00   -2.565E+00
    -2.577E+00   -2.590E+00   -2.602E+00   -2.615E+00   -2.627E+00   -2.638E+00   -2.650E+00   -2.662E+00   -2.673E+00   -2.684E+00
    -2.696E+00   -2.707E+00   -2.717E+00   -2.728E+00   -2.739E+00   -2.749E+00   -2.759E+00   -2.769E+00   -2.779E+00   -2.789E+00
    -2.799E+00   -2.808E+00   -2.818E+00   -2.827E+00   -2.836E+00   -2.845E+00   -2.854E+00   -2.862E+00   -2.871E+00   -2.879E+00
    -2.888E+00   -2.896E+00   -2.904E+00   -2.912E+00   -2.919E+00   -2.927E+00   -2.935E+00   -2.942E+00   -2.949E+00   -2.956E+00
    -2.963E+00   -2.970E+00   -2.977E+00   -2.984E+00   -2.990E+00   -2.997E+00   -3.003E+00   -3.009E+00   -3.015E+00   -3.021E+00
    -3.027E+00   -3.033E+00   -3.039E+00   -3.044E+00   -3.049E+00   -3.055E+00   -3.060E+00   -3.065E+00   -3.070E+00   -3.075E+00
    -3.079E+00   -3.084E+00   -3.089E+00   -3.093E+00   -3.097E+00   -3.102E+00   -3.106E+00   -3.110E+00   -3.113E+00   -3.117E+00
    -3.121E+00   -3.124E+00   -3.128E+00   -3.131E+00   -3.134E+00   -3.138E+00   -3.141E+00   -3.144E+00   -3.146E+00   -3.149E+00
    -3.152E+00   -3.154E+00   -3.157E+00   -3.159E+00   -3.161E+00   -3.163E+00   -3.165E+00   -3.167E+00   -3.169E+00   -3.171E+00
    -3.173E+00   -3.174E+00   -3.176E+00   -3.177E+00   -3.178E+00   -3.179E+00   -3.181E+00   -3.181E+00   -3.182E+00   -3.183E+00
    -3.184E+00   -3.185E+00   -3.185E+00   -3.185E+00   -3.186E+00   -3.186E+00   -3.186E+00   -3.186E+00   -3.186E+00   -3.186E+00
    -3.186E+00   -3.186E+00   -3.186E+00   -3.185E+00   -3.185E+00   -3.184E+00   -3.183E+00   -3.183E+00   -3.182E+00   -3.181E+00
    -3.180E+00   -3.179E+00   -3.178E+00   -3.176E+00   -3.175E+00   -3.174E+00   -3.172E+00   -3.171E+00   -3.169E+00   -3.167E+00
    -3.166E+00   -3.164E+00   -3.162E+00   -3.160E+00   -3.158E+00   -3.156E+00   -3.154E+00   -3.151E+00   -3.149E+00   -3.147E+00
    -3.144E+00   -3.142E+00   -3.139E+00   -3.136E+00   -3.134E+00   -3.131E+00   -3.128E+00   -3.125E+00   -3.122E+00   -3.119E+00
    -3.116E+00   -3.113E+00   -3.109E+00   -3.106E+00   -3.103E+00   -3.099E+00   -3.096E+00   -3.092E+00   -3.089E+00   -3.085E+00
    -3.081E+00   -3.077E+00   -3.074E+00   -3.070E+00   -3.066E+00   -3.062E+00   -3.058E+00   -3.053E+00   -3.049E+00   -3.045E+00
    -3.041E+00   -3.036E+00   -3.032E+00   -3.027E+00   -3.023E+00   -3.018E+00   -3.014E+00   -3.009E+00   -3.004E+00   -2.999E+00
    -2.995E+00   -2.990E+00   -2.985E+00   -2.980E+00   -2.975E+00   -2.970E+00   -2.964E+00   -2.959E+00   -2.954E+00   -2.949E+00
    -2.943E+00   -2.938E+00   -2.933E+00   -2.927E+00   -2.922E+00   -2.916E+00   -2.910E+00   -2.905E+00   -2.899E+00   -2.893E+00
    -2.888E+00   -2.882E+00   -2.876E+00   -2.870E+00   -2.864E+00   -2.858E+00   -2.852E+00   -2.846E+00   -2.840E+00   -2.833E+00
    -2.827E+00   -2.821E+00   -2.815E+00   -2.808E+00   -2.802E+00   -2.795E+00   -2.789E+00   -2.782E+00   -2.776E+00   -2.769E+00
    -2.762E+00   -2.756E+00   -2.749E+00   -2.742E+00   -2.735E+00   -2.729E+00   -2.722E+00   -2.715E+00   -2.708E+00   -2.701E+00
    -2.694E+00   -2.687E+00   -2.680E+00   -2.672E+00   -2.665E+00   -2.658E+00   -2.651E+00   -2.643E+00   -2.636E+00   -2.629E+00
    -2.621E+00   -2.614E+00   -2.607E+00   -2.599E+00   -2.592E+00   -2.584E+00   -2.577E+00   -2.569E+00   -2.561E+00   -2.554E+00
    -2.546E+00   -2.538E+00   -2.531E+00   -2.523E+00   -2.515E+00   -2.508E+00   -2.500E+00   -2.492E+00   -2.484E+00   -2.476E+00
    -2.469E+00   -2.461E+00   -2.453E+00   -2.445E+00   -2.437E+00   -2.429E+00   -2.421E+00   -2.413E+00   -2.405E+00   -2.397E+00
    -2.389E+00   -2.381E+00   -2.373E+00   -2.365E+00   -2.357E+00   -2.349E+00   -2.341E+00   -2.333E+00   -2.325E+00   -2.317E+00
    -2.309E+00   -2.301E+00   -2.293E+00   -2.285E+00   -2.276E+00   -2.268E+00   -2.260E+00   -2.252E+00   -2.244E+00   -2.236E+00
    -2.228E+00   -2.220E+00   -2.211E+00   -2.203E+00   -2.195E+00   -2.187E+00   -2.179E+00   -2.171E+00   -2.163E+00   -2.154E+00
    -2.146E+00   -2.138E+00   -2.130E+00   -2.122E+00   -2.114E+00   -2.105E+00   -2.097E+00   -2.089E+00   -2.081E+00   -2.073E+00
    -2.065E+00   -2.057E+00   -2.048E+00   -2.040E+00   -2.032E+00   -2.024E+00   -2.016E+00   -2.008E+00
 Ala      Conc. = 3.64E+02
