 LCModel (Version 6.3-1L) Copyright: S.W. Provencher.          Ref.: Magn. Reson. Med. 30:672-679 (1993).                
 Slice#1 Row#1 Col#8  PD_05_press_2_raw_act
 36 lines in following concentration table = NCONC+1
    Conc.  %SD /Cr+PCr  Metabolite                                         
  704.605  35%  16.276 Ala                                                 
   40.155 123%   0.928 Asp                                                 
    0.000 999%   0.000 Cr                                                  
   43.290 244%   1.000 PCr                                                 
   26.333 113%   0.608 GABA                                                
   23.998 124%   0.554 Glc                                                 
  357.034 121%   8.247 Gln                                                 
 1.35E+03  39%  31.250 Glu                                                 
   66.265  63%   1.531 GPC                                                 
    0.000 999%   0.000 PCh                                                 
  338.915  47%   7.829 GSH                                                 
    5.730 999%   0.132 Ins                                                 
  338.102  67%   7.810 Lac                                                 
  593.362  27%  13.707 NAA                                                 
   44.155 381%   1.020 NAAG                                                
    7.752 127%   0.179 Scyllo                                              
   32.536 151%   0.752 Tau                                                 
    2.967 801% 6.9E-02 -CrCH2                                              
   66.265  63%   1.531 GPC+PCh                                             
  637.517  24%  14.727 NAA+NAAG                                            
   43.290 244%   1.000 Cr+PCr                                              
 1.71E+03  42%  39.498 Glu+Gln                                             
    0.000 999%   0.000 Lip13a                                              
  271.677  87%   6.276 Lip13b                                              
    0.000 999%   0.000 Lip09                                               
  493.951  61%  11.410 MM09                                                
   78.684 140%   1.818 Lip20                                               
  771.163  60%  17.814 MM20                                                
  148.891  63%   3.439 MM12                                                
  330.735  75%   7.640 MM14                                                
  228.457  58%   5.277 MM17                                                
  271.677  87%   6.276 Lip13a+Lip13b                                       
  751.303  52%  17.355 MM14+Lip13a+Lip13b+MM12                             
  493.951  61%  11.410 MM09+Lip09                                          
  849.847  55%  19.631 MM20+Lip20                                          
   6 lines in following misc. output table
  FWHM = 0.038 ppm    S/N =   1                                            
  Data shift = 0.054 ppm                                                   
  Ph: -85 deg     -41.0 deg/ppm                                            
  alphaB,S = 8.5E+01,   1.3E+01                                            
   14 spline knots.   Ns = 5(1)                                            
   2 inflections.     1 extrema                                            
  498 points on ppm-axis = NY
      4.000000     3.992357     3.984714     3.977070     3.969427     3.961784     3.954141     3.946497     3.938854     3.931211
      3.923568     3.915925     3.908281     3.900638     3.892995     3.885352     3.877708     3.870065     3.862422     3.854779
      3.847136     3.839492     3.831849     3.824206     3.816563     3.808919     3.801276     3.793633     3.785990     3.778347
      3.770703     3.763060     3.755417     3.747774     3.740130     3.732487     3.724844     3.717201     3.709558     3.701914
      3.694271     3.686628     3.678985     3.671341     3.663698     3.656055     3.648412     3.640769     3.633125     3.625482
      3.617839     3.610196     3.602552     3.594909     3.587266     3.579623     3.571980     3.564336     3.556693     3.549050
      3.541407     3.533763     3.526120     3.518477     3.510834     3.503191     3.495547     3.487904     3.480261     3.472618
      3.464974     3.457331     3.449688     3.442045     3.434402     3.426758     3.419115     3.411472     3.403829     3.396185
      3.388542     3.380899     3.373256     3.365613     3.357969     3.350326     3.342683     3.335040     3.327396     3.319753
      3.312110     3.304467     3.296824     3.289180     3.281537     3.273894     3.266251     3.258607     3.250964     3.243321
      3.235678     3.228034     3.220391     3.212748     3.205105     3.197462     3.189818     3.182175     3.174532     3.166889
      3.159245     3.151602     3.143959     3.136316     3.128673     3.121029     3.113386     3.105743     3.098100     3.090456
      3.082813     3.075170     3.067527     3.059884     3.052240     3.044597     3.036954     3.029311     3.021667     3.014024
      3.006381     2.998738     2.991095     2.983451     2.975808     2.968165     2.960522     2.952878     2.945235     2.937592
      2.929949     2.922306     2.914662     2.907019     2.899376     2.891733     2.884089     2.876446     2.868803     2.861160
      2.853517     2.845873     2.838230     2.830587     2.822944     2.815300     2.807657     2.800014     2.792371     2.784728
      2.777084     2.769441     2.761798     2.754155     2.746511     2.738868     2.731225     2.723582     2.715939     2.708295
      2.700652     2.693009     2.685366     2.677722     2.670079     2.662436     2.654793     2.647150     2.639506     2.631863
      2.624220     2.616577     2.608933     2.601290     2.593647     2.586004     2.578361     2.570717     2.563074     2.555431
      2.547788     2.540144     2.532501     2.524858     2.517215     2.509572     2.501928     2.494285     2.486642     2.478999
      2.471355     2.463712     2.456069     2.448426     2.440783     2.433139     2.425496     2.417853     2.410210     2.402566
      2.394923     2.387280     2.379637     2.371994     2.364350     2.356707     2.349064     2.341421     2.333777     2.326134
      2.318491     2.310848     2.303205     2.295561     2.287918     2.280275     2.272632     2.264988     2.257345     2.249702
      2.242059     2.234416     2.226772     2.219129     2.211486     2.203843     2.196199     2.188556     2.180913     2.173270
      2.165627     2.157983     2.150340     2.142697     2.135054     2.127410     2.119767     2.112124     2.104481     2.096838
      2.089194     2.081551     2.073908     2.066265     2.058621     2.050978     2.043335     2.035692     2.028049     2.020405
      2.012762     2.005119     1.997476     1.989833     1.982190     1.974546     1.966903     1.959260     1.951617     1.943974
      1.936331     1.928688     1.921045     1.913402     1.905759     1.898115     1.890472     1.882829     1.875186     1.867543
      1.859900     1.852257     1.844614     1.836971     1.829327     1.821684     1.814041     1.806398     1.798755     1.791112
      1.783469     1.775826     1.768183     1.760540     1.752896     1.745253     1.737610     1.729967     1.722324     1.714681
      1.707038     1.699395     1.691752     1.684108     1.676465     1.668822     1.661179     1.653536     1.645893     1.638250
      1.630607     1.622964     1.615321     1.607677     1.600034     1.592391     1.584748     1.577105     1.569462     1.561819
      1.554176     1.546533     1.538890     1.531246     1.523603     1.515960     1.508317     1.500674     1.493031     1.485388
      1.477745     1.470102     1.462458     1.454815     1.447172     1.439529     1.431886     1.424243     1.416600     1.408957
      1.401314     1.393671     1.386027     1.378384     1.370741     1.363098     1.355455     1.347812     1.340169     1.332526
      1.324883     1.317240     1.309596     1.301953     1.294310     1.286667     1.279024     1.271381     1.263738     1.256095
      1.248452     1.240808     1.233165     1.225522     1.217879     1.210236     1.202593     1.194950     1.187307     1.179664
      1.172021     1.164377     1.156734     1.149091     1.141448     1.133805     1.126162     1.118519     1.110876     1.103233
      1.095590     1.087946     1.080303     1.072660     1.065017     1.057374     1.049731     1.042088     1.034445     1.026802
      1.019158     1.011515     1.003872     0.996229     0.988586     0.980943     0.973300     0.965657     0.958014     0.950371
      0.942727     0.935084     0.927441     0.919798     0.912155     0.904512     0.896869     0.889226     0.881583     0.873940
      0.866296     0.858653     0.851010     0.843367     0.835724     0.828081     0.820438     0.812795     0.805152     0.797508
      0.789865     0.782222     0.774579     0.766936     0.759293     0.751650     0.744007     0.736364     0.728721     0.721077
      0.713434     0.705791     0.698148     0.690505     0.682862     0.675219     0.667576     0.659933     0.652290     0.644646
      0.637003     0.629360     0.621717     0.614074     0.606431     0.598788     0.591145     0.583502     0.575858     0.568215
      0.560572     0.552929     0.545286     0.537643     0.530000     0.522357     0.514714     0.507071     0.499427     0.491784
      0.484141     0.476498     0.468855     0.461212     0.453569     0.445925     0.438282     0.430639     0.422996     0.415353
      0.407710     0.400067     0.392424     0.384780     0.377137     0.369494     0.361851     0.354208     0.346565     0.338922
      0.331278     0.323635     0.315992     0.308349     0.300706     0.293063     0.285420     0.277777     0.270133     0.262490
      0.254847     0.247204     0.239561     0.231918     0.224275     0.216631     0.208988     0.201345
 NY phased data points follow
  -1.22798E+01 -8.13898E+00 -2.10332E+00 -1.27071E+01  5.67959E-01 -2.37979E+01 -1.23707E+01  7.76067E+00  4.14595E+00  1.35048E+01
   1.01415E+01 -1.64546E+00 -1.06536E+01 -1.13795E+01 -1.86675E+00 -4.70893E+00  5.54884E+00 -1.18036E+01  1.67105E+01 -1.06347E+01
   2.27068E+00  2.18967E-01 -1.69879E+01 -9.49044E-02  1.49024E+00 -1.71399E+00  9.71314E+00  2.74714E-01  1.02765E+01 -1.82052E+01
   8.58764E+00  2.67321E+00  1.47089E+01 -2.46249E+00  2.15412E+01  4.78208E+00 -2.83910E+00  5.02490E+00  8.46988E+00  1.05323E+01
  -8.93888E-01 -3.43024E+00 -2.13272E+00 -3.80255E+00 -1.71062E+00 -8.90811E+00  1.00510E+01  1.35131E+01  3.94147E+00  1.87167E+00
  -8.53702E+00  1.56271E-01 -1.15652E+01 -1.68148E+01  4.77104E+00  1.45119E+00  2.93442E+00 -6.23066E+00 -2.36753E+00  4.07326E-01
  -6.30007E-01 -3.91796E-01  4.36524E+00 -5.07340E-01 -2.24069E+00 -4.81525E+00 -1.14670E+00 -4.44434E+00 -1.26062E+01  3.49629E+00
  -2.53995E+00 -5.38815E+00 -3.01808E+00 -5.25778E+00 -9.03004E+00 -9.51160E+00 -8.66405E+00 -1.34603E+01  1.49083E-01 -4.75119E+00
  -5.84374E+00 -1.00215E+01  3.03172E+00 -1.62171E+01  2.40840E+00  1.67232E+00 -2.83246E+00 -1.29567E+01 -2.90810E-01 -4.75834E+00
  -3.17872E+00  8.89981E-02  4.86694E+00  2.64640E-01 -7.53370E+00 -1.26876E-02  1.11578E+01  2.11469E+00 -2.04599E+01 -1.62242E+01
  -9.06661E+00 -7.36741E+00  2.55322E+01  2.28878E+01 -1.32470E+00  5.20101E+00 -7.10841E+00  3.38482E+00 -1.62121E+01  1.11304E+01
  -3.87769E+00  2.52477E+00 -8.64625E+00 -1.01035E+01 -7.52838E+00 -9.09604E+00 -1.93762E+01 -5.23141E-01 -2.00056E+00  1.25975E+00
   1.58720E+00 -1.62538E+01 -1.81575E+00 -2.71118E+01 -4.30289E+00 -4.19502E+00  4.54126E+00 -1.29223E+00 -6.46186E+00  1.14906E+01
   2.74872E+00 -5.40527E+00 -2.81958E+00  4.76516E+00  1.13592E+01  3.30450E+00 -4.16811E+00  1.91776E+01  1.34621E+01 -3.18379E+00
  -5.26175E+00  7.07299E+00  2.33086E+00 -4.62905E-01 -5.77165E+00  2.01730E+00  2.20807E+01  9.10876E-01  1.82767E+00 -9.17666E-01
   1.16186E+01  9.01516E+00  3.09383E+00  1.85304E+01 -5.31894E+00 -1.46484E+01 -8.72504E+00 -1.42970E+01 -1.47835E+00  3.85487E+00
  -5.55788E+00 -1.63496E+01  8.53056E+00 -9.68528E-01 -1.66427E+00  1.09518E+01 -9.60266E+00  9.88498E+00 -1.35572E+01  2.04933E+00
   8.56593E-01 -1.67114E+01 -8.26260E+00 -6.00183E+00 -9.99889E+00 -1.10037E+01  4.83011E+00 -1.11954E+01  2.37830E+00 -3.90709E+00
  -1.59083E+01 -4.67315E-01 -6.85137E+00 -2.31418E+01 -1.18241E+01 -1.38039E+01 -2.35006E+01 -1.20088E+01 -1.91392E+01  7.19586E+00
  -3.15086E+00  9.74454E+00 -1.47080E+01  8.50912E-01  4.10243E+00  1.66623E+01  5.03276E+00  1.31899E+01 -8.73845E+00 -9.96635E+00
   1.23097E+01  7.81472E+00  1.78246E+01  1.04956E+01  6.93066E+00  1.45279E+00  1.40301E+01  6.93281E+00  1.43253E+01  3.17123E+00
   4.06286E+00 -1.15373E+00 -9.00830E+00  2.30822E+00  7.29053E+00 -9.97188E+00  1.61567E+01  2.78555E+00 -4.53806E+00 -1.45854E+00
   3.82632E+00 -7.30385E+00 -1.62174E+01 -1.80345E+01 -1.12798E+00  4.81107E+00 -8.48108E+00  1.11732E+01 -2.21421E+00  2.76439E+01
   1.25837E+01  4.85435E+00  2.64456E+01  8.32988E+00  9.88625E+00 -1.15781E+01  1.34120E+01  1.14428E+01  1.58424E+01  2.07283E+01
   7.74809E+00  1.79393E+01  1.41351E+01  3.32646E+00 -2.25643E+00  1.32990E+01  1.21602E+01 -3.82410E+00 -1.26050E+00  5.21673E+00
  -2.83668E+00 -1.72087E+01  7.00492E-01  2.45755E+01  1.30330E+01  8.76274E+00  1.67595E+00  1.20021E+01  1.23877E-01  1.65703E+01
   2.02813E+01  2.23874E+01  3.95198E+01  2.96442E+01  2.00041E+01  8.13102E-01  6.05068E+00  6.67384E+00  7.02342E+00  5.17797E+00
   1.25979E+01 -3.84319E+00 -4.57884E+00  3.77309E+00  8.76680E+00  6.74747E+00  1.57551E+01  1.53043E+01 -8.36579E+00  1.79742E+01
   1.13320E+01  3.05564E+00  1.61949E+01  8.52269E+00 -1.12497E+01  2.41227E+01  4.72268E+00  8.15260E+00  6.37220E+00  4.23045E-01
   1.38179E+01 -3.53695E-01  1.88139E-01  1.42481E+01  1.80120E+01  1.75075E+01  4.17002E+01  2.29431E+00  1.62583E+01  1.98626E+01
   9.82331E+00  1.02618E+01  1.70762E+01  1.36437E+01  6.70989E+00 -1.01279E+01 -1.40576E+00  5.18662E+00  4.62171E+00  2.18481E+01
  -1.33644E+01  1.63814E+01 -2.86181E+00  1.21046E+01  1.72979E+01  7.76878E+00 -1.09103E-01  3.95439E+00 -9.76912E-01  1.32304E+01
   2.13964E+00 -8.91128E+00  9.89837E+00 -4.20020E+00  1.14858E+01  7.11192E+00 -1.09626E+01  1.04288E+01  1.97080E+01 -5.54633E+00
  -6.03754E-01 -1.83774E+01 -1.81658E+01 -2.10777E+01 -2.27725E+01  7.42099E+00 -3.02921E+00  9.20312E+00 -1.24249E+01  8.85731E+00
   1.12664E+01  4.47224E+00 -8.34946E+00  1.37369E+01 -3.85825E+00  1.10637E+01  2.12001E+00  1.12891E+01  2.88371E+00 -5.27703E+00
   8.64798E-02  1.37894E+01 -4.05062E+00 -1.56173E+01  6.22114E+00  1.73998E-01  1.55301E+01  8.91144E+00  1.18850E+01  1.21477E+00
   1.85377E+01  5.24194E+00  9.04522E+00  7.50003E+00  2.94735E+01 -6.64460E+00  6.77985E+00 -1.37895E+00 -4.29185E+00 -7.81910E+00
   2.19077E+01 -2.97042E+00 -2.58972E+00  1.03014E+01  1.05848E+01  1.10339E+01  1.03868E+01  1.11263E+01  1.87049E+01  1.97904E+00
   1.21345E+01  2.56967E+00  9.42915E+00 -1.39933E+00  5.00030E+00  9.29622E+00  4.87401E+00 -1.01303E+00  9.52085E-01 -9.88645E+00
   1.15648E+01  8.46727E+00 -2.07607E-01 -2.52749E+00  1.06567E+01 -1.86894E+01 -2.02811E+00  6.31518E-01 -8.92902E+00 -1.67238E+01
   5.69202E+00  1.05077E+01 -1.09830E+01 -2.21790E+00 -1.37503E+01 -2.00719E+01  1.38024E+01  1.42620E+01  4.68155E-01 -3.46827E+00
   1.43773E+00 -6.35980E+00 -6.88000E+00  4.91524E+00 -1.01376E+00  1.45376E+01 -8.15505E-01  1.47776E+01  1.07834E+01  1.92579E+01
  -1.24815E-02  1.12937E+01  1.60821E+01  1.00371E+01 -1.18487E+01  1.53672E+00  7.08708E+00  9.13454E-01 -3.81911E+00  1.75001E+01
   7.97068E+00  6.03289E+00  1.60253E+01 -1.04237E+01 -1.00737E+01  8.50095E+00  7.86296E+00  2.56997E+00 -5.29420E+00 -1.94238E+00
  -2.26632E+01 -1.22180E+00  5.10533E+00  4.70282E+00 -4.60297E+00  4.45612E+00 -2.25971E+00 -1.33212E+01  1.04598E+01 -4.65361E+00
   3.05696E+00 -3.49748E+00 -5.76195E+00  1.48152E+01 -2.19513E+00  1.31924E+01  6.67376E+00 -2.33530E+01 -2.01197E+00  1.09008E+00
  -6.88629E+00  1.95034E+01 -1.39812E+01  1.56430E+01 -1.36432E+01 -4.16232E+00  6.00653E-01  1.37577E+01  8.93059E+00 -1.37660E+01
  -4.41422E+00  9.73397E+00 -1.63224E+01 -3.61568E+00  6.42808E+00 -1.05749E+01 -1.95223E+00 -1.84899E-01 -3.79743E+00 -4.37769E-01
   3.22619E+00 -4.46600E+00  7.51309E+00  1.00091E+01  1.02643E+01  1.95623E+01  1.40549E+01 -3.29084E+00 -9.07394E+00  2.24898E+00
  -5.88633E+00 -7.29097E-01 -4.08552E+00 -3.08927E+00 -8.45563E+00  6.59601E-02 -3.00398E-01 -8.65579E+00
 NY points of the fit to the data follow
  -2.78762E+00 -2.70240E+00 -2.54680E+00 -2.32814E+00 -2.09670E+00 -1.90260E+00 -1.67573E+00 -1.35352E+00 -9.57736E-01 -6.19063E-01
  -4.78440E-01 -5.35708E-01 -6.97369E-01 -9.10958E-01 -1.12920E+00 -1.32075E+00 -1.51693E+00 -1.78885E+00 -1.98283E+00 -1.84313E+00
  -1.31140E+00 -5.34506E-01  4.49761E-01  1.62912E+00  2.65717E+00  2.73611E+00  1.19297E+00 -1.29638E+00 -2.68138E+00 -1.50943E+00
   1.62286E+00  5.14338E+00  8.36556E+00  1.08631E+01  1.13635E+01  8.93009E+00  4.69067E+00  8.21667E-01 -1.83864E+00 -3.24599E+00
  -3.31453E+00 -2.46894E+00 -1.40562E+00 -5.43140E-01 -1.12154E-01 -1.49640E-01 -3.79860E-01 -5.92720E-01 -8.17596E-01 -9.53060E-01
  -1.00464E+00 -1.07130E+00 -1.16638E+00 -1.24655E+00 -1.32126E+00 -1.41388E+00 -1.51252E+00 -1.59468E+00 -1.65602E+00 -1.69573E+00
  -1.72348E+00 -1.74432E+00 -1.75712E+00 -1.76149E+00 -1.75560E+00 -1.74505E+00 -1.73403E+00 -1.73068E+00 -1.74011E+00 -1.76166E+00
  -1.78884E+00 -1.81286E+00 -1.81788E+00 -1.78121E+00 -1.69373E+00 -1.57885E+00 -1.49191E+00 -1.48426E+00 -1.54553E+00 -1.63249E+00
  -1.71614E+00 -1.76850E+00 -1.76620E+00 -1.69870E+00 -1.55515E+00 -1.33495E+00 -1.11392E+00 -1.01069E+00 -1.05104E+00 -1.15663E+00
  -1.27212E+00 -1.40019E+00 -1.52879E+00 -1.61889E+00 -1.67316E+00 -1.69912E+00 -1.66673E+00 -1.54235E+00 -1.34133E+00 -1.06410E+00
  -1.89407E-01  1.79944E+00  4.62738E+00  6.89806E+00  7.43059E+00  6.48367E+00  4.92452E+00  3.04201E+00  1.02099E+00 -4.38342E-01
  -9.48415E-01 -1.06727E+00 -1.10136E+00 -1.10664E+00 -1.09479E+00 -1.06462E+00 -1.01557E+00 -9.60377E-01 -9.29659E-01 -9.49619E-01
  -1.00668E+00 -1.05285E+00 -1.04572E+00 -9.61221E-01 -6.72927E-01 -7.67903E-02  7.24334E-01  1.39677E+00  1.68540E+00  1.63721E+00
   1.46826E+00  1.40851E+00  1.57932E+00  1.87247E+00  1.87236E+00  1.14219E+00 -1.63903E-01 -1.47480E+00 -2.38620E+00 -2.60635E+00
  -1.98796E+00 -7.60100E-01  4.56709E-01  1.21906E+00  1.45370E+00  1.26551E+00  8.42247E-01  3.72691E-01 -1.61732E-02 -2.32375E-01
  -3.83922E-01 -5.38774E-01 -7.01635E-01 -8.70850E-01 -1.03375E+00 -1.13517E+00 -1.12000E+00 -1.01836E+00 -9.43140E-01 -9.97810E-01
  -1.20703E+00 -1.48274E+00 -1.63921E+00 -1.56955E+00 -1.35044E+00 -1.14886E+00 -1.06965E+00 -1.12325E+00 -1.27540E+00 -1.46998E+00
  -1.65131E+00 -1.74732E+00 -1.73349E+00 -1.73329E+00 -1.87625E+00 -2.14698E+00 -2.39459E+00 -2.43656E+00 -2.29997E+00 -2.18999E+00
  -2.21870E+00 -2.28295E+00 -2.27580E+00 -2.25127E+00 -2.32529E+00 -2.51057E+00 -2.68139E+00 -2.61806E+00 -2.17627E+00 -1.32841E+00
  -1.78782E-01  9.82920E-01  1.74747E+00  1.82118E+00  1.25304E+00  2.35014E-01 -1.05372E+00 -2.31607E+00 -3.01553E+00 -2.74750E+00
  -1.65347E+00 -1.80762E-01  1.39382E+00  2.91617E+00  4.02873E+00  4.34127E+00  3.80682E+00  2.43002E+00  2.79021E-01 -2.30266E+00
  -4.53744E+00 -5.43421E+00 -4.67101E+00 -2.21984E+00  1.76139E+00  6.49971E+00  9.92567E+00  1.03555E+01  8.25191E+00  4.59855E+00
  -4.62860E-01 -6.27769E+00 -1.06651E+01 -1.15643E+01 -9.33733E+00 -5.60329E+00 -1.60683E+00  2.12458E+00  4.88773E+00  5.80412E+00
   5.00561E+00  3.51981E+00  2.27144E+00  1.63737E+00  1.58763E+00  1.98173E+00  2.91706E+00  4.19942E+00  5.02332E+00  4.82937E+00
   3.79712E+00  2.39319E+00  8.55271E-01 -3.68151E-01 -5.62815E-01  3.77001E-01  1.75872E+00  2.99974E+00  3.85063E+00  3.97363E+00
   3.36144E+00  2.72384E+00  2.58859E+00  3.04172E+00  4.00117E+00  5.29573E+00  6.24153E+00  6.91729E+00  9.51496E+00  1.57765E+01
   2.39916E+01  2.94722E+01  2.97795E+01  2.65827E+01  2.17595E+01  1.55413E+01  9.16722E+00  5.12381E+00  3.59938E+00  2.76683E+00
   2.16557E+00  1.80977E+00  1.66698E+00  1.75789E+00  2.03229E+00  2.31160E+00  2.50304E+00  2.58522E+00  2.52063E+00  2.30310E+00
   2.02767E+00  1.80312E+00  1.66484E+00  1.59874E+00  1.58479E+00  1.61387E+00  1.66738E+00  1.71226E+00  1.73810E+00  1.76202E+00
   1.79310E+00  1.83216E+00  1.88200E+00  1.94505E+00  2.01548E+00  2.08625E+00  2.15580E+00  2.22222E+00  2.28218E+00  2.33685E+00
   2.38885E+00  2.43839E+00  2.48488E+00  2.52674E+00  2.56140E+00  2.58646E+00  2.60173E+00  2.60932E+00  2.61153E+00  2.61141E+00
   2.61303E+00  2.61936E+00  2.63304E+00  2.65740E+00  2.69616E+00  2.75374E+00  2.83538E+00  2.94758E+00  3.09914E+00  3.30277E+00
   3.57837E+00  3.96151E+00  4.50587E+00  5.24219E+00  6.65070E+00  9.10122E+00  1.16570E+01  1.21632E+01  9.16702E+00  3.82851E+00
  -1.53322E+00 -6.23744E+00 -1.03969E+01 -1.23329E+01 -9.97705E+00 -3.97854E+00  2.71559E+00  7.71200E+00  1.05409E+01  1.17962E+01
   1.14485E+01  9.63585E+00  7.80201E+00  6.97677E+00  7.00899E+00  7.85155E+00  8.98672E+00  9.31180E+00  8.02268E+00  5.61188E+00
   3.19902E+00  1.10171E+00 -5.76375E-01 -9.31449E-01  9.24087E-01  4.22401E+00  7.24687E+00  9.08681E+00  9.82957E+00  9.73232E+00
   8.75915E+00  7.21034E+00  5.87073E+00  4.95839E+00  4.28258E+00  3.76302E+00  3.36488E+00  3.06440E+00  2.84128E+00  2.67742E+00
   2.55739E+00  2.46879E+00  2.40240E+00  2.35188E+00  2.31315E+00  2.28378E+00  2.26254E+00  2.24896E+00  2.24315E+00  2.24558E+00
   2.25685E+00  2.27766E+00  2.30873E+00  2.35083E+00  2.40477E+00  2.47130E+00  2.55108E+00  2.64458E+00  2.75206E+00  2.87355E+00
   3.00876E+00  3.15702E+00  3.31715E+00  3.48742E+00  3.66561E+00  3.84895E+00  4.03420E+00  4.21769E+00  4.39533E+00  4.56286E+00
   4.71597E+00  4.85052E+00  4.96272E+00  5.04931E+00  5.10765E+00  5.13594E+00  5.13335E+00  5.09999E+00  5.03698E+00  4.94627E+00
   4.83059E+00  4.69332E+00  4.53831E+00  4.36971E+00  4.19174E+00  4.00848E+00  3.82374E+00  3.64098E+00  3.46320E+00  3.29286E+00
   3.13188E+00  2.98158E+00  2.84283E+00  2.71602E+00  2.60120E+00  2.49812E+00  2.40625E+00  2.32487E+00  2.25318E+00  2.19034E+00
   2.13549E+00  2.08780E+00  2.04646E+00  2.01070E+00  1.97984E+00  1.95326E+00  1.93044E+00  1.91091E+00  1.89422E+00  1.87999E+00
   1.86793E+00  1.85778E+00  1.84932E+00  1.84237E+00  1.83671E+00  1.83219E+00  1.82870E+00  1.82614E+00  1.82442E+00  1.82344E+00
   1.82313E+00  1.82339E+00  1.82421E+00  1.82553E+00  1.82733E+00  1.82955E+00  1.83215E+00  1.83510E+00  1.83838E+00  1.84197E+00
   1.84586E+00  1.84998E+00  1.85432E+00  1.85888E+00  1.86366E+00  1.86865E+00  1.87384E+00  1.87917E+00  1.88465E+00  1.89027E+00
   1.89605E+00  1.90197E+00  1.90801E+00  1.91415E+00  1.92039E+00  1.92676E+00  1.93325E+00  1.93984E+00  1.94651E+00  1.95325E+00
   1.96007E+00  1.96697E+00  1.97397E+00  1.98104E+00  1.98817E+00  1.99534E+00  2.00258E+00  2.00991E+00  2.01731E+00  2.02476E+00
   2.03225E+00  2.03978E+00  2.04738E+00  2.05506E+00  2.06280E+00  2.07058E+00  2.07840E+00  2.08627E+00
 NY background values follow
    -2.619E+00   -2.610E+00   -2.600E+00   -2.591E+00   -2.582E+00   -2.573E+00   -2.563E+00   -2.554E+00   -2.545E+00   -2.536E+00
    -2.526E+00   -2.517E+00   -2.508E+00   -2.499E+00   -2.489E+00   -2.480E+00   -2.471E+00   -2.461E+00   -2.452E+00   -2.443E+00
    -2.434E+00   -2.424E+00   -2.415E+00   -2.406E+00   -2.397E+00   -2.387E+00   -2.378E+00   -2.369E+00   -2.360E+00   -2.350E+00
    -2.341E+00   -2.332E+00   -2.323E+00   -2.313E+00   -2.304E+00   -2.295E+00   -2.286E+00   -2.276E+00   -2.267E+00   -2.258E+00
    -2.249E+00   -2.239E+00   -2.230E+00   -2.221E+00   -2.212E+00   -2.202E+00   -2.193E+00   -2.184E+00   -2.175E+00   -2.165E+00
    -2.156E+00   -2.147E+00   -2.137E+00   -2.128E+00   -2.119E+00   -2.110E+00   -2.100E+00   -2.091E+00   -2.082E+00   -2.073E+00
    -2.063E+00   -2.054E+00   -2.045E+00   -2.036E+00   -2.026E+00   -2.017E+00   -2.008E+00   -1.999E+00   -1.989E+00   -1.980E+00
    -1.971E+00   -1.962E+00   -1.952E+00   -1.943E+00   -1.934E+00   -1.925E+00   -1.915E+00   -1.906E+00   -1.897E+00   -1.888E+00
    -1.878E+00   -1.869E+00   -1.860E+00   -1.851E+00   -1.841E+00   -1.832E+00   -1.823E+00   -1.813E+00   -1.804E+00   -1.795E+00
    -1.786E+00   -1.776E+00   -1.767E+00   -1.758E+00   -1.749E+00   -1.739E+00   -1.730E+00   -1.721E+00   -1.712E+00   -1.702E+00
    -1.693E+00   -1.684E+00   -1.675E+00   -1.665E+00   -1.656E+00   -1.647E+00   -1.638E+00   -1.628E+00   -1.619E+00   -1.610E+00
    -1.601E+00   -1.591E+00   -1.582E+00   -1.573E+00   -1.564E+00   -1.554E+00   -1.545E+00   -1.536E+00   -1.527E+00   -1.517E+00
    -1.508E+00   -1.499E+00   -1.490E+00   -1.480E+00   -1.471E+00   -1.462E+00   -1.452E+00   -1.443E+00   -1.434E+00   -1.425E+00
    -1.415E+00   -1.406E+00   -1.397E+00   -1.388E+00   -1.378E+00   -1.369E+00   -1.360E+00   -1.351E+00   -1.341E+00   -1.332E+00
    -1.323E+00   -1.314E+00   -1.304E+00   -1.295E+00   -1.286E+00   -1.277E+00   -1.267E+00   -1.258E+00   -1.249E+00   -1.240E+00
    -1.230E+00   -1.221E+00   -1.212E+00   -1.203E+00   -1.193E+00   -1.184E+00   -1.175E+00   -1.166E+00   -1.156E+00   -1.147E+00
    -1.138E+00   -1.128E+00   -1.119E+00   -1.110E+00   -1.101E+00   -1.091E+00   -1.082E+00   -1.073E+00   -1.064E+00   -1.054E+00
    -1.045E+00   -1.036E+00   -1.027E+00   -1.017E+00   -1.008E+00   -9.989E-01   -9.897E-01   -9.804E-01   -9.711E-01   -9.619E-01
    -9.526E-01   -9.434E-01   -9.341E-01   -9.249E-01   -9.156E-01   -9.064E-01   -8.971E-01   -8.878E-01   -8.786E-01   -8.693E-01
    -8.601E-01   -8.508E-01   -8.416E-01   -8.323E-01   -8.230E-01   -8.138E-01   -8.045E-01   -7.953E-01   -7.860E-01   -7.768E-01
    -7.675E-01   -7.583E-01   -7.490E-01   -7.397E-01   -7.305E-01   -7.212E-01   -7.120E-01   -7.027E-01   -6.935E-01   -6.842E-01
    -6.750E-01   -6.657E-01   -6.564E-01   -6.472E-01   -6.379E-01   -6.287E-01   -6.194E-01   -6.102E-01   -6.009E-01   -5.917E-01
    -5.824E-01   -5.731E-01   -5.639E-01   -5.546E-01   -5.454E-01   -5.361E-01   -5.269E-01   -5.176E-01   -5.084E-01   -4.991E-01
    -4.898E-01   -4.806E-01   -4.713E-01   -4.621E-01   -4.528E-01   -4.436E-01   -4.343E-01   -4.251E-01   -4.158E-01   -4.066E-01
    -3.973E-01   -3.880E-01   -3.788E-01   -3.695E-01   -3.603E-01   -3.510E-01   -3.418E-01   -3.325E-01   -3.233E-01   -3.140E-01
    -3.048E-01   -2.955E-01   -2.862E-01   -2.770E-01   -2.677E-01   -2.585E-01   -2.492E-01   -2.400E-01   -2.307E-01   -2.215E-01
    -2.122E-01   -2.030E-01   -1.937E-01   -1.844E-01   -1.752E-01   -1.659E-01   -1.567E-01   -1.474E-01   -1.382E-01   -1.289E-01
    -1.197E-01   -1.104E-01   -1.012E-01   -9.191E-02   -8.265E-02   -7.340E-02   -6.415E-02   -5.489E-02   -4.564E-02   -3.639E-02
    -2.713E-02   -1.788E-02   -8.625E-03    6.281E-04    9.882E-03    1.914E-02    2.839E-02    3.764E-02    4.690E-02    5.615E-02
     6.540E-02    7.466E-02    8.391E-02    9.316E-02    1.024E-01    1.117E-01    1.209E-01    1.302E-01    1.394E-01    1.487E-01
     1.579E-01    1.672E-01    1.764E-01    1.857E-01    1.949E-01    2.042E-01    2.135E-01    2.227E-01    2.320E-01    2.412E-01
     2.505E-01    2.597E-01    2.690E-01    2.782E-01    2.875E-01    2.967E-01    3.060E-01    3.152E-01    3.245E-01    3.337E-01
     3.430E-01    3.522E-01    3.615E-01    3.707E-01    3.800E-01    3.893E-01    3.985E-01    4.078E-01    4.170E-01    4.263E-01
     4.355E-01    4.448E-01    4.540E-01    4.633E-01    4.725E-01    4.818E-01    4.910E-01    5.003E-01    5.095E-01    5.188E-01
     5.280E-01    5.373E-01    5.465E-01    5.558E-01    5.650E-01    5.743E-01    5.835E-01    5.928E-01    6.021E-01    6.113E-01
     6.206E-01    6.298E-01    6.391E-01    6.483E-01    6.576E-01    6.668E-01    6.761E-01    6.853E-01    6.946E-01    7.038E-01
     7.131E-01    7.223E-01    7.316E-01    7.408E-01    7.501E-01    7.593E-01    7.686E-01    7.778E-01    7.871E-01    7.963E-01
     8.056E-01    8.148E-01    8.241E-01    8.333E-01    8.426E-01    8.518E-01    8.611E-01    8.703E-01    8.796E-01    8.889E-01
     8.981E-01    9.074E-01    9.166E-01    9.259E-01    9.351E-01    9.444E-01    9.536E-01    9.629E-01    9.721E-01    9.814E-01
     9.906E-01    9.999E-01    1.009E+00    1.018E+00    1.028E+00    1.037E+00    1.046E+00    1.055E+00    1.065E+00    1.074E+00
     1.083E+00    1.092E+00    1.102E+00    1.111E+00    1.120E+00    1.129E+00    1.139E+00    1.148E+00    1.157E+00    1.166E+00
     1.176E+00    1.185E+00    1.194E+00    1.203E+00    1.213E+00    1.222E+00    1.231E+00    1.240E+00    1.250E+00    1.259E+00
     1.268E+00    1.277E+00    1.287E+00    1.296E+00    1.305E+00    1.314E+00    1.324E+00    1.333E+00    1.342E+00    1.351E+00
     1.361E+00    1.370E+00    1.379E+00    1.388E+00    1.398E+00    1.407E+00    1.416E+00    1.425E+00    1.435E+00    1.444E+00
     1.453E+00    1.462E+00    1.472E+00    1.481E+00    1.490E+00    1.499E+00    1.509E+00    1.518E+00    1.527E+00    1.536E+00
     1.546E+00    1.555E+00    1.564E+00    1.573E+00    1.583E+00    1.592E+00    1.601E+00    1.610E+00    1.620E+00    1.629E+00
     1.638E+00    1.647E+00    1.657E+00    1.666E+00    1.675E+00    1.684E+00    1.694E+00    1.703E+00    1.712E+00    1.721E+00
     1.731E+00    1.740E+00    1.749E+00    1.758E+00    1.768E+00    1.777E+00    1.786E+00    1.795E+00    1.805E+00    1.814E+00
     1.823E+00    1.832E+00    1.842E+00    1.851E+00    1.860E+00    1.869E+00    1.879E+00    1.888E+00    1.897E+00    1.906E+00
     1.916E+00    1.925E+00    1.934E+00    1.943E+00    1.953E+00    1.962E+00    1.971E+00    1.980E+00
 Ala      Conc. = 7.05E+02
