 LCModel (Version 6.3-1L) Copyright: S.W. Provencher.          Ref.: Magn. Reson. Med. 30:672-679 (1993).                
 Slice#2 Row#11 Col#10  PD_05_press_2_raw_act
 36 lines in following concentration table = NCONC+1
    Conc.  %SD /Cr+PCr  Metabolite                                         
   47.625 104%   0.554 Ala                                                 
   20.495  97%   0.238 Asp                                                 
   83.901  79%   0.975 Cr                                                  
    2.122 999% 2.5E-02 PCr                                                 
   12.619  95%   0.147 GABA                                                
   11.938 101%   0.139 Glc                                                 
   66.993 144%   0.779 Gln                                                 
   76.430 139%   0.888 Glu                                                 
   29.348  33%   0.341 GPC                                                 
    0.000 999%   0.000 PCh                                                 
   73.576  48%   0.855 GSH                                                 
    2.515 999% 2.9E-02 Ins                                                 
   20.740 257%   0.241 Lac                                                 
  213.320  16%   2.480 NAA                                                 
    0.000 999%   0.000 NAAG                                                
    4.837  80% 5.6E-02 Scyllo                                              
   12.342 160%   0.143 Tau                                                 
    0.000 999%   0.000 -CrCH2                                              
   29.348  33%   0.341 GPC+PCh                                             
  213.320  16%   2.480 NAA+NAAG                                            
   86.023  29%   1.000 Cr+PCr                                              
  143.423  96%   1.667 Glu+Gln                                             
   43.315 558%   0.504 Lip13a                                              
    0.000 999%   0.000 Lip13b                                              
   11.212 579%   0.130 Lip09                                               
  371.967  28%   4.324 MM09                                                
    6.539 559% 7.6E-02 Lip20                                               
  677.105  25%   7.871 MM20                                                
  104.490  70%   1.215 MM12                                                
 1.00E+03  19%  11.671 MM14                                                
  162.006  67%   1.883 MM17                                                
   43.315 558%   0.504 Lip13a+Lip13b                                       
 1.15E+03  14%  13.389 MM14+Lip13a+Lip13b+MM12                             
  383.179  22%   4.454 MM09+Lip09                                          
  683.644  23%   7.947 MM20+Lip20                                          
   6 lines in following misc. output table
  FWHM = 0.038 ppm    S/N =   2                                            
  Data shift =-0.008 ppm                                                   
  Ph: 170 deg      26.0 deg/ppm                                            
  alphaB,S = 8.5E+01,   2.6E+01                                            
   14 spline knots.   Ns = 5(1)                                            
   2 inflections.     1 extrema                                            
  498 points on ppm-axis = NY
      4.000000     3.992357     3.984714     3.977070     3.969427     3.961784     3.954141     3.946497     3.938854     3.931211
      3.923568     3.915925     3.908281     3.900638     3.892995     3.885352     3.877708     3.870065     3.862422     3.854779
      3.847136     3.839492     3.831849     3.824206     3.816563     3.808919     3.801276     3.793633     3.785990     3.778347
      3.770703     3.763060     3.755417     3.747774     3.740130     3.732487     3.724844     3.717201     3.709558     3.701914
      3.694271     3.686628     3.678985     3.671341     3.663698     3.656055     3.648412     3.640769     3.633125     3.625482
      3.617839     3.610196     3.602552     3.594909     3.587266     3.579623     3.571980     3.564336     3.556693     3.549050
      3.541407     3.533763     3.526120     3.518477     3.510834     3.503191     3.495547     3.487904     3.480261     3.472618
      3.464974     3.457331     3.449688     3.442045     3.434402     3.426758     3.419115     3.411472     3.403829     3.396185
      3.388542     3.380899     3.373256     3.365613     3.357969     3.350326     3.342683     3.335040     3.327396     3.319753
      3.312110     3.304467     3.296824     3.289180     3.281537     3.273894     3.266251     3.258607     3.250964     3.243321
      3.235678     3.228034     3.220391     3.212748     3.205105     3.197462     3.189818     3.182175     3.174532     3.166889
      3.159245     3.151602     3.143959     3.136316     3.128673     3.121029     3.113386     3.105743     3.098100     3.090456
      3.082813     3.075170     3.067527     3.059884     3.052240     3.044597     3.036954     3.029311     3.021667     3.014024
      3.006381     2.998738     2.991095     2.983451     2.975808     2.968165     2.960522     2.952878     2.945235     2.937592
      2.929949     2.922306     2.914662     2.907019     2.899376     2.891733     2.884089     2.876446     2.868803     2.861160
      2.853517     2.845873     2.838230     2.830587     2.822944     2.815300     2.807657     2.800014     2.792371     2.784728
      2.777084     2.769441     2.761798     2.754155     2.746511     2.738868     2.731225     2.723582     2.715939     2.708295
      2.700652     2.693009     2.685366     2.677722     2.670079     2.662436     2.654793     2.647150     2.639506     2.631863
      2.624220     2.616577     2.608933     2.601290     2.593647     2.586004     2.578361     2.570717     2.563074     2.555431
      2.547788     2.540144     2.532501     2.524858     2.517215     2.509572     2.501928     2.494285     2.486642     2.478999
      2.471355     2.463712     2.456069     2.448426     2.440783     2.433139     2.425496     2.417853     2.410210     2.402566
      2.394923     2.387280     2.379637     2.371994     2.364350     2.356707     2.349064     2.341421     2.333777     2.326134
      2.318491     2.310848     2.303205     2.295561     2.287918     2.280275     2.272632     2.264988     2.257345     2.249702
      2.242059     2.234416     2.226772     2.219129     2.211486     2.203843     2.196199     2.188556     2.180913     2.173270
      2.165627     2.157983     2.150340     2.142697     2.135054     2.127410     2.119767     2.112124     2.104481     2.096838
      2.089194     2.081551     2.073908     2.066265     2.058621     2.050978     2.043335     2.035692     2.028049     2.020405
      2.012762     2.005119     1.997476     1.989833     1.982190     1.974546     1.966903     1.959260     1.951617     1.943974
      1.936331     1.928688     1.921045     1.913402     1.905759     1.898115     1.890472     1.882829     1.875186     1.867543
      1.859900     1.852257     1.844614     1.836971     1.829327     1.821684     1.814041     1.806398     1.798755     1.791112
      1.783469     1.775826     1.768183     1.760540     1.752896     1.745253     1.737610     1.729967     1.722324     1.714681
      1.707038     1.699395     1.691752     1.684108     1.676465     1.668822     1.661179     1.653536     1.645893     1.638250
      1.630607     1.622964     1.615321     1.607677     1.600034     1.592391     1.584748     1.577105     1.569462     1.561819
      1.554176     1.546533     1.538890     1.531246     1.523603     1.515960     1.508317     1.500674     1.493031     1.485388
      1.477745     1.470102     1.462458     1.454815     1.447172     1.439529     1.431886     1.424243     1.416600     1.408957
      1.401314     1.393671     1.386027     1.378384     1.370741     1.363098     1.355455     1.347812     1.340169     1.332526
      1.324883     1.317240     1.309596     1.301953     1.294310     1.286667     1.279024     1.271381     1.263738     1.256095
      1.248452     1.240808     1.233165     1.225522     1.217879     1.210236     1.202593     1.194950     1.187307     1.179664
      1.172021     1.164377     1.156734     1.149091     1.141448     1.133805     1.126162     1.118519     1.110876     1.103233
      1.095590     1.087946     1.080303     1.072660     1.065017     1.057374     1.049731     1.042088     1.034445     1.026802
      1.019158     1.011515     1.003872     0.996229     0.988586     0.980943     0.973300     0.965657     0.958014     0.950371
      0.942727     0.935084     0.927441     0.919798     0.912155     0.904512     0.896869     0.889226     0.881583     0.873940
      0.866296     0.858653     0.851010     0.843367     0.835724     0.828081     0.820438     0.812795     0.805152     0.797508
      0.789865     0.782222     0.774579     0.766936     0.759293     0.751650     0.744007     0.736364     0.728721     0.721077
      0.713434     0.705791     0.698148     0.690505     0.682862     0.675219     0.667576     0.659933     0.652290     0.644646
      0.637003     0.629360     0.621717     0.614074     0.606431     0.598788     0.591145     0.583502     0.575858     0.568215
      0.560572     0.552929     0.545286     0.537643     0.530000     0.522357     0.514714     0.507071     0.499427     0.491784
      0.484141     0.476498     0.468855     0.461212     0.453569     0.445925     0.438282     0.430639     0.422996     0.415353
      0.407710     0.400067     0.392424     0.384780     0.377137     0.369494     0.361851     0.354208     0.346565     0.338922
      0.331278     0.323635     0.315992     0.308349     0.300706     0.293063     0.285420     0.277777     0.270133     0.262490
      0.254847     0.247204     0.239561     0.231918     0.224275     0.216631     0.208988     0.201345
 NY phased data points follow
   6.45865E+00  6.98679E+00  2.11164E+00  3.61918E+00  2.43494E+00  6.35104E+00  6.39098E+00  4.29364E+00  2.78995E+00  5.16369E+00
   6.25210E+00  5.15562E+00  5.29512E+00  5.28278E+00  4.04280E+00  8.96863E+00  3.10407E+00  4.33563E+00  2.58319E+00  3.44353E+00
   1.79359E+00  3.74445E+00  2.92556E+00  5.89604E+00  3.46162E+00  2.15771E+00  2.60134E+00  3.39885E+00  2.71951E+00  6.54236E+00
   3.77682E+00  5.17205E+00  6.14872E+00  4.82905E+00  5.32814E-01  4.13060E+00  3.12961E+00  2.85102E+00  9.72846E-01  2.60944E+00
  -1.35658E+00  1.79570E+00  5.43182E+00 -1.18768E+00 -1.69708E+00  2.62901E+00  6.77923E-01  3.05016E+00  1.84009E+00  2.49012E+00
   2.93814E+00  5.06673E+00  4.70814E+00  3.61443E+00  2.53402E+00  4.88436E+00  1.38648E+00  6.11930E+00  2.06587E+00  1.06290E+00
   1.76145E+00 -2.67020E-01  4.08073E+00 -3.31744E-01  2.14375E+00  2.11530E+00  3.41509E+00 -8.11163E-01  2.72729E-01 -8.01920E-01
   1.32019E+00  4.66473E+00  1.96927E+00  4.63226E-01 -2.33176E-02  1.44912E+00 -6.20930E-01  1.37850E+00  2.34575E-01  4.92878E-01
  -2.01414E-01 -7.88300E-01  1.91056E+00  5.12859E+00 -2.31412E+00  2.31112E+00  3.01994E+00  4.17722E+00  4.49846E+00  3.08121E+00
   1.49954E+00  2.02600E+00  3.40492E-01  3.75823E+00 -1.42491E+00 -1.16038E+00 -5.47406E-01 -1.44589E+00 -2.60124E+00  8.53927E-01
  -6.92974E-01  3.86715E+00  8.30660E-01  7.19145E+00  6.36360E+00  2.69997E+00  6.69916E+00  4.02942E+00  9.31903E-01  1.56695E+00
   5.06680E+00 -3.71660E-01  1.67206E+00  2.47836E+00  2.48951E+00  6.38310E-01  2.22738E+00  2.83751E+00 -1.11172E+00  3.79935E-01
   3.25463E+00 -3.44683E-01  2.86605E+00  2.10531E+00  3.15700E-01  1.24082E+00  2.50213E+00  7.85749E+00  6.77177E+00  4.52939E+00
  -3.88022E-01  3.06337E+00  2.07742E+00  4.96396E+00  1.65141E+00  4.17492E-01  4.06344E+00  1.68288E+00  1.24672E+00  1.50283E+00
   3.76195E+00 -1.80747E+00 -8.46679E-01 -1.24211E+00 -1.50838E+00  2.74460E+00 -1.71648E-01  2.15866E+00  5.75413E+00  1.09750E+00
   3.32668E+00 -2.93629E-01  6.29574E+00  3.92305E+00  2.22038E+00  2.30350E+00 -1.87295E+00  3.34166E+00 -3.11019E+00  2.82232E-01
   4.11063E+00 -3.81709E-01  1.09436E+00  1.42157E+00  1.55650E+00 -3.07687E+00  2.99957E-01  4.39086E+00  6.86246E-01  2.54150E+00
   2.04265E+00  3.86390E+00 -1.53738E+00  1.24566E-01 -6.85634E-01 -3.55921E-01 -2.03529E+00 -1.92155E+00 -9.91955E-01 -4.56361E-01
   7.75822E-02 -4.71077E-01 -1.03002E+00 -5.00948E-01 -8.71818E-01  1.32146E+00  2.12085E+00 -1.33579E+00 -3.86292E-01 -1.62179E+00
   2.87433E+00  2.96337E+00  2.17408E+00  7.92282E-01  1.74299E+00  1.64025E+00  3.16423E+00  5.38965E+00  5.45462E+00  2.42496E+00
   6.36793E-01  3.62365E+00  4.59769E+00  2.87089E+00 -2.29320E+00 -2.68614E+00 -6.18701E-01  3.17060E+00 -1.11652E+00  2.67741E+00
   1.43097E+00 -3.34842E+00  1.13862E+00 -6.47120E-01  3.18636E+00  9.49942E-01 -1.85214E-01  5.58771E+00  5.41701E-02 -1.59224E+00
   3.52721E+00  1.78368E+00 -3.48644E-01  3.20335E+00  8.55350E-02  4.28472E+00  4.90588E+00  1.83471E+00  4.18047E+00  5.55326E+00
  -1.35370E+00  3.22589E+00 -2.22330E+00  1.83810E+00  4.51607E+00  2.21475E+00  4.29024E+00  4.75432E+00  4.05891E+00  2.04015E+00
   4.06947E+00  5.45581E+00  4.37219E+00  4.82926E+00  8.09495E-01  2.17472E+00  4.57200E+00  3.55579E+00  3.58318E+00  3.49372E+00
   6.50274E+00  5.71176E+00  2.88941E+00  2.73235E+00  4.05519E+00  1.39965E+00  5.21105E+00  4.83065E+00  8.07123E+00  1.22623E+01
   1.23566E+01  1.29304E+01  7.53698E+00  6.05003E+00  3.86232E+00  2.06365E+00  6.42086E+00  4.93265E+00  2.81827E+00  2.09051E+00
  -2.59740E+00 -3.80238E-01 -1.57915E+00  1.10603E-01 -4.02791E-01  2.00716E+00  6.83370E-02  3.00818E+00  1.24269E-01  2.98787E+00
  -3.62761E+00  6.46389E-01  2.21018E+00  4.49170E+00  3.39846E+00  2.82672E+00 -1.06815E+00  4.11939E-02 -3.19418E-01 -4.04427E+00
  -4.64409E-01 -8.95880E-02  1.34235E+00 -4.69063E-01 -1.14763E+00  5.01371E+00  2.52789E+00  1.10712E+00  3.17448E+00 -4.33753E-01
   2.56828E+00  4.08986E+00  9.21644E-02 -1.01569E+00 -4.15992E-01  4.12185E+00  1.55769E-02  1.69651E+00  2.33041E+00  4.82572E+00
   5.29013E+00  3.47538E+00 -1.32649E+00  1.40323E+00  3.56916E+00 -1.88454E+00  1.21941E+00 -1.84504E-01  8.19073E-01  4.24328E+00
   3.34110E+00  8.15852E+00  1.65317E+00  4.77515E+00  2.77572E+00  6.89406E+00  1.01047E+00  5.10338E+00  6.01237E+00  7.54106E+00
   2.15061E+00  5.78540E+00  5.93173E-01  6.12513E+00  6.84849E+00  5.92365E+00  8.07056E+00  5.50135E+00  4.77916E+00  4.99748E+00
   4.75380E+00  4.39281E+00  4.12304E+00  8.81425E+00  6.88222E+00  9.98981E+00  6.07891E+00  6.39437E+00  5.45394E+00  3.53446E+00
   2.59704E+00  3.92513E+00  4.84768E+00  2.74739E+00  6.07702E+00  2.74119E+00  2.43941E+00  1.39673E+00  3.95161E+00 -8.51411E-02
  -1.81131E+00 -1.65688E+00  1.46856E+00  3.19675E+00 -1.41490E+00 -8.24740E-01 -1.87026E+00  9.22422E-01 -1.33468E+00  4.18256E+00
   9.39294E-02  1.87481E+00  3.60086E+00 -1.78791E-01 -2.47742E-01  9.15288E-01 -4.20957E-01 -1.45837E-01  3.44230E+00  3.18172E+00
   1.14249E+00 -1.03607E-01  3.08725E+00 -8.54188E-01  8.29510E-01  3.14799E+00  8.33500E-01 -1.25417E-01  3.63378E+00  6.96446E-02
   3.98753E+00 -7.26764E-01  7.58525E+00  3.27788E+00 -2.91885E-01  1.99512E+00 -1.69551E-01  2.33215E+00  9.25534E-01 -6.87756E-01
  -3.00330E+00  2.59594E+00  3.08886E+00  1.39736E+00 -1.30954E+00  5.41809E+00  3.38992E+00  1.16077E+00  2.17595E-02  1.92270E+00
  -3.38984E-01 -1.83115E-01  7.70949E-01 -2.01495E+00  2.03498E+00  2.24126E+00  4.14540E+00  2.83574E+00  3.66741E+00  3.24307E+00
   3.59499E+00  3.50788E-01 -1.33549E-01  2.62378E+00  2.49838E-01 -8.25698E-02 -6.46303E-01  5.76916E-01  2.54528E+00  2.58226E+00
  -1.07052E+00  2.10968E+00  1.52490E+00 -1.95670E+00 -1.64242E+00 -2.72421E-01 -1.72496E+00  2.99582E+00  2.28901E+00 -1.21374E-01
   3.92602E-01  1.02766E+00  2.85586E+00 -2.21490E+00  2.08983E+00  2.20107E+00 -6.52827E-01 -1.11185E+00 -7.04170E+00 -4.87820E-02
  -1.07236E+00 -1.39660E+00  2.35549E+00  8.83578E-01  7.09159E-01 -3.30897E+00 -3.72823E+00 -6.78593E-01 -1.65228E-01  3.34130E+00
  -3.34507E+00  1.49502E+00 -3.92795E+00 -1.67889E+00  3.93641E+00 -5.26826E-01 -1.07669E+00 -2.98700E+00  1.04532E+00 -3.29933E+00
  -3.66337E-01 -4.40103E+00  1.11441E+00  2.52963E-01  1.48751E+00  8.56435E-01 -1.19748E+00 -1.38670E+00 -2.10614E+00 -1.31979E+00
  -7.86852E-01  2.59110E+00 -3.07818E-01 -7.51306E-01 -5.89949E-01  3.01918E-01 -8.22157E-02  2.06467E+00 -8.97309E-01 -2.57593E+00
  -7.56997E-01 -2.55392E-01  4.16077E-01 -3.47788E+00 -3.81347E-01  1.58853E+00  1.94953E-01 -4.70301E-01
 NY points of the fit to the data follow
   2.13785E+00  2.15740E+00  2.18705E+00  2.22834E+00  2.28056E+00  2.34330E+00  2.43774E+00  2.64061E+00  3.04679E+00  3.64739E+00
   4.27277E+00  4.66360E+00  4.64514E+00  4.25202E+00  3.69245E+00  3.17322E+00  2.78339E+00  2.50121E+00  2.33138E+00  2.30047E+00
   2.33574E+00  2.38897E+00  2.41785E+00  2.38735E+00  2.28770E+00  2.17067E+00  2.18559E+00  2.48481E+00  3.08218E+00  3.79214E+00
   4.32370E+00  4.45545E+00  4.18149E+00  3.65821E+00  3.06893E+00  2.54070E+00  2.14102E+00  1.95174E+00  1.94397E+00  2.00750E+00
   2.08040E+00  2.13456E+00  2.16437E+00  2.17001E+00  2.15676E+00  2.12693E+00  2.08962E+00  2.06238E+00  2.04618E+00  2.04085E+00
   2.04406E+00  2.04653E+00  2.03381E+00  2.00737E+00  1.97773E+00  1.94607E+00  1.91104E+00  1.87756E+00  1.85149E+00  1.83293E+00
   1.81968E+00  1.80816E+00  1.79800E+00  1.79108E+00  1.78711E+00  1.78384E+00  1.77807E+00  1.76762E+00  1.75319E+00  1.73820E+00
   1.72756E+00  1.72736E+00  1.74211E+00  1.76998E+00  1.80086E+00  1.81791E+00  1.81085E+00  1.77955E+00  1.73686E+00  1.70094E+00
   1.68336E+00  1.68852E+00  1.72658E+00  1.80547E+00  1.91052E+00  2.00585E+00  2.05030E+00  2.02350E+00  1.94170E+00  1.84454E+00
   1.76133E+00  1.69659E+00  1.64121E+00  1.60141E+00  1.58593E+00  1.59598E+00  1.63434E+00  1.70231E+00  1.83321E+00  2.15147E+00
   2.80221E+00  3.75921E+00  4.74490E+00  5.34962E+00  5.30662E+00  4.68294E+00  3.81598E+00  3.03234E+00  2.46471E+00  2.07060E+00
   1.83960E+00  1.77578E+00  1.76419E+00  1.76815E+00  1.78000E+00  1.79748E+00  1.81514E+00  1.82761E+00  1.83348E+00  1.83743E+00
   1.85101E+00  1.89616E+00  2.03117E+00  2.39320E+00  3.11015E+00  4.12142E+00  5.12303E+00  5.71026E+00  5.65430E+00  5.06701E+00
   4.29780E+00  3.63746E+00  3.14543E+00  2.70562E+00  2.29003E+00  1.93332E+00  1.63445E+00  1.47013E+00  1.48107E+00  1.62911E+00
   1.83181E+00  2.01071E+00  2.10343E+00  2.09774E+00  2.02657E+00  1.92524E+00  1.81892E+00  1.72531E+00  1.64136E+00  1.57239E+00
   1.50970E+00  1.44943E+00  1.39393E+00  1.35009E+00  1.32234E+00  1.30838E+00  1.29777E+00  1.26764E+00  1.20085E+00  1.10628E+00
   1.02129E+00  9.90174E-01  1.02608E+00  1.09918E+00  1.15757E+00  1.16474E+00  1.12260E+00  1.05988E+00  9.97265E-01  9.47707E-01
   9.10414E-01  8.73736E-01  8.29044E-01  7.62504E-01  6.86923E-01  6.36892E-01  6.36344E-01  6.72713E-01  7.06015E-01  7.05000E-01
   6.77330E-01  6.53966E-01  6.49041E-01  6.38261E-01  6.03829E-01  5.77277E-01  6.13031E-01  7.56519E-01  9.95002E-01  1.26658E+00
   1.48656E+00  1.59211E+00  1.56521E+00  1.42809E+00  1.21500E+00  9.78901E-01  7.79944E-01  6.77866E-01  7.17640E-01  9.01498E-01
   1.17886E+00  1.47037E+00  1.71174E+00  1.85672E+00  1.88096E+00  1.75967E+00  1.51105E+00  1.19093E+00  8.78358E-01  6.54397E-01
   5.76857E-01  6.66004E-01  8.98633E-01  1.21745E+00  1.54206E+00  1.79032E+00  1.90066E+00  1.84082E+00  1.65603E+00  1.42468E+00
   1.20891E+00  1.08100E+00  1.09106E+00  1.25184E+00  1.49879E+00  1.74224E+00  1.91988E+00  2.00517E+00  1.99658E+00  1.91098E+00
   1.79953E+00  1.73695E+00  1.77117E+00  1.90350E+00  2.11407E+00  2.36636E+00  2.61118E+00  2.79295E+00  2.85905E+00  2.78972E+00
   2.63430E+00  2.47420E+00  2.38273E+00  2.39763E+00  2.53392E+00  2.76403E+00  3.00770E+00  3.19615E+00  3.31533E+00  3.38424E+00
   3.41830E+00  3.44041E+00  3.46228E+00  3.49239E+00  3.54653E+00  3.74855E+00  4.45020E+00  6.00397E+00  8.30036E+00  1.06025E+01
   1.19039E+01  1.16020E+01  9.92453E+00  7.70971E+00  5.72726E+00  4.25900E+00  3.18363E+00  2.51644E+00  2.22763E+00  2.04802E+00
   1.90950E+00  1.80603E+00  1.73224E+00  1.67774E+00  1.63261E+00  1.58654E+00  1.53272E+00  1.46873E+00  1.39743E+00  1.32355E+00
   1.25324E+00  1.19236E+00  1.14370E+00  1.10835E+00  1.08593E+00  1.07389E+00  1.06932E+00  1.07027E+00  1.07537E+00  1.08467E+00
   1.09844E+00  1.11652E+00  1.13906E+00  1.16660E+00  1.19910E+00  1.23597E+00  1.27663E+00  1.32034E+00  1.36592E+00  1.41209E+00
   1.45791E+00  1.50228E+00  1.54436E+00  1.58350E+00  1.61921E+00  1.65132E+00  1.68003E+00  1.70595E+00  1.73006E+00  1.75369E+00
   1.77848E+00  1.80635E+00  1.83951E+00  1.88045E+00  1.93182E+00  1.99636E+00  2.07678E+00  2.17582E+00  2.29629E+00  2.44127E+00
   2.61468E+00  2.82320E+00  3.08049E+00  3.40118E+00  3.76337E+00  4.09218E+00  4.29552E+00  4.32924E+00  4.23600E+00  4.11804E+00
   4.06783E+00  4.13742E+00  4.35540E+00  4.73073E+00  5.24251E+00  5.77273E+00  6.17415E+00  6.37653E+00  6.39735E+00  6.30426E+00
   6.15620E+00  5.97117E+00  5.77506E+00  5.60043E+00  5.43081E+00  5.23164E+00  4.96339E+00  4.60696E+00  4.18286E+00  3.74217E+00
   3.33821E+00  3.00930E+00  2.77509E+00  2.63593E+00  2.57416E+00  2.53631E+00  2.46238E+00  2.33424E+00  2.16901E+00  1.99599E+00
   1.83376E+00  1.68311E+00  1.55365E+00  1.44707E+00  1.35552E+00  1.27492E+00  1.20295E+00  1.13804E+00  1.07908E+00  1.02527E+00
   9.76099E-01  9.31217E-01  8.90455E-01  8.53792E-01  8.21341E-01  7.93323E-01  7.70037E-01  7.51833E-01  7.39109E-01  7.32308E-01
   7.31919E-01  7.38446E-01  7.52389E-01  7.74226E-01  8.04409E-01  8.43354E-01  8.91405E-01  9.48794E-01  1.01559E+00  1.09168E+00
   1.17671E+00  1.27009E+00  1.37092E+00  1.47800E+00  1.58973E+00  1.70423E+00  1.81929E+00  1.93246E+00  2.04111E+00  2.14247E+00
   2.23377E+00  2.31235E+00  2.37578E+00  2.42198E+00  2.44931E+00  2.45661E+00  2.44334E+00  2.40955E+00  2.35589E+00  2.28361E+00
   2.19441E+00  2.09043E+00  1.97409E+00  1.84802E+00  1.71493E+00  1.57750E+00  1.43824E+00  1.29944E+00  1.16313E+00  1.03101E+00
   9.04473E-01  7.84531E-01  6.71882E-01  5.66927E-01  4.69824E-01  3.80521E-01  2.98792E-01  2.24270E-01  1.56494E-01  9.49531E-02
   3.91246E-02 -1.15180E-02 -5.74962E-02 -9.93158E-02 -1.37448E-01 -1.72314E-01 -2.04286E-01 -2.33698E-01 -2.60858E-01 -2.86043E-01
  -3.09493E-01 -3.31405E-01 -3.51945E-01 -3.71266E-01 -3.89511E-01 -4.06805E-01 -4.23251E-01 -4.38927E-01 -4.53903E-01 -4.68251E-01
  -4.82040E-01 -4.95329E-01 -5.08159E-01 -5.20561E-01 -5.32567E-01 -5.44217E-01 -5.55549E-01 -5.66592E-01 -5.77360E-01 -5.87866E-01
  -5.98132E-01 -6.08183E-01 -6.18041E-01 -6.27718E-01 -6.37216E-01 -6.46541E-01 -6.55711E-01 -6.64746E-01 -6.73658E-01 -6.82447E-01
  -6.91111E-01 -6.99658E-01 -7.08103E-01 -7.16459E-01 -7.24730E-01 -7.32910E-01 -7.40999E-01 -7.49006E-01 -7.56946E-01 -7.64825E-01
  -7.72642E-01 -7.80388E-01 -7.88067E-01 -7.95688E-01 -8.03264E-01 -8.10796E-01 -8.18277E-01 -8.25701E-01 -8.33074E-01 -8.40408E-01
  -8.47711E-01 -8.54977E-01 -8.62199E-01 -8.69374E-01 -8.76511E-01 -8.83621E-01 -8.90705E-01 -8.97755E-01
 NY background values follow
     2.059E+00    2.052E+00    2.046E+00    2.040E+00    2.034E+00    2.028E+00    2.022E+00    2.016E+00    2.010E+00    2.004E+00
     1.998E+00    1.992E+00    1.986E+00    1.980E+00    1.974E+00    1.968E+00    1.961E+00    1.955E+00    1.949E+00    1.943E+00
     1.937E+00    1.931E+00    1.925E+00    1.919E+00    1.913E+00    1.907E+00    1.901E+00    1.895E+00    1.889E+00    1.883E+00
     1.877E+00    1.870E+00    1.864E+00    1.858E+00    1.852E+00    1.846E+00    1.840E+00    1.834E+00    1.828E+00    1.822E+00
     1.816E+00    1.810E+00    1.804E+00    1.798E+00    1.792E+00    1.786E+00    1.779E+00    1.773E+00    1.767E+00    1.761E+00
     1.755E+00    1.749E+00    1.743E+00    1.737E+00    1.731E+00    1.725E+00    1.719E+00    1.713E+00    1.707E+00    1.701E+00
     1.694E+00    1.688E+00    1.682E+00    1.676E+00    1.670E+00    1.664E+00    1.658E+00    1.652E+00    1.646E+00    1.640E+00
     1.634E+00    1.628E+00    1.622E+00    1.616E+00    1.610E+00    1.603E+00    1.597E+00    1.591E+00    1.585E+00    1.579E+00
     1.573E+00    1.567E+00    1.561E+00    1.555E+00    1.549E+00    1.543E+00    1.537E+00    1.531E+00    1.525E+00    1.519E+00
     1.512E+00    1.506E+00    1.500E+00    1.494E+00    1.488E+00    1.482E+00    1.476E+00    1.470E+00    1.464E+00    1.458E+00
     1.452E+00    1.446E+00    1.440E+00    1.434E+00    1.428E+00    1.421E+00    1.415E+00    1.409E+00    1.403E+00    1.397E+00
     1.391E+00    1.385E+00    1.379E+00    1.373E+00    1.367E+00    1.361E+00    1.355E+00    1.349E+00    1.343E+00    1.336E+00
     1.330E+00    1.324E+00    1.318E+00    1.312E+00    1.306E+00    1.300E+00    1.294E+00    1.288E+00    1.282E+00    1.276E+00
     1.270E+00    1.264E+00    1.258E+00    1.252E+00    1.245E+00    1.239E+00    1.233E+00    1.227E+00    1.221E+00    1.215E+00
     1.209E+00    1.203E+00    1.197E+00    1.191E+00    1.185E+00    1.179E+00    1.173E+00    1.167E+00    1.161E+00    1.154E+00
     1.148E+00    1.142E+00    1.136E+00    1.130E+00    1.124E+00    1.118E+00    1.112E+00    1.106E+00    1.100E+00    1.094E+00
     1.088E+00    1.082E+00    1.076E+00    1.070E+00    1.063E+00    1.057E+00    1.051E+00    1.045E+00    1.039E+00    1.033E+00
     1.027E+00    1.021E+00    1.015E+00    1.009E+00    1.003E+00    9.967E-01    9.906E-01    9.846E-01    9.785E-01    9.724E-01
     9.664E-01    9.603E-01    9.542E-01    9.482E-01    9.421E-01    9.360E-01    9.300E-01    9.239E-01    9.178E-01    9.118E-01
     9.057E-01    8.996E-01    8.936E-01    8.875E-01    8.814E-01    8.754E-01    8.693E-01    8.632E-01    8.572E-01    8.511E-01
     8.450E-01    8.390E-01    8.329E-01    8.268E-01    8.208E-01    8.147E-01    8.086E-01    8.026E-01    7.965E-01    7.904E-01
     7.844E-01    7.783E-01    7.722E-01    7.662E-01    7.601E-01    7.540E-01    7.480E-01    7.419E-01    7.358E-01    7.298E-01
     7.237E-01    7.176E-01    7.116E-01    7.055E-01    6.994E-01    6.934E-01    6.873E-01    6.812E-01    6.752E-01    6.691E-01
     6.630E-01    6.570E-01    6.509E-01    6.448E-01    6.388E-01    6.327E-01    6.266E-01    6.205E-01    6.145E-01    6.084E-01
     6.023E-01    5.963E-01    5.902E-01    5.841E-01    5.781E-01    5.720E-01    5.659E-01    5.599E-01    5.538E-01    5.477E-01
     5.417E-01    5.356E-01    5.295E-01    5.235E-01    5.174E-01    5.113E-01    5.053E-01    4.992E-01    4.931E-01    4.871E-01
     4.810E-01    4.749E-01    4.689E-01    4.628E-01    4.567E-01    4.507E-01    4.446E-01    4.385E-01    4.325E-01    4.264E-01
     4.203E-01    4.143E-01    4.082E-01    4.021E-01    3.961E-01    3.900E-01    3.839E-01    3.779E-01    3.718E-01    3.657E-01
     3.597E-01    3.536E-01    3.475E-01    3.415E-01    3.354E-01    3.293E-01    3.233E-01    3.172E-01    3.111E-01    3.051E-01
     2.990E-01    2.929E-01    2.869E-01    2.808E-01    2.747E-01    2.687E-01    2.626E-01    2.565E-01    2.505E-01    2.444E-01
     2.383E-01    2.323E-01    2.262E-01    2.201E-01    2.141E-01    2.080E-01    2.019E-01    1.959E-01    1.898E-01    1.837E-01
     1.777E-01    1.716E-01    1.655E-01    1.595E-01    1.534E-01    1.473E-01    1.413E-01    1.352E-01    1.291E-01    1.231E-01
     1.170E-01    1.109E-01    1.049E-01    9.881E-02    9.274E-02    8.667E-02    8.061E-02    7.454E-02    6.847E-02    6.241E-02
     5.634E-02    5.027E-02    4.421E-02    3.814E-02    3.207E-02    2.601E-02    1.994E-02    1.387E-02    7.807E-03    1.741E-03
    -4.326E-03   -1.039E-02   -1.646E-02   -2.253E-02   -2.859E-02   -3.466E-02   -4.072E-02   -4.679E-02   -5.286E-02   -5.892E-02
    -6.499E-02   -7.106E-02   -7.712E-02   -8.319E-02   -8.926E-02   -9.532E-02   -1.014E-01   -1.075E-01   -1.135E-01   -1.196E-01
    -1.257E-01   -1.317E-01   -1.378E-01   -1.439E-01   -1.499E-01   -1.560E-01   -1.621E-01   -1.681E-01   -1.742E-01   -1.803E-01
    -1.863E-01   -1.924E-01   -1.985E-01   -2.045E-01   -2.106E-01   -2.167E-01   -2.227E-01   -2.288E-01   -2.349E-01   -2.409E-01
    -2.470E-01   -2.531E-01   -2.591E-01   -2.652E-01   -2.713E-01   -2.773E-01   -2.834E-01   -2.894E-01   -2.955E-01   -3.016E-01
    -3.076E-01   -3.137E-01   -3.198E-01   -3.258E-01   -3.319E-01   -3.380E-01   -3.440E-01   -3.501E-01   -3.562E-01   -3.622E-01
    -3.683E-01   -3.744E-01   -3.804E-01   -3.865E-01   -3.926E-01   -3.986E-01   -4.047E-01   -4.108E-01   -4.168E-01   -4.229E-01
    -4.290E-01   -4.350E-01   -4.411E-01   -4.472E-01   -4.532E-01   -4.593E-01   -4.654E-01   -4.714E-01   -4.775E-01   -4.836E-01
    -4.896E-01   -4.957E-01   -5.018E-01   -5.078E-01   -5.139E-01   -5.200E-01   -5.260E-01   -5.321E-01   -5.382E-01   -5.442E-01
    -5.503E-01   -5.564E-01   -5.624E-01   -5.685E-01   -5.746E-01   -5.806E-01   -5.867E-01   -5.928E-01   -5.988E-01   -6.049E-01
    -6.110E-01   -6.170E-01   -6.231E-01   -6.292E-01   -6.352E-01   -6.413E-01   -6.474E-01   -6.534E-01   -6.595E-01   -6.656E-01
    -6.716E-01   -6.777E-01   -6.838E-01   -6.898E-01   -6.959E-01   -7.020E-01   -7.080E-01   -7.141E-01   -7.202E-01   -7.262E-01
    -7.323E-01   -7.384E-01   -7.444E-01   -7.505E-01   -7.566E-01   -7.626E-01   -7.687E-01   -7.748E-01   -7.808E-01   -7.869E-01
    -7.930E-01   -7.990E-01   -8.051E-01   -8.112E-01   -8.172E-01   -8.233E-01   -8.294E-01   -8.354E-01   -8.415E-01   -8.476E-01
    -8.536E-01   -8.597E-01   -8.658E-01   -8.718E-01   -8.779E-01   -8.840E-01   -8.900E-01   -8.961E-01   -9.022E-01   -9.082E-01
    -9.143E-01   -9.203E-01   -9.264E-01   -9.325E-01   -9.385E-01   -9.446E-01   -9.507E-01   -9.567E-01
 Ala      Conc. = 4.76E+01
