 LCModel (Version 6.3-1L) Copyright: S.W. Provencher.          Ref.: Magn. Reson. Med. 30:672-679 (1993).                
 Slice#2 Row#12 Col#5  PD_05_press_2_raw_act
 36 lines in following concentration table = NCONC+1
    Conc.  %SD /Cr+PCr  Metabolite                                         
   35.997  81%   2.344 Ala                                                 
    3.746  74%   0.244 Asp                                                 
   15.357  98%   1.000 Cr                                                  
    0.000 999%   0.000 PCr                                                 
    2.257  74%   0.147 GABA                                                
    2.219  75%   0.144 Glc                                                 
    0.000 999%   0.000 Gln                                                 
   46.467 107%   3.026 Glu                                                 
    0.000 999%   0.000 GPC                                                 
    5.433 109%   0.354 PCh                                                 
   34.645  67%   2.256 GSH                                                 
    0.000 999%   0.000 Ins                                                 
    6.373 359%   0.415 Lac                                                 
   42.896  56%   2.793 NAA                                                 
    0.000 999%   0.000 NAAG                                                
    0.760  73% 5.0E-02 Scyllo                                              
    3.780  73%   0.246 Tau                                                 
    2.552 165%   0.166 -CrCH2                                              
    5.433 109%   0.354 GPC+PCh                                             
   42.896  56%   2.793 NAA+NAAG                                            
   15.357  98%   1.000 Cr+PCr                                              
   46.467 107%   3.026 Glu+Gln                                             
    0.000 999%   0.000 Lip13a                                              
  353.880  16%  23.044 Lip13b                                              
   94.207  16%   6.135 Lip09                                               
    0.000 999%   0.000 MM09                                                
   53.172  16%   3.463 Lip20                                               
 1.57E-02 999% 1.0E-03 MM20                                                
    0.000 999%   0.000 MM12                                                
    0.000 999%   0.000 MM14                                                
    0.000 999%   0.000 MM17                                                
  353.880  16%  23.044 Lip13a+Lip13b                                       
  353.880  16%  23.044 MM14+Lip13a+Lip13b+MM12                             
   94.207  16%   6.135 MM09+Lip09                                          
   53.188  17%   3.464 MM20+Lip20                                          
   6 lines in following misc. output table
  FWHM = 0.031 ppm    S/N =   1                                            
  Data shift =-0.084 ppm                                                   
  Ph:-128 deg      -6.6 deg/ppm                                            
  alphaB,S = 8.5E+01,   2.8E+00                                            
   14 spline knots.   Ns = 5(1)                                            
  (10) 4 infls.   ( 9) 3 extrs.                                            
  498 points on ppm-axis = NY
      4.000000     3.992357     3.984714     3.977070     3.969427     3.961784     3.954141     3.946497     3.938854     3.931211
      3.923568     3.915925     3.908281     3.900638     3.892995     3.885352     3.877708     3.870065     3.862422     3.854779
      3.847136     3.839492     3.831849     3.824206     3.816563     3.808919     3.801276     3.793633     3.785990     3.778347
      3.770703     3.763060     3.755417     3.747774     3.740130     3.732487     3.724844     3.717201     3.709558     3.701914
      3.694271     3.686628     3.678985     3.671341     3.663698     3.656055     3.648412     3.640769     3.633125     3.625482
      3.617839     3.610196     3.602552     3.594909     3.587266     3.579623     3.571980     3.564336     3.556693     3.549050
      3.541407     3.533763     3.526120     3.518477     3.510834     3.503191     3.495547     3.487904     3.480261     3.472618
      3.464974     3.457331     3.449688     3.442045     3.434402     3.426758     3.419115     3.411472     3.403829     3.396185
      3.388542     3.380899     3.373256     3.365613     3.357969     3.350326     3.342683     3.335040     3.327396     3.319753
      3.312110     3.304467     3.296824     3.289180     3.281537     3.273894     3.266251     3.258607     3.250964     3.243321
      3.235678     3.228034     3.220391     3.212748     3.205105     3.197462     3.189818     3.182175     3.174532     3.166889
      3.159245     3.151602     3.143959     3.136316     3.128673     3.121029     3.113386     3.105743     3.098100     3.090456
      3.082813     3.075170     3.067527     3.059884     3.052240     3.044597     3.036954     3.029311     3.021667     3.014024
      3.006381     2.998738     2.991095     2.983451     2.975808     2.968165     2.960522     2.952878     2.945235     2.937592
      2.929949     2.922306     2.914662     2.907019     2.899376     2.891733     2.884089     2.876446     2.868803     2.861160
      2.853517     2.845873     2.838230     2.830587     2.822944     2.815300     2.807657     2.800014     2.792371     2.784728
      2.777084     2.769441     2.761798     2.754155     2.746511     2.738868     2.731225     2.723582     2.715939     2.708295
      2.700652     2.693009     2.685366     2.677722     2.670079     2.662436     2.654793     2.647150     2.639506     2.631863
      2.624220     2.616577     2.608933     2.601290     2.593647     2.586004     2.578361     2.570717     2.563074     2.555431
      2.547788     2.540144     2.532501     2.524858     2.517215     2.509572     2.501928     2.494285     2.486642     2.478999
      2.471355     2.463712     2.456069     2.448426     2.440783     2.433139     2.425496     2.417853     2.410210     2.402566
      2.394923     2.387280     2.379637     2.371994     2.364350     2.356707     2.349064     2.341421     2.333777     2.326134
      2.318491     2.310848     2.303205     2.295561     2.287918     2.280275     2.272632     2.264988     2.257345     2.249702
      2.242059     2.234416     2.226772     2.219129     2.211486     2.203843     2.196199     2.188556     2.180913     2.173270
      2.165627     2.157983     2.150340     2.142697     2.135054     2.127410     2.119767     2.112124     2.104481     2.096838
      2.089194     2.081551     2.073908     2.066265     2.058621     2.050978     2.043335     2.035692     2.028049     2.020405
      2.012762     2.005119     1.997476     1.989833     1.982190     1.974546     1.966903     1.959260     1.951617     1.943974
      1.936331     1.928688     1.921045     1.913402     1.905759     1.898115     1.890472     1.882829     1.875186     1.867543
      1.859900     1.852257     1.844614     1.836971     1.829327     1.821684     1.814041     1.806398     1.798755     1.791112
      1.783469     1.775826     1.768183     1.760540     1.752896     1.745253     1.737610     1.729967     1.722324     1.714681
      1.707038     1.699395     1.691752     1.684108     1.676465     1.668822     1.661179     1.653536     1.645893     1.638250
      1.630607     1.622964     1.615321     1.607677     1.600034     1.592391     1.584748     1.577105     1.569462     1.561819
      1.554176     1.546533     1.538890     1.531246     1.523603     1.515960     1.508317     1.500674     1.493031     1.485388
      1.477745     1.470102     1.462458     1.454815     1.447172     1.439529     1.431886     1.424243     1.416600     1.408957
      1.401314     1.393671     1.386027     1.378384     1.370741     1.363098     1.355455     1.347812     1.340169     1.332526
      1.324883     1.317240     1.309596     1.301953     1.294310     1.286667     1.279024     1.271381     1.263738     1.256095
      1.248452     1.240808     1.233165     1.225522     1.217879     1.210236     1.202593     1.194950     1.187307     1.179664
      1.172021     1.164377     1.156734     1.149091     1.141448     1.133805     1.126162     1.118519     1.110876     1.103233
      1.095590     1.087946     1.080303     1.072660     1.065017     1.057374     1.049731     1.042088     1.034445     1.026802
      1.019158     1.011515     1.003872     0.996229     0.988586     0.980943     0.973300     0.965657     0.958014     0.950371
      0.942727     0.935084     0.927441     0.919798     0.912155     0.904512     0.896869     0.889226     0.881583     0.873940
      0.866296     0.858653     0.851010     0.843367     0.835724     0.828081     0.820438     0.812795     0.805152     0.797508
      0.789865     0.782222     0.774579     0.766936     0.759293     0.751650     0.744007     0.736364     0.728721     0.721077
      0.713434     0.705791     0.698148     0.690505     0.682862     0.675219     0.667576     0.659933     0.652290     0.644646
      0.637003     0.629360     0.621717     0.614074     0.606431     0.598788     0.591145     0.583502     0.575858     0.568215
      0.560572     0.552929     0.545286     0.537643     0.530000     0.522357     0.514714     0.507071     0.499427     0.491784
      0.484141     0.476498     0.468855     0.461212     0.453569     0.445925     0.438282     0.430639     0.422996     0.415353
      0.407710     0.400067     0.392424     0.384780     0.377137     0.369494     0.361851     0.354208     0.346565     0.338922
      0.331278     0.323635     0.315992     0.308349     0.300706     0.293063     0.285420     0.277777     0.270133     0.262490
      0.254847     0.247204     0.239561     0.231918     0.224275     0.216631     0.208988     0.201345
 NY phased data points follow
  -1.30114E+01 -9.02593E+00 -1.22863E+01 -8.24861E+00 -1.10887E+01 -1.07672E+01 -1.26577E+01 -1.12603E+01 -7.36329E+00 -1.21350E+01
  -1.46093E+01 -1.07889E+01 -1.23969E+01 -8.68424E+00 -7.90673E+00 -1.22834E+01 -1.30084E+01 -8.35431E+00 -7.59208E+00 -8.31662E+00
  -1.00210E+01 -1.17446E+01 -9.67071E+00 -5.05398E+00 -1.18847E+01 -1.16136E+01 -1.00402E+01 -9.56018E+00 -1.21485E+01 -9.42468E+00
  -1.00810E+01 -9.02661E+00 -8.41640E+00 -6.98527E+00 -6.79941E+00 -1.04240E+01 -7.87277E+00 -8.14744E+00 -5.33408E+00 -8.86195E+00
  -7.69347E+00 -9.23706E+00 -1.00206E+01 -8.58384E+00 -6.01233E+00 -7.93454E+00 -1.03999E+01 -8.08738E+00 -7.78181E+00 -6.93035E+00
  -8.78596E+00 -7.91395E+00 -8.35328E+00 -7.20308E+00 -8.07062E+00 -4.07360E+00 -8.76466E+00 -8.85058E+00 -8.29559E+00 -6.57093E+00
  -5.18781E+00 -9.58276E+00 -6.73270E+00 -6.38820E+00 -5.81809E+00 -5.39673E+00 -7.08508E+00 -5.81543E+00 -7.59568E+00 -7.82202E+00
  -6.81075E+00 -6.00178E+00 -9.27070E+00 -1.05181E+01 -7.89320E+00 -2.00457E+00 -7.82008E+00 -8.34185E+00 -7.03925E+00 -5.24687E+00
  -4.84894E+00 -9.39575E+00 -7.35343E+00 -8.00552E+00 -3.95445E+00 -7.90633E+00 -6.47573E+00 -7.28539E+00 -4.40097E+00 -4.86931E+00
  -4.02464E+00 -4.09312E+00 -6.98430E+00 -7.24200E+00 -5.75488E+00 -6.65784E+00 -5.51391E+00 -4.68287E+00 -8.66215E+00 -4.42747E+00
  -6.70711E+00 -5.62704E+00 -3.50151E+00 -5.11609E+00 -7.26407E+00 -1.94255E+00 -4.43057E+00 -4.51334E+00 -3.76812E+00 -3.84259E+00
  -1.32928E+00 -2.40590E+00 -5.74224E+00 -4.90688E+00 -6.17808E+00 -4.34848E+00 -3.12093E+00 -5.25904E+00 -4.48630E+00 -4.79324E+00
  -5.80134E+00 -1.30402E+00 -6.30863E+00 -7.13014E+00 -3.38535E+00 -7.22125E+00 -6.60069E+00 -1.71106E+00 -3.83877E+00 -5.15657E+00
  -2.96658E+00 -5.09617E+00  7.84244E-01 -5.86390E+00  4.73148E-01 -2.47883E+00 -6.03185E+00 -4.61136E+00 -6.78478E+00 -5.14941E+00
  -7.12193E+00 -5.76040E+00 -3.76455E+00 -1.20715E+00 -3.74222E+00 -1.10529E+00 -3.16161E+00 -5.59319E+00 -4.13630E+00 -7.51707E+00
  -3.02728E+00 -5.49805E+00 -3.17544E+00 -3.90056E+00 -6.96621E+00 -6.28976E+00 -4.53813E+00 -1.69021E+00 -3.50165E+00 -2.76894E+00
  -2.38371E+00 -1.30041E+00 -3.54984E+00 -5.66993E+00 -5.76413E+00 -4.89983E+00 -1.74201E+00 -2.97873E+00 -4.27484E+00 -3.55957E+00
  -6.49185E+00 -5.36043E-01 -2.61137E+00 -2.08913E+00 -2.95569E+00 -3.77660E+00 -3.43796E+00 -5.02709E+00 -4.43229E+00 -3.63944E+00
  -3.42323E+00 -4.75119E+00 -2.59603E+00 -6.60244E+00 -2.29032E+00  6.69502E-01 -3.41493E-01 -1.48912E+00 -1.49796E+00 -4.60679E-01
  -1.25439E+00 -2.29701E+00  1.08791E-01 -3.85447E+00 -3.75559E-01 -1.82686E+00 -2.18128E+00 -2.12141E+00 -2.47700E+00 -1.24323E+00
  -2.94872E+00  2.65861E+00 -1.18030E+00 -2.17567E+00  5.36756E-02 -4.62773E-01  6.64102E-01 -1.78025E+00 -5.50350E+00  3.67243E-01
  -2.48289E+00 -1.32037E+00 -1.22564E+00  1.71777E+00 -4.27797E+00 -2.30372E+00 -2.45320E+00 -2.07963E+00 -8.54549E-01  2.90536E-01
  -1.69566E+00 -2.35490E+00  4.38090E-02 -1.98142E+00 -4.00724E+00 -3.04665E+00 -6.45047E-01 -1.80537E+00 -2.75629E-01  4.57621E-01
  -1.15288E+00  1.38004E-01 -2.13315E+00 -5.05414E-01 -4.73413E-01 -1.96203E+00  7.64794E-01  2.53920E+00 -1.32139E+00 -3.01543E+00
  -3.12121E+00  3.00772E+00 -7.92944E-01 -3.63632E+00 -4.36580E+00 -1.19002E+00  2.08050E+00 -1.36576E-01 -1.85434E+00 -1.28574E+00
  -7.61203E-01  1.29945E-02 -7.02908E-01 -5.00570E+00  1.57881E+00  3.76864E+00 -3.71477E+00 -1.29477E+00 -3.86144E+00 -5.02659E+00
  -3.22365E-01 -1.13376E+00  2.04734E+00 -7.55616E-01 -1.13884E-01 -3.44623E-01 -6.46309E-01 -3.64114E+00  6.12557E-01 -4.89442E+00
  -5.10746E+00 -1.50789E+00 -3.34311E+00  1.33868E-01  1.05896E+00  1.66135E+00  1.69896E+00  1.99910E+00  7.23991E-01 -1.76802E+00
  -3.80089E+00 -2.49227E+00  6.65558E-01 -4.19128E-01 -2.21639E+00  4.02378E-01 -2.61035E+00 -4.52200E-01  6.95160E-01 -3.69055E+00
   1.32907E-02 -1.32837E+00 -4.10953E+00  6.02615E-01  4.47469E-01 -2.15075E+00 -2.54106E+00 -1.46349E+00 -3.23163E+00  1.50343E+00
   1.08386E+00 -1.66178E+00 -5.60399E-01  3.25370E-01  1.07010E-01 -2.67023E+00  4.43029E-01 -3.49239E+00 -7.20728E-01 -3.73522E+00
  -2.28587E+00 -1.79084E+00 -2.08734E+00 -6.90037E-01 -2.40728E+00 -6.19381E+00 -3.03540E+00 -5.28896E+00 -3.74946E+00 -4.85374E+00
  -4.76790E+00 -6.17620E+00 -2.66571E+00 -7.98492E+00 -3.12435E-01 -3.79208E+00 -3.11056E+00  2.57580E+00  2.63178E+00 -9.18666E-02
   1.49248E-01  1.62635E+00  7.88807E-01  1.62880E+00  2.53785E+00  8.01938E-01  3.79711E+00  5.51485E+00  4.76503E+00  5.84539E+00
   7.25508E+00  6.28019E+00  5.76229E+00  1.78924E+00  3.52393E+00  4.23684E+00  5.81587E+00  5.46758E+00  4.08308E+00  3.00795E+00
   5.84102E+00  5.39330E+00  3.18681E+00  1.81871E+00  4.60203E+00  7.38972E-01  2.17451E+00 -8.34939E-01 -1.35837E+00  7.50183E-02
  -4.39477E-01  8.01266E-01 -2.90929E+00 -9.01030E-01 -4.50061E+00 -3.26764E-01 -3.55966E+00 -5.92277E-01 -1.20075E+00 -2.31665E-01
  -2.84001E+00  5.20210E-01 -1.36391E-01  2.07898E+00  2.49287E+00  6.39413E-01  4.82153E-01  2.24331E+00  6.21820E-01 -4.80410E-01
  -1.51110E+00  4.00694E-01 -1.09645E+00 -7.85994E-01 -2.46817E+00  5.31742E-01 -2.36612E-01  1.39789E-01  2.81887E+00  1.85315E+00
  -2.36379E+00 -1.60173E+00  1.88296E+00 -3.81740E+00 -1.15237E+00 -4.95187E-01  8.33667E-02 -2.15432E+00 -5.92714E+00 -3.04577E-01
  -1.54051E+00 -2.42866E+00 -2.20248E+00 -3.67756E+00 -5.24508E+00 -2.19536E+00 -1.21001E+00  9.78746E-01 -8.85699E-01 -2.04600E-01
  -1.13580E-01 -4.76924E-01 -1.18565E+00 -6.64003E-01 -1.98542E-01  2.71090E+00  3.96486E-01 -1.24775E+00 -1.42280E+00  1.81376E+00
   2.19575E+00  2.09385E+00 -2.31179E-01  1.09639E+00 -2.27907E+00 -1.16737E-01 -3.01490E+00 -2.63375E+00  1.24873E+00 -2.05153E+00
  -3.54704E-01  7.53320E-01  6.81667E-01  1.95960E-02 -1.61301E+00  1.17373E+00 -2.67127E+00 -1.34467E+00 -1.70069E+00 -5.41544E-01
  -6.39418E-01  5.55308E-01 -1.50055E+00 -3.21522E+00 -6.08535E-01  5.38022E-02 -1.97672E+00  1.04951E+00  1.76334E+00  1.38403E+00
  -4.38453E-01  2.74531E-01 -2.43226E+00  4.61073E-01 -1.76856E+00 -4.58306E+00 -9.03101E-01 -1.28649E+00 -1.30563E+00 -1.54187E-01
  -3.88004E+00  3.57792E-02 -2.66066E+00 -1.60578E+00 -1.98449E+00  1.87290E+00 -1.93245E+00  4.30804E+00 -2.14367E+00 -6.72102E-01
   1.45036E-01  1.46261E+00 -4.61108E-02 -2.91847E+00 -8.61060E-02 -2.69354E+00 -7.22243E-01  1.05125E+00 -1.77053E+00  1.33831E-01
  -2.02310E+00 -2.05735E+00  1.35275E+00  4.67346E-01  9.30593E-01 -1.89652E+00  3.06459E+00  3.03242E+00  1.11197E+00 -2.25897E+00
  -2.09794E+00  8.62485E-01 -1.95673E-01 -5.00181E-01  1.58834E+00 -1.29013E+00  4.81583E-01  2.65623E-01
 NY points of the fit to the data follow
  -9.75094E+00 -9.71545E+00 -9.67700E+00 -9.64663E+00 -9.62298E+00 -9.53901E+00 -9.30599E+00 -9.12128E+00 -9.22559E+00 -9.59270E+00
  -9.88366E+00 -9.72472E+00 -9.21805E+00 -8.77187E+00 -8.55823E+00 -8.50200E+00 -8.57818E+00 -8.78036E+00 -8.96591E+00 -9.07622E+00
  -9.09233E+00 -9.02728E+00 -8.93062E+00 -8.83293E+00 -8.49159E+00 -7.99257E+00 -8.02241E+00 -8.70566E+00 -9.52588E+00 -9.45795E+00
  -8.47839E+00 -7.54867E+00 -7.22166E+00 -7.25121E+00 -7.34748E+00 -7.68584E+00 -8.04813E+00 -8.07538E+00 -8.11230E+00 -8.26059E+00
  -8.38967E+00 -8.37302E+00 -8.28713E+00 -8.20950E+00 -8.12038E+00 -8.05204E+00 -8.02180E+00 -7.98820E+00 -7.94988E+00 -7.90680E+00
  -7.86931E+00 -7.83896E+00 -7.81113E+00 -7.77765E+00 -7.73263E+00 -7.68228E+00 -7.63342E+00 -7.58784E+00 -7.55141E+00 -7.52068E+00
  -7.48552E+00 -7.44548E+00 -7.40552E+00 -7.36930E+00 -7.33191E+00 -7.29444E+00 -7.25038E+00 -7.19994E+00 -7.14868E+00 -7.10089E+00
  -7.05438E+00 -7.01716E+00 -6.99842E+00 -6.98815E+00 -6.96942E+00 -6.92002E+00 -6.83381E+00 -6.74423E+00 -6.68236E+00 -6.64980E+00
  -6.63539E+00 -6.61739E+00 -6.59497E+00 -6.57709E+00 -6.56743E+00 -6.53196E+00 -6.43890E+00 -6.32220E+00 -6.24188E+00 -6.20893E+00
  -6.19411E+00 -6.17833E+00 -6.15366E+00 -6.10398E+00 -6.05319E+00 -6.02738E+00 -6.00547E+00 -5.94247E+00 -5.73652E+00 -5.51054E+00
  -5.63839E+00 -6.05804E+00 -6.40480E+00 -6.17121E+00 -5.41051E+00 -4.70295E+00 -4.44666E+00 -4.56406E+00 -4.86417E+00 -5.28093E+00
  -5.57106E+00 -5.57474E+00 -5.51271E+00 -5.45506E+00 -5.41101E+00 -5.36855E+00 -5.31243E+00 -5.23630E+00 -5.15080E+00 -5.07294E+00
  -5.01023E+00 -4.90542E+00 -4.70989E+00 -4.74720E+00 -5.06512E+00 -5.42773E+00 -5.37966E+00 -4.72567E+00 -3.91431E+00 -3.59028E+00
  -3.82616E+00 -4.21201E+00 -4.47213E+00 -4.45178E+00 -4.12698E+00 -3.96973E+00 -4.12242E+00 -4.50968E+00 -4.93397E+00 -5.16253E+00
  -5.01010E+00 -4.59375E+00 -4.18216E+00 -3.91042E+00 -3.83491E+00 -3.89852E+00 -3.99001E+00 -4.07757E+00 -4.08107E+00 -4.03819E+00
  -3.99087E+00 -3.94771E+00 -3.91800E+00 -3.90741E+00 -3.91949E+00 -3.92676E+00 -3.90465E+00 -3.83450E+00 -3.73205E+00 -3.62782E+00
  -3.57321E+00 -3.61580E+00 -3.69095E+00 -3.71405E+00 -3.65275E+00 -3.54201E+00 -3.43985E+00 -3.38160E+00 -3.37260E+00 -3.38427E+00
  -3.40136E+00 -3.39925E+00 -3.33355E+00 -3.23273E+00 -3.15931E+00 -3.16146E+00 -3.23282E+00 -3.27020E+00 -3.20962E+00 -3.10228E+00
  -3.02982E+00 -3.00081E+00 -2.96853E+00 -2.88234E+00 -2.77283E+00 -2.70947E+00 -2.75355E+00 -2.89579E+00 -3.04167E+00 -3.01876E+00
  -2.77224E+00 -2.42618E+00 -2.15499E+00 -1.98739E+00 -1.93429E+00 -2.01518E+00 -2.24592E+00 -2.56437E+00 -2.74597E+00 -2.66888E+00
  -2.46129E+00 -2.26929E+00 -2.13354E+00 -2.00625E+00 -1.92960E+00 -1.89662E+00 -1.85174E+00 -1.81784E+00 -1.78653E+00 -1.75028E+00
  -1.73178E+00 -1.74014E+00 -1.91850E+00 -2.17814E+00 -2.32842E+00 -2.13769E+00 -1.67070E+00 -1.27792E+00 -1.07910E+00 -9.94665E-01
  -1.03409E+00 -1.32889E+00 -1.83482E+00 -2.22902E+00 -2.31189E+00 -2.10695E+00 -1.77054E+00 -1.34379E+00 -9.00190E-01 -6.46095E-01
  -7.10454E-01 -9.82741E-01 -1.26079E+00 -1.48627E+00 -1.58404E+00 -1.47893E+00 -1.08701E+00 -5.68770E-01 -2.91900E-01 -3.30601E-01
  -5.54960E-01 -8.79997E-01 -1.25917E+00 -1.54891E+00 -1.53715E+00 -1.23501E+00 -8.32577E-01 -4.86108E-01 -2.26381E-01 -8.74212E-02
  -1.59220E-01 -3.70279E-01 -5.26112E-01 -5.33059E-01 -2.83504E-01  2.58834E-01  1.98669E-01 -7.52079E-01 -1.85475E+00 -1.82442E+00
  -1.48796E-01  1.86777E+00  2.69637E+00  2.21425E+00  1.17866E+00 -7.81445E-02 -1.20363E+00 -1.46954E+00 -1.23274E+00 -1.05326E+00
  -9.46310E-01 -8.73905E-01 -8.29268E-01 -7.81930E-01 -7.03076E-01 -6.12083E-01 -5.30579E-01 -4.63492E-01 -4.14601E-01 -3.87900E-01
  -3.73859E-01 -3.60916E-01 -3.44349E-01 -3.21165E-01 -2.91299E-01 -2.55841E-01 -2.16463E-01 -1.79186E-01 -1.47381E-01 -1.17690E-01
  -8.90198E-02 -6.18296E-02 -3.51133E-02 -7.75768E-03  1.97259E-02  4.65852E-02  7.34511E-02  1.00925E-01  1.28354E-01  1.55599E-01
   1.82752E-01  2.09730E-01  2.36929E-01  2.64694E-01  2.92801E-01  3.20847E-01  3.48716E-01  3.76683E-01  4.04895E-01  4.33472E-01
   4.62633E-01  4.92452E-01  5.22910E-01  5.54117E-01  5.86226E-01  6.19487E-01  6.54170E-01  6.90745E-01  7.29909E-01  7.72971E-01
   8.22355E-01  8.79515E-01  8.71804E-01  5.89889E-01  3.52707E-01  5.15991E-01  1.19094E+00  1.92168E+00  2.03970E+00  1.54998E+00
   1.10720E+00  7.89602E-01  3.21522E-01 -1.68231E-01 -1.77393E-01  4.48804E-01  1.46950E+00  2.34483E+00  2.76645E+00  2.85541E+00
   2.70739E+00  2.41364E+00  2.33424E+00  2.46644E+00  2.69531E+00  3.03692E+00  3.48323E+00  3.91484E+00  4.18052E+00  4.25947E+00
   4.20922E+00  3.98612E+00  3.55765E+00  2.97936E+00  2.37612E+00  1.76372E+00  1.11245E+00  4.07474E-01 -2.98601E-01 -9.25632E-01
  -1.43712E+00 -1.78976E+00 -1.94199E+00 -1.94956E+00 -1.86334E+00 -1.71810E+00 -1.54246E+00 -1.35818E+00 -1.17992E+00 -1.01597E+00
  -8.69874E-01 -7.41916E-01 -6.30648E-01 -5.33807E-01 -4.49047E-01 -3.74178E-01 -3.07389E-01 -2.47187E-01 -1.92450E-01 -1.42288E-01
  -9.60622E-02 -5.32498E-02 -1.34942E-02  2.35028E-02  5.78998E-02  8.98198E-02  1.19274E-01  1.46265E-01  1.70704E-01  1.92504E-01
   2.11486E-01  2.27485E-01  2.40272E-01  2.49663E-01  2.55441E-01  2.57452E-01  2.55527E-01  2.49588E-01  2.39575E-01  2.25555E-01
   2.07633E-01  1.86044E-01  1.61062E-01  1.33084E-01  1.02540E-01  6.99749E-02  3.59330E-02  1.02715E-03 -3.41751E-02 -6.90780E-02
  -1.03161E-01 -1.35905E-01 -1.66907E-01 -1.95799E-01 -2.22352E-01 -2.46374E-01 -2.67798E-01 -2.86590E-01 -3.02833E-01 -3.16634E-01
  -3.28194E-01 -3.37704E-01 -3.45414E-01 -3.51542E-01 -3.56359E-01 -3.60088E-01 -3.62986E-01 -3.65242E-01 -3.67068E-01 -3.68608E-01
  -3.70033E-01 -3.71452E-01 -3.72996E-01 -3.74725E-01 -3.76725E-01 -3.79026E-01 -3.81698E-01 -3.84753E-01 -3.88235E-01 -3.92133E-01
  -3.96475E-01 -4.01243E-01 -4.06465E-01 -4.12119E-01 -4.18224E-01 -4.24748E-01 -4.31701E-01 -4.39059E-01 -4.46841E-01 -4.55020E-01
  -4.63605E-01 -4.72564E-01 -4.81910E-01 -4.91619E-01 -5.01710E-01 -5.12153E-01 -5.22956E-01 -5.34088E-01 -5.45567E-01 -5.57372E-01
  -5.69522E-01 -5.81989E-01 -5.94783E-01 -6.07874E-01 -6.21284E-01 -6.34990E-01 -6.49012E-01 -6.63319E-01 -6.77925E-01 -6.92805E-01
  -7.07982E-01 -7.23434E-01 -7.39180E-01 -7.55188E-01 -7.71473E-01 -7.88011E-01 -8.04829E-01 -8.21906E-01 -8.39255E-01 -8.56848E-01
  -8.74702E-01 -8.92796E-01 -9.11156E-01 -9.29759E-01 -9.48616E-01 -9.67700E-01 -9.87030E-01 -1.00659E+00 -1.02640E+00 -1.04644E+00
  -1.06671E+00 -1.08720E+00 -1.10791E+00 -1.12885E+00 -1.15002E+00 -1.17140E+00 -1.19299E+00 -1.21478E+00
 NY background values follow
    -9.793E+00   -9.758E+00   -9.722E+00   -9.686E+00   -9.650E+00   -9.614E+00   -9.578E+00   -9.541E+00   -9.505E+00   -9.469E+00
    -9.432E+00   -9.396E+00   -9.359E+00   -9.323E+00   -9.286E+00   -9.249E+00   -9.212E+00   -9.176E+00   -9.139E+00   -9.102E+00
    -9.065E+00   -9.027E+00   -8.990E+00   -8.953E+00   -8.916E+00   -8.879E+00   -8.841E+00   -8.804E+00   -8.766E+00   -8.729E+00
    -8.691E+00   -8.654E+00   -8.616E+00   -8.578E+00   -8.541E+00   -8.503E+00   -8.465E+00   -8.427E+00   -8.389E+00   -8.351E+00
    -8.313E+00   -8.275E+00   -8.237E+00   -8.199E+00   -8.161E+00   -8.123E+00   -8.085E+00   -8.046E+00   -8.008E+00   -7.970E+00
    -7.932E+00   -7.893E+00   -7.855E+00   -7.817E+00   -7.778E+00   -7.740E+00   -7.702E+00   -7.663E+00   -7.625E+00   -7.586E+00
    -7.548E+00   -7.509E+00   -7.471E+00   -7.432E+00   -7.394E+00   -7.355E+00   -7.317E+00   -7.278E+00   -7.240E+00   -7.201E+00
    -7.162E+00   -7.124E+00   -7.085E+00   -7.047E+00   -7.008E+00   -6.970E+00   -6.931E+00   -6.892E+00   -6.854E+00   -6.815E+00
    -6.777E+00   -6.738E+00   -6.700E+00   -6.661E+00   -6.622E+00   -6.584E+00   -6.545E+00   -6.507E+00   -6.468E+00   -6.430E+00
    -6.392E+00   -6.353E+00   -6.315E+00   -6.276E+00   -6.238E+00   -6.200E+00   -6.161E+00   -6.123E+00   -6.085E+00   -6.046E+00
    -6.008E+00   -5.970E+00   -5.932E+00   -5.894E+00   -5.855E+00   -5.817E+00   -5.779E+00   -5.741E+00   -5.703E+00   -5.665E+00
    -5.627E+00   -5.589E+00   -5.552E+00   -5.514E+00   -5.476E+00   -5.438E+00   -5.401E+00   -5.363E+00   -5.325E+00   -5.288E+00
    -5.250E+00   -5.213E+00   -5.175E+00   -5.138E+00   -5.101E+00   -5.063E+00   -5.026E+00   -4.989E+00   -4.952E+00   -4.915E+00
    -4.878E+00   -4.841E+00   -4.804E+00   -4.767E+00   -4.730E+00   -4.694E+00   -4.657E+00   -4.620E+00   -4.584E+00   -4.547E+00
    -4.511E+00   -4.475E+00   -4.438E+00   -4.402E+00   -4.366E+00   -4.330E+00   -4.294E+00   -4.258E+00   -4.222E+00   -4.187E+00
    -4.151E+00   -4.115E+00   -4.080E+00   -4.044E+00   -4.009E+00   -3.974E+00   -3.938E+00   -3.903E+00   -3.868E+00   -3.833E+00
    -3.798E+00   -3.763E+00   -3.729E+00   -3.694E+00   -3.659E+00   -3.625E+00   -3.591E+00   -3.556E+00   -3.522E+00   -3.488E+00
    -3.454E+00   -3.420E+00   -3.386E+00   -3.353E+00   -3.319E+00   -3.285E+00   -3.252E+00   -3.219E+00   -3.185E+00   -3.152E+00
    -3.119E+00   -3.086E+00   -3.053E+00   -3.021E+00   -2.988E+00   -2.955E+00   -2.923E+00   -2.891E+00   -2.859E+00   -2.826E+00
    -2.794E+00   -2.763E+00   -2.731E+00   -2.699E+00   -2.668E+00   -2.636E+00   -2.605E+00   -2.574E+00   -2.543E+00   -2.512E+00
    -2.481E+00   -2.450E+00   -2.420E+00   -2.389E+00   -2.359E+00   -2.328E+00   -2.298E+00   -2.268E+00   -2.239E+00   -2.209E+00
    -2.179E+00   -2.150E+00   -2.120E+00   -2.091E+00   -2.062E+00   -2.033E+00   -2.004E+00   -1.975E+00   -1.947E+00   -1.918E+00
    -1.890E+00   -1.862E+00   -1.834E+00   -1.806E+00   -1.778E+00   -1.751E+00   -1.723E+00   -1.696E+00   -1.668E+00   -1.641E+00
    -1.614E+00   -1.588E+00   -1.561E+00   -1.534E+00   -1.508E+00   -1.482E+00   -1.456E+00   -1.430E+00   -1.404E+00   -1.378E+00
    -1.353E+00   -1.328E+00   -1.302E+00   -1.277E+00   -1.252E+00   -1.228E+00   -1.203E+00   -1.179E+00   -1.154E+00   -1.130E+00
    -1.106E+00   -1.082E+00   -1.059E+00   -1.035E+00   -1.012E+00   -9.888E-01   -9.657E-01   -9.428E-01   -9.201E-01   -8.976E-01
    -8.752E-01   -8.529E-01   -8.309E-01   -8.090E-01   -7.872E-01   -7.656E-01   -7.442E-01   -7.230E-01   -7.019E-01   -6.810E-01
    -6.602E-01   -6.396E-01   -6.192E-01   -5.990E-01   -5.789E-01   -5.590E-01   -5.392E-01   -5.197E-01   -5.003E-01   -4.811E-01
    -4.620E-01   -4.431E-01   -4.244E-01   -4.059E-01   -3.875E-01   -3.694E-01   -3.514E-01   -3.335E-01   -3.159E-01   -2.984E-01
    -2.811E-01   -2.640E-01   -2.471E-01   -2.303E-01   -2.137E-01   -1.973E-01   -1.811E-01   -1.651E-01   -1.492E-01   -1.336E-01
    -1.181E-01   -1.028E-01   -8.765E-02   -7.272E-02   -5.796E-02   -4.340E-02   -2.902E-02   -1.482E-02   -8.156E-04    1.301E-02
     2.664E-02    4.008E-02    5.334E-02    6.641E-02    7.929E-02    9.198E-02    1.045E-01    1.168E-01    1.289E-01    1.408E-01
     1.526E-01    1.641E-01    1.755E-01    1.866E-01    1.976E-01    2.084E-01    2.189E-01    2.293E-01    2.395E-01    2.495E-01
     2.593E-01    2.689E-01    2.783E-01    2.875E-01    2.966E-01    3.054E-01    3.140E-01    3.224E-01    3.306E-01    3.387E-01
     3.465E-01    3.541E-01    3.616E-01    3.688E-01    3.758E-01    3.826E-01    3.893E-01    3.957E-01    4.019E-01    4.080E-01
     4.138E-01    4.194E-01    4.248E-01    4.301E-01    4.351E-01    4.399E-01    4.445E-01    4.489E-01    4.531E-01    4.571E-01
     4.609E-01    4.645E-01    4.679E-01    4.711E-01    4.740E-01    4.768E-01    4.794E-01    4.817E-01    4.839E-01    4.858E-01
     4.876E-01    4.891E-01    4.905E-01    4.916E-01    4.925E-01    4.932E-01    4.937E-01    4.940E-01    4.941E-01    4.940E-01
     4.936E-01    4.931E-01    4.924E-01    4.914E-01    4.903E-01    4.889E-01    4.873E-01    4.855E-01    4.835E-01    4.813E-01
     4.789E-01    4.763E-01    4.735E-01    4.704E-01    4.672E-01    4.637E-01    4.601E-01    4.562E-01    4.521E-01    4.478E-01
     4.433E-01    4.386E-01    4.336E-01    4.285E-01    4.232E-01    4.176E-01    4.118E-01    4.059E-01    3.997E-01    3.933E-01
     3.867E-01    3.798E-01    3.728E-01    3.656E-01    3.581E-01    3.505E-01    3.426E-01    3.345E-01    3.262E-01    3.177E-01
     3.090E-01    3.001E-01    2.910E-01    2.816E-01    2.721E-01    2.623E-01    2.524E-01    2.422E-01    2.318E-01    2.212E-01
     2.104E-01    1.994E-01    1.882E-01    1.767E-01    1.651E-01    1.532E-01    1.412E-01    1.289E-01    1.164E-01    1.037E-01
     9.083E-02    7.772E-02    6.441E-02    5.089E-02    3.715E-02    2.322E-02    9.070E-03   -5.284E-03   -1.985E-02   -3.461E-02
    -4.959E-02   -6.477E-02   -8.016E-02   -9.576E-02   -1.116E-01   -1.276E-01   -1.438E-01   -1.602E-01   -1.768E-01   -1.937E-01
    -2.107E-01   -2.280E-01   -2.454E-01   -2.631E-01   -2.809E-01   -2.990E-01   -3.172E-01   -3.357E-01   -3.544E-01   -3.733E-01
    -3.923E-01   -4.116E-01   -4.311E-01   -4.508E-01   -4.707E-01   -4.908E-01   -5.111E-01   -5.316E-01   -5.523E-01   -5.732E-01
    -5.942E-01   -6.155E-01   -6.370E-01   -6.587E-01   -6.806E-01   -7.027E-01   -7.250E-01   -7.475E-01   -7.702E-01   -7.931E-01
    -8.162E-01   -8.394E-01   -8.629E-01   -8.866E-01   -9.105E-01   -9.345E-01   -9.588E-01   -9.832E-01
 Ala      Conc. = 3.60E+01
