 LCModel (Version 6.3-1L) Copyright: S.W. Provencher.          Ref.: Magn. Reson. Med. 30:672-679 (1993).                
 Slice#2 Row#6 Col#3  PD_05_press_2_raw_act
 36 lines in following concentration table = NCONC+1
    Conc.  %SD /Cr+PCr  Metabolite                                         
   55.322 496% 1.8E-02 Ala                                                 
    0.000 999%   0.000 Asp                                                 
 2.31E+03  21%   0.742 Cr                                                  
  803.388  60%   0.258 PCr                                                 
    0.000 999%   0.000 GABA                                                
    0.000 999%   0.000 Glc                                                 
  736.947  75%   0.237 Gln                                                 
 3.84E+03  16%   1.235 Glu                                                 
 1.25E+03   5%   0.401 GPC                                                 
    0.000 999%   0.000 PCh                                                 
 1.14E+03  16%   0.367 GSH                                                 
 2.68E+03  23%   0.861 Ins                                                 
   60.540 525% 1.9E-02 Lac                                                 
 5.32E+03   6%   1.708 NAA                                                 
  851.933  37%   0.274 NAAG                                                
  101.025  66% 3.2E-02 Scyllo                                              
    0.000 999%   0.000 Tau                                                 
    0.000 999%   0.000 -CrCH2                                              
 1.25E+03   5%   0.401 GPC+PCh                                             
 6.17E+03   3%   1.981 NAA+NAAG                                            
 3.11E+03   5%   1.000 Cr+PCr                                              
 4.58E+03  18%   1.471 Glu+Gln                                             
    0.000 999%   0.000 Lip13a                                              
 1.10E+03  45%   0.352 Lip13b                                              
    0.000 999%   0.000 Lip09                                               
 2.88E+03  15%   0.926 MM09                                                
  116.933 208% 3.8E-02 Lip20                                               
 5.69E+03  15%   1.829 MM20                                                
  995.958  29%   0.320 MM12                                                
 3.42E+03  22%   1.097 MM14                                                
 2.09E+03  28%   0.671 MM17                                                
 1.10E+03  45%   0.352 Lip13a+Lip13b                                       
 5.51E+03  16%   1.769 MM14+Lip13a+Lip13b+MM12                             
 2.88E+03  15%   0.926 MM09+Lip09                                          
 5.81E+03  15%   1.866 MM20+Lip20                                          
   6 lines in following misc. output table
  FWHM = 0.054 ppm    S/N =  11                                            
  Data shift = 0.008 ppm                                                   
  Ph: -17 deg      -0.4 deg/ppm                                            
  alphaB,S = 2.1E+00,   8.7E+01                                            
   14 spline knots.   Ns = 6(1)                                            
  (10) 2 infls.   ( 5) 1 extrs.                                            
  498 points on ppm-axis = NY
      4.000000     3.992357     3.984714     3.977070     3.969427     3.961784     3.954141     3.946497     3.938854     3.931211
      3.923568     3.915925     3.908281     3.900638     3.892995     3.885352     3.877708     3.870065     3.862422     3.854779
      3.847136     3.839492     3.831849     3.824206     3.816563     3.808919     3.801276     3.793633     3.785990     3.778347
      3.770703     3.763060     3.755417     3.747774     3.740130     3.732487     3.724844     3.717201     3.709558     3.701914
      3.694271     3.686628     3.678985     3.671341     3.663698     3.656055     3.648412     3.640769     3.633125     3.625482
      3.617839     3.610196     3.602552     3.594909     3.587266     3.579623     3.571980     3.564336     3.556693     3.549050
      3.541407     3.533763     3.526120     3.518477     3.510834     3.503191     3.495547     3.487904     3.480261     3.472618
      3.464974     3.457331     3.449688     3.442045     3.434402     3.426758     3.419115     3.411472     3.403829     3.396185
      3.388542     3.380899     3.373256     3.365613     3.357969     3.350326     3.342683     3.335040     3.327396     3.319753
      3.312110     3.304467     3.296824     3.289180     3.281537     3.273894     3.266251     3.258607     3.250964     3.243321
      3.235678     3.228034     3.220391     3.212748     3.205105     3.197462     3.189818     3.182175     3.174532     3.166889
      3.159245     3.151602     3.143959     3.136316     3.128673     3.121029     3.113386     3.105743     3.098100     3.090456
      3.082813     3.075170     3.067527     3.059884     3.052240     3.044597     3.036954     3.029311     3.021667     3.014024
      3.006381     2.998738     2.991095     2.983451     2.975808     2.968165     2.960522     2.952878     2.945235     2.937592
      2.929949     2.922306     2.914662     2.907019     2.899376     2.891733     2.884089     2.876446     2.868803     2.861160
      2.853517     2.845873     2.838230     2.830587     2.822944     2.815300     2.807657     2.800014     2.792371     2.784728
      2.777084     2.769441     2.761798     2.754155     2.746511     2.738868     2.731225     2.723582     2.715939     2.708295
      2.700652     2.693009     2.685366     2.677722     2.670079     2.662436     2.654793     2.647150     2.639506     2.631863
      2.624220     2.616577     2.608933     2.601290     2.593647     2.586004     2.578361     2.570717     2.563074     2.555431
      2.547788     2.540144     2.532501     2.524858     2.517215     2.509572     2.501928     2.494285     2.486642     2.478999
      2.471355     2.463712     2.456069     2.448426     2.440783     2.433139     2.425496     2.417853     2.410210     2.402566
      2.394923     2.387280     2.379637     2.371994     2.364350     2.356707     2.349064     2.341421     2.333777     2.326134
      2.318491     2.310848     2.303205     2.295561     2.287918     2.280275     2.272632     2.264988     2.257345     2.249702
      2.242059     2.234416     2.226772     2.219129     2.211486     2.203843     2.196199     2.188556     2.180913     2.173270
      2.165627     2.157983     2.150340     2.142697     2.135054     2.127410     2.119767     2.112124     2.104481     2.096838
      2.089194     2.081551     2.073908     2.066265     2.058621     2.050978     2.043335     2.035692     2.028049     2.020405
      2.012762     2.005119     1.997476     1.989833     1.982190     1.974546     1.966903     1.959260     1.951617     1.943974
      1.936331     1.928688     1.921045     1.913402     1.905759     1.898115     1.890472     1.882829     1.875186     1.867543
      1.859900     1.852257     1.844614     1.836971     1.829327     1.821684     1.814041     1.806398     1.798755     1.791112
      1.783469     1.775826     1.768183     1.760540     1.752896     1.745253     1.737610     1.729967     1.722324     1.714681
      1.707038     1.699395     1.691752     1.684108     1.676465     1.668822     1.661179     1.653536     1.645893     1.638250
      1.630607     1.622964     1.615321     1.607677     1.600034     1.592391     1.584748     1.577105     1.569462     1.561819
      1.554176     1.546533     1.538890     1.531246     1.523603     1.515960     1.508317     1.500674     1.493031     1.485388
      1.477745     1.470102     1.462458     1.454815     1.447172     1.439529     1.431886     1.424243     1.416600     1.408957
      1.401314     1.393671     1.386027     1.378384     1.370741     1.363098     1.355455     1.347812     1.340169     1.332526
      1.324883     1.317240     1.309596     1.301953     1.294310     1.286667     1.279024     1.271381     1.263738     1.256095
      1.248452     1.240808     1.233165     1.225522     1.217879     1.210236     1.202593     1.194950     1.187307     1.179664
      1.172021     1.164377     1.156734     1.149091     1.141448     1.133805     1.126162     1.118519     1.110876     1.103233
      1.095590     1.087946     1.080303     1.072660     1.065017     1.057374     1.049731     1.042088     1.034445     1.026802
      1.019158     1.011515     1.003872     0.996229     0.988586     0.980943     0.973300     0.965657     0.958014     0.950371
      0.942727     0.935084     0.927441     0.919798     0.912155     0.904512     0.896869     0.889226     0.881583     0.873940
      0.866296     0.858653     0.851010     0.843367     0.835724     0.828081     0.820438     0.812795     0.805152     0.797508
      0.789865     0.782222     0.774579     0.766936     0.759293     0.751650     0.744007     0.736364     0.728721     0.721077
      0.713434     0.705791     0.698148     0.690505     0.682862     0.675219     0.667576     0.659933     0.652290     0.644646
      0.637003     0.629360     0.621717     0.614074     0.606431     0.598788     0.591145     0.583502     0.575858     0.568215
      0.560572     0.552929     0.545286     0.537643     0.530000     0.522357     0.514714     0.507071     0.499427     0.491784
      0.484141     0.476498     0.468855     0.461212     0.453569     0.445925     0.438282     0.430639     0.422996     0.415353
      0.407710     0.400067     0.392424     0.384780     0.377137     0.369494     0.361851     0.354208     0.346565     0.338922
      0.331278     0.323635     0.315992     0.308349     0.300706     0.293063     0.285420     0.277777     0.270133     0.262490
      0.254847     0.247204     0.239561     0.231918     0.224275     0.216631     0.208988     0.201345
 NY phased data points follow
   3.79071E+01  6.79480E+00  2.64250E+01  3.84706E+01  5.32464E+01  4.88590E+01  5.18394E+01  5.95967E+01  7.21749E+01  8.60728E+01
   1.21100E+02  8.64781E+01  1.01495E+02  8.01690E+01  8.71720E+01  6.77451E+01  7.21611E+01  5.70801E+01  4.74894E+01  3.83876E+01
   3.43057E+01  3.11039E+01  3.63065E+01  2.73974E+01  4.05494E+01  3.28671E+01  5.21342E+01  3.74190E+01  4.85245E+01  4.14290E+01
   5.56502E+01  3.50167E+01  4.78441E+01  4.01827E+01  3.20634E+01  4.45336E+01  3.53232E+01  3.64082E+01  2.95390E+01  2.41082E+01
   3.64643E+01  4.55166E+01  3.74687E+01  3.46630E+01  4.48584E+01  3.54828E+01  6.47188E+01  4.32429E+01  5.23844E+01  3.45676E+01
   5.66167E+01  2.66261E+01  3.78706E+01  3.24248E+01  3.77519E+01  3.66095E+01  3.29453E+01  2.23036E+01  3.36941E+01  1.78981E+01
   2.74115E+01  1.67775E+01  1.10220E+01  1.73679E+01  7.52331E+00 -4.47588E+00  6.72469E+00  1.77490E+00  8.18022E+00 -6.65056E-01
   1.64061E+01  9.72754E+00  6.89452E+00 -5.44054E+00  1.08920E+01  1.52817E+01  7.25951E+00  1.95826E+01  1.72201E+01  1.21922E+01
   6.97881E+00 -8.83547E-01 -7.93381E+00  1.44085E+01  2.00117E+01  8.74888E+00  2.10545E+01  3.82990E+00  1.25264E+01  1.14369E+01
   2.87498E+01  3.11614E+00  1.96191E+01  1.24866E+01  2.67832E+01  3.09635E+00  1.85412E+01  1.26769E+01  3.30398E+01  3.72896E+01
   5.36930E+01  9.20358E+01  1.29074E+02  1.34317E+02  1.33843E+02  1.02617E+02  9.95426E+01  6.17542E+01  5.63481E+01  4.14638E+01
   2.82662E+01  2.31998E+01  2.90134E+01  2.28420E+01  2.75113E+01  7.52222E+00  2.67582E+01  1.79135E+01  1.63487E+01  8.87200E+00
   2.49930E+01  1.98117E+01  2.33396E+01  2.37581E+01  6.16017E+01  6.56627E+01  1.02766E+02  1.22554E+02  1.10004E+02  1.11944E+02
   8.19266E+01  6.89128E+01  3.71220E+01  4.14921E+01  3.74979E+01  2.19860E+01  1.06561E+01  8.95269E+00  1.59290E+01  1.42001E+01
   1.96338E+01  1.16696E+01  1.57796E+01  1.88608E+01 -2.08294E+00  2.93809E+00  1.03880E+01  7.25737E+00  3.15758E+00  3.80285E+00
   3.02572E+00  1.25987E+01  9.50330E+00  5.02187E-01 -4.34580E+00 -9.15937E-01  4.43533E+00  3.39722E+00  4.18928E-01 -3.42528E+00
  -1.43929E+01 -7.76335E+00 -1.64933E+00  1.05571E+00 -1.68040E+01 -7.93054E+00 -5.23181E+00 -1.13950E+01 -3.18242E+00 -1.54476E+01
  -1.09932E+01 -2.40745E+01 -1.84614E+01 -2.83252E+01 -2.24470E+01 -4.76759E+01 -2.50507E+01 -2.83049E+01 -1.97606E+01 -3.51870E+01
  -3.75550E+01 -2.37744E+01 -3.08397E+01 -2.41822E+01 -1.71614E+01 -2.39381E+01 -3.23946E+01 -1.79687E+01 -6.17873E+00 -2.33723E+01
   8.18171E+00  1.02608E+00  8.36048E+00  1.33657E+01  2.36466E+01  6.32254E+00  1.25634E+01  4.71846E+00  1.15104E+01 -8.97934E+00
  -9.88547E+00 -1.90089E+00  1.60692E+00  1.26786E+00  3.53104E+00  1.53174E+01  7.11655E+00 -1.21886E+01  7.66903E+00  3.27323E-01
  -1.20101E+01 -9.85725E+00 -5.93607E+00 -5.36672E+00  1.07887E+01  2.25514E+01  2.73329E+01  2.40518E+01  3.25141E+01  1.42702E+01
   4.58995E+00 -7.24496E+00 -1.50313E+01 -8.45893E+00 -3.07180E+00  2.57579E+00  7.62865E+00  1.48053E+01  2.28170E+01  1.98271E+01
   2.21745E+01  2.20153E+01  2.93077E+01  2.76981E+01  1.68003E+01  1.45061E+01  1.89838E+01  2.69872E+01  1.16209E+01  1.40276E+01
   1.06278E+01  3.68165E+00 -8.02670E+00  6.97739E+00  1.84745E+00  4.29790E+00  1.20745E+01  3.05286E+01  3.51717E+01  2.59092E+01
   3.29891E+01  3.19895E+01  2.78019E+01  5.76030E+01  5.18534E+01  6.92493E+01  8.79146E+01  1.15898E+02  1.50650E+02  1.99261E+02
   2.24627E+02  2.16475E+02  1.96530E+02  1.55645E+02  1.15964E+02  7.00335E+01  5.16564E+01  2.63134E+01  2.52281E+01  2.20746E+01
   1.96882E+01  2.43210E+01  2.74916E+01  1.17780E+01  9.05425E+00  8.28308E+00  7.11879E+00  4.33658E+00  6.79137E+00  1.01040E+01
   2.73229E+00 -6.88741E-01 -3.94331E+00 -4.56264E+00  1.05516E+01 -2.39060E-01  1.47098E+00 -9.71344E+00 -1.75652E+01  5.33216E+00
  -4.35733E+00  7.87536E-01  2.97920E+00 -8.32855E+00  5.77783E+00  4.12110E+00  4.62693E+00  5.13813E+00  2.85480E+00  5.28405E+00
  -1.00995E+01 -4.81570E+00  1.09348E+01 -6.75054E-01  1.67717E+00  7.50461E+00  1.01924E+01  1.44445E+01  9.87040E+00  7.92690E+00
   1.17547E+01  2.62425E+01  1.15823E+01  1.79162E+01  2.58647E+01  8.93562E+00  2.13131E+01  2.57499E+01  2.40697E+01  9.50084E+00
   3.35051E+01  2.86987E+01  3.45663E+01  1.48226E+01  2.75840E+01  2.81162E+01  3.25657E+01  1.57515E+01  3.94414E+01  3.13599E+01
   2.48620E+01  1.36827E+01  1.26633E+01  2.12982E+01  2.21218E+01  1.13473E+01  2.59402E+01  5.22356E-01  2.00038E+01  1.36641E+01
   1.09868E+01  7.03571E+00 -3.75096E+00  5.17482E+00  6.30189E+00  9.85288E+00  6.91530E+00  8.73800E+00  1.30445E+01  2.13965E+01
   7.88520E+00  6.05094E+00  5.35473E+00  2.07242E+01  1.15057E+01  1.46010E+01  1.06117E+01  2.96743E+01  1.89477E+01  2.07321E+01
   2.23991E+01  2.06024E+01  3.65068E+00  2.29232E+01  1.41872E+01  1.38972E+01  8.72072E+00  1.10793E+01  1.59225E+01  8.03207E+00
   1.01691E+01  1.03723E+01  5.40918E+00  4.03874E+00  1.43257E+01  1.40503E+00 -2.73300E+00  1.47227E+01  1.18838E+01  2.68054E+00
   7.08573E+00  8.60963E+00  1.34824E+01  1.17450E+01  1.52835E+01  9.43266E+00  3.47561E+00  4.29703E+00  1.39909E+01  7.46618E+00
   1.26161E+01 -2.25540E+00  1.05172E+01  1.46007E+00  1.12988E+01 -3.60699E+00  8.39309E+00  1.20682E+01  3.56469E+00  2.55693E+01
   2.97795E+01  1.21554E+01  1.77789E+01  1.22682E+01  2.35129E+01  7.24268E+00  1.79572E+01  1.36293E+01  1.91784E+01  1.71686E+01
   8.04556E+00  1.20523E+01  1.45797E+01  1.25411E+01  1.44498E+01 -3.34676E+00  9.35430E+00  5.50144E+00  5.13845E+00  2.59032E+00
   7.10768E+00  1.86046E+01  5.14668E+00  5.03330E+00  6.89890E+00 -7.39211E-01 -3.58688E+00  3.06133E+00  5.80547E+00  8.94960E+00
   1.24178E+01 -1.68539E+00  1.67681E+01  1.77338E+00 -7.61262E+00  1.39364E+01  1.44448E+01  8.20089E+00 -5.81142E+00 -7.35678E+00
   1.30684E+01 -5.66924E+00 -3.60684E+00  9.04131E-01  1.48386E+01 -4.41895E+00  8.56089E+00  2.70793E+00  7.67619E+00 -3.35006E-01
   1.24283E+00  5.70350E+00  1.15408E+01 -1.63022E+00  4.22990E+00  9.77601E-01  4.63142E+00  3.88983E+00 -2.54221E-01 -3.11470E+00
   4.89961E+00 -4.99389E-01  4.27897E+00 -5.11331E+00  1.21751E+00  9.97223E+00  7.30417E+00 -2.07317E-03  1.20257E+01  7.64173E+00
   1.06812E+01  4.69996E+00 -6.49719E+00  6.34174E+00  6.63050E+00  8.55814E+00 -4.02691E+00  3.89204E+00  1.67991E+00 -3.17751E+00
   8.47957E+00 -4.76577E+00  7.96462E+00  1.93213E+00 -1.91973E+00  4.55186E+00  1.01121E+01 -2.30605E+00  9.14561E+00 -2.73576E+00
  -6.96938E-01  5.46789E+00 -1.63927E+00  2.16578E+01  3.72858E+00  1.60351E+00  4.57013E+00 -1.00205E+01
 NY points of the fit to the data follow
   2.92779E+01  2.87960E+01  2.91570E+01  3.08170E+01  3.39446E+01  3.91286E+01  4.75047E+01  5.80797E+01  7.00245E+01  8.25051E+01
   9.31283E+01  9.84030E+01  9.63551E+01  8.81127E+01  7.65695E+01  6.42788E+01  5.32556E+01  4.48760E+01  3.81794E+01  3.28779E+01
   3.03001E+01  2.90678E+01  2.80515E+01  2.74851E+01  2.80911E+01  2.95994E+01  3.24461E+01  3.71345E+01  4.28997E+01  4.79851E+01
   5.10184E+01  5.18868E+01  5.07794E+01  4.78167E+01  4.35069E+01  3.84937E+01  3.27509E+01  2.72865E+01  2.40163E+01  2.25248E+01
   2.26483E+01  2.44588E+01  2.74438E+01  3.12268E+01  3.56880E+01  4.05514E+01  4.43057E+01  4.51859E+01  4.30025E+01  3.87206E+01
   3.34559E+01  2.84662E+01  2.45645E+01  2.17047E+01  1.98500E+01  1.94542E+01  2.04016E+01  2.19462E+01  2.34939E+01  2.45316E+01
   2.45582E+01  2.34494E+01  2.14318E+01  1.91377E+01  1.72390E+01  1.60848E+01  1.57229E+01  1.60691E+01  1.69114E+01  1.80161E+01
   1.90877E+01  1.97455E+01  1.98192E+01  1.93550E+01  1.85434E+01  1.76454E+01  1.68307E+01  1.61934E+01  1.56524E+01  1.52373E+01
   1.50885E+01  1.51009E+01  1.51451E+01  1.52456E+01  1.52536E+01  1.47829E+01  1.36171E+01  1.20395E+01  1.06198E+01  9.79957E+00
   9.79408E+00  1.04848E+01  1.15284E+01  1.25849E+01  1.35723E+01  1.44378E+01  1.55703E+01  1.97017E+01  2.85508E+01  4.25748E+01
   6.46777E+01  9.36370E+01  1.20927E+02  1.36024E+02  1.34488E+02  1.19200E+02  9.63968E+01  7.24020E+01  5.18310E+01  3.53668E+01
   2.15646E+01  1.30235E+01  1.06235E+01  1.00374E+01  9.87989E+00  9.88190E+00  9.95914E+00  1.00915E+01  1.03538E+01  1.09449E+01
   1.24567E+01  1.67032E+01  2.51003E+01  3.77197E+01  5.63972E+01  8.05496E+01  1.04027E+02  1.18466E+02  1.19461E+02  1.08654E+02
   9.10318E+01  7.15631E+01  5.35837E+01  3.77690E+01  2.33428E+01  1.25373E+01  7.52024E+00  5.82777E+00  6.07753E+00  7.49619E+00
   9.20208E+00  1.06386E+01  1.14545E+01  1.14125E+01  1.07190E+01  9.68965E+00  8.52884E+00  7.44305E+00  6.40737E+00  5.47630E+00
   4.69425E+00  3.95058E+00  3.26642E+00  2.76978E+00  2.52643E+00  2.39699E+00  2.28118E+00  1.95723E+00  1.11397E+00 -1.47155E-01
  -1.40364E+00 -2.03325E+00 -1.77601E+00 -1.05145E+00 -5.84933E-01 -8.97643E-01 -1.98394E+00 -3.38401E+00 -4.66770E+00 -5.81753E+00
  -6.85391E+00 -7.88148E+00 -8.98148E+00 -1.01399E+01 -1.13016E+01 -1.21189E+01 -1.21097E+01 -1.14304E+01 -1.07903E+01 -1.06403E+01
  -1.08309E+01 -1.10524E+01 -1.09740E+01 -1.05929E+01 -1.02258E+01 -9.60743E+00 -7.82745E+00 -4.55598E+00 -1.90186E-01  4.16816E+00
   7.45270E+00  9.09129E+00  8.93952E+00  7.51325E+00  5.43675E+00  3.02730E+00  9.45047E-01 -1.67870E-02  4.12795E-01  2.01055E+00
   4.52089E+00  7.55405E+00  1.04325E+01  1.25193E+01  1.31360E+01  1.19438E+01  8.84817E+00  4.26993E+00 -7.98390E-01 -5.19522E+00
  -7.96262E+00 -8.14983E+00 -5.40975E+00  3.30264E-01  8.16273E+00  1.57267E+01  2.00925E+01  1.96603E+01  1.45581E+01  6.29502E+00
  -3.30027E+00 -1.22971E+01 -1.80979E+01 -1.90992E+01 -1.53891E+01 -8.24150E+00 -4.27798E-01  6.15560E+00  1.05231E+01  1.27094E+01
   1.33574E+01  1.31109E+01  1.28289E+01  1.33708E+01  1.48590E+01  1.66503E+01  1.79452E+01  1.80033E+01  1.67064E+01  1.43825E+01
   1.15175E+01  9.00578E+00  7.97971E+00  9.07100E+00  1.18580E+01  1.54975E+01  1.90176E+01  2.15789E+01  2.29190E+01  2.34689E+01
   2.45383E+01  2.66934E+01  3.09481E+01  3.86889E+01  5.23998E+01  7.15284E+01  9.35362E+01  1.23160E+02  1.61531E+02  1.98557E+02
   2.19209E+02  2.16078E+02  1.92307E+02  1.56737E+02  1.19506E+02  8.72545E+01  6.09743E+01  3.79293E+01  2.20098E+01  1.60387E+01
   1.32709E+01  1.14876E+01  1.03741E+01  9.82384E+00  9.43724E+00  8.97125E+00  8.39198E+00  7.69413E+00  6.90349E+00  6.09932E+00
   5.35207E+00  4.68250E+00  4.13492E+00  3.72872E+00  3.39952E+00  3.07604E+00  2.74275E+00  2.41610E+00  2.13129E+00  1.90534E+00
   1.76101E+00  1.72567E+00  1.78223E+00  1.89015E+00  2.03358E+00  2.20388E+00  2.40573E+00  2.65790E+00  2.98283E+00  3.40494E+00
   3.95121E+00  4.62450E+00  5.41615E+00  6.31040E+00  7.29035E+00  8.34435E+00  9.45853E+00  1.06110E+01  1.17906E+01  1.29832E+01
   1.41685E+01  1.53256E+01  1.64356E+01  1.74804E+01  1.84440E+01  1.93134E+01  2.00795E+01  2.07373E+01  2.12870E+01  2.17334E+01
   2.20875E+01  2.23672E+01  2.25691E+01  2.26923E+01  2.27407E+01  2.26748E+01  2.24315E+01  2.19853E+01  2.13747E+01  2.06858E+01
   1.99923E+01  1.93283E+01  1.87346E+01  1.82328E+01  1.78022E+01  1.73930E+01  1.69115E+01  1.62920E+01  1.55458E+01  1.47151E+01
   1.38621E+01  1.30457E+01  1.22782E+01  1.15979E+01  1.10736E+01  1.06872E+01  1.03954E+01  1.01943E+01  1.01520E+01  1.03878E+01
   1.09752E+01  1.19269E+01  1.32233E+01  1.47672E+01  1.63729E+01  1.78265E+01  1.89017E+01  1.94244E+01  1.93515E+01  1.87257E+01
   1.76515E+01  1.62503E+01  1.46423E+01  1.29921E+01  1.14327E+01  1.00301E+01  8.82436E+00  7.82909E+00  7.03534E+00  6.41927E+00
   5.94990E+00  5.59566E+00  5.32907E+00  5.12912E+00  4.98164E+00  4.87827E+00  4.81502E+00  4.79110E+00  4.80819E+00  4.86971E+00
   4.97995E+00  5.14324E+00  5.36347E+00  5.64409E+00  5.98823E+00  6.39843E+00  6.87615E+00  7.42126E+00  8.03183E+00  8.70430E+00
   9.43345E+00  1.02121E+01  1.10308E+01  1.18775E+01  1.27381E+01  1.35968E+01  1.44368E+01  1.52402E+01  1.59888E+01  1.66641E+01
   1.72491E+01  1.77287E+01  1.80904E+01  1.83248E+01  1.84255E+01  1.83899E+01  1.82193E+01  1.79191E+01  1.74983E+01  1.69684E+01
   1.63433E+01  1.56385E+01  1.48710E+01  1.40579E+01  1.32164E+01  1.23620E+01  1.15089E+01  1.06698E+01  9.85544E+00  9.07470E+00
   8.33422E+00  7.63843E+00  6.98993E+00  6.39005E+00  5.83896E+00  5.33576E+00  4.87846E+00  4.46434E+00  4.09040E+00  3.75369E+00
   3.45131E+00  3.18023E+00  2.93729E+00  2.71947E+00  2.52412E+00  2.34905E+00  2.19226E+00  2.05178E+00  1.92565E+00  1.81218E+00
   1.71009E+00  1.61840E+00  1.53616E+00  1.46231E+00  1.39579E+00  1.33583E+00  1.28195E+00  1.23378E+00  1.19081E+00  1.15238E+00
   1.11794E+00  1.08720E+00  1.06003E+00  1.03629E+00  1.01563E+00  9.97600E-01  9.81939E-01  9.68589E-01  9.57566E-01  9.48734E-01
   9.41777E-01  9.36397E-01  9.32504E-01  9.30186E-01  9.29477E-01  9.30213E-01  9.32115E-01  9.35005E-01  9.38918E-01  9.43980E-01
   9.50181E-01  9.57317E-01  9.65164E-01  9.73673E-01  9.82973E-01  9.93165E-01  1.00416E+00  1.01574E+00  1.02774E+00  1.04021E+00
   1.05330E+00  1.06706E+00  1.08133E+00  1.09590E+00  1.11073E+00  1.12592E+00  1.14163E+00  1.15779E+00  1.17422E+00  1.19076E+00
   1.20745E+00  1.22443E+00  1.24177E+00  1.25936E+00  1.27699E+00  1.29458E+00  1.31224E+00  1.33009E+00
 NY background values follow
     1.920E+01    1.907E+01    1.894E+01    1.882E+01    1.869E+01    1.856E+01    1.843E+01    1.830E+01    1.817E+01    1.804E+01
     1.791E+01    1.778E+01    1.765E+01    1.752E+01    1.739E+01    1.727E+01    1.714E+01    1.701E+01    1.688E+01    1.675E+01
     1.662E+01    1.649E+01    1.636E+01    1.623E+01    1.610E+01    1.597E+01    1.585E+01    1.572E+01    1.559E+01    1.546E+01
     1.533E+01    1.520E+01    1.507E+01    1.495E+01    1.482E+01    1.469E+01    1.456E+01    1.443E+01    1.430E+01    1.418E+01
     1.405E+01    1.392E+01    1.379E+01    1.366E+01    1.354E+01    1.341E+01    1.328E+01    1.316E+01    1.303E+01    1.290E+01
     1.277E+01    1.265E+01    1.252E+01    1.239E+01    1.227E+01    1.214E+01    1.202E+01    1.189E+01    1.177E+01    1.164E+01
     1.151E+01    1.139E+01    1.127E+01    1.114E+01    1.102E+01    1.089E+01    1.077E+01    1.064E+01    1.052E+01    1.040E+01
     1.027E+01    1.015E+01    1.003E+01    9.907E+00    9.785E+00    9.664E+00    9.542E+00    9.421E+00    9.300E+00    9.180E+00
     9.059E+00    8.940E+00    8.820E+00    8.701E+00    8.582E+00    8.463E+00    8.345E+00    8.227E+00    8.109E+00    7.992E+00
     7.875E+00    7.758E+00    7.642E+00    7.526E+00    7.411E+00    7.296E+00    7.181E+00    7.067E+00    6.953E+00    6.839E+00
     6.726E+00    6.613E+00    6.501E+00    6.389E+00    6.277E+00    6.166E+00    6.055E+00    5.945E+00    5.835E+00    5.726E+00
     5.617E+00    5.508E+00    5.400E+00    5.292E+00    5.185E+00    5.078E+00    4.972E+00    4.866E+00    4.760E+00    4.655E+00
     4.551E+00    4.447E+00    4.343E+00    4.240E+00    4.137E+00    4.035E+00    3.933E+00    3.832E+00    3.732E+00    3.631E+00
     3.532E+00    3.432E+00    3.334E+00    3.236E+00    3.138E+00    3.041E+00    2.944E+00    2.848E+00    2.752E+00    2.657E+00
     2.563E+00    2.469E+00    2.376E+00    2.283E+00    2.190E+00    2.099E+00    2.008E+00    1.917E+00    1.827E+00    1.738E+00
     1.649E+00    1.560E+00    1.473E+00    1.386E+00    1.299E+00    1.214E+00    1.128E+00    1.044E+00    9.598E-01    8.765E-01
     7.938E-01    7.117E-01    6.303E-01    5.496E-01    4.695E-01    3.901E-01    3.113E-01    2.332E-01    1.558E-01    7.903E-02
     2.971E-03   -7.240E-02   -1.471E-01   -2.210E-01   -2.943E-01   -3.669E-01   -4.387E-01   -5.098E-01   -5.802E-01   -6.499E-01
    -7.189E-01   -7.871E-01   -8.545E-01   -9.213E-01   -9.873E-01   -1.053E+00   -1.117E+00   -1.181E+00   -1.244E+00   -1.306E+00
    -1.368E+00   -1.429E+00   -1.490E+00   -1.549E+00   -1.608E+00   -1.666E+00   -1.724E+00   -1.781E+00   -1.837E+00   -1.893E+00
    -1.948E+00   -2.002E+00   -2.056E+00   -2.109E+00   -2.161E+00   -2.213E+00   -2.264E+00   -2.315E+00   -2.364E+00   -2.414E+00
    -2.462E+00   -2.511E+00   -2.558E+00   -2.605E+00   -2.651E+00   -2.697E+00   -2.742E+00   -2.787E+00   -2.831E+00   -2.874E+00
    -2.917E+00   -2.959E+00   -3.001E+00   -3.042E+00   -3.083E+00   -3.123E+00   -3.163E+00   -3.202E+00   -3.240E+00   -3.278E+00
    -3.316E+00   -3.353E+00   -3.389E+00   -3.425E+00   -3.461E+00   -3.496E+00   -3.530E+00   -3.564E+00   -3.598E+00   -3.630E+00
    -3.663E+00   -3.695E+00   -3.726E+00   -3.757E+00   -3.787E+00   -3.817E+00   -3.846E+00   -3.875E+00   -3.903E+00   -3.931E+00
    -3.958E+00   -3.985E+00   -4.011E+00   -4.037E+00   -4.062E+00   -4.087E+00   -4.111E+00   -4.135E+00   -4.158E+00   -4.181E+00
    -4.203E+00   -4.225E+00   -4.246E+00   -4.267E+00   -4.288E+00   -4.307E+00   -4.327E+00   -4.346E+00   -4.364E+00   -4.382E+00
    -4.399E+00   -4.416E+00   -4.432E+00   -4.448E+00   -4.464E+00   -4.479E+00   -4.493E+00   -4.507E+00   -4.521E+00   -4.534E+00
    -4.546E+00   -4.559E+00   -4.570E+00   -4.582E+00   -4.592E+00   -4.603E+00   -4.612E+00   -4.622E+00   -4.631E+00   -4.639E+00
    -4.647E+00   -4.655E+00   -4.662E+00   -4.669E+00   -4.675E+00   -4.681E+00   -4.687E+00   -4.692E+00   -4.696E+00   -4.700E+00
    -4.704E+00   -4.707E+00   -4.710E+00   -4.713E+00   -4.715E+00   -4.717E+00   -4.718E+00   -4.719E+00   -4.719E+00   -4.719E+00
    -4.719E+00   -4.718E+00   -4.717E+00   -4.715E+00   -4.713E+00   -4.711E+00   -4.708E+00   -4.705E+00   -4.702E+00   -4.698E+00
    -4.694E+00   -4.689E+00   -4.684E+00   -4.679E+00   -4.673E+00   -4.667E+00   -4.660E+00   -4.654E+00   -4.646E+00   -4.639E+00
    -4.631E+00   -4.623E+00   -4.614E+00   -4.605E+00   -4.596E+00   -4.586E+00   -4.577E+00   -4.566E+00   -4.556E+00   -4.545E+00
    -4.534E+00   -4.522E+00   -4.510E+00   -4.498E+00   -4.485E+00   -4.473E+00   -4.460E+00   -4.446E+00   -4.432E+00   -4.418E+00
    -4.404E+00   -4.389E+00   -4.374E+00   -4.359E+00   -4.344E+00   -4.328E+00   -4.312E+00   -4.295E+00   -4.279E+00   -4.262E+00
    -4.245E+00   -4.227E+00   -4.210E+00   -4.192E+00   -4.173E+00   -4.155E+00   -4.136E+00   -4.117E+00   -4.098E+00   -4.078E+00
    -4.059E+00   -4.039E+00   -4.018E+00   -3.998E+00   -3.977E+00   -3.956E+00   -3.935E+00   -3.913E+00   -3.891E+00   -3.869E+00
    -3.847E+00   -3.825E+00   -3.802E+00   -3.779E+00   -3.756E+00   -3.733E+00   -3.709E+00   -3.685E+00   -3.661E+00   -3.637E+00
    -3.612E+00   -3.588E+00   -3.563E+00   -3.538E+00   -3.512E+00   -3.487E+00   -3.461E+00   -3.435E+00   -3.409E+00   -3.383E+00
    -3.356E+00   -3.329E+00   -3.302E+00   -3.275E+00   -3.248E+00   -3.220E+00   -3.192E+00   -3.164E+00   -3.136E+00   -3.108E+00
    -3.079E+00   -3.051E+00   -3.022E+00   -2.993E+00   -2.964E+00   -2.934E+00   -2.905E+00   -2.875E+00   -2.845E+00   -2.815E+00
    -2.785E+00   -2.755E+00   -2.724E+00   -2.694E+00   -2.663E+00   -2.632E+00   -2.601E+00   -2.570E+00   -2.539E+00   -2.508E+00
    -2.476E+00   -2.445E+00   -2.413E+00   -2.381E+00   -2.349E+00   -2.317E+00   -2.285E+00   -2.253E+00   -2.221E+00   -2.189E+00
    -2.156E+00   -2.124E+00   -2.091E+00   -2.058E+00   -2.026E+00   -1.993E+00   -1.960E+00   -1.927E+00   -1.894E+00   -1.861E+00
    -1.828E+00   -1.795E+00   -1.761E+00   -1.728E+00   -1.695E+00   -1.662E+00   -1.628E+00   -1.595E+00   -1.561E+00   -1.528E+00
    -1.494E+00   -1.461E+00   -1.427E+00   -1.394E+00   -1.360E+00   -1.326E+00   -1.293E+00   -1.259E+00   -1.225E+00   -1.192E+00
    -1.158E+00   -1.124E+00   -1.090E+00   -1.056E+00   -1.022E+00   -9.886E-01   -9.547E-01   -9.208E-01   -8.869E-01   -8.530E-01
    -8.191E-01   -7.852E-01   -7.512E-01   -7.173E-01   -6.834E-01   -6.494E-01   -6.155E-01   -5.816E-01   -5.476E-01   -5.137E-01
    -4.797E-01   -4.458E-01   -4.119E-01   -3.780E-01   -3.441E-01   -3.102E-01   -2.763E-01   -2.424E-01
 Ala      Conc. = 5.53E+01
