 LCModel (Version 6.3-1L) Copyright: S.W. Provencher.          Ref.: Magn. Reson. Med. 30:672-679 (1993).                
 Slice#1 Row#8 Col#9  PD_05_press_2_raw_act
 36 lines in following concentration table = NCONC+1
    Conc.  %SD /Cr+PCr  Metabolite                                         
  496.956  39%   0.337 Ala                                                 
    0.000 999%   0.000 Asp                                                 
  576.913  63%   0.392 Cr                                                  
  895.810  42%   0.608 PCr                                                 
    0.000 999%   0.000 GABA                                                
   80.869 272% 5.5E-02 Glc                                                 
 1.86E+03  22%   1.266 Gln                                                 
 2.59E+03  18%   1.762 Glu                                                 
  594.329   6%   0.404 GPC                                                 
    0.000 999%   0.000 PCh                                                 
  600.602  22%   0.408 GSH                                                 
 1.70E+03  26%   1.154 Ins                                                 
  342.509  62%   0.233 Lac                                                 
 3.62E+03   4%   2.461 NAA                                                 
    0.000 999%   0.000 NAAG                                                
   76.602  56% 5.2E-02 Scyllo                                              
   57.384 541% 3.9E-02 Tau                                                 
  420.903  43%   0.286 -CrCH2                                              
  594.329   6%   0.404 GPC+PCh                                             
 3.62E+03   4%   2.461 NAA+NAAG                                            
 1.47E+03   6%   1.000 Cr+PCr                                              
 4.46E+03  15%   3.028 Glu+Gln                                             
 1.36E+03  42%   0.922 Lip13a                                              
    0.000 999%   0.000 Lip13b                                              
    0.000 999%   0.000 Lip09                                               
 2.59E+03  14%   1.759 MM09                                                
  324.133  70%   0.220 Lip20                                               
 6.38E+03  10%   4.329 MM20                                                
  930.143  25%   0.632 MM12                                                
 2.27E+03  25%   1.543 MM14                                                
 1.95E+03  22%   1.326 MM17                                                
 1.36E+03  42%   0.922 Lip13a+Lip13b                                       
 4.56E+03  16%   3.096 MM14+Lip13a+Lip13b+MM12                             
 2.59E+03  14%   1.759 MM09+Lip09                                          
 6.70E+03  10%   4.549 MM20+Lip20                                          
   6 lines in following misc. output table
  FWHM = 0.054 ppm    S/N =  12                                            
  Data shift = 0.015 ppm                                                   
  Ph: -33 deg      -8.6 deg/ppm                                            
  alphaB,S = 6.3E-01,   1.4E+02                                            
   14 spline knots.   Ns = 7(1)                                            
  (14) 4 infls.   (11) 1 extrs.                                            
  498 points on ppm-axis = NY
      4.000000     3.992357     3.984714     3.977070     3.969427     3.961784     3.954141     3.946497     3.938854     3.931211
      3.923568     3.915925     3.908281     3.900638     3.892995     3.885352     3.877708     3.870065     3.862422     3.854779
      3.847136     3.839492     3.831849     3.824206     3.816563     3.808919     3.801276     3.793633     3.785990     3.778347
      3.770703     3.763060     3.755417     3.747774     3.740130     3.732487     3.724844     3.717201     3.709558     3.701914
      3.694271     3.686628     3.678985     3.671341     3.663698     3.656055     3.648412     3.640769     3.633125     3.625482
      3.617839     3.610196     3.602552     3.594909     3.587266     3.579623     3.571980     3.564336     3.556693     3.549050
      3.541407     3.533763     3.526120     3.518477     3.510834     3.503191     3.495547     3.487904     3.480261     3.472618
      3.464974     3.457331     3.449688     3.442045     3.434402     3.426758     3.419115     3.411472     3.403829     3.396185
      3.388542     3.380899     3.373256     3.365613     3.357969     3.350326     3.342683     3.335040     3.327396     3.319753
      3.312110     3.304467     3.296824     3.289180     3.281537     3.273894     3.266251     3.258607     3.250964     3.243321
      3.235678     3.228034     3.220391     3.212748     3.205105     3.197462     3.189818     3.182175     3.174532     3.166889
      3.159245     3.151602     3.143959     3.136316     3.128673     3.121029     3.113386     3.105743     3.098100     3.090456
      3.082813     3.075170     3.067527     3.059884     3.052240     3.044597     3.036954     3.029311     3.021667     3.014024
      3.006381     2.998738     2.991095     2.983451     2.975808     2.968165     2.960522     2.952878     2.945235     2.937592
      2.929949     2.922306     2.914662     2.907019     2.899376     2.891733     2.884089     2.876446     2.868803     2.861160
      2.853517     2.845873     2.838230     2.830587     2.822944     2.815300     2.807657     2.800014     2.792371     2.784728
      2.777084     2.769441     2.761798     2.754155     2.746511     2.738868     2.731225     2.723582     2.715939     2.708295
      2.700652     2.693009     2.685366     2.677722     2.670079     2.662436     2.654793     2.647150     2.639506     2.631863
      2.624220     2.616577     2.608933     2.601290     2.593647     2.586004     2.578361     2.570717     2.563074     2.555431
      2.547788     2.540144     2.532501     2.524858     2.517215     2.509572     2.501928     2.494285     2.486642     2.478999
      2.471355     2.463712     2.456069     2.448426     2.440783     2.433139     2.425496     2.417853     2.410210     2.402566
      2.394923     2.387280     2.379637     2.371994     2.364350     2.356707     2.349064     2.341421     2.333777     2.326134
      2.318491     2.310848     2.303205     2.295561     2.287918     2.280275     2.272632     2.264988     2.257345     2.249702
      2.242059     2.234416     2.226772     2.219129     2.211486     2.203843     2.196199     2.188556     2.180913     2.173270
      2.165627     2.157983     2.150340     2.142697     2.135054     2.127410     2.119767     2.112124     2.104481     2.096838
      2.089194     2.081551     2.073908     2.066265     2.058621     2.050978     2.043335     2.035692     2.028049     2.020405
      2.012762     2.005119     1.997476     1.989833     1.982190     1.974546     1.966903     1.959260     1.951617     1.943974
      1.936331     1.928688     1.921045     1.913402     1.905759     1.898115     1.890472     1.882829     1.875186     1.867543
      1.859900     1.852257     1.844614     1.836971     1.829327     1.821684     1.814041     1.806398     1.798755     1.791112
      1.783469     1.775826     1.768183     1.760540     1.752896     1.745253     1.737610     1.729967     1.722324     1.714681
      1.707038     1.699395     1.691752     1.684108     1.676465     1.668822     1.661179     1.653536     1.645893     1.638250
      1.630607     1.622964     1.615321     1.607677     1.600034     1.592391     1.584748     1.577105     1.569462     1.561819
      1.554176     1.546533     1.538890     1.531246     1.523603     1.515960     1.508317     1.500674     1.493031     1.485388
      1.477745     1.470102     1.462458     1.454815     1.447172     1.439529     1.431886     1.424243     1.416600     1.408957
      1.401314     1.393671     1.386027     1.378384     1.370741     1.363098     1.355455     1.347812     1.340169     1.332526
      1.324883     1.317240     1.309596     1.301953     1.294310     1.286667     1.279024     1.271381     1.263738     1.256095
      1.248452     1.240808     1.233165     1.225522     1.217879     1.210236     1.202593     1.194950     1.187307     1.179664
      1.172021     1.164377     1.156734     1.149091     1.141448     1.133805     1.126162     1.118519     1.110876     1.103233
      1.095590     1.087946     1.080303     1.072660     1.065017     1.057374     1.049731     1.042088     1.034445     1.026802
      1.019158     1.011515     1.003872     0.996229     0.988586     0.980943     0.973300     0.965657     0.958014     0.950371
      0.942727     0.935084     0.927441     0.919798     0.912155     0.904512     0.896869     0.889226     0.881583     0.873940
      0.866296     0.858653     0.851010     0.843367     0.835724     0.828081     0.820438     0.812795     0.805152     0.797508
      0.789865     0.782222     0.774579     0.766936     0.759293     0.751650     0.744007     0.736364     0.728721     0.721077
      0.713434     0.705791     0.698148     0.690505     0.682862     0.675219     0.667576     0.659933     0.652290     0.644646
      0.637003     0.629360     0.621717     0.614074     0.606431     0.598788     0.591145     0.583502     0.575858     0.568215
      0.560572     0.552929     0.545286     0.537643     0.530000     0.522357     0.514714     0.507071     0.499427     0.491784
      0.484141     0.476498     0.468855     0.461212     0.453569     0.445925     0.438282     0.430639     0.422996     0.415353
      0.407710     0.400067     0.392424     0.384780     0.377137     0.369494     0.361851     0.354208     0.346565     0.338922
      0.331278     0.323635     0.315992     0.308349     0.300706     0.293063     0.285420     0.277777     0.270133     0.262490
      0.254847     0.247204     0.239561     0.231918     0.224275     0.216631     0.208988     0.201345
 NY phased data points follow
   2.28689E+01  1.35699E+01  1.84233E+01  1.05391E+01  1.45345E+01  1.70652E+01  2.58903E+01  2.00465E+01  3.28848E+01  2.71136E+01
   3.39204E+01  3.78294E+01  3.32129E+01  2.17491E+01  2.98125E+01  2.15308E+01  2.96826E+01  1.49007E+01  1.74497E+01  2.53485E+01
   1.98209E+01  2.05997E+01  1.94672E+01  1.52045E+01  2.04487E+01  2.01429E+01  1.27425E+01  1.54707E+01  1.77651E+01  1.94577E+01
   2.82231E+01  2.41069E+01  2.63797E+01  1.59307E+01  1.74715E+01  1.49150E+01  1.69197E+01  1.15239E+01  1.11623E+01  1.72529E+01
   1.70864E+01  1.26518E+01  1.58308E+01  1.03161E+01  1.82940E+01  2.07944E+01  2.47523E+01  2.07482E+01  2.58315E+01  2.73804E+01
   1.75821E+01  1.93561E+01  1.57501E+01  1.12478E+01  1.03414E+01  1.92241E+01  7.24993E+00  8.65017E+00  1.10181E+01  1.76027E+01
   1.65529E+01  3.18587E+00  4.35580E+00  3.75821E+00  9.22009E-01  3.39692E+00  1.25151E+00  1.16297E+01  2.77087E+00  6.27800E+00
   8.91441E+00  1.08904E+00  3.96547E+00  1.07484E+01  5.33787E+00  1.23010E+01  9.88307E+00  5.42752E+00  5.46112E+00  7.39679E+00
   4.83663E+00  7.41644E+00  4.72999E+00  1.02012E+01  3.18001E+00  6.78473E+00 -1.76800E+00  6.03049E+00  3.86705E+00  4.46466E+00
   1.03218E+01  5.43238E+00  6.47539E+00  2.83470E+00  5.28714E+00  4.19188E+00  1.57129E+01  1.37396E+01  1.76820E+01  1.63862E+01
   3.28160E+01  4.66195E+01  6.56364E+01  5.38113E+01  5.51260E+01  4.30067E+01  2.90999E+01  3.06090E+01  1.74450E+01  1.49840E+01
   1.17162E+01  2.13595E+01  1.18795E+01  1.45655E+00  5.83437E+00  1.00434E+01  1.01797E+01  1.17184E+01  6.54807E+00  1.02615E+01
   9.27887E+00  1.07641E+01  1.74456E+01  1.48945E+01  2.33134E+01  4.25991E+01  5.77417E+01  5.15895E+01  5.35730E+01  5.07316E+01
   3.87204E+01  3.08234E+01  1.88272E+01  1.62405E+01  1.28872E+01  9.09706E+00  1.12386E+01  1.17135E+01  4.14841E+00  1.09863E+01
   1.52817E+01  1.18583E+01  5.95835E+00  4.68196E+00  9.07393E+00  4.16590E+00 -1.74484E+00  9.82635E+00  3.08385E+00 -1.86651E+00
   4.92368E+00  1.25394E+00 -9.57904E-01  7.47453E+00  5.95039E+00 -4.86508E+00  1.87053E+00  1.81413E+00 -7.08386E+00  4.47174E+00
  -7.28277E-01  5.89048E+00 -2.20714E+00  4.56403E+00 -6.76269E+00 -5.17051E-01 -7.71190E+00 -1.13155E+01 -6.02813E+00 -1.11808E+01
  -1.57566E+01 -1.06693E+01 -1.50030E+01 -1.96531E+01 -1.79501E+01 -2.34163E+01 -1.56359E+01 -1.75597E+01 -2.16800E+01 -1.35718E+01
  -2.47482E+01 -1.80110E+01 -1.20121E+01 -9.54146E+00 -8.30397E+00 -1.66923E+01 -8.21142E+00 -1.32832E+01 -8.52118E+00 -9.64047E-01
  -1.21243E+01 -1.67035E+00 -3.92522E+00 -8.89858E-01 -6.04343E+00 -8.17078E+00 -1.02937E+01 -4.00222E+00 -6.21180E+00 -3.85106E+00
  -3.50941E+00 -2.68726E+00  7.51041E+00 -1.59554E+00  8.94105E+00  5.31738E+00  3.22046E+00 -4.78033E+00  2.62228E+00  4.96074E+00
   2.13104E+00  7.69378E+00  1.52369E+01  1.89271E+01  2.10801E+01  2.49650E+01  2.21583E+01  1.93807E+01  2.21884E+01  1.58857E+01
   8.41384E+00 -4.39439E+00  5.02504E+00  5.95138E+00  1.04796E+01  1.59450E+01  1.22023E+01  2.49442E+01  2.37272E+01  1.71280E+01
   2.72278E+01  2.26074E+01  2.05421E+01  1.49601E+01  1.65119E+01  2.29679E+01  2.42099E+01  1.60375E+01  2.42562E+01  2.18221E+01
   1.72053E+01  1.91371E+01  1.19637E+01  1.32396E+01  1.12551E+01  2.14925E+01  1.91616E+01  3.03737E+01  2.66990E+01  2.68597E+01
   1.51592E+01  1.96919E+01  2.17263E+01  3.43128E+01  5.52634E+01  6.20132E+01  6.96091E+01  8.01255E+01  1.04950E+02  1.21946E+02
   1.48559E+02  1.37100E+02  1.26797E+02  9.42082E+01  7.24370E+01  5.06020E+01  5.00886E+01  2.90202E+01  2.47980E+01  1.94388E+01
   2.13796E+01  2.52838E+01  1.42663E+01  1.21174E+01  1.69779E+01  8.23325E+00  9.27126E+00  1.01879E+01  9.10446E+00  6.30212E+00
   7.61116E+00  1.42681E+01  7.81260E+00  9.69499E+00  1.12352E+01  8.01394E+00  4.29587E+00  1.43551E+01  6.11551E+00  1.59724E+01
   1.05605E+01  1.43213E+01  1.04224E+01  1.18396E+01  7.38615E+00  9.98760E+00  1.01650E+01  6.96256E+00  6.10429E+00  8.10811E+00
   1.02821E+01  1.56587E+01  1.49371E+01  6.55659E+00  1.12381E+01  1.18684E+01  7.52177E+00  1.91730E+01  2.14365E+01  1.91116E+01
   1.07078E+01  1.31769E+01  1.88475E+01  2.13509E+01  2.28887E+01  1.38049E+01  1.66719E+01  1.89556E+01  2.19237E+01  2.16125E+01
   1.66504E+01  1.11892E+01  1.59338E+01  1.63221E+01  1.44789E+01  1.62010E+01  2.16669E+01  6.99498E+00  1.18881E+01  1.10658E+01
   1.14463E+01  1.00026E+01  6.60518E+00  1.60273E+01  9.64936E+00  1.48466E+01  1.35688E+01  2.20345E+01  1.55522E+01  1.76872E+01
   2.03213E+01  2.20569E+01  1.29044E+01  1.46254E+01  1.42832E+01  1.53142E+01  1.02763E+01  1.72238E+01  1.84966E+01 -4.11446E-01
   1.32213E+01  5.40760E+00  1.44972E+01  1.78583E-01  1.39727E+01  1.18206E+01  1.20745E+01  1.41761E+01  9.64723E+00  1.54431E+01
   8.26970E+00  1.88030E+01  9.84375E+00  2.20267E+01  1.70665E+01  1.01967E+01  1.00334E+01  1.47075E+01  1.13357E+01  2.15533E+01
   9.82190E+00  1.46122E+01  1.11857E+01  1.19856E+01  1.09859E+01  1.18009E+01  1.37517E+01  9.82940E+00  1.35106E+01  3.80851E+00
   5.81928E-01 -3.02919E-01  7.30950E+00  2.98662E+00  1.00512E+01  5.39742E+00  8.35779E+00  2.08880E+00  7.26586E+00  3.68816E+00
   1.31649E+00  5.76389E+00  4.16943E+00  5.45454E+00  9.35035E+00  8.19424E+00  1.50784E+01  1.17400E+01  1.12971E+01  8.90963E+00
   6.73761E+00  1.07377E+01  1.45550E+01  1.19478E+01  5.43791E+00  2.01854E+01  1.97735E+01  1.60343E+01  2.42575E+01  1.63152E+01
   1.59583E+01  1.60214E+01  6.47397E+00  1.31609E+01  1.07787E+01  8.87423E+00  5.89029E+00  6.67510E+00  4.69877E+00  3.34726E+00
   4.96901E+00  8.87542E+00  2.19138E+00  1.15538E+00 -2.55734E+00  3.14621E+00  6.40154E+00 -3.70129E-01  9.92352E+00  5.43274E+00
   3.29562E+00  4.74013E+00 -3.49213E+00  8.32533E+00  5.97985E-01  3.57398E-01 -3.50612E+00 -6.36721E+00 -8.36044E-01  4.02792E+00
  -4.61213E+00  9.94685E-01 -1.10048E-01  7.04251E+00  3.95534E-01 -1.55746E+00 -1.32436E-01 -1.91589E-01 -1.68422E+00  2.74752E+00
   9.92212E-01 -2.61995E+00 -2.48884E+00 -8.56075E+00  2.07071E+00  8.61739E-01 -3.29120E+00 -2.25643E+00 -3.46602E+00 -1.41955E+00
   4.02001E+00  1.16068E+00  4.76067E+00 -4.51850E+00 -3.50343E+00 -5.80499E+00 -8.07798E+00 -2.66902E+00  5.38973E-01 -1.48235E-01
   2.36436E+00 -2.40494E+00  9.32138E-01 -2.48328E+00 -1.75996E+00  3.04124E+00  4.21339E+00  1.30271E+01 -4.02736E+00  1.61507E+00
  -6.73626E+00 -1.26908E+00  5.25127E-01 -1.45312E+00 -2.87801E+00  4.21544E+00 -5.36158E+00  5.39202E+00  6.05143E+00 -2.23170E+00
   4.19889E+00  7.18040E-01  1.24233E-01  4.80087E-01 -2.51462E+00  6.56108E+00  1.54361E-02 -2.03489E+00
 NY points of the fit to the data follow
   1.34528E+01  1.28163E+01  1.29317E+01  1.38684E+01  1.54286E+01  1.78659E+01  2.09368E+01  2.44419E+01  2.82409E+01  3.18193E+01
   3.43041E+01  3.49011E+01  3.34655E+01  3.06065E+01  2.72200E+01  2.40594E+01  2.14480E+01  1.93972E+01  1.78932E+01  1.67903E+01
   1.59464E+01  1.53251E+01  1.49253E+01  1.48806E+01  1.47794E+01  1.46870E+01  1.52055E+01  1.70518E+01  2.02095E+01  2.38425E+01
   2.68805E+01  2.84783E+01  2.81371E+01  2.60080E+01  2.26802E+01  1.90150E+01  1.58330E+01  1.33693E+01  1.18681E+01  1.14977E+01
   1.19698E+01  1.30780E+01  1.44374E+01  1.59818E+01  1.77786E+01  1.97914E+01  2.16420E+01  2.26939E+01  2.24014E+01  2.06985E+01
   1.79692E+01  1.49794E+01  1.25341E+01  1.09412E+01  9.98603E+00  9.46862E+00  9.36668E+00  9.73821E+00  1.04108E+01  1.10526E+01
   1.13471E+01  1.11056E+01  1.03213E+01  9.20777E+00  8.11471E+00  7.41581E+00  7.18485E+00  7.24788E+00  7.50498E+00  7.92338E+00
   8.39543E+00  8.80762E+00  9.02820E+00  9.00224E+00  8.74393E+00  8.31936E+00  7.83439E+00  7.36815E+00  6.97851E+00  6.77640E+00
   6.71042E+00  6.63448E+00  6.53856E+00  6.52709E+00  6.56128E+00  6.39702E+00  5.80191E+00  4.80725E+00  3.69080E+00  2.82163E+00
   2.44648E+00  2.52018E+00  2.84032E+00  3.20148E+00  3.61425E+00  4.91101E+00  8.81934E+00  1.40258E+01  1.93427E+01  2.60068E+01
   3.52672E+01  4.59072E+01  5.44606E+01  5.75772E+01  5.42359E+01  4.60197E+01  3.60218E+01  2.70514E+01  2.02677E+01  1.50995E+01
   1.05423E+01  6.74325E+00  5.02526E+00  4.56314E+00  4.39446E+00  4.33864E+00  4.34200E+00  4.41464E+00  4.62766E+00  5.37084E+00
   8.08746E+00  1.27426E+01  1.78301E+01  2.36439E+01  3.13269E+01  4.05784E+01  4.90307E+01  5.36021E+01  5.26143E+01  4.68163E+01
   3.85979E+01  3.04718E+01  2.37803E+01  1.82892E+01  1.32117E+01  8.49783E+00  5.49122E+00  4.51381E+00  4.56592E+00  5.09908E+00
   5.67247E+00  6.00227E+00  6.04423E+00  5.81120E+00  5.35212E+00  4.80553E+00  4.25148E+00  3.68842E+00  3.14359E+00  2.62718E+00
   2.19022E+00  1.83540E+00  1.55087E+00  1.32443E+00  1.02307E+00  6.51542E-01  3.06145E-01 -3.59006E-02 -4.18685E-01 -9.68893E-01
  -1.61210E+00 -1.99734E+00 -1.90688E+00 -1.49533E+00 -1.16718E+00 -1.26942E+00 -1.87388E+00 -2.77998E+00 -3.69670E+00 -4.51065E+00
  -5.30107E+00 -5.96631E+00 -6.58012E+00 -7.26233E+00 -7.94841E+00 -8.41388E+00 -8.39066E+00 -7.95016E+00 -7.48144E+00 -7.28280E+00
  -7.44413E+00 -7.67011E+00 -7.56386E+00 -7.10541E+00 -6.46949E+00 -5.75378E+00 -4.82859E+00 -3.35321E+00 -1.39983E+00  5.21019E-01
   1.81304E+00  2.09952E+00  1.55454E+00  6.47296E-01 -9.65003E-02 -4.00292E-01 -2.03592E-01  8.38751E-01  2.78842E+00  5.24145E+00
   7.68894E+00  9.70090E+00  1.06308E+01  1.01217E+01  8.42053E+00  5.46965E+00  1.29022E+00 -3.22887E+00 -6.50616E+00 -7.15121E+00
  -5.32579E+00 -1.84337E+00  2.71310E+00  7.82636E+00  1.23633E+01  1.49382E+01  1.49024E+01  1.26488E+01  8.68433E+00  3.77646E+00
  -5.40781E-01 -3.07976E+00 -3.30909E+00 -1.26762E+00  2.36407E+00  6.75094E+00  1.07193E+01  1.34543E+01  1.47282E+01  1.50438E+01
   1.51221E+01  1.50420E+01  1.48561E+01  1.50465E+01  1.59605E+01  1.73058E+01  1.87812E+01  2.01636E+01  2.10867E+01  2.10637E+01
   1.99349E+01  1.83431E+01  1.72216E+01  1.70637E+01  1.77501E+01  1.90525E+01  2.07825E+01  2.25245E+01  2.40409E+01  2.54057E+01
   2.68250E+01  2.82092E+01  3.01686E+01  3.59833E+01  4.69252E+01  5.84492E+01  7.05767E+01  8.68855E+01  1.07816E+02  1.27896E+02
   1.39196E+02  1.36803E+02  1.21700E+02  9.94106E+01  7.68930E+01  5.86673E+01  4.51243E+01  3.39386E+01  2.37484E+01  1.67420E+01
   1.41514E+01  1.29844E+01  1.22926E+01  1.18782E+01  1.15313E+01  1.11282E+01  1.06622E+01  1.01309E+01  9.56941E+00  9.02693E+00
   8.53223E+00  8.09252E+00  7.73564E+00  7.48001E+00  7.30583E+00  7.18862E+00  7.12179E+00  7.11093E+00  7.16147E+00  7.26703E+00
   7.42392E+00  7.63982E+00  7.91705E+00  8.25327E+00  8.64445E+00  9.08533E+00  9.57080E+00  1.00923E+01  1.06413E+01  1.12086E+01
   1.17827E+01  1.23517E+01  1.29040E+01  1.34276E+01  1.39105E+01  1.43417E+01  1.47130E+01  1.50195E+01  1.52598E+01  1.54346E+01
   1.55468E+01  1.56018E+01  1.56090E+01  1.55802E+01  1.55302E+01  1.54758E+01  1.54365E+01  1.54374E+01  1.55173E+01  1.57538E+01
   1.62439E+01  1.67234E+01  1.70011E+01  1.72249E+01  1.74084E+01  1.72261E+01  1.62573E+01  1.43790E+01  1.21553E+01  1.02930E+01
   9.05657E+00  8.61067E+00  9.10302E+00  1.05046E+01  1.25191E+01  1.47018E+01  1.66296E+01  1.78182E+01  1.81593E+01  1.80275E+01
   1.78767E+01  1.77829E+01  1.75028E+01  1.70269E+01  1.65925E+01  1.61767E+01  1.53776E+01  1.39941E+01  1.23437E+01  1.08559E+01
   9.74774E+00  9.22223E+00  9.43428E+00  1.03348E+01  1.16415E+01  1.29901E+01  1.41134E+01  1.47627E+01  1.48290E+01  1.45345E+01
   1.41209E+01  1.36893E+01  1.31994E+01  1.26024E+01  1.20317E+01  1.15624E+01  1.11309E+01  1.07082E+01  1.02861E+01  9.86339E+00
   9.44256E+00  9.02760E+00  8.62365E+00  8.23599E+00  7.87060E+00  7.53322E+00  7.22965E+00  6.96473E+00  6.74308E+00  6.56851E+00
   6.44490E+00  6.37533E+00  6.36259E+00  6.40841E+00  6.51434E+00  6.68122E+00  6.90981E+00  7.19989E+00  7.55058E+00  7.95960E+00
   8.42402E+00  8.93954E+00  9.50091E+00  1.01009E+01  1.07310E+01  1.13804E+01  1.20376E+01  1.26893E+01  1.33218E+01  1.39199E+01
   1.44685E+01  1.49524E+01  1.53579E+01  1.56725E+01  1.58858E+01  1.59896E+01  1.59786E+01  1.58508E+01  1.56075E+01  1.52532E+01
   1.47954E+01  1.42438E+01  1.36107E+01  1.29096E+01  1.21556E+01  1.13639E+01  1.05494E+01  9.72605E+00  8.90690E+00  8.10345E+00
   7.32581E+00  6.58180E+00  5.87756E+00  5.21705E+00  4.60307E+00  4.03677E+00  3.51835E+00  3.04650E+00  2.61935E+00  2.23416E+00
   1.88833E+00  1.57881E+00  1.30271E+00  1.05665E+00  8.37636E-01  6.42674E-01  4.69443E-01  3.15530E-01  1.78923E-01  5.73742E-02
  -5.07883E-02 -1.47201E-01 -2.32885E-01 -3.09098E-01 -3.76796E-01 -4.37205E-01 -4.91004E-01 -5.38934E-01 -5.81294E-01 -6.18764E-01
  -6.51781E-01 -6.81042E-01 -7.06720E-01 -7.29149E-01 -7.48350E-01 -7.64800E-01 -7.78720E-01 -7.90544E-01 -8.00204E-01 -8.07876E-01
  -8.13513E-01 -8.17520E-01 -8.19991E-01 -8.21192E-01 -8.20929E-01 -8.19340E-01 -8.16390E-01 -8.12463E-01 -8.07554E-01 -8.01810E-01
  -7.94981E-01 -7.87224E-01 -7.78528E-01 -7.69235E-01 -7.59247E-01 -7.48637E-01 -7.37160E-01 -7.25025E-01 -7.12245E-01 -6.99106E-01
  -6.85421E-01 -6.71222E-01 -6.56300E-01 -6.40913E-01 -6.25063E-01 -6.08958E-01 -5.92342E-01 -5.75246E-01 -5.57515E-01 -5.39438E-01
  -5.20977E-01 -5.02252E-01 -4.82956E-01 -4.63139E-01 -4.42694E-01 -4.21904E-01 -4.00648E-01 -3.78944E-01
 NY background values follow
     9.623E+00    9.533E+00    9.444E+00    9.355E+00    9.266E+00    9.176E+00    9.087E+00    8.998E+00    8.908E+00    8.819E+00
     8.730E+00    8.640E+00    8.551E+00    8.462E+00    8.373E+00    8.284E+00    8.194E+00    8.105E+00    8.016E+00    7.927E+00
     7.839E+00    7.750E+00    7.661E+00    7.572E+00    7.484E+00    7.395E+00    7.307E+00    7.219E+00    7.131E+00    7.043E+00
     6.955E+00    6.867E+00    6.780E+00    6.692E+00    6.605E+00    6.518E+00    6.431E+00    6.344E+00    6.257E+00    6.171E+00
     6.085E+00    5.999E+00    5.913E+00    5.827E+00    5.742E+00    5.657E+00    5.572E+00    5.487E+00    5.403E+00    5.318E+00
     5.234E+00    5.150E+00    5.067E+00    4.984E+00    4.901E+00    4.818E+00    4.735E+00    4.653E+00    4.571E+00    4.489E+00
     4.408E+00    4.327E+00    4.246E+00    4.165E+00    4.085E+00    4.005E+00    3.925E+00    3.846E+00    3.767E+00    3.688E+00
     3.610E+00    3.531E+00    3.453E+00    3.376E+00    3.299E+00    3.222E+00    3.145E+00    3.069E+00    2.993E+00    2.917E+00
     2.842E+00    2.767E+00    2.693E+00    2.618E+00    2.545E+00    2.471E+00    2.398E+00    2.325E+00    2.253E+00    2.181E+00
     2.109E+00    2.038E+00    1.967E+00    1.897E+00    1.826E+00    1.757E+00    1.687E+00    1.619E+00    1.550E+00    1.482E+00
     1.414E+00    1.347E+00    1.280E+00    1.214E+00    1.148E+00    1.083E+00    1.018E+00    9.535E-01    8.895E-01    8.259E-01
     7.629E-01    7.003E-01    6.383E-01    5.767E-01    5.157E-01    4.551E-01    3.951E-01    3.356E-01    2.766E-01    2.182E-01
     1.603E-01    1.029E-01    4.611E-02   -1.015E-02   -6.584E-02   -1.210E-01   -1.755E-01   -2.295E-01   -2.829E-01   -3.357E-01
    -3.879E-01   -4.395E-01   -4.906E-01   -5.410E-01   -5.907E-01   -6.399E-01   -6.884E-01   -7.363E-01   -7.836E-01   -8.301E-01
    -8.760E-01   -9.211E-01   -9.656E-01   -1.009E+00   -1.052E+00   -1.094E+00   -1.136E+00   -1.176E+00   -1.216E+00   -1.255E+00
    -1.292E+00   -1.329E+00   -1.366E+00   -1.401E+00   -1.435E+00   -1.468E+00   -1.500E+00   -1.532E+00   -1.562E+00   -1.591E+00
    -1.619E+00   -1.646E+00   -1.672E+00   -1.697E+00   -1.721E+00   -1.743E+00   -1.764E+00   -1.785E+00   -1.803E+00   -1.821E+00
    -1.838E+00   -1.853E+00   -1.867E+00   -1.879E+00   -1.891E+00   -1.900E+00   -1.909E+00   -1.916E+00   -1.922E+00   -1.926E+00
    -1.929E+00   -1.931E+00   -1.931E+00   -1.930E+00   -1.927E+00   -1.923E+00   -1.917E+00   -1.911E+00   -1.903E+00   -1.894E+00
    -1.884E+00   -1.872E+00   -1.860E+00   -1.847E+00   -1.832E+00   -1.817E+00   -1.801E+00   -1.784E+00   -1.766E+00   -1.747E+00
    -1.727E+00   -1.707E+00   -1.686E+00   -1.665E+00   -1.643E+00   -1.620E+00   -1.597E+00   -1.573E+00   -1.549E+00   -1.524E+00
    -1.499E+00   -1.474E+00   -1.449E+00   -1.423E+00   -1.397E+00   -1.370E+00   -1.344E+00   -1.318E+00   -1.291E+00   -1.265E+00
    -1.238E+00   -1.212E+00   -1.185E+00   -1.159E+00   -1.133E+00   -1.107E+00   -1.082E+00   -1.056E+00   -1.031E+00   -1.007E+00
    -9.823E-01   -9.581E-01   -9.343E-01   -9.108E-01   -8.876E-01   -8.646E-01   -8.420E-01   -8.198E-01   -7.978E-01   -7.761E-01
    -7.548E-01   -7.338E-01   -7.131E-01   -6.927E-01   -6.727E-01   -6.530E-01   -6.337E-01   -6.147E-01   -5.960E-01   -5.777E-01
    -5.597E-01   -5.421E-01   -5.248E-01   -5.079E-01   -4.914E-01   -4.752E-01   -4.594E-01   -4.439E-01   -4.288E-01   -4.141E-01
    -3.998E-01   -3.858E-01   -3.722E-01   -3.590E-01   -3.462E-01   -3.338E-01   -3.218E-01   -3.102E-01   -2.989E-01   -2.881E-01
    -2.776E-01   -2.676E-01   -2.580E-01   -2.488E-01   -2.400E-01   -2.316E-01   -2.235E-01   -2.159E-01   -2.087E-01   -2.019E-01
    -1.955E-01   -1.894E-01   -1.838E-01   -1.785E-01   -1.736E-01   -1.691E-01   -1.650E-01   -1.612E-01   -1.578E-01   -1.548E-01
    -1.522E-01   -1.499E-01   -1.480E-01   -1.465E-01   -1.453E-01   -1.445E-01   -1.440E-01   -1.439E-01   -1.442E-01   -1.448E-01
    -1.457E-01   -1.470E-01   -1.486E-01   -1.506E-01   -1.529E-01   -1.556E-01   -1.586E-01   -1.619E-01   -1.655E-01   -1.695E-01
    -1.738E-01   -1.785E-01   -1.834E-01   -1.887E-01   -1.943E-01   -2.002E-01   -2.064E-01   -2.130E-01   -2.198E-01   -2.269E-01
    -2.344E-01   -2.421E-01   -2.501E-01   -2.583E-01   -2.668E-01   -2.756E-01   -2.846E-01   -2.938E-01   -3.033E-01   -3.129E-01
    -3.228E-01   -3.329E-01   -3.432E-01   -3.537E-01   -3.643E-01   -3.751E-01   -3.861E-01   -3.973E-01   -4.085E-01   -4.200E-01
    -4.315E-01   -4.432E-01   -4.550E-01   -4.669E-01   -4.788E-01   -4.909E-01   -5.031E-01   -5.153E-01   -5.276E-01   -5.400E-01
    -5.524E-01   -5.649E-01   -5.774E-01   -5.899E-01   -6.024E-01   -6.150E-01   -6.276E-01   -6.401E-01   -6.527E-01   -6.652E-01
    -6.777E-01   -6.901E-01   -7.025E-01   -7.149E-01   -7.272E-01   -7.394E-01   -7.516E-01   -7.636E-01   -7.756E-01   -7.874E-01
    -7.991E-01   -8.107E-01   -8.222E-01   -8.335E-01   -8.447E-01   -8.556E-01   -8.665E-01   -8.771E-01   -8.875E-01   -8.977E-01
    -9.078E-01   -9.176E-01   -9.271E-01   -9.364E-01   -9.455E-01   -9.543E-01   -9.628E-01   -9.711E-01   -9.790E-01   -9.867E-01
    -9.941E-01   -1.001E+00   -1.008E+00   -1.014E+00   -1.020E+00   -1.026E+00   -1.031E+00   -1.036E+00   -1.041E+00   -1.045E+00
    -1.049E+00   -1.052E+00   -1.055E+00   -1.057E+00   -1.059E+00   -1.061E+00   -1.062E+00   -1.063E+00   -1.063E+00   -1.063E+00
    -1.062E+00   -1.061E+00   -1.059E+00   -1.057E+00   -1.055E+00   -1.052E+00   -1.048E+00   -1.045E+00   -1.040E+00   -1.036E+00
    -1.031E+00   -1.025E+00   -1.019E+00   -1.013E+00   -1.007E+00   -9.995E-01   -9.921E-01   -9.844E-01   -9.762E-01   -9.677E-01
    -9.588E-01   -9.496E-01   -9.400E-01   -9.301E-01   -9.199E-01   -9.093E-01   -8.984E-01   -8.872E-01   -8.756E-01   -8.637E-01
    -8.516E-01   -8.391E-01   -8.263E-01   -8.133E-01   -7.999E-01   -7.863E-01   -7.724E-01   -7.582E-01   -7.437E-01   -7.290E-01
    -7.141E-01   -6.989E-01   -6.834E-01   -6.677E-01   -6.518E-01   -6.356E-01   -6.192E-01   -6.026E-01   -5.858E-01   -5.688E-01
    -5.516E-01   -5.342E-01   -5.166E-01   -4.989E-01   -4.809E-01   -4.629E-01   -4.446E-01   -4.262E-01   -4.077E-01   -3.890E-01
    -3.702E-01   -3.512E-01   -3.322E-01   -3.130E-01   -2.937E-01   -2.743E-01   -2.549E-01   -2.353E-01   -2.157E-01   -1.960E-01
    -1.762E-01   -1.563E-01   -1.364E-01   -1.165E-01   -9.646E-02   -7.642E-02   -5.636E-02   -3.627E-02   -1.616E-02    3.962E-03
     2.409E-02    4.421E-02    6.433E-02    8.444E-02    1.045E-01    1.246E-01    1.446E-01    1.646E-01
 Ala      Conc. = 4.97E+02
