 LCModel (Version 6.3-1L) Copyright: S.W. Provencher.          Ref.: Magn. Reson. Med. 30:672-679 (1993).                
 Slice#1 Row#2 Col#9  PD_05_press_2_raw_act
 36 lines in following concentration table = NCONC+1
    Conc.  %SD /Cr+PCr  Metabolite                                         
    0.000 999%   0.000 Ala                                                 
  109.727  99%   0.192 Asp                                                 
    0.000 999%   0.000 Cr                                                  
  572.488  28%   1.000 PCr                                                 
   68.925  95%   0.120 GABA                                                
   69.971  93%   0.122 Glc                                                 
    0.000 999%   0.000 Gln                                                 
 2.05E+03  57%   3.577 Glu                                                 
  156.750 223%   0.274 GPC                                                 
   16.607 999% 2.9E-02 PCh                                                 
    0.000 999%   0.000 GSH                                                 
  644.559 110%   1.126 Ins                                                 
    0.000 999%   0.000 Lac                                                 
 1.21E+03  16%   2.107 NAA                                                 
    0.000 999%   0.000 NAAG                                                
   27.416  78% 4.8E-02 Scyllo                                              
  126.072  85%   0.220 Tau                                                 
   87.090 137%   0.152 -CrCH2                                              
  173.357  33%   0.303 GPC+PCh                                             
 1.21E+03  16%   2.107 NAA+NAAG                                            
  572.488  28%   1.000 Cr+PCr                                              
 2.05E+03  57%   3.577 Glu+Gln                                             
    0.000 999%   0.000 Lip13a                                              
  990.585  31%   1.730 Lip13b                                              
  264.488  31%   0.462 Lip09                                               
 1.29E+03  24%   2.260 MM09                                                
  148.584  31%   0.260 Lip20                                               
  352.456 177%   0.616 MM20                                                
  348.770  60%   0.609 MM12                                                
 4.55E+03   7%   7.955+MM14                                                
 1.24E+03  31%   2.164 MM17                                                
  990.585  31%   1.730 Lip13a+Lip13b                                       
 5.89E+03   8%  10.295 MM14+Lip13a+Lip13b+MM12                             
 1.56E+03  20%   2.722 MM09+Lip09                                          
  501.040 123%   0.875 MM20+Lip20                                          
   6 lines in following misc. output table
  FWHM = 0.076 ppm    S/N =   2                                            
  Data shift = 0.038 ppm                                                   
  Ph: -22 deg      -1.6 deg/ppm                                            
  alphaB,S = 8.5E+01,   2.0E+02                                            
   14 spline knots.   Ns =11(1)                                            
   2 inflections.     1 extrema                                            
  498 points on ppm-axis = NY
      4.000000     3.992357     3.984714     3.977070     3.969427     3.961784     3.954141     3.946497     3.938854     3.931211
      3.923568     3.915925     3.908281     3.900638     3.892995     3.885352     3.877708     3.870065     3.862422     3.854779
      3.847136     3.839492     3.831849     3.824206     3.816563     3.808919     3.801276     3.793633     3.785990     3.778347
      3.770703     3.763060     3.755417     3.747774     3.740130     3.732487     3.724844     3.717201     3.709558     3.701914
      3.694271     3.686628     3.678985     3.671341     3.663698     3.656055     3.648412     3.640769     3.633125     3.625482
      3.617839     3.610196     3.602552     3.594909     3.587266     3.579623     3.571980     3.564336     3.556693     3.549050
      3.541407     3.533763     3.526120     3.518477     3.510834     3.503191     3.495547     3.487904     3.480261     3.472618
      3.464974     3.457331     3.449688     3.442045     3.434402     3.426758     3.419115     3.411472     3.403829     3.396185
      3.388542     3.380899     3.373256     3.365613     3.357969     3.350326     3.342683     3.335040     3.327396     3.319753
      3.312110     3.304467     3.296824     3.289180     3.281537     3.273894     3.266251     3.258607     3.250964     3.243321
      3.235678     3.228034     3.220391     3.212748     3.205105     3.197462     3.189818     3.182175     3.174532     3.166889
      3.159245     3.151602     3.143959     3.136316     3.128673     3.121029     3.113386     3.105743     3.098100     3.090456
      3.082813     3.075170     3.067527     3.059884     3.052240     3.044597     3.036954     3.029311     3.021667     3.014024
      3.006381     2.998738     2.991095     2.983451     2.975808     2.968165     2.960522     2.952878     2.945235     2.937592
      2.929949     2.922306     2.914662     2.907019     2.899376     2.891733     2.884089     2.876446     2.868803     2.861160
      2.853517     2.845873     2.838230     2.830587     2.822944     2.815300     2.807657     2.800014     2.792371     2.784728
      2.777084     2.769441     2.761798     2.754155     2.746511     2.738868     2.731225     2.723582     2.715939     2.708295
      2.700652     2.693009     2.685366     2.677722     2.670079     2.662436     2.654793     2.647150     2.639506     2.631863
      2.624220     2.616577     2.608933     2.601290     2.593647     2.586004     2.578361     2.570717     2.563074     2.555431
      2.547788     2.540144     2.532501     2.524858     2.517215     2.509572     2.501928     2.494285     2.486642     2.478999
      2.471355     2.463712     2.456069     2.448426     2.440783     2.433139     2.425496     2.417853     2.410210     2.402566
      2.394923     2.387280     2.379637     2.371994     2.364350     2.356707     2.349064     2.341421     2.333777     2.326134
      2.318491     2.310848     2.303205     2.295561     2.287918     2.280275     2.272632     2.264988     2.257345     2.249702
      2.242059     2.234416     2.226772     2.219129     2.211486     2.203843     2.196199     2.188556     2.180913     2.173270
      2.165627     2.157983     2.150340     2.142697     2.135054     2.127410     2.119767     2.112124     2.104481     2.096838
      2.089194     2.081551     2.073908     2.066265     2.058621     2.050978     2.043335     2.035692     2.028049     2.020405
      2.012762     2.005119     1.997476     1.989833     1.982190     1.974546     1.966903     1.959260     1.951617     1.943974
      1.936331     1.928688     1.921045     1.913402     1.905759     1.898115     1.890472     1.882829     1.875186     1.867543
      1.859900     1.852257     1.844614     1.836971     1.829327     1.821684     1.814041     1.806398     1.798755     1.791112
      1.783469     1.775826     1.768183     1.760540     1.752896     1.745253     1.737610     1.729967     1.722324     1.714681
      1.707038     1.699395     1.691752     1.684108     1.676465     1.668822     1.661179     1.653536     1.645893     1.638250
      1.630607     1.622964     1.615321     1.607677     1.600034     1.592391     1.584748     1.577105     1.569462     1.561819
      1.554176     1.546533     1.538890     1.531246     1.523603     1.515960     1.508317     1.500674     1.493031     1.485388
      1.477745     1.470102     1.462458     1.454815     1.447172     1.439529     1.431886     1.424243     1.416600     1.408957
      1.401314     1.393671     1.386027     1.378384     1.370741     1.363098     1.355455     1.347812     1.340169     1.332526
      1.324883     1.317240     1.309596     1.301953     1.294310     1.286667     1.279024     1.271381     1.263738     1.256095
      1.248452     1.240808     1.233165     1.225522     1.217879     1.210236     1.202593     1.194950     1.187307     1.179664
      1.172021     1.164377     1.156734     1.149091     1.141448     1.133805     1.126162     1.118519     1.110876     1.103233
      1.095590     1.087946     1.080303     1.072660     1.065017     1.057374     1.049731     1.042088     1.034445     1.026802
      1.019158     1.011515     1.003872     0.996229     0.988586     0.980943     0.973300     0.965657     0.958014     0.950371
      0.942727     0.935084     0.927441     0.919798     0.912155     0.904512     0.896869     0.889226     0.881583     0.873940
      0.866296     0.858653     0.851010     0.843367     0.835724     0.828081     0.820438     0.812795     0.805152     0.797508
      0.789865     0.782222     0.774579     0.766936     0.759293     0.751650     0.744007     0.736364     0.728721     0.721077
      0.713434     0.705791     0.698148     0.690505     0.682862     0.675219     0.667576     0.659933     0.652290     0.644646
      0.637003     0.629360     0.621717     0.614074     0.606431     0.598788     0.591145     0.583502     0.575858     0.568215
      0.560572     0.552929     0.545286     0.537643     0.530000     0.522357     0.514714     0.507071     0.499427     0.491784
      0.484141     0.476498     0.468855     0.461212     0.453569     0.445925     0.438282     0.430639     0.422996     0.415353
      0.407710     0.400067     0.392424     0.384780     0.377137     0.369494     0.361851     0.354208     0.346565     0.338922
      0.331278     0.323635     0.315992     0.308349     0.300706     0.293063     0.285420     0.277777     0.270133     0.262490
      0.254847     0.247204     0.239561     0.231918     0.224275     0.216631     0.208988     0.201345
 NY phased data points follow
   1.22876E+01  8.31157E+00  8.56937E+00  2.66025E+00 -5.86003E+00  1.04235E+01  1.92756E+01  1.01312E+01 -3.39224E+00  1.13938E+01
  -1.09277E+00  1.61861E+00  1.66423E+01  1.63630E+01  1.77501E+01 -1.04735E+01 -4.57125E+00 -3.65141E+00  3.52158E+00 -8.42743E+00
   7.78892E+00  6.58258E+00  1.21094E+01 -3.72517E-02  4.17045E+00  3.42840E-01  3.12206E+00 -1.30124E+01  7.54737E+00  3.96816E+00
   8.69505E+00  5.92118E+00  3.78105E+00 -5.51063E+00 -9.33201E+00 -2.12729E+00  2.20685E+01 -2.24863E+00  1.01198E+01  6.62908E+00
   7.37122E+00  9.74606E+00  1.97766E+01  1.44420E+01  1.20787E+01  2.13174E+00 -2.11608E-01 -2.21389E+01 -7.01657E+00  1.44975E+01
   4.75104E+00  1.27417E+00  1.37658E+01 -9.56534E+00  7.92404E+00  3.26389E-01  5.50094E+00  1.06021E+01  1.15986E+00  1.45115E+00
   1.32281E+01  3.21213E+00 -5.19384E+00 -6.71750E-01  1.07234E+01 -1.21833E+00  1.19696E+01  7.44309E+00  1.55792E+01  1.33691E+01
   7.19116E+00  1.51453E+00 -9.29260E+00 -2.46624E+00 -2.60703E+00  7.43379E+00 -5.11133E+00  1.00830E+01  1.16111E+01 -7.67650E+00
  -4.86045E+00  6.86616E+00  9.59809E+00  7.27383E+00  1.90603E+01  2.37147E+00 -1.20619E+01  9.32622E+00 -6.95152E+00  8.34974E+00
   3.81292E+00  2.82802E+00  4.76167E+00  7.54836E+00  1.09331E+01  4.99859E+00  2.56991E+01  1.16001E+01 -6.28491E-01  4.90027E+00
  -2.53345E+00  9.47229E+00  4.50089E+00  1.48263E+01  2.50825E+01  1.17785E+01  1.70384E+01  6.32102E+00  5.63438E+00 -8.63401E+00
  -8.79431E-01 -3.93845E+00  1.34004E-01 -3.76508E+00 -9.66979E+00  2.33372E+00  1.47328E+01 -3.89870E+00 -7.52408E+00 -1.00327E+01
   1.86599E+00  1.69748E+01  6.80101E+00  3.37364E+00  3.13145E+00  1.78566E+01  9.44117E+00  1.43949E+01  1.92893E+01  1.36978E+01
   2.24883E+01  6.84496E+00  1.95271E+01  7.94682E+00 -2.52367E+00 -1.16471E+00 -1.92055E+00 -7.53330E+00 -5.88767E+00  1.99114E+01
  -5.32997E+00  9.03691E+00 -3.26714E+00  1.22758E+01 -8.07751E+00  9.71938E-01 -3.07004E-01 -8.91729E+00  5.44681E+00 -6.02520E+00
   7.86094E+00 -1.36471E+00 -1.56957E-01 -1.02337E+01 -8.93616E-01  5.43462E+00  1.26555E+01  8.25975E+00  4.80715E+00 -8.01472E+00
  -3.25399E+00 -6.66880E+00 -5.09047E+00 -5.61226E+00 -8.86966E+00  9.60613E+00  2.28137E+01 -7.83995E+00  7.16551E+00 -8.35829E-01
  -4.76011E+00  4.42421E+00 -8.38038E+00 -1.92489E+01  8.43391E+00  1.64572E-01  1.11990E+00  7.75936E+00 -5.84674E+00 -8.13578E+00
   1.41207E+01 -2.04154E+00 -4.03744E+00 -1.32446E+01  1.09406E+01 -4.38478E+00 -2.63583E+00  9.73116E-01  8.43564E-01  5.93141E+00
   2.72162E-01  1.05422E+01  1.12237E+01  1.60575E+00  1.08747E+01  4.32621E-01  3.64886E+00  4.45609E+00  1.23715E+01  1.96950E+00
  -9.54071E+00  6.16615E+00 -2.28574E+00 -4.32657E+00  4.27656E+00 -3.93767E+00  1.51685E+01  6.93080E+00 -3.58328E+00  1.01166E+01
  -4.12890E+00  4.67794E+00  1.13859E+01 -6.20615E+00 -7.94768E-01 -1.56008E+00  8.47453E+00  8.06453E+00  1.13576E+01 -1.05345E+01
   1.69646E+01 -8.85486E+00 -1.33510E+01 -1.11408E+01 -1.12003E+01 -1.64671E+01 -3.83311E+00 -9.92989E-01 -5.51000E+00  2.02912E+01
   6.95056E+00 -6.63295E+00 -7.25578E+00 -6.87355E+00  1.39526E+01  6.72032E+00  8.88247E+00 -3.00353E+00  1.03195E+01  2.31257E+00
   1.44963E+01  6.55539E+00 -3.20410E+00  8.09719E+00 -7.48504E+00 -7.05745E+00 -6.39659E+00 -7.86824E+00  2.82031E-01  1.83164E+00
   9.66269E+00  4.61970E-01 -3.68573E+00  4.98642E+00  2.27132E+01  3.45428E+01  3.12098E+01  1.25694E+01  1.18680E+01  3.98959E+01
   1.85682E+01  5.17060E+01  3.99520E+01  2.77746E+01  1.82712E+01  1.16249E+01 -5.65033E+00  2.72273E+00  1.02326E+01  1.06943E+01
  -5.66079E+00 -1.47766E+01 -1.26292E+01 -6.85972E+00  9.04440E+00 -1.05689E+00  3.86610E+00  2.08197E+00  4.06708E-01 -3.86024E+00
  -5.28703E+00  1.47103E+01  2.01323E+00 -1.02551E+01  6.86877E+00 -5.35876E+00 -4.02431E+00 -4.47884E+00 -5.29887E+00  2.94232E+00
  -2.51417E+01 -5.31486E+00  2.18228E+00  6.83049E+00  4.59077E+00 -3.73656E+00  5.30820E-01  9.95050E+00  6.97660E+00  5.18493E-01
   9.93024E+00  1.76429E+01  1.22307E+01  1.03430E+01  5.39043E+00  2.02441E+01  7.68804E+00 -9.51555E+00  2.11249E+01  3.21035E+00
   1.68828E+01  2.17095E+01  1.47591E+01  2.07359E+01  2.62718E+01  2.45884E+01  3.47410E+01  5.51613E+00  8.94142E+00  2.20700E+00
   2.56670E+01  2.36192E+01  1.43643E+01  2.60866E+01  1.37977E+01  2.41695E+01  4.27074E+01  4.17177E+01  3.63586E+01  4.39318E+01
   5.32206E+01  4.36047E+01  3.91873E+01  3.09149E+01  3.57839E+01  2.42678E+01  2.90925E+01  3.59916E+01  3.46403E+01  2.84453E+01
   2.95125E+01  2.70933E+01  2.74966E+01  2.72432E+01  1.74585E+01  1.64740E+01  3.42976E+01  2.37654E+01  2.18680E+01  3.38963E+01
   1.86809E+01  2.83929E+01  9.66468E+00  1.04468E+01  1.87695E+00  1.58037E+01  1.49270E+01  1.14969E+01 -1.01178E+01  1.82989E+00
  -1.78572E+00 -6.35413E+00 -3.91359E+00 -9.52715E-01  2.62979E+00  4.18674E+00 -1.23186E+00 -3.32872E+00 -1.71793E+01  9.73039E+00
  -1.91189E+00  1.18364E+01  6.62755E+00  1.20384E+01  3.81788E+00  6.37972E+00 -1.28574E+01 -1.40412E+01 -1.03725E+01  2.12317E+00
   1.68190E+00  7.36219E+00 -3.85336E+00  1.31898E+01 -1.52346E+01 -1.85097E+00  1.83250E+00  8.13356E+00  7.71887E+00 -1.39662E+01
  -3.50955E+00  1.54315E+01  8.72386E-01  2.21898E+01  1.10821E+01 -1.80673E+00  1.86750E+01  9.45900E-01  4.81832E+00  6.69183E+00
  -4.23906E+00  8.53266E+00  1.98495E+01  1.48086E+00  4.17692E+00  6.75508E+00  4.18686E+00  7.92644E+00  1.74413E+01  1.44201E+01
   2.10969E+01  3.41939E+00  1.73481E+01 -5.83765E+00  4.66896E-02  5.10304E+00  2.62478E+00  2.17258E+01  1.10445E+01  1.29468E+01
   1.05897E+01  3.47506E+00  1.91132E+01  1.12749E+01  1.60579E+00 -8.49714E+00  3.05129E+00 -2.91140E+00 -5.89392E-01  3.47364E+00
  -3.19666E+00 -3.48831E-03  1.49357E+01  9.61874E+00 -1.08718E+01  2.82919E+00 -8.18665E+00  5.94516E+00 -2.02913E-01 -8.30828E+00
  -7.72794E+00 -1.63771E+01 -1.52216E+01 -5.78992E+00  3.22822E+00 -1.30797E+01  8.70776E+00 -1.53624E-01 -9.12730E+00 -6.01612E+00
   2.14117E+00  2.07077E+01 -3.94753E+00  4.24596E+00 -1.96710E+00  1.01462E+01 -7.81791E-01 -2.24613E+01 -1.22139E+01  7.77469E+00
   9.63397E+00 -1.23167E+01 -1.13826E+01  8.42291E-01  7.76768E+00 -6.48030E+00 -1.43107E+00  1.60793E+01 -2.27076E+01 -1.23817E+01
  -2.12075E-01  6.27986E+00 -2.74287E+00 -7.02287E+00 -9.98765E+00  4.71062E+00 -1.08875E+01 -1.22743E+01  7.15864E+00 -3.80610E+00
  -2.95155E+00 -1.87061E-01  2.34011E+00 -3.56884E+00  1.10039E+01 -3.42277E-01 -9.55969E-01  2.98901E-01 -2.32664E+00 -9.29314E+00
   1.01506E+01 -1.53185E+00  1.14242E+01 -8.12036E+00  9.09758E+00 -1.17554E+01 -1.02553E+01  5.43223E+00
 NY points of the fit to the data follow
   4.15560E+00  4.55398E+00  5.12091E+00  5.80076E+00  6.52997E+00  7.25965E+00  7.97075E+00  8.65966E+00  9.27924E+00  9.72690E+00
   9.88353E+00  9.65356E+00  9.01772E+00  8.05540E+00  6.91923E+00  5.79418E+00  4.83487E+00  4.09134E+00  3.55155E+00  3.18402E+00
   2.95218E+00  2.81753E+00  2.74132E+00  2.73562E+00  2.83630E+00  3.00894E+00  3.18860E+00  3.30703E+00  3.31997E+00  3.26489E+00
   3.23621E+00  3.32593E+00  3.57396E+00  3.93163E+00  4.27222E+00  4.45920E+00  4.42600E+00  4.20761E+00  3.90604E+00  3.64379E+00
   3.53476E+00  3.64868E+00  3.95651E+00  4.37671E+00  4.82671E+00  5.23113E+00  5.52214E+00  5.64823E+00  5.58511E+00  5.33536E+00
   4.91886E+00  4.39407E+00  3.84024E+00  3.32376E+00  2.90182E+00  2.60838E+00  2.44967E+00  2.41591E+00  2.48577E+00  2.61640E+00
   2.74852E+00  2.83481E+00  2.85362E+00  2.80575E+00  2.71398E+00  2.61402E+00  2.53918E+00  2.51185E+00  2.53780E+00  2.60680E+00
   2.70124E+00  2.80215E+00  2.88778E+00  2.94094E+00  2.95512E+00  2.93709E+00  2.89018E+00  2.80905E+00  2.69407E+00  2.55422E+00
   2.40139E+00  2.25142E+00  2.12041E+00  2.02185E+00  1.95335E+00  1.89608E+00  1.82977E+00  1.73981E+00  1.62580E+00  1.50558E+00
   1.42129E+00  1.46347E+00  1.78533E+00  2.42671E+00  3.34758E+00  4.48455E+00  5.74222E+00  7.00423E+00  8.17626E+00  9.22762E+00
   1.01877E+01  1.10657E+01  1.17813E+01  1.21762E+01  1.20711E+01  1.13547E+01  1.00576E+01  8.34657E+00  6.46914E+00  4.68294E+00
   3.18289E+00  2.05764E+00  1.31279E+00  9.23735E-01  8.37317E-01  9.71696E-01  1.33891E+00  2.00509E+00  2.96016E+00  4.16366E+00
   5.53887E+00  6.96594E+00  8.33613E+00  9.60499E+00  1.07892E+01  1.18954E+01  1.28393E+01  1.34437E+01  1.34960E+01  1.28396E+01
   1.14689E+01  9.54493E+00  7.34281E+00  5.17360E+00  3.29317E+00  1.83864E+00  8.37534E-01  2.61142E-01  4.37053E-02  4.88066E-02
   9.34510E-02  1.16980E-01  1.35707E-01  1.52025E-01  1.66271E-01  1.78624E-01  1.88394E-01  1.94238E-01  1.94017E-01  1.83295E-01
   1.53880E-01  1.03967E-01  3.71919E-02 -3.93903E-02 -1.12432E-01 -1.75392E-01 -2.27691E-01 -2.73816E-01 -3.24495E-01 -3.89769E-01
  -4.68164E-01 -5.45943E-01 -6.04839E-01 -6.33925E-01 -6.39828E-01 -6.48360E-01 -6.87093E-01 -7.66806E-01 -8.86971E-01 -1.03581E+00
  -1.19895E+00 -1.35957E+00 -1.50433E+00 -1.62535E+00 -1.71254E+00 -1.75960E+00 -1.76644E+00 -1.73107E+00 -1.65478E+00 -1.54266E+00
  -1.40254E+00 -1.23992E+00 -1.05781E+00 -8.58478E-01 -6.44192E-01 -4.12957E-01 -1.57160E-01  1.22984E-01  4.25687E-01  7.46609E-01
   1.06333E+00  1.34159E+00  1.56602E+00  1.74724E+00  1.90581E+00  2.05865E+00  2.20190E+00  2.31728E+00  2.38941E+00  2.39267E+00
   2.32165E+00  2.18174E+00  1.98490E+00  1.76990E+00  1.58782E+00  1.51812E+00  1.58358E+00  1.74382E+00  1.95356E+00  2.16106E+00
   2.30518E+00  2.32958E+00  2.22591E+00  2.06153E+00  1.90252E+00  1.71755E+00  1.41100E+00  8.69323E-01  1.05020E-02 -1.16231E+00
  -2.52337E+00 -3.83054E+00 -4.77268E+00 -5.06464E+00 -4.56953E+00 -3.33016E+00 -1.55124E+00  4.42651E-01  2.29408E+00  3.69672E+00
   4.53025E+00  4.84270E+00  4.73540E+00  4.35599E+00  3.87949E+00  3.47186E+00  3.21383E+00  3.08980E+00  3.04523E+00  3.03007E+00
   2.99936E+00  2.94417E+00  2.90171E+00  2.92563E+00  3.06211E+00  3.32617E+00  3.69263E+00  4.10203E+00  4.54540E+00  5.25815E+00
   6.49677E+00  8.28461E+00  1.06135E+01  1.34142E+01  1.64755E+01  1.95177E+01  2.23706E+01  2.49922E+01  2.73790E+01  2.94060E+01
   3.07642E+01  3.10231E+01  2.98172E+01  2.70720E+01  2.30727E+01  1.83626E+01  1.35908E+01  9.34007E+00  5.96081E+00  3.54795E+00
   2.06149E+00  1.40512E+00  1.34240E+00  1.48470E+00  1.61956E+00  1.76661E+00  1.90748E+00  2.01130E+00  2.06542E+00  2.07351E+00
   2.04245E+00  1.99120E+00  1.94266E+00  1.91672E+00  1.92770E+00  1.98344E+00  2.08074E+00  2.21041E+00  2.36578E+00  2.54385E+00
   2.74426E+00  2.96876E+00  3.22071E+00  3.50496E+00  3.82608E+00  4.18560E+00  4.58357E+00  5.01847E+00  5.48665E+00  5.98263E+00
   6.49992E+00  7.03129E+00  7.56866E+00  8.10349E+00  8.62778E+00  9.13464E+00  9.61890E+00  1.00781E+01  1.05130E+01  1.09283E+01
   1.13324E+01  1.17380E+01  1.21613E+01  1.26216E+01  1.31403E+01  1.37398E+01  1.44415E+01  1.52648E+01  1.62251E+01  1.73320E+01
   1.85883E+01  1.99879E+01  2.15161E+01  2.31483E+01  2.48510E+01  2.65825E+01  2.82943E+01  2.99330E+01  3.14433E+01  3.27701E+01
   3.38618E+01  3.46730E+01  3.51672E+01  3.53192E+01  3.51165E+01  3.45611E+01  3.36700E+01  3.24751E+01  3.10230E+01  2.93739E+01
   2.75997E+01  2.57811E+01  2.40033E+01  2.23497E+01  2.08943E+01  1.96928E+01  1.87731E+01  1.81283E+01  1.77132E+01  1.74469E+01
   1.72224E+01  1.69221E+01  1.64375E+01  1.56881E+01  1.46359E+01  1.32923E+01  1.17144E+01  9.99320E+00  8.23631E+00  6.54889E+00
   5.01807E+00  3.70297E+00  2.63149E+00  1.80327E+00  1.19658E+00  7.76834E-01  5.04640E-01  3.41997E-01  2.56182E-01  2.21461E-01
   2.19203E-01  2.36998E-01  2.67357E-01  3.06385E-01  3.52654E-01  4.06340E-01  4.68622E-01  5.41281E-01  6.26456E-01  7.26497E-01
   8.43884E-01  9.81183E-01  1.14102E+00  1.32603E+00  1.53883E+00  1.78191E+00  2.05758E+00  2.36784E+00  2.71421E+00  3.09757E+00
   3.51792E+00  3.97421E+00  4.46407E+00  4.98370E+00  5.52766E+00  6.08880E+00  6.65829E+00  7.22567E+00  7.77915E+00  8.30588E+00
   8.79244E+00  9.22535E+00  9.59171E+00  9.87978E+00  1.00796E+01  1.01837E+01  1.01871E+01  1.00883E+01  9.88858E+00  9.59273E+00
   9.20831E+00  8.74544E+00  8.21626E+00  7.63430E+00  7.01383E+00  6.36923E+00  5.71434E+00  5.06199E+00  4.42351E+00  3.80853E+00
   3.22473E+00  2.67787E+00  2.17182E+00  1.70873E+00  1.28922E+00  9.12617E-01  5.77282E-01  2.80818E-01  2.03290E-02 -2.07374E-01
  -4.05591E-01 -5.77594E-01 -7.26511E-01 -8.55265E-01 -9.66528E-01 -1.06270E+00 -1.14592E+00 -1.21803E+00 -1.28064E+00 -1.33514E+00
  -1.38269E+00 -1.42431E+00 -1.46083E+00 -1.49299E+00 -1.52137E+00 -1.54649E+00 -1.56879E+00 -1.58863E+00 -1.60633E+00 -1.62215E+00
  -1.63632E+00 -1.64903E+00 -1.66046E+00 -1.67075E+00 -1.68003E+00 -1.68841E+00 -1.69598E+00 -1.70282E+00 -1.70902E+00 -1.71464E+00
  -1.71973E+00 -1.72435E+00 -1.72855E+00 -1.73235E+00 -1.73581E+00 -1.73896E+00 -1.74181E+00 -1.74439E+00 -1.74673E+00 -1.74884E+00
  -1.75075E+00 -1.75248E+00 -1.75402E+00 -1.75540E+00 -1.75662E+00 -1.75771E+00 -1.75866E+00 -1.75949E+00 -1.76019E+00 -1.76078E+00
  -1.76127E+00 -1.76165E+00 -1.76193E+00 -1.76211E+00 -1.76219E+00 -1.76217E+00 -1.76205E+00 -1.76183E+00 -1.76150E+00 -1.76106E+00
  -1.76051E+00 -1.75982E+00 -1.75901E+00 -1.75805E+00 -1.75693E+00 -1.75564E+00 -1.75414E+00 -1.75243E+00
 NY background values follow
     5.116E-01    5.081E-01    5.047E-01    5.012E-01    4.978E-01    4.943E-01    4.909E-01    4.874E-01    4.840E-01    4.805E-01
     4.771E-01    4.736E-01    4.702E-01    4.667E-01    4.633E-01    4.598E-01    4.564E-01    4.529E-01    4.495E-01    4.460E-01
     4.426E-01    4.391E-01    4.357E-01    4.323E-01    4.288E-01    4.254E-01    4.219E-01    4.185E-01    4.150E-01    4.116E-01
     4.081E-01    4.047E-01    4.012E-01    3.978E-01    3.943E-01    3.909E-01    3.874E-01    3.840E-01    3.805E-01    3.771E-01
     3.736E-01    3.702E-01    3.668E-01    3.633E-01    3.599E-01    3.564E-01    3.530E-01    3.495E-01    3.461E-01    3.426E-01
     3.392E-01    3.357E-01    3.323E-01    3.288E-01    3.254E-01    3.220E-01    3.185E-01    3.151E-01    3.116E-01    3.082E-01
     3.047E-01    3.013E-01    2.978E-01    2.944E-01    2.909E-01    2.875E-01    2.841E-01    2.806E-01    2.772E-01    2.737E-01
     2.703E-01    2.668E-01    2.634E-01    2.600E-01    2.565E-01    2.531E-01    2.496E-01    2.462E-01    2.427E-01    2.393E-01
     2.359E-01    2.324E-01    2.290E-01    2.255E-01    2.221E-01    2.186E-01    2.152E-01    2.118E-01    2.083E-01    2.049E-01
     2.014E-01    1.980E-01    1.945E-01    1.911E-01    1.877E-01    1.842E-01    1.808E-01    1.773E-01    1.739E-01    1.705E-01
     1.670E-01    1.636E-01    1.601E-01    1.567E-01    1.533E-01    1.498E-01    1.464E-01    1.429E-01    1.395E-01    1.361E-01
     1.326E-01    1.292E-01    1.257E-01    1.223E-01    1.189E-01    1.154E-01    1.120E-01    1.086E-01    1.051E-01    1.017E-01
     9.825E-02    9.481E-02    9.137E-02    8.794E-02    8.450E-02    8.106E-02    7.763E-02    7.419E-02    7.076E-02    6.732E-02
     6.388E-02    6.045E-02    5.701E-02    5.358E-02    5.014E-02    4.671E-02    4.327E-02    3.984E-02    3.641E-02    3.297E-02
     2.954E-02    2.610E-02    2.267E-02    1.924E-02    1.580E-02    1.237E-02    8.938E-03    5.506E-03    2.073E-03   -1.359E-03
    -4.791E-03   -8.223E-03   -1.165E-02   -1.509E-02   -1.852E-02   -2.195E-02   -2.538E-02   -2.881E-02   -3.224E-02   -3.567E-02
    -3.910E-02   -4.253E-02   -4.596E-02   -4.939E-02   -5.282E-02   -5.625E-02   -5.968E-02   -6.310E-02   -6.653E-02   -6.996E-02
    -7.339E-02   -7.682E-02   -8.024E-02   -8.367E-02   -8.710E-02   -9.053E-02   -9.395E-02   -9.738E-02   -1.008E-01   -1.042E-01
    -1.077E-01   -1.111E-01   -1.145E-01   -1.179E-01   -1.214E-01   -1.248E-01   -1.282E-01   -1.316E-01   -1.351E-01   -1.385E-01
    -1.419E-01   -1.453E-01   -1.488E-01   -1.522E-01   -1.556E-01   -1.590E-01   -1.624E-01   -1.659E-01   -1.693E-01   -1.727E-01
    -1.761E-01   -1.796E-01   -1.830E-01   -1.864E-01   -1.898E-01   -1.932E-01   -1.967E-01   -2.001E-01   -2.035E-01   -2.069E-01
    -2.103E-01   -2.137E-01   -2.172E-01   -2.206E-01   -2.240E-01   -2.274E-01   -2.308E-01   -2.343E-01   -2.377E-01   -2.411E-01
    -2.445E-01   -2.479E-01   -2.513E-01   -2.548E-01   -2.582E-01   -2.616E-01   -2.650E-01   -2.684E-01   -2.718E-01   -2.752E-01
    -2.787E-01   -2.821E-01   -2.855E-01   -2.889E-01   -2.923E-01   -2.957E-01   -2.991E-01   -3.025E-01   -3.060E-01   -3.094E-01
    -3.128E-01   -3.162E-01   -3.196E-01   -3.230E-01   -3.264E-01   -3.298E-01   -3.332E-01   -3.366E-01   -3.401E-01   -3.435E-01
    -3.469E-01   -3.503E-01   -3.537E-01   -3.571E-01   -3.605E-01   -3.639E-01   -3.673E-01   -3.707E-01   -3.741E-01   -3.775E-01
    -3.809E-01   -3.843E-01   -3.877E-01   -3.911E-01   -3.945E-01   -3.980E-01   -4.014E-01   -4.048E-01   -4.082E-01   -4.116E-01
    -4.150E-01   -4.184E-01   -4.218E-01   -4.252E-01   -4.286E-01   -4.320E-01   -4.354E-01   -4.388E-01   -4.422E-01   -4.456E-01
    -4.490E-01   -4.524E-01   -4.558E-01   -4.592E-01   -4.626E-01   -4.660E-01   -4.694E-01   -4.727E-01   -4.761E-01   -4.795E-01
    -4.829E-01   -4.863E-01   -4.897E-01   -4.931E-01   -4.965E-01   -4.999E-01   -5.033E-01   -5.067E-01   -5.101E-01   -5.135E-01
    -5.169E-01   -5.203E-01   -5.237E-01   -5.270E-01   -5.304E-01   -5.338E-01   -5.372E-01   -5.406E-01   -5.440E-01   -5.474E-01
    -5.508E-01   -5.542E-01   -5.576E-01   -5.609E-01   -5.643E-01   -5.677E-01   -5.711E-01   -5.745E-01   -5.779E-01   -5.813E-01
    -5.846E-01   -5.880E-01   -5.914E-01   -5.948E-01   -5.982E-01   -6.016E-01   -6.050E-01   -6.083E-01   -6.117E-01   -6.151E-01
    -6.185E-01   -6.219E-01   -6.252E-01   -6.286E-01   -6.320E-01   -6.354E-01   -6.388E-01   -6.421E-01   -6.455E-01   -6.489E-01
    -6.523E-01   -6.557E-01   -6.590E-01   -6.624E-01   -6.658E-01   -6.692E-01   -6.725E-01   -6.759E-01   -6.793E-01   -6.827E-01
    -6.860E-01   -6.894E-01   -6.928E-01   -6.962E-01   -6.995E-01   -7.029E-01   -7.063E-01   -7.096E-01   -7.130E-01   -7.164E-01
    -7.198E-01   -7.231E-01   -7.265E-01   -7.299E-01   -7.332E-01   -7.366E-01   -7.400E-01   -7.433E-01   -7.467E-01   -7.501E-01
    -7.534E-01   -7.568E-01   -7.602E-01   -7.635E-01   -7.669E-01   -7.703E-01   -7.736E-01   -7.770E-01   -7.804E-01   -7.837E-01
    -7.871E-01   -7.904E-01   -7.938E-01   -7.972E-01   -8.005E-01   -8.039E-01   -8.073E-01   -8.106E-01   -8.140E-01   -8.173E-01
    -8.207E-01   -8.240E-01   -8.274E-01   -8.308E-01   -8.341E-01   -8.375E-01   -8.408E-01   -8.442E-01   -8.475E-01   -8.509E-01
    -8.542E-01   -8.576E-01   -8.610E-01   -8.643E-01   -8.677E-01   -8.710E-01   -8.744E-01   -8.777E-01   -8.811E-01   -8.844E-01
    -8.878E-01   -8.911E-01   -8.945E-01   -8.978E-01   -9.012E-01   -9.045E-01   -9.079E-01   -9.112E-01   -9.145E-01   -9.179E-01
    -9.212E-01   -9.246E-01   -9.279E-01   -9.313E-01   -9.346E-01   -9.380E-01   -9.413E-01   -9.446E-01   -9.480E-01   -9.513E-01
    -9.547E-01   -9.580E-01   -9.614E-01   -9.647E-01   -9.680E-01   -9.714E-01   -9.747E-01   -9.780E-01   -9.814E-01   -9.847E-01
    -9.881E-01   -9.914E-01   -9.947E-01   -9.981E-01   -1.001E+00   -1.005E+00   -1.008E+00   -1.011E+00   -1.015E+00   -1.018E+00
    -1.021E+00   -1.025E+00   -1.028E+00   -1.031E+00   -1.035E+00   -1.038E+00   -1.041E+00   -1.045E+00   -1.048E+00   -1.051E+00
    -1.055E+00   -1.058E+00   -1.061E+00   -1.065E+00   -1.068E+00   -1.071E+00   -1.075E+00   -1.078E+00   -1.081E+00   -1.085E+00
    -1.088E+00   -1.091E+00   -1.095E+00   -1.098E+00   -1.101E+00   -1.105E+00   -1.108E+00   -1.111E+00   -1.114E+00   -1.118E+00
    -1.121E+00   -1.124E+00   -1.128E+00   -1.131E+00   -1.134E+00   -1.138E+00   -1.141E+00   -1.144E+00   -1.148E+00   -1.151E+00
    -1.154E+00   -1.158E+00   -1.161E+00   -1.164E+00   -1.168E+00   -1.171E+00   -1.174E+00   -1.177E+00
 Asp      Conc. = 1.10E+02
