 LCModel (Version 6.3-1L) Copyright: S.W. Provencher.          Ref.: Magn. Reson. Med. 30:672-679 (1993).                
 Slice#2 Row#10 Col#3  PD_05_press_2_raw_act
 36 lines in following concentration table = NCONC+1
    Conc.  %SD /Cr+PCr  Metabolite                                         
  120.790  86%   0.228 Ala                                                 
  181.142  73%   0.342 Asp                                                 
  530.233  11%   1.000 Cr                                                  
    0.000 999%   0.000 PCr                                                 
   99.094  81%   0.187 GABA                                                
    0.000 999%   0.000 Glc                                                 
   98.801 216%   0.186 Gln                                                 
 1.15E+03  22%   2.177 Glu                                                 
  223.106  10%   0.421 GPC                                                 
    0.000 999%   0.000 PCh                                                 
  400.579  19%   0.755 GSH                                                 
 1.15E+03  25%   2.160 Ins                                                 
   60.624 189%   0.114 Lac                                                 
 1.19E+03   7%   2.247 NAA                                                 
   13.216 682% 2.5E-02 NAAG                                                
   59.776  36%   0.113 Scyllo                                              
    0.000 999%   0.000 Tau                                                 
  165.845  55%   0.313 -CrCH2                                              
  223.106  10%   0.421 GPC+PCh                                             
 1.20E+03   8%   2.272 NAA+NAAG                                            
  530.233  11%   1.000 Cr+PCr                                              
 1.25E+03  26%   2.364 Glu+Gln                                             
 1.14E+04  10%  21.592 Lip13a                                              
    0.000 999%   0.000 Lip13b                                              
    0.000 999%   0.000 Lip09                                               
 2.79E+03  12%   5.257 MM09                                                
 1.85E+03  30%   3.483 Lip20                                               
 5.08E+03  13%   9.579 MM20                                                
  983.677  29%   1.855 MM12                                                
 3.18E+03  15%   5.990 MM14                                                
 1.61E+03  22%   3.044 MM17                                                
 1.14E+04  10%  21.592 Lip13a+Lip13b                                       
 1.56E+04   7%  29.437 MM14+Lip13a+Lip13b+MM12                             
 2.79E+03  12%   5.257 MM09+Lip09                                          
 6.93E+03   9%  13.062 MM20+Lip20                                          
   6 lines in following misc. output table
  FWHM = 0.061 ppm    S/N =   8                                            
  Data shift = 0.023 ppm                                                   
  Ph: -25 deg      -1.0 deg/ppm                                            
  alphaB,S = 6.3E-01,   2.4E+01                                            
   14 spline knots.   Ns = 6(1)                                            
  ( 9) 1 infls.   ( 7) 1 extrs.                                            
  498 points on ppm-axis = NY
      4.000000     3.992357     3.984714     3.977070     3.969427     3.961784     3.954141     3.946497     3.938854     3.931211
      3.923568     3.915925     3.908281     3.900638     3.892995     3.885352     3.877708     3.870065     3.862422     3.854779
      3.847136     3.839492     3.831849     3.824206     3.816563     3.808919     3.801276     3.793633     3.785990     3.778347
      3.770703     3.763060     3.755417     3.747774     3.740130     3.732487     3.724844     3.717201     3.709558     3.701914
      3.694271     3.686628     3.678985     3.671341     3.663698     3.656055     3.648412     3.640769     3.633125     3.625482
      3.617839     3.610196     3.602552     3.594909     3.587266     3.579623     3.571980     3.564336     3.556693     3.549050
      3.541407     3.533763     3.526120     3.518477     3.510834     3.503191     3.495547     3.487904     3.480261     3.472618
      3.464974     3.457331     3.449688     3.442045     3.434402     3.426758     3.419115     3.411472     3.403829     3.396185
      3.388542     3.380899     3.373256     3.365613     3.357969     3.350326     3.342683     3.335040     3.327396     3.319753
      3.312110     3.304467     3.296824     3.289180     3.281537     3.273894     3.266251     3.258607     3.250964     3.243321
      3.235678     3.228034     3.220391     3.212748     3.205105     3.197462     3.189818     3.182175     3.174532     3.166889
      3.159245     3.151602     3.143959     3.136316     3.128673     3.121029     3.113386     3.105743     3.098100     3.090456
      3.082813     3.075170     3.067527     3.059884     3.052240     3.044597     3.036954     3.029311     3.021667     3.014024
      3.006381     2.998738     2.991095     2.983451     2.975808     2.968165     2.960522     2.952878     2.945235     2.937592
      2.929949     2.922306     2.914662     2.907019     2.899376     2.891733     2.884089     2.876446     2.868803     2.861160
      2.853517     2.845873     2.838230     2.830587     2.822944     2.815300     2.807657     2.800014     2.792371     2.784728
      2.777084     2.769441     2.761798     2.754155     2.746511     2.738868     2.731225     2.723582     2.715939     2.708295
      2.700652     2.693009     2.685366     2.677722     2.670079     2.662436     2.654793     2.647150     2.639506     2.631863
      2.624220     2.616577     2.608933     2.601290     2.593647     2.586004     2.578361     2.570717     2.563074     2.555431
      2.547788     2.540144     2.532501     2.524858     2.517215     2.509572     2.501928     2.494285     2.486642     2.478999
      2.471355     2.463712     2.456069     2.448426     2.440783     2.433139     2.425496     2.417853     2.410210     2.402566
      2.394923     2.387280     2.379637     2.371994     2.364350     2.356707     2.349064     2.341421     2.333777     2.326134
      2.318491     2.310848     2.303205     2.295561     2.287918     2.280275     2.272632     2.264988     2.257345     2.249702
      2.242059     2.234416     2.226772     2.219129     2.211486     2.203843     2.196199     2.188556     2.180913     2.173270
      2.165627     2.157983     2.150340     2.142697     2.135054     2.127410     2.119767     2.112124     2.104481     2.096838
      2.089194     2.081551     2.073908     2.066265     2.058621     2.050978     2.043335     2.035692     2.028049     2.020405
      2.012762     2.005119     1.997476     1.989833     1.982190     1.974546     1.966903     1.959260     1.951617     1.943974
      1.936331     1.928688     1.921045     1.913402     1.905759     1.898115     1.890472     1.882829     1.875186     1.867543
      1.859900     1.852257     1.844614     1.836971     1.829327     1.821684     1.814041     1.806398     1.798755     1.791112
      1.783469     1.775826     1.768183     1.760540     1.752896     1.745253     1.737610     1.729967     1.722324     1.714681
      1.707038     1.699395     1.691752     1.684108     1.676465     1.668822     1.661179     1.653536     1.645893     1.638250
      1.630607     1.622964     1.615321     1.607677     1.600034     1.592391     1.584748     1.577105     1.569462     1.561819
      1.554176     1.546533     1.538890     1.531246     1.523603     1.515960     1.508317     1.500674     1.493031     1.485388
      1.477745     1.470102     1.462458     1.454815     1.447172     1.439529     1.431886     1.424243     1.416600     1.408957
      1.401314     1.393671     1.386027     1.378384     1.370741     1.363098     1.355455     1.347812     1.340169     1.332526
      1.324883     1.317240     1.309596     1.301953     1.294310     1.286667     1.279024     1.271381     1.263738     1.256095
      1.248452     1.240808     1.233165     1.225522     1.217879     1.210236     1.202593     1.194950     1.187307     1.179664
      1.172021     1.164377     1.156734     1.149091     1.141448     1.133805     1.126162     1.118519     1.110876     1.103233
      1.095590     1.087946     1.080303     1.072660     1.065017     1.057374     1.049731     1.042088     1.034445     1.026802
      1.019158     1.011515     1.003872     0.996229     0.988586     0.980943     0.973300     0.965657     0.958014     0.950371
      0.942727     0.935084     0.927441     0.919798     0.912155     0.904512     0.896869     0.889226     0.881583     0.873940
      0.866296     0.858653     0.851010     0.843367     0.835724     0.828081     0.820438     0.812795     0.805152     0.797508
      0.789865     0.782222     0.774579     0.766936     0.759293     0.751650     0.744007     0.736364     0.728721     0.721077
      0.713434     0.705791     0.698148     0.690505     0.682862     0.675219     0.667576     0.659933     0.652290     0.644646
      0.637003     0.629360     0.621717     0.614074     0.606431     0.598788     0.591145     0.583502     0.575858     0.568215
      0.560572     0.552929     0.545286     0.537643     0.530000     0.522357     0.514714     0.507071     0.499427     0.491784
      0.484141     0.476498     0.468855     0.461212     0.453569     0.445925     0.438282     0.430639     0.422996     0.415353
      0.407710     0.400067     0.392424     0.384780     0.377137     0.369494     0.361851     0.354208     0.346565     0.338922
      0.331278     0.323635     0.315992     0.308349     0.300706     0.293063     0.285420     0.277777     0.270133     0.262490
      0.254847     0.247204     0.239561     0.231918     0.224275     0.216631     0.208988     0.201345
 NY phased data points follow
  -3.11513E+02 -3.08924E+02 -2.98949E+02 -2.98594E+02 -2.90998E+02 -2.87172E+02 -2.81333E+02 -2.74059E+02 -2.69479E+02 -2.68650E+02
  -2.62194E+02 -2.62819E+02 -2.60966E+02 -2.61388E+02 -2.60010E+02 -2.63856E+02 -2.57051E+02 -2.60189E+02 -2.57856E+02 -2.56592E+02
  -2.49116E+02 -2.48126E+02 -2.43306E+02 -2.39513E+02 -2.30530E+02 -2.38207E+02 -2.32166E+02 -2.29848E+02 -2.25854E+02 -2.17518E+02
  -2.19174E+02 -2.17717E+02 -2.10388E+02 -2.11635E+02 -2.10645E+02 -2.08913E+02 -2.10220E+02 -2.14369E+02 -2.12192E+02 -2.02225E+02
  -1.99715E+02 -1.99500E+02 -1.94527E+02 -1.87047E+02 -1.87585E+02 -1.88730E+02 -1.91013E+02 -1.84572E+02 -1.86292E+02 -1.90598E+02
  -1.87880E+02 -1.86354E+02 -1.87445E+02 -1.85064E+02 -1.77443E+02 -1.81975E+02 -1.83460E+02 -1.80709E+02 -1.78076E+02 -1.76509E+02
  -1.74901E+02 -1.72878E+02 -1.73840E+02 -1.74612E+02 -1.72187E+02 -1.67677E+02 -1.69079E+02 -1.69246E+02 -1.72392E+02 -1.69641E+02
  -1.68539E+02 -1.67027E+02 -1.69350E+02 -1.62153E+02 -1.60879E+02 -1.56485E+02 -1.58415E+02 -1.57920E+02 -1.56870E+02 -1.51617E+02
  -1.52073E+02 -1.54760E+02 -1.44815E+02 -1.47790E+02 -1.46035E+02 -1.42202E+02 -1.47470E+02 -1.41333E+02 -1.37847E+02 -1.41436E+02
  -1.38924E+02 -1.38776E+02 -1.36706E+02 -1.37647E+02 -1.29599E+02 -1.34237E+02 -1.36705E+02 -1.26050E+02 -1.22299E+02 -1.19627E+02
  -1.13746E+02 -1.13625E+02 -1.14684E+02 -1.13277E+02 -1.13834E+02 -1.17094E+02 -1.18527E+02 -1.24260E+02 -1.27053E+02 -1.23720E+02
  -1.23174E+02 -1.15571E+02 -1.15818E+02 -1.18696E+02 -1.18105E+02 -1.22355E+02 -1.19092E+02 -1.13406E+02 -1.18372E+02 -1.19035E+02
  -1.16855E+02 -1.09441E+02 -1.07459E+02 -1.03499E+02 -9.72441E+01 -9.14755E+01 -9.16735E+01 -8.81639E+01 -9.07256E+01 -9.62348E+01
  -9.74609E+01 -1.01726E+02 -1.05224E+02 -1.09474E+02 -1.08687E+02 -1.08204E+02 -1.03990E+02 -1.05761E+02 -1.07024E+02 -1.02550E+02
  -1.02142E+02 -9.82089E+01 -1.02086E+02 -1.03748E+02 -1.02151E+02 -1.02898E+02 -9.90530E+01 -9.94055E+01 -9.53937E+01 -9.22751E+01
  -9.77812E+01 -1.00125E+02 -9.22837E+01 -9.56584E+01 -9.01667E+01 -9.90319E+01 -9.98706E+01 -9.28000E+01 -9.95514E+01 -9.33158E+01
  -9.51814E+01 -9.35014E+01 -8.95853E+01 -9.21852E+01 -9.05339E+01 -8.82224E+01 -9.02792E+01 -8.90320E+01 -8.28687E+01 -8.32939E+01
  -8.74281E+01 -8.78884E+01 -9.02429E+01 -9.47817E+01 -8.85963E+01 -8.47175E+01 -8.57895E+01 -8.84702E+01 -8.79342E+01 -8.56128E+01
  -9.24138E+01 -8.60178E+01 -8.16556E+01 -8.78955E+01 -8.19883E+01 -8.37574E+01 -8.73503E+01 -7.72950E+01 -8.14874E+01 -8.09661E+01
  -7.82679E+01 -7.71798E+01 -8.28373E+01 -7.73750E+01 -7.18740E+01 -7.47721E+01 -7.18618E+01 -7.86403E+01 -7.66467E+01 -7.49178E+01
  -7.51264E+01 -7.70915E+01 -7.46570E+01 -7.28945E+01 -6.72368E+01 -6.88077E+01 -7.25664E+01 -6.92572E+01 -7.44564E+01 -7.25603E+01
  -7.28989E+01 -6.96574E+01 -6.68094E+01 -6.37738E+01 -6.04634E+01 -5.75344E+01 -5.73447E+01 -5.93120E+01 -6.21664E+01 -6.78440E+01
  -6.22926E+01 -6.53226E+01 -5.71416E+01 -6.21165E+01 -6.27141E+01 -6.12267E+01 -5.68617E+01 -5.51175E+01 -4.87397E+01 -5.03909E+01
  -5.65104E+01 -5.21048E+01 -4.68524E+01 -4.94544E+01 -4.58510E+01 -4.82070E+01 -4.57385E+01 -4.06696E+01 -4.73667E+01 -4.67448E+01
  -3.95734E+01 -4.51091E+01 -3.65633E+01 -3.87154E+01 -3.82899E+01 -3.06942E+01 -2.86810E+01 -3.25830E+01 -2.56406E+01 -3.00744E+01
  -2.65516E+01 -2.71236E+01 -2.80865E+01 -2.73872E+01 -1.79793E+01 -1.22503E+01 -4.24479E+00  3.48384E+00  1.35288E+01  1.29982E+01
   1.10067E+01  4.61691E+00 -3.59028E-01 -1.09948E+01 -1.58439E+01 -3.22757E+01 -2.95592E+01 -3.34089E+01 -3.32850E+01 -3.32884E+01
  -3.76209E+01 -3.52399E+01 -3.45818E+01 -3.65524E+01 -3.95840E+01 -3.86343E+01 -3.97574E+01 -4.55844E+01 -3.32042E+01 -3.55216E+01
  -3.88092E+01 -3.17063E+01 -3.68581E+01 -3.52123E+01 -3.70356E+01 -3.35360E+01 -4.10829E+01 -3.45652E+01 -2.82462E+01 -3.69567E+01
  -3.32475E+01 -3.44789E+01 -3.80031E+01 -3.67256E+01 -3.31433E+01 -3.42462E+01 -3.67439E+01 -3.72968E+01 -3.05496E+01 -3.85885E+01
  -3.72458E+01 -3.54650E+01 -3.99397E+01 -3.97311E+01 -2.85445E+01 -3.48288E+01 -3.68753E+01 -3.52762E+01 -2.84559E+01 -2.97065E+01
  -3.67953E+01 -3.94074E+01 -3.30776E+01 -3.28463E+01 -3.73155E+01 -3.71274E+01 -3.92156E+01 -4.28210E+01 -3.79737E+01 -3.88323E+01
  -3.99039E+01 -3.68362E+01 -3.31214E+01 -3.33723E+01 -3.06493E+01 -3.33974E+01 -2.61479E+01 -2.91930E+01 -2.72534E+01 -2.72243E+01
  -2.70783E+01 -2.33332E+01 -2.17294E+01 -1.45243E+01 -1.83477E+01 -6.64909E+00 -1.20131E+01 -3.76175E+00 -9.93271E+00 -2.22667E+00
  -3.98968E+00 -3.03511E+00  6.54565E-01 -1.50796E+00  4.69718E+00  2.69746E+00  6.82374E+00  7.47916E+00  3.84063E+00  4.19070E+00
   2.95544E+00  7.60392E+00  2.99148E+00  1.04851E+01  1.08138E+01  1.20838E+01  7.99361E+00  4.12668E+00  3.55185E+00  5.79357E+00
  -1.48064E+00 -6.16639E+00 -2.49177E+00  1.07263E+00  1.20078E+00 -3.57141E+00 -5.09084E+00 -9.89069E+00 -7.04420E+00 -1.77940E+00
  -5.14029E+00 -9.20536E+00 -1.14094E+01 -1.09821E+01 -1.13665E+01 -9.98949E+00 -1.31965E+01 -1.37490E+01 -2.54130E+01 -2.14211E+01
  -2.20700E+01 -2.20731E+01 -2.55456E+01 -2.41438E+01 -2.19496E+01 -2.25248E+01 -2.45307E+01 -2.73319E+01 -1.69120E+01 -2.00998E+01
  -1.87332E+01 -2.40136E+01 -2.84219E+01 -2.59609E+01 -2.71846E+01 -2.49919E+01 -2.53858E+01 -2.33676E+01 -2.13360E+01 -2.24760E+01
  -2.42390E+01 -2.62843E+01 -2.65707E+01 -2.70916E+01 -3.40652E+01 -2.88536E+01 -2.96313E+01 -3.66914E+01 -3.01321E+01 -3.09705E+01
  -2.80521E+01 -3.55825E+01 -3.80289E+01 -4.08480E+01 -3.56484E+01 -3.48921E+01 -3.87688E+01 -4.07478E+01 -3.84863E+01 -3.49289E+01
  -3.62400E+01 -4.13303E+01 -4.52671E+01 -4.04592E+01 -4.25525E+01 -4.56836E+01 -3.97022E+01 -4.10812E+01 -4.33677E+01 -4.19960E+01
  -4.55079E+01 -4.40599E+01 -4.90641E+01 -4.33762E+01 -4.46977E+01 -4.11770E+01 -4.58959E+01 -4.64349E+01 -4.21434E+01 -4.51574E+01
  -4.86915E+01 -4.54144E+01 -5.38754E+01 -4.12575E+01 -3.78845E+01 -4.48460E+01 -3.87273E+01 -4.55117E+01 -4.13618E+01 -4.43922E+01
  -4.70918E+01 -4.17529E+01 -4.13527E+01 -4.72340E+01 -4.48403E+01 -4.66929E+01 -4.36086E+01 -4.13133E+01 -4.56066E+01 -4.01197E+01
  -3.70033E+01 -3.74630E+01 -4.10628E+01 -4.64480E+01 -3.56449E+01 -4.13631E+01 -4.02823E+01 -4.03991E+01 -3.65532E+01 -4.15266E+01
  -4.21667E+01 -3.71945E+01 -3.97477E+01 -4.60254E+01 -3.39960E+01 -3.78290E+01 -3.85681E+01 -4.38747E+01 -3.87383E+01 -3.88162E+01
  -3.47582E+01 -3.56146E+01 -3.95433E+01 -3.74890E+01 -3.31387E+01 -3.34122E+01 -3.20852E+01 -3.32130E+01 -3.38629E+01 -3.13592E+01
  -3.40177E+01 -3.02998E+01 -3.10027E+01 -2.88680E+01 -3.14995E+01 -3.45500E+01 -3.07732E+01 -3.54995E+01
 NY points of the fit to the data follow
  -2.97927E+02 -2.95584E+02 -2.93294E+02 -2.91379E+02 -2.89214E+02 -2.85598E+02 -2.80975E+02 -2.76430E+02 -2.71739E+02 -2.67387E+02
  -2.64102E+02 -2.61823E+02 -2.60111E+02 -2.58864E+02 -2.58362E+02 -2.58522E+02 -2.58374E+02 -2.56975E+02 -2.54723E+02 -2.52353E+02
  -2.50060E+02 -2.47759E+02 -2.45556E+02 -2.43355E+02 -2.40102E+02 -2.36217E+02 -2.32559E+02 -2.28587E+02 -2.24510E+02 -2.21052E+02
  -2.18518E+02 -2.16568E+02 -2.15270E+02 -2.14983E+02 -2.15538E+02 -2.16084E+02 -2.15843E+02 -2.14849E+02 -2.13492E+02 -2.11630E+02
  -2.08690E+02 -2.04677E+02 -2.00400E+02 -1.96421E+02 -1.93058E+02 -1.90824E+02 -1.89800E+02 -1.89541E+02 -1.89593E+02 -1.89779E+02
  -1.90076E+02 -1.90213E+02 -1.89457E+02 -1.87504E+02 -1.84974E+02 -1.82347E+02 -1.79920E+02 -1.77866E+02 -1.76277E+02 -1.75162E+02
  -1.74345E+02 -1.73612E+02 -1.72881E+02 -1.72070E+02 -1.71033E+02 -1.69536E+02 -1.67716E+02 -1.65814E+02 -1.63978E+02 -1.62345E+02
  -1.60997E+02 -1.59912E+02 -1.58965E+02 -1.58070E+02 -1.57195E+02 -1.56344E+02 -1.55463E+02 -1.54470E+02 -1.53388E+02 -1.52266E+02
  -1.51006E+02 -1.49580E+02 -1.48433E+02 -1.47444E+02 -1.46556E+02 -1.45868E+02 -1.45286E+02 -1.44597E+02 -1.43776E+02 -1.42857E+02
  -1.41845E+02 -1.40859E+02 -1.39802E+02 -1.38749E+02 -1.37862E+02 -1.36887E+02 -1.34409E+02 -1.29252E+02 -1.23965E+02 -1.19002E+02
  -1.14508E+02 -1.11752E+02 -1.11222E+02 -1.12256E+02 -1.14275E+02 -1.17123E+02 -1.20600E+02 -1.23987E+02 -1.25697E+02 -1.25451E+02
  -1.24482E+02 -1.23549E+02 -1.22656E+02 -1.21769E+02 -1.20929E+02 -1.20105E+02 -1.19273E+02 -1.18448E+02 -1.17566E+02 -1.16484E+02
  -1.14726E+02 -1.10694E+02 -1.05537E+02 -1.00843E+02 -9.64237E+01 -9.30580E+01 -9.16539E+01 -9.17979E+01 -9.27387E+01 -9.45691E+01
  -9.73412E+01 -1.00739E+02 -1.03693E+02 -1.05113E+02 -1.05318E+02 -1.05190E+02 -1.04769E+02 -1.04072E+02 -1.03150E+02 -1.01977E+02
  -1.00667E+02 -9.95259E+01 -9.87099E+01 -9.81916E+01 -9.79546E+01 -9.78781E+01 -9.78103E+01 -9.76607E+01 -9.74247E+01 -9.71562E+01
  -9.68551E+01 -9.64820E+01 -9.60479E+01 -9.55918E+01 -9.51816E+01 -9.49182E+01 -9.47178E+01 -9.45088E+01 -9.42523E+01 -9.38156E+01
  -9.33127E+01 -9.27853E+01 -9.22265E+01 -9.16960E+01 -9.12140E+01 -9.07622E+01 -9.04011E+01 -9.01816E+01 -9.00490E+01 -8.99579E+01
  -8.99198E+01 -8.98487E+01 -8.96265E+01 -8.93540E+01 -8.90370E+01 -8.87217E+01 -8.83782E+01 -8.79979E+01 -8.75730E+01 -8.71012E+01
  -8.66427E+01 -8.63118E+01 -8.60349E+01 -8.56066E+01 -8.48633E+01 -8.37069E+01 -8.22917E+01 -8.08997E+01 -7.96621E+01 -7.85759E+01
  -7.76848E+01 -7.71111E+01 -7.71221E+01 -7.74175E+01 -7.76605E+01 -7.77758E+01 -7.75840E+01 -7.68880E+01 -7.57245E+01 -7.44018E+01
  -7.30187E+01 -7.16439E+01 -7.05244E+01 -6.97570E+01 -6.95690E+01 -6.98560E+01 -7.02812E+01 -7.08554E+01 -7.12788E+01 -7.10920E+01
  -6.99799E+01 -6.77624E+01 -6.53082E+01 -6.29466E+01 -6.09525E+01 -5.98277E+01 -5.99550E+01 -6.13085E+01 -6.32293E+01 -6.49857E+01
  -6.62516E+01 -6.65817E+01 -6.53462E+01 -6.28906E+01 -6.00821E+01 -5.74406E+01 -5.51769E+01 -5.32992E+01 -5.20262E+01 -5.14502E+01
  -5.10479E+01 -5.01868E+01 -4.88029E+01 -4.73141E+01 -4.58915E+01 -4.46527E+01 -4.37511E+01 -4.34222E+01 -4.35474E+01 -4.35374E+01
  -4.30277E+01 -4.21028E+01 -4.07000E+01 -3.86763E+01 -3.63680E+01 -3.42714E+01 -3.26226E+01 -3.13750E+01 -3.04678E+01 -2.98952E+01
  -2.94392E+01 -2.88438E+01 -2.79706E+01 -2.63046E+01 -2.04917E+01 -1.10852E+01 -2.59458E+00  5.06955E+00  1.08622E+01  1.25525E+01
   1.01374E+01  5.30514E+00 -1.10594E+00 -9.06157E+00 -1.82425E+01 -2.65380E+01 -3.12174E+01 -3.28753E+01 -3.37602E+01 -3.46209E+01
  -3.52820E+01 -3.57295E+01 -3.60672E+01 -3.63412E+01 -3.65689E+01 -3.68214E+01 -3.71190E+01 -3.74428E+01 -3.77977E+01 -3.81412E+01
  -3.83932E+01 -3.85182E+01 -3.85182E+01 -3.84065E+01 -3.82034E+01 -3.79287E+01 -3.76036E+01 -3.72516E+01 -3.68890E+01 -3.65211E+01
  -3.61550E+01 -3.57947E+01 -3.54451E+01 -3.51172E+01 -3.48234E+01 -3.45727E+01 -3.43727E+01 -3.42301E+01 -3.41480E+01 -3.41289E+01
  -3.41735E+01 -3.42785E+01 -3.44381E+01 -3.46452E+01 -3.48907E+01 -3.51639E+01 -3.54532E+01 -3.57467E+01 -3.60331E+01 -3.63002E+01
  -3.65362E+01 -3.67303E+01 -3.68728E+01 -3.69542E+01 -3.69651E+01 -3.68961E+01 -3.67369E+01 -3.64762E+01 -3.60997E+01 -3.55853E+01
  -3.48857E+01 -3.39276E+01 -3.29055E+01 -3.19739E+01 -3.10530E+01 -3.01863E+01 -2.93980E+01 -2.85927E+01 -2.76912E+01 -2.65036E+01
  -2.48763E+01 -2.29312E+01 -2.06056E+01 -1.79274E+01 -1.52063E+01 -1.26681E+01 -1.03150E+01 -8.12723E+00 -6.13714E+00 -4.39360E+00
  -2.85740E+00 -1.33672E+00  1.50861E-01  1.45638E+00  2.56486E+00  3.44378E+00  4.07495E+00  4.50692E+00  4.80444E+00  5.10537E+00
   5.42532E+00  5.72862E+00  6.07341E+00  6.43872E+00  6.67919E+00  6.70756E+00  6.53741E+00  6.18260E+00  5.63251E+00  4.87127E+00
   3.94362E+00  2.93322E+00  1.85971E+00  6.97537E-01 -5.60696E-01 -1.90563E+00 -3.32488E+00 -4.80376E+00 -6.32597E+00 -7.87390E+00
  -9.42933E+00 -1.09737E+01 -1.24889E+01 -1.39572E+01 -1.53626E+01 -1.66901E+01 -1.79267E+01 -1.90614E+01 -2.00851E+01 -2.09911E+01
  -2.17752E+01 -2.24356E+01 -2.29732E+01 -2.33912E+01 -2.36955E+01 -2.38945E+01 -2.39992E+01 -2.40227E+01 -2.39805E+01 -2.38893E+01
  -2.37675E+01 -2.36344E+01 -2.35093E+01 -2.34115E+01 -2.33588E+01 -2.33676E+01 -2.34519E+01 -2.36232E+01 -2.38894E+01 -2.42553E+01
  -2.47219E+01 -2.52866E+01 -2.59437E+01 -2.66848E+01 -2.74989E+01 -2.83731E+01 -2.92935E+01 -3.02456E+01 -3.12150E+01 -3.21879E+01
  -3.31518E+01 -3.40951E+01 -3.50083E+01 -3.58833E+01 -3.67140E+01 -3.74960E+01 -3.82266E+01 -3.89041E+01 -3.95284E+01 -4.01004E+01
  -4.06216E+01 -4.10943E+01 -4.15210E+01 -4.19045E+01 -4.22477E+01 -4.25536E+01 -4.28250E+01 -4.30646E+01 -4.32750E+01 -4.34583E+01
  -4.36169E+01 -4.37526E+01 -4.38672E+01 -4.39622E+01 -4.40389E+01 -4.40985E+01 -4.41422E+01 -4.41710E+01 -4.41856E+01 -4.41867E+01
  -4.41751E+01 -4.41511E+01 -4.41155E+01 -4.40687E+01 -4.40110E+01 -4.39427E+01 -4.38642E+01 -4.37757E+01 -4.36775E+01 -4.35699E+01
  -4.34530E+01 -4.33268E+01 -4.31917E+01 -4.30478E+01 -4.28954E+01 -4.27348E+01 -4.25663E+01 -4.23902E+01 -4.22067E+01 -4.20162E+01
  -4.18190E+01 -4.16151E+01 -4.14050E+01 -4.11887E+01 -4.09667E+01 -4.07390E+01 -4.05061E+01 -4.02679E+01 -4.00247E+01 -3.97768E+01
  -3.95244E+01 -3.92677E+01 -3.90069E+01 -3.87421E+01 -3.84736E+01 -3.82015E+01 -3.79262E+01 -3.76477E+01 -3.73662E+01 -3.70819E+01
  -3.67950E+01 -3.65058E+01 -3.62143E+01 -3.59208E+01 -3.56254E+01 -3.53283E+01 -3.50297E+01 -3.47298E+01 -3.44288E+01 -3.41267E+01
  -3.38239E+01 -3.35204E+01 -3.32164E+01 -3.29122E+01 -3.26079E+01 -3.23036E+01 -3.19995E+01 -3.16958E+01
 NY background values follow
    -3.001E+02   -2.977E+02   -2.953E+02   -2.929E+02   -2.905E+02   -2.881E+02   -2.858E+02   -2.834E+02   -2.810E+02   -2.787E+02
    -2.763E+02   -2.740E+02   -2.716E+02   -2.693E+02   -2.670E+02   -2.647E+02   -2.624E+02   -2.601E+02   -2.578E+02   -2.555E+02
    -2.533E+02   -2.510E+02   -2.488E+02   -2.466E+02   -2.444E+02   -2.422E+02   -2.400E+02   -2.379E+02   -2.358E+02   -2.336E+02
    -2.315E+02   -2.295E+02   -2.274E+02   -2.253E+02   -2.233E+02   -2.213E+02   -2.193E+02   -2.174E+02   -2.154E+02   -2.135E+02
    -2.116E+02   -2.097E+02   -2.078E+02   -2.060E+02   -2.042E+02   -2.024E+02   -2.007E+02   -1.989E+02   -1.972E+02   -1.955E+02
    -1.939E+02   -1.922E+02   -1.906E+02   -1.890E+02   -1.875E+02   -1.859E+02   -1.844E+02   -1.829E+02   -1.814E+02   -1.799E+02
    -1.785E+02   -1.771E+02   -1.757E+02   -1.743E+02   -1.730E+02   -1.716E+02   -1.703E+02   -1.690E+02   -1.677E+02   -1.665E+02
    -1.652E+02   -1.640E+02   -1.628E+02   -1.616E+02   -1.604E+02   -1.593E+02   -1.581E+02   -1.570E+02   -1.559E+02   -1.548E+02
    -1.537E+02   -1.526E+02   -1.516E+02   -1.506E+02   -1.495E+02   -1.485E+02   -1.475E+02   -1.465E+02   -1.456E+02   -1.446E+02
    -1.437E+02   -1.427E+02   -1.418E+02   -1.409E+02   -1.400E+02   -1.391E+02   -1.382E+02   -1.373E+02   -1.365E+02   -1.356E+02
    -1.348E+02   -1.340E+02   -1.331E+02   -1.323E+02   -1.315E+02   -1.307E+02   -1.300E+02   -1.292E+02   -1.284E+02   -1.277E+02
    -1.269E+02   -1.262E+02   -1.254E+02   -1.247E+02   -1.240E+02   -1.233E+02   -1.226E+02   -1.219E+02   -1.212E+02   -1.205E+02
    -1.199E+02   -1.192E+02   -1.185E+02   -1.179E+02   -1.172E+02   -1.166E+02   -1.159E+02   -1.153E+02   -1.147E+02   -1.140E+02
    -1.134E+02   -1.128E+02   -1.122E+02   -1.116E+02   -1.110E+02   -1.104E+02   -1.098E+02   -1.092E+02   -1.086E+02   -1.080E+02
    -1.074E+02   -1.069E+02   -1.063E+02   -1.057E+02   -1.051E+02   -1.046E+02   -1.040E+02   -1.035E+02   -1.029E+02   -1.023E+02
    -1.018E+02   -1.013E+02   -1.007E+02   -1.002E+02   -9.963E+01   -9.909E+01   -9.856E+01   -9.803E+01   -9.750E+01   -9.697E+01
    -9.645E+01   -9.593E+01   -9.541E+01   -9.489E+01   -9.438E+01   -9.387E+01   -9.336E+01   -9.285E+01   -9.235E+01   -9.185E+01
    -9.134E+01   -9.085E+01   -9.035E+01   -8.985E+01   -8.936E+01   -8.887E+01   -8.838E+01   -8.789E+01   -8.741E+01   -8.692E+01
    -8.644E+01   -8.596E+01   -8.548E+01   -8.500E+01   -8.452E+01   -8.405E+01   -8.357E+01   -8.310E+01   -8.263E+01   -8.216E+01
    -8.169E+01   -8.122E+01   -8.076E+01   -8.030E+01   -7.983E+01   -7.937E+01   -7.891E+01   -7.846E+01   -7.800E+01   -7.755E+01
    -7.709E+01   -7.664E+01   -7.619E+01   -7.574E+01   -7.530E+01   -7.485E+01   -7.441E+01   -7.397E+01   -7.352E+01   -7.309E+01
    -7.265E+01   -7.221E+01   -7.178E+01   -7.134E+01   -7.091E+01   -7.048E+01   -7.005E+01   -6.962E+01   -6.920E+01   -6.877E+01
    -6.835E+01   -6.793E+01   -6.751E+01   -6.709E+01   -6.668E+01   -6.626E+01   -6.585E+01   -6.544E+01   -6.502E+01   -6.462E+01
    -6.421E+01   -6.380E+01   -6.340E+01   -6.300E+01   -6.260E+01   -6.221E+01   -6.182E+01   -6.143E+01   -6.104E+01   -6.066E+01
    -6.028E+01   -5.990E+01   -5.953E+01   -5.916E+01   -5.879E+01   -5.843E+01   -5.807E+01   -5.772E+01   -5.737E+01   -5.702E+01
    -5.668E+01   -5.635E+01   -5.602E+01   -5.569E+01   -5.537E+01   -5.506E+01   -5.475E+01   -5.444E+01   -5.414E+01   -5.385E+01
    -5.356E+01   -5.328E+01   -5.301E+01   -5.274E+01   -5.247E+01   -5.222E+01   -5.197E+01   -5.173E+01   -5.149E+01   -5.126E+01
    -5.104E+01   -5.083E+01   -5.062E+01   -5.043E+01   -5.023E+01   -5.005E+01   -4.987E+01   -4.970E+01   -4.954E+01   -4.938E+01
    -4.923E+01   -4.908E+01   -4.895E+01   -4.881E+01   -4.868E+01   -4.856E+01   -4.845E+01   -4.834E+01   -4.823E+01   -4.813E+01
    -4.803E+01   -4.794E+01   -4.785E+01   -4.777E+01   -4.769E+01   -4.762E+01   -4.755E+01   -4.748E+01   -4.742E+01   -4.736E+01
    -4.730E+01   -4.725E+01   -4.720E+01   -4.715E+01   -4.711E+01   -4.707E+01   -4.703E+01   -4.699E+01   -4.696E+01   -4.692E+01
    -4.689E+01   -4.686E+01   -4.683E+01   -4.681E+01   -4.678E+01   -4.676E+01   -4.673E+01   -4.671E+01   -4.669E+01   -4.667E+01
    -4.665E+01   -4.663E+01   -4.661E+01   -4.659E+01   -4.658E+01   -4.656E+01   -4.655E+01   -4.653E+01   -4.652E+01   -4.651E+01
    -4.650E+01   -4.649E+01   -4.649E+01   -4.648E+01   -4.648E+01   -4.647E+01   -4.647E+01   -4.647E+01   -4.647E+01   -4.648E+01
    -4.648E+01   -4.649E+01   -4.650E+01   -4.651E+01   -4.652E+01   -4.653E+01   -4.655E+01   -4.657E+01   -4.659E+01   -4.661E+01
    -4.663E+01   -4.666E+01   -4.669E+01   -4.672E+01   -4.675E+01   -4.678E+01   -4.682E+01   -4.686E+01   -4.690E+01   -4.694E+01
    -4.699E+01   -4.704E+01   -4.709E+01   -4.714E+01   -4.720E+01   -4.726E+01   -4.732E+01   -4.738E+01   -4.744E+01   -4.751E+01
    -4.758E+01   -4.764E+01   -4.771E+01   -4.778E+01   -4.786E+01   -4.793E+01   -4.800E+01   -4.807E+01   -4.815E+01   -4.822E+01
    -4.830E+01   -4.837E+01   -4.844E+01   -4.852E+01   -4.859E+01   -4.866E+01   -4.873E+01   -4.881E+01   -4.888E+01   -4.894E+01
    -4.901E+01   -4.908E+01   -4.914E+01   -4.920E+01   -4.926E+01   -4.932E+01   -4.938E+01   -4.943E+01   -4.949E+01   -4.954E+01
    -4.958E+01   -4.963E+01   -4.967E+01   -4.970E+01   -4.974E+01   -4.977E+01   -4.980E+01   -4.982E+01   -4.984E+01   -4.986E+01
    -4.987E+01   -4.988E+01   -4.988E+01   -4.988E+01   -4.988E+01   -4.987E+01   -4.986E+01   -4.984E+01   -4.982E+01   -4.979E+01
    -4.976E+01   -4.973E+01   -4.969E+01   -4.965E+01   -4.960E+01   -4.955E+01   -4.949E+01   -4.943E+01   -4.936E+01   -4.929E+01
    -4.921E+01   -4.913E+01   -4.904E+01   -4.895E+01   -4.885E+01   -4.875E+01   -4.864E+01   -4.853E+01   -4.841E+01   -4.829E+01
    -4.816E+01   -4.802E+01   -4.788E+01   -4.774E+01   -4.758E+01   -4.743E+01   -4.726E+01   -4.709E+01   -4.692E+01   -4.674E+01
    -4.655E+01   -4.636E+01   -4.616E+01   -4.595E+01   -4.574E+01   -4.552E+01   -4.530E+01   -4.507E+01   -4.484E+01   -4.460E+01
    -4.436E+01   -4.411E+01   -4.385E+01   -4.359E+01   -4.333E+01   -4.306E+01   -4.279E+01   -4.252E+01   -4.224E+01   -4.196E+01
    -4.167E+01   -4.138E+01   -4.109E+01   -4.079E+01   -4.050E+01   -4.019E+01   -3.989E+01   -3.959E+01   -3.928E+01   -3.897E+01
    -3.865E+01   -3.834E+01   -3.803E+01   -3.771E+01   -3.739E+01   -3.707E+01   -3.675E+01   -3.643E+01   -3.611E+01   -3.578E+01
    -3.546E+01   -3.514E+01   -3.482E+01   -3.449E+01   -3.417E+01   -3.385E+01   -3.353E+01   -3.321E+01
 Ala      Conc. = 1.21E+02
