 LCModel (Version 6.3-1L) Copyright: S.W. Provencher.          Ref.: Magn. Reson. Med. 30:672-679 (1993).                
 Slice#2 Row#3 Col#8  PD_05_press_2_raw_act
 36 lines in following concentration table = NCONC+1
    Conc.  %SD /Cr+PCr  Metabolite                                         
  696.779  46%   0.259 Ala                                                 
    0.000 999%   0.000 Asp                                                 
 2.13E+03  21%   0.791 Cr                                                  
  563.325  79%   0.209 PCr                                                 
  240.557 138% 8.9E-02 GABA                                                
    5.978 999% 2.2E-03 Glc                                                 
 1.23E+03  55%   0.456 Gln                                                 
 3.20E+03  24%   1.188 Glu                                                 
  952.781   6%   0.354 GPC                                                 
    0.000 999%   0.000 PCh                                                 
 1.16E+03  18%   0.429 GSH                                                 
 2.94E+03  24%   1.092 Ins                                                 
  531.885  68%   0.198 Lac                                                 
 3.38E+03  10%   1.257 NAA                                                 
 1.88E+03  18%   0.700 NAAG                                                
   65.271 103% 2.4E-02 Scyllo                                              
    0.000 999%   0.000 Tau                                                 
    0.000 999%   0.000 -CrCH2                                              
  952.781   6%   0.354 GPC+PCh                                             
 5.27E+03   4%   1.957 NAA+NAAG                                            
 2.69E+03   6%   1.000 Cr+PCr                                              
 4.42E+03  25%   1.644 Glu+Gln                                             
 3.03E+03  38%   1.125 Lip13a                                              
    0.000 999%   0.000 Lip13b                                              
  789.703  53%   0.293 Lip09                                               
 2.03E+03  27%   0.754 MM09                                                
  437.466  60%   0.163 Lip20                                               
 2.44E+03  38%   0.908 MM20                                                
  662.331  62%   0.246 MM12                                                
 3.38E+03  24%   1.255 MM14                                                
 1.64E+03  30%   0.611 MM17                                                
 3.03E+03  38%   1.125 Lip13a+Lip13b                                       
 7.07E+03  12%   2.626 MM14+Lip13a+Lip13b+MM12                             
 2.82E+03  15%   1.048 MM09+Lip09                                          
 2.88E+03  32%   1.071 MM20+Lip20                                          
   6 lines in following misc. output table
  FWHM = 0.054 ppm    S/N =   8                                            
  Data shift = 0.054 ppm                                                   
  Ph:   4 deg      13.8 deg/ppm                                            
  alphaB,S = 2.8E+00,   2.3E+01                                            
   14 spline knots.   Ns = 7(1)                                            
  (12) 7 infls.   (11) 3 extrs.                                            
  498 points on ppm-axis = NY
      4.000000     3.992357     3.984714     3.977070     3.969427     3.961784     3.954141     3.946497     3.938854     3.931211
      3.923568     3.915925     3.908281     3.900638     3.892995     3.885352     3.877708     3.870065     3.862422     3.854779
      3.847136     3.839492     3.831849     3.824206     3.816563     3.808919     3.801276     3.793633     3.785990     3.778347
      3.770703     3.763060     3.755417     3.747774     3.740130     3.732487     3.724844     3.717201     3.709558     3.701914
      3.694271     3.686628     3.678985     3.671341     3.663698     3.656055     3.648412     3.640769     3.633125     3.625482
      3.617839     3.610196     3.602552     3.594909     3.587266     3.579623     3.571980     3.564336     3.556693     3.549050
      3.541407     3.533763     3.526120     3.518477     3.510834     3.503191     3.495547     3.487904     3.480261     3.472618
      3.464974     3.457331     3.449688     3.442045     3.434402     3.426758     3.419115     3.411472     3.403829     3.396185
      3.388542     3.380899     3.373256     3.365613     3.357969     3.350326     3.342683     3.335040     3.327396     3.319753
      3.312110     3.304467     3.296824     3.289180     3.281537     3.273894     3.266251     3.258607     3.250964     3.243321
      3.235678     3.228034     3.220391     3.212748     3.205105     3.197462     3.189818     3.182175     3.174532     3.166889
      3.159245     3.151602     3.143959     3.136316     3.128673     3.121029     3.113386     3.105743     3.098100     3.090456
      3.082813     3.075170     3.067527     3.059884     3.052240     3.044597     3.036954     3.029311     3.021667     3.014024
      3.006381     2.998738     2.991095     2.983451     2.975808     2.968165     2.960522     2.952878     2.945235     2.937592
      2.929949     2.922306     2.914662     2.907019     2.899376     2.891733     2.884089     2.876446     2.868803     2.861160
      2.853517     2.845873     2.838230     2.830587     2.822944     2.815300     2.807657     2.800014     2.792371     2.784728
      2.777084     2.769441     2.761798     2.754155     2.746511     2.738868     2.731225     2.723582     2.715939     2.708295
      2.700652     2.693009     2.685366     2.677722     2.670079     2.662436     2.654793     2.647150     2.639506     2.631863
      2.624220     2.616577     2.608933     2.601290     2.593647     2.586004     2.578361     2.570717     2.563074     2.555431
      2.547788     2.540144     2.532501     2.524858     2.517215     2.509572     2.501928     2.494285     2.486642     2.478999
      2.471355     2.463712     2.456069     2.448426     2.440783     2.433139     2.425496     2.417853     2.410210     2.402566
      2.394923     2.387280     2.379637     2.371994     2.364350     2.356707     2.349064     2.341421     2.333777     2.326134
      2.318491     2.310848     2.303205     2.295561     2.287918     2.280275     2.272632     2.264988     2.257345     2.249702
      2.242059     2.234416     2.226772     2.219129     2.211486     2.203843     2.196199     2.188556     2.180913     2.173270
      2.165627     2.157983     2.150340     2.142697     2.135054     2.127410     2.119767     2.112124     2.104481     2.096838
      2.089194     2.081551     2.073908     2.066265     2.058621     2.050978     2.043335     2.035692     2.028049     2.020405
      2.012762     2.005119     1.997476     1.989833     1.982190     1.974546     1.966903     1.959260     1.951617     1.943974
      1.936331     1.928688     1.921045     1.913402     1.905759     1.898115     1.890472     1.882829     1.875186     1.867543
      1.859900     1.852257     1.844614     1.836971     1.829327     1.821684     1.814041     1.806398     1.798755     1.791112
      1.783469     1.775826     1.768183     1.760540     1.752896     1.745253     1.737610     1.729967     1.722324     1.714681
      1.707038     1.699395     1.691752     1.684108     1.676465     1.668822     1.661179     1.653536     1.645893     1.638250
      1.630607     1.622964     1.615321     1.607677     1.600034     1.592391     1.584748     1.577105     1.569462     1.561819
      1.554176     1.546533     1.538890     1.531246     1.523603     1.515960     1.508317     1.500674     1.493031     1.485388
      1.477745     1.470102     1.462458     1.454815     1.447172     1.439529     1.431886     1.424243     1.416600     1.408957
      1.401314     1.393671     1.386027     1.378384     1.370741     1.363098     1.355455     1.347812     1.340169     1.332526
      1.324883     1.317240     1.309596     1.301953     1.294310     1.286667     1.279024     1.271381     1.263738     1.256095
      1.248452     1.240808     1.233165     1.225522     1.217879     1.210236     1.202593     1.194950     1.187307     1.179664
      1.172021     1.164377     1.156734     1.149091     1.141448     1.133805     1.126162     1.118519     1.110876     1.103233
      1.095590     1.087946     1.080303     1.072660     1.065017     1.057374     1.049731     1.042088     1.034445     1.026802
      1.019158     1.011515     1.003872     0.996229     0.988586     0.980943     0.973300     0.965657     0.958014     0.950371
      0.942727     0.935084     0.927441     0.919798     0.912155     0.904512     0.896869     0.889226     0.881583     0.873940
      0.866296     0.858653     0.851010     0.843367     0.835724     0.828081     0.820438     0.812795     0.805152     0.797508
      0.789865     0.782222     0.774579     0.766936     0.759293     0.751650     0.744007     0.736364     0.728721     0.721077
      0.713434     0.705791     0.698148     0.690505     0.682862     0.675219     0.667576     0.659933     0.652290     0.644646
      0.637003     0.629360     0.621717     0.614074     0.606431     0.598788     0.591145     0.583502     0.575858     0.568215
      0.560572     0.552929     0.545286     0.537643     0.530000     0.522357     0.514714     0.507071     0.499427     0.491784
      0.484141     0.476498     0.468855     0.461212     0.453569     0.445925     0.438282     0.430639     0.422996     0.415353
      0.407710     0.400067     0.392424     0.384780     0.377137     0.369494     0.361851     0.354208     0.346565     0.338922
      0.331278     0.323635     0.315992     0.308349     0.300706     0.293063     0.285420     0.277777     0.270133     0.262490
      0.254847     0.247204     0.239561     0.231918     0.224275     0.216631     0.208988     0.201345
 NY phased data points follow
   7.89649E+01  5.95077E+01  6.69085E+01  6.37720E+01  7.61312E+01  6.00290E+01  7.23539E+01  6.56276E+01  9.34486E+01  9.32139E+01
   9.10782E+01  1.15601E+02  1.22859E+02  7.90164E+01  8.31211E+01  9.13847E+01  7.96289E+01  6.84500E+01  7.58672E+01  4.76950E+01
   5.37105E+01  6.09653E+01  5.55847E+01  6.43828E+01  6.96944E+01  5.00910E+01  4.41750E+01  5.67319E+01  6.94812E+01  5.67637E+01
   6.48241E+01  6.96680E+01  5.85229E+01  4.70684E+01  3.91368E+01  3.13765E+01  5.25674E+01  5.23282E+01  5.04204E+01  3.36974E+01
   4.85514E+01  5.17753E+01  4.29536E+01  5.34865E+01  6.14889E+01  5.55794E+01  5.74637E+01  5.42312E+01  6.73850E+01  4.37913E+01
   5.63568E+01  3.94817E+01  5.83089E+01  6.03980E+01  3.46567E+01  4.75205E+01  4.33390E+01  4.18409E+01  4.52745E+01  3.37732E+01
   5.01230E+01  4.27229E+01  4.58084E+01  2.14985E+01  3.57344E+01  3.79211E+01  3.60606E+01  1.86776E+01  2.55498E+01  1.64724E+01
   1.89004E+01  2.31411E+01  7.40582E+00  2.44461E+01  1.72320E+01  2.63587E+01  3.23938E+01  2.12288E+01  2.76647E+01  1.82125E+01
   1.70573E+01  3.39298E+01  1.46551E+01  2.72423E+01  2.88405E+01  2.14720E+01  2.71034E+01  2.34454E+01  2.54910E+01  2.03824E+01
   1.34897E+01  3.11620E+01  3.12732E+01  2.78147E+01  3.12574E+01  2.61309E+01  3.55287E+01  1.74653E+01  3.73207E+01  5.23150E+01
   6.35824E+01  8.77509E+01  1.01969E+02  9.91489E+01  1.14135E+02  8.48090E+01  9.03024E+01  6.17786E+01  2.72751E+01  3.42649E+01
   2.95503E+01  2.28897E+01  2.03883E+01  1.62941E+01  2.07517E+01  1.50890E+01  1.45524E+01  2.63782E+01  3.71052E+01  2.46448E+01
   2.70456E+01  5.11199E+00  3.77686E+01  4.09087E+01  5.53834E+01  7.23092E+01  9.13397E+01  9.66541E+01  9.22697E+01  8.62570E+01
   8.78030E+01  6.58709E+01  5.33262E+01  4.99594E+01  2.61134E+01  2.83651E+01  4.16958E+00  1.47611E+01  1.90597E+01  1.99860E+01
   2.05237E+01  1.85335E+01  2.79486E+01  3.42409E+01  2.70441E+01  1.14560E+01  2.51120E+01  2.04467E+01  1.97242E+01  1.82519E+01
   2.50569E+01  1.07306E+01  4.80392E+00  8.15470E+00  1.82168E+01  1.17883E+01  1.65775E+01  1.41585E+01 -3.04716E+00  1.77473E-01
   2.04809E+00  2.42397E+00 -5.70468E+00 -7.91824E+00  1.66907E+01 -1.13556E+01  1.11926E+01 -3.56442E+00  8.67567E+00 -6.57915E+00
   3.78330E-02  6.53734E+00 -1.99289E+01 -6.70406E+00 -2.79673E+01  7.61169E+00 -4.41210E+00 -8.74310E+00 -1.72649E+01 -1.78666E+01
  -8.45501E+00 -2.05403E+01 -1.02820E+01 -1.71093E+01 -1.53739E+01 -1.15069E+01 -7.54326E+00 -9.62880E+00 -1.64980E+01 -1.60815E+00
   3.42227E+00 -8.34825E+00  3.50980E+00  8.13912E+00  3.31000E+00  6.64511E+00 -2.50075E+00 -9.27262E+00 -7.89672E-01 -5.86438E+00
  -5.06978E+00 -6.86149E+00  5.22147E+00  5.18453E+00  3.64793E+00 -2.07105E+00 -1.37393E+00  1.23956E+01 -1.38227E+01  6.48733E+00
  -1.35338E+01 -3.29972E+00 -5.23413E+00  5.44179E+00  1.88139E+01  9.68152E+00  2.01437E+01  1.52290E+01  1.68400E+01 -1.05931E+00
  -1.01730E+00  1.14658E+01 -1.85888E+01 -1.50599E+01 -1.96404E+01  8.31391E+00  1.28111E+01  1.05466E+01  1.60669E+01  2.64764E+01
   1.46950E+01 -1.41589E+01  2.04667E+01  1.45069E+00  1.82246E+01 -1.73322E-01  1.42967E+01  5.10926E+00 -5.42404E+00  1.73415E+01
   6.69139E+00  3.42690E+00 -7.53711E+00 -2.16107E+00  2.26618E+01 -3.36252E+00  8.75191E+00  1.62947E+01  2.87407E+01  1.89407E+01
   1.92585E+01  3.07829E+01  4.37121E+01  6.95321E+01  7.92180E+01  6.82555E+01  1.02141E+02  1.27800E+02  1.48809E+02  1.51203E+02
   1.60249E+02  1.13884E+02  1.16364E+02  9.85732E+01  5.55580E+01  3.60016E+01  2.76732E+01  2.21300E+01 -1.40742E+01 -4.68606E+00
  -3.69585E+00  8.95997E+00 -1.22695E+01 -7.86155E+00 -5.43541E+00 -3.02938E-02 -1.00320E+01  5.86503E+00 -4.64141E+00  6.86452E+00
  -4.57062E+00 -9.71166E+00 -1.34196E+00 -2.21340E+00 -2.64699E-01 -3.53315E+00 -9.01435E+00 -5.20005E+00  1.21663E+01  7.32250E+00
  -3.15416E+00  8.94496E+00  2.24681E+01  2.21150E+00 -7.72019E+00  5.07747E+00  1.86216E+00 -4.71634E+00  6.31828E+00  4.95446E+00
   7.94011E+00  6.81761E+00  2.22063E+00 -4.94920E+00 -6.98346E+00 -8.93655E-01  7.11972E+00  1.06869E+01  5.85848E+00  7.91592E+00
   1.55784E+01  4.51614E+00 -4.18657E+00 -2.27937E+00  4.11452E+00  1.10857E+01  2.86756E+00  1.18455E+01 -4.46804E-01 -2.21694E+00
   9.34123E+00  1.94096E-01  1.94156E+00  1.34504E+01 -1.91997E+00 -8.58260E-01  2.83474E+00 -2.05171E+00  2.04950E+01  1.74288E+01
  -5.99562E+00 -6.02077E+00  9.38500E+00  3.15022E+00  5.23998E+00  1.03093E+01  1.60583E+01  8.78924E+00  1.45694E+01  3.00071E+01
   2.65535E+01  2.27147E+01  2.48661E+01  3.04377E+01  1.36865E+01  1.56377E+01  2.45133E+01  3.76551E+01  1.18580E+01  1.81579E+01
   1.95065E+01  9.89744E-01  6.15142E+00  7.18302E+00 -1.30772E+00  2.79798E+00  1.06256E+01 -7.04000E+00  7.49289E+00 -2.90051E+00
   6.60911E+00  8.63240E+00  8.80872E+00  1.19981E+01  8.57588E+00  1.01819E+01  3.91266E-02 -1.49633E+00  3.18789E+00 -3.49248E+00
   1.46217E+01  1.30317E+00  1.01601E+01 -8.70707E+00  8.20917E+00  4.40910E+00 -2.06304E+01 -1.35281E+00  2.06230E+00  9.02993E+00
  -8.02699E+00  1.84562E+01 -1.48203E+01 -5.97629E-01 -1.37434E+01  9.77245E+00 -6.42241E+00  9.14818E-02 -6.66540E+00  1.03608E+01
  -5.35032E+00 -1.57317E+01 -5.34634E-02 -4.12839E+00  1.69573E+01 -5.52296E+00  3.95283E-01  6.49996E+00  1.17367E+01 -2.47946E+00
   1.00863E+01  1.62436E+01 -5.95846E+00 -2.82385E+00  1.59134E+01  8.97640E+00  9.97933E+00  8.37559E+00 -1.06350E+01 -6.63534E+00
   5.11962E+00 -1.25798E+01  1.52434E+01  1.53232E+01 -4.48632E+00  4.65658E-01 -3.40053E+00  1.21181E+01  1.05609E+01  2.11975E+00
  -8.65911E+00  1.05249E+00 -3.11109E+00 -1.16217E+01 -1.47194E+01 -1.50445E+01 -1.87436E+01 -7.05668E+00 -9.36125E+00 -1.24166E+01
  -1.18835E+01 -2.98088E+01 -9.12473E+00 -1.45207E+01 -3.23756E+00 -1.60590E+01 -2.06846E+01 -2.19032E+00 -2.02174E+01 -1.47016E+01
  -1.42194E+01 -7.18594E+00 -5.55217E+00 -1.44944E+01 -1.32248E+01 -1.23080E+01 -1.62519E+01 -1.76141E+01 -6.76667E+00 -1.38876E+01
  -1.28660E+01 -1.73658E+01 -1.33248E+01 -1.67662E+01 -2.43693E+01 -1.50669E+01 -2.67369E+01 -2.85976E+01 -1.55611E+01 -1.87049E+01
  -2.15883E+01 -6.45562E+00 -1.80597E+01 -8.35695E+00 -1.72038E+01  1.91977E+00 -1.92204E+01 -1.20274E+01 -1.07012E+01 -1.69454E+01
  -8.34711E+00 -1.58191E+01 -9.25104E+00 -8.41726E+00 -1.22418E+01 -1.46605E+01 -2.19280E+00 -9.44203E+00 -2.43669E+01 -1.24286E+01
  -2.03634E+00 -1.35757E+01 -9.32341E+00 -2.19194E+01 -3.41784E+01 -3.62018E+00 -1.19262E+01 -4.94136E+00 -1.69147E+01 -1.96096E+01
   1.70775E+00  3.73563E+00 -1.14414E+01 -2.90568E+01 -3.05727E+01 -2.06793E+01 -2.05422E+01 -1.30494E+01
 NY points of the fit to the data follow
   5.33209E+01  5.21917E+01  5.29090E+01  5.35944E+01  5.64754E+01  6.27485E+01  6.65293E+01  7.16929E+01  8.13466E+01  9.14589E+01
   9.86821E+01  1.02223E+02  1.00534E+02  9.42713E+01  8.83216E+01  8.07852E+01  6.94710E+01  6.07555E+01  5.72346E+01  5.32916E+01
   4.89610E+01  4.71341E+01  4.82692E+01  4.92982E+01  4.74049E+01  4.77473E+01  5.10638E+01  5.55754E+01  6.00125E+01  6.37198E+01
   6.59582E+01  6.70810E+01  6.75222E+01  6.39914E+01  5.72297E+01  5.26511E+01  4.98871E+01  4.54252E+01  4.14723E+01  4.06764E+01
   4.16278E+01  4.23532E+01  4.29246E+01  4.48686E+01  4.84360E+01  5.30305E+01  5.67891E+01  5.77879E+01  5.65750E+01  5.43397E+01
   5.08810E+01  4.58665E+01  4.10424E+01  3.78820E+01  3.58644E+01  3.45972E+01  3.41999E+01  3.50969E+01  3.67843E+01  3.81967E+01
   3.86267E+01  3.81138E+01  3.70293E+01  3.53066E+01  3.33432E+01  3.21039E+01  3.13460E+01  3.10156E+01  3.13866E+01  3.22001E+01
   3.31055E+01  3.37781E+01  3.39796E+01  3.36740E+01  3.32025E+01  3.25652E+01  3.15878E+01  3.06145E+01  3.00470E+01  2.97108E+01
   2.89253E+01  2.81819E+01  2.80070E+01  2.79943E+01  2.74215E+01  2.61614E+01  2.45214E+01  2.29040E+01  2.18047E+01  2.13026E+01
   2.11244E+01  2.14778E+01  2.28985E+01  2.46614E+01  2.62216E+01  2.91284E+01  3.64236E+01  3.79713E+01  3.87886E+01  5.14127E+01
   7.09112E+01  8.88412E+01  1.01380E+02  1.05645E+02  1.00480E+02  9.33177E+01  8.29215E+01  6.37592E+01  4.59860E+01  3.79907E+01
   3.12803E+01  2.27973E+01  1.85561E+01  1.78798E+01  1.79437E+01  1.81296E+01  1.82494E+01  1.84913E+01  1.90514E+01  2.08141E+01
   2.55861E+01  3.07468E+01  3.25618E+01  4.09979E+01  5.83260E+01  7.71846E+01  9.21457E+01  9.98631E+01  9.90321E+01  9.33894E+01
   8.57970E+01  7.14404E+01  5.30329E+01  3.94806E+01  3.05806E+01  2.09395E+01  1.33900E+01  1.05574E+01  1.06126E+01  1.21816E+01
   1.36925E+01  1.47767E+01  1.55666E+01  1.57905E+01  1.54646E+01  1.47698E+01  1.37888E+01  1.27755E+01  1.18903E+01  1.10598E+01
   1.01554E+01  9.28859E+00  8.51002E+00  7.63192E+00  7.13715E+00  7.45941E+00  7.59580E+00  7.21074E+00  6.62285E+00  5.62533E+00
   4.85469E+00  4.67849E+00  4.53045E+00  3.85416E+00  3.40193E+00  3.00260E+00  1.91271E+00  6.61182E-01 -4.88610E-01 -1.36799E+00
  -1.24607E+00 -1.27403E+00 -2.44684E+00 -3.67896E+00 -4.24664E+00 -4.24253E+00 -4.18477E+00 -4.13720E+00 -4.63044E+00 -4.95465E+00
  -4.65288E+00 -4.07286E+00 -3.89342E+00 -3.59460E+00 -2.63260E+00 -1.07477E+00  9.07005E-01  3.43135E+00  6.55279E+00  9.19134E+00
   1.08253E+01  1.13756E+01  1.08197E+01  8.73656E+00  6.07285E+00  3.64804E+00  1.99081E+00  1.74415E+00  3.07891E+00  5.17390E+00
   7.32610E+00  1.01929E+01  1.26058E+01  1.29450E+01  1.23915E+01  1.03911E+01  6.16158E+00  1.45518E+00 -2.54013E+00 -4.87764E+00
  -6.41764E+00 -5.34634E+00 -1.23911E+00  4.55278E+00  1.02426E+01  1.30084E+01  1.32384E+01  1.22002E+01  8.78801E+00  1.96303E+00
  -5.22758E+00 -9.49361E+00 -9.83387E+00 -8.06739E+00 -5.65610E+00 -1.61085E+00  3.70557E+00  7.77660E+00  8.79152E+00  8.22762E+00
   8.46422E+00  8.56531E+00  8.34290E+00  8.70734E+00  9.82358E+00  1.11092E+01  1.17207E+01  1.16941E+01  1.04794E+01  8.23825E+00
   5.64214E+00  3.44916E+00  2.25949E+00  2.91016E+00  4.68087E+00  6.32258E+00  8.40590E+00  1.10441E+01  1.43687E+01  1.91021E+01
   2.01926E+01  2.40334E+01  3.80897E+01  6.13337E+01  7.45255E+01  8.51066E+01  1.04645E+02  1.26059E+02  1.44257E+02  1.52273E+02
   1.44438E+02  1.27468E+02  1.14902E+02  9.65406E+01  6.61042E+01  4.17959E+01  3.14160E+01  2.12305E+01  9.09345E+00  3.09493E+00
   1.53777E+00  9.72094E-01  7.88779E-01  8.83068E-01  8.86669E-01  6.92040E-01  4.00970E-01 -4.45343E-02 -6.66410E-01 -1.26073E+00
  -1.66319E+00 -1.85398E+00 -1.91488E+00 -1.94776E+00 -1.88231E+00 -1.63938E+00 -1.44685E+00 -1.40163E+00 -1.27892E+00 -9.76026E-01
  -6.02667E-01 -1.87726E-01  2.91514E-01  8.16244E-01  1.34731E+00  1.82956E+00  2.18992E+00  2.47124E+00  2.77032E+00  3.06816E+00
   3.33103E+00  3.55186E+00  3.75669E+00  3.95052E+00  4.06668E+00  4.07763E+00  4.02777E+00  3.91851E+00  3.73775E+00  3.51230E+00
   3.26355E+00  3.00831E+00  2.76805E+00  2.56267E+00  2.41257E+00  2.33946E+00  2.36530E+00  2.51853E+00  2.84464E+00  3.44225E+00
   4.42600E+00  4.97633E+00  5.50284E+00  7.27469E+00  9.17239E+00  1.00024E+01  9.59253E+00  8.08136E+00  6.38341E+00  5.15325E+00
   3.12368E+00  1.07376E+00  1.22621E+00  3.94011E+00  7.41495E+00  1.06938E+01  1.38027E+01  1.65312E+01  1.90318E+01  2.04232E+01
   2.04617E+01  2.02518E+01  1.99413E+01  1.99602E+01  2.01462E+01  1.99220E+01  1.88357E+01  1.68577E+01  1.45803E+01  1.23172E+01
   9.61655E+00  6.92866E+00  5.52577E+00  6.11031E+00  7.63655E+00  8.90036E+00  9.89417E+00  1.08069E+01  1.16078E+01  1.14940E+01
   1.02783E+01  9.07945E+00  8.19743E+00  6.98189E+00  5.63072E+00  4.53728E+00  3.60381E+00  2.75063E+00  1.95057E+00  1.19351E+00
   4.76225E-01 -2.01260E-01 -8.37247E-01 -1.42910E+00 -1.97363E+00 -2.46733E+00 -2.90667E+00 -3.28821E+00 -3.60859E+00 -3.86443E+00
  -4.05233E+00 -4.16896E+00 -4.21114E+00 -4.17595E+00 -4.06081E+00 -3.86351E+00 -3.58250E+00 -3.21720E+00 -2.76838E+00 -2.23842E+00
  -1.63162E+00 -9.54422E-01 -2.15707E-01  5.72997E-01  1.39746E+00  2.24094E+00  3.08451E+00  3.90756E+00  4.68834E+00  5.40472E+00
   6.03506E+00  6.55917E+00  6.95929E+00  7.22092E+00  7.33345E+00  7.29065E+00  7.09100E+00  6.73781E+00  6.23893E+00  5.60636E+00
   4.85549E+00  4.00430E+00  3.07254E+00  2.08083E+00  1.04977E+00 -9.03917E-04 -1.05302E+00 -2.09049E+00 -3.09956E+00 -4.06906E+00
  -4.99036E+00 -5.85740E+00 -6.66648E+00 -7.41592E+00 -8.10573E+00 -8.73730E+00 -9.31308E+00 -9.83632E+00 -1.03108E+01 -1.07405E+01
  -1.11295E+01 -1.14817E+01 -1.18010E+01 -1.20910E+01 -1.23549E+01 -1.25959E+01 -1.28165E+01 -1.30191E+01 -1.32059E+01 -1.33787E+01
  -1.35392E+01 -1.36888E+01 -1.38286E+01 -1.39597E+01 -1.40831E+01 -1.41997E+01 -1.43101E+01 -1.44149E+01 -1.45147E+01 -1.46099E+01
  -1.47010E+01 -1.47884E+01 -1.48724E+01 -1.49533E+01 -1.50313E+01 -1.51066E+01 -1.51795E+01 -1.52502E+01 -1.53188E+01 -1.53855E+01
  -1.54504E+01 -1.55136E+01 -1.55754E+01 -1.56357E+01 -1.56947E+01 -1.57524E+01 -1.58090E+01 -1.58644E+01 -1.59189E+01 -1.59724E+01
  -1.60250E+01 -1.60768E+01 -1.61277E+01 -1.61779E+01 -1.62274E+01 -1.62763E+01 -1.63244E+01 -1.63720E+01 -1.64190E+01 -1.64656E+01
  -1.65116E+01 -1.65571E+01 -1.66022E+01 -1.66468E+01 -1.66911E+01 -1.67350E+01 -1.67786E+01 -1.68218E+01 -1.68647E+01 -1.69073E+01
  -1.69496E+01 -1.69917E+01 -1.70335E+01 -1.70750E+01 -1.71164E+01 -1.71575E+01 -1.71985E+01 -1.72393E+01
 NY background values follow
     3.993E+01    3.971E+01    3.949E+01    3.926E+01    3.904E+01    3.882E+01    3.860E+01    3.838E+01    3.815E+01    3.793E+01
     3.771E+01    3.749E+01    3.726E+01    3.704E+01    3.682E+01    3.660E+01    3.637E+01    3.615E+01    3.593E+01    3.571E+01
     3.548E+01    3.526E+01    3.504E+01    3.482E+01    3.460E+01    3.437E+01    3.415E+01    3.393E+01    3.371E+01    3.349E+01
     3.326E+01    3.304E+01    3.282E+01    3.260E+01    3.238E+01    3.216E+01    3.194E+01    3.172E+01    3.150E+01    3.127E+01
     3.105E+01    3.083E+01    3.061E+01    3.039E+01    3.017E+01    2.995E+01    2.973E+01    2.951E+01    2.929E+01    2.907E+01
     2.886E+01    2.864E+01    2.842E+01    2.820E+01    2.798E+01    2.776E+01    2.755E+01    2.733E+01    2.711E+01    2.689E+01
     2.668E+01    2.646E+01    2.624E+01    2.603E+01    2.581E+01    2.559E+01    2.538E+01    2.516E+01    2.495E+01    2.473E+01
     2.452E+01    2.431E+01    2.409E+01    2.388E+01    2.367E+01    2.345E+01    2.324E+01    2.303E+01    2.282E+01    2.261E+01
     2.240E+01    2.219E+01    2.198E+01    2.177E+01    2.156E+01    2.135E+01    2.114E+01    2.093E+01    2.072E+01    2.052E+01
     2.031E+01    2.010E+01    1.990E+01    1.969E+01    1.949E+01    1.928E+01    1.908E+01    1.887E+01    1.867E+01    1.847E+01
     1.827E+01    1.806E+01    1.786E+01    1.766E+01    1.746E+01    1.726E+01    1.706E+01    1.686E+01    1.666E+01    1.647E+01
     1.627E+01    1.607E+01    1.587E+01    1.568E+01    1.548E+01    1.529E+01    1.509E+01    1.490E+01    1.470E+01    1.451E+01
     1.432E+01    1.413E+01    1.393E+01    1.374E+01    1.355E+01    1.336E+01    1.317E+01    1.298E+01    1.279E+01    1.261E+01
     1.242E+01    1.223E+01    1.205E+01    1.186E+01    1.167E+01    1.149E+01    1.130E+01    1.112E+01    1.094E+01    1.075E+01
     1.057E+01    1.039E+01    1.021E+01    1.003E+01    9.850E+00    9.670E+00    9.492E+00    9.314E+00    9.136E+00    8.959E+00
     8.783E+00    8.607E+00    8.432E+00    8.258E+00    8.084E+00    7.911E+00    7.739E+00    7.567E+00    7.396E+00    7.225E+00
     7.055E+00    6.886E+00    6.718E+00    6.550E+00    6.383E+00    6.217E+00    6.051E+00    5.886E+00    5.722E+00    5.558E+00
     5.395E+00    5.233E+00    5.072E+00    4.911E+00    4.751E+00    4.592E+00    4.434E+00    4.276E+00    4.120E+00    3.964E+00
     3.808E+00    3.654E+00    3.500E+00    3.347E+00    3.195E+00    3.044E+00    2.893E+00    2.744E+00    2.595E+00    2.446E+00
     2.299E+00    2.152E+00    2.006E+00    1.861E+00    1.717E+00    1.573E+00    1.431E+00    1.289E+00    1.147E+00    1.007E+00
     8.671E-01    7.282E-01    5.899E-01    4.525E-01    3.157E-01    1.798E-01    4.458E-02   -8.988E-02   -2.236E-01   -3.566E-01
    -4.888E-01   -6.203E-01   -7.510E-01   -8.810E-01   -1.010E+00   -1.139E+00   -1.267E+00   -1.394E+00   -1.520E+00   -1.645E+00
    -1.770E+00   -1.894E+00   -2.018E+00   -2.141E+00   -2.263E+00   -2.384E+00   -2.504E+00   -2.624E+00   -2.743E+00   -2.862E+00
    -2.979E+00   -3.096E+00   -3.212E+00   -3.328E+00   -3.443E+00   -3.557E+00   -3.670E+00   -3.783E+00   -3.895E+00   -4.007E+00
    -4.117E+00   -4.227E+00   -4.337E+00   -4.445E+00   -4.553E+00   -4.661E+00   -4.767E+00   -4.873E+00   -4.978E+00   -5.083E+00
    -5.187E+00   -5.290E+00   -5.393E+00   -5.495E+00   -5.596E+00   -5.697E+00   -5.797E+00   -5.897E+00   -5.995E+00   -6.094E+00
    -6.191E+00   -6.288E+00   -6.384E+00   -6.480E+00   -6.575E+00   -6.669E+00   -6.763E+00   -6.856E+00   -6.948E+00   -7.040E+00
    -7.132E+00   -7.222E+00   -7.312E+00   -7.402E+00   -7.491E+00   -7.579E+00   -7.667E+00   -7.754E+00   -7.840E+00   -7.926E+00
    -8.012E+00   -8.096E+00   -8.181E+00   -8.264E+00   -8.347E+00   -8.430E+00   -8.512E+00   -8.593E+00   -8.674E+00   -8.754E+00
    -8.834E+00   -8.913E+00   -8.992E+00   -9.070E+00   -9.148E+00   -9.225E+00   -9.302E+00   -9.378E+00   -9.453E+00   -9.528E+00
    -9.603E+00   -9.677E+00   -9.750E+00   -9.823E+00   -9.896E+00   -9.968E+00   -1.004E+01   -1.011E+01   -1.018E+01   -1.025E+01
    -1.032E+01   -1.039E+01   -1.046E+01   -1.053E+01   -1.059E+01   -1.066E+01   -1.073E+01   -1.079E+01   -1.086E+01   -1.093E+01
    -1.099E+01   -1.106E+01   -1.112E+01   -1.118E+01   -1.125E+01   -1.131E+01   -1.137E+01   -1.143E+01   -1.150E+01   -1.156E+01
    -1.162E+01   -1.168E+01   -1.174E+01   -1.180E+01   -1.186E+01   -1.192E+01   -1.197E+01   -1.203E+01   -1.209E+01   -1.215E+01
    -1.220E+01   -1.226E+01   -1.232E+01   -1.237E+01   -1.243E+01   -1.248E+01   -1.254E+01   -1.259E+01   -1.265E+01   -1.270E+01
    -1.275E+01   -1.281E+01   -1.286E+01   -1.291E+01   -1.296E+01   -1.302E+01   -1.307E+01   -1.312E+01   -1.317E+01   -1.322E+01
    -1.327E+01   -1.332E+01   -1.337E+01   -1.342E+01   -1.347E+01   -1.351E+01   -1.356E+01   -1.361E+01   -1.366E+01   -1.370E+01
    -1.375E+01   -1.380E+01   -1.385E+01   -1.389E+01   -1.394E+01   -1.398E+01   -1.403E+01   -1.407E+01   -1.412E+01   -1.416E+01
    -1.421E+01   -1.425E+01   -1.429E+01   -1.434E+01   -1.438E+01   -1.442E+01   -1.447E+01   -1.451E+01   -1.455E+01   -1.459E+01
    -1.464E+01   -1.468E+01   -1.472E+01   -1.476E+01   -1.480E+01   -1.484E+01   -1.488E+01   -1.492E+01   -1.496E+01   -1.500E+01
    -1.504E+01   -1.508E+01   -1.512E+01   -1.516E+01   -1.520E+01   -1.524E+01   -1.527E+01   -1.531E+01   -1.535E+01   -1.539E+01
    -1.543E+01   -1.546E+01   -1.550E+01   -1.554E+01   -1.557E+01   -1.561E+01   -1.565E+01   -1.568E+01   -1.572E+01   -1.576E+01
    -1.579E+01   -1.583E+01   -1.586E+01   -1.590E+01   -1.593E+01   -1.597E+01   -1.600E+01   -1.604E+01   -1.607E+01   -1.611E+01
    -1.614E+01   -1.617E+01   -1.621E+01   -1.624E+01   -1.628E+01   -1.631E+01   -1.634E+01   -1.638E+01   -1.641E+01   -1.644E+01
    -1.648E+01   -1.651E+01   -1.654E+01   -1.658E+01   -1.661E+01   -1.664E+01   -1.667E+01   -1.671E+01   -1.674E+01   -1.677E+01
    -1.680E+01   -1.683E+01   -1.687E+01   -1.690E+01   -1.693E+01   -1.696E+01   -1.699E+01   -1.703E+01   -1.706E+01   -1.709E+01
    -1.712E+01   -1.715E+01   -1.718E+01   -1.721E+01   -1.724E+01   -1.728E+01   -1.731E+01   -1.734E+01   -1.737E+01   -1.740E+01
    -1.743E+01   -1.746E+01   -1.749E+01   -1.752E+01   -1.755E+01   -1.759E+01   -1.762E+01   -1.765E+01   -1.768E+01   -1.771E+01
    -1.774E+01   -1.777E+01   -1.780E+01   -1.783E+01   -1.786E+01   -1.789E+01   -1.792E+01   -1.795E+01   -1.798E+01   -1.801E+01
    -1.804E+01   -1.807E+01   -1.811E+01   -1.814E+01   -1.817E+01   -1.820E+01   -1.823E+01   -1.826E+01
 Ala      Conc. = 6.97E+02
