 LCModel (Version 6.3-1L) Copyright: S.W. Provencher.          Ref.: Magn. Reson. Med. 30:672-679 (1993).                
 Slice#2 Row#6 Col#9  PD_05_press_2_raw_act
 36 lines in following concentration table = NCONC+1
    Conc.  %SD /Cr+PCr  Metabolite                                         
  302.052  90%   0.187 Ala                                                 
    0.000 999%   0.000 Asp                                                 
  743.340  63%   0.461 Cr                                                  
  868.492  55%   0.539 PCr                                                 
   52.594 475% 3.3E-02 GABA                                                
  300.171  82%   0.186 Glc                                                 
 1.86E+03  31%   1.154 Gln                                                 
 2.41E+03  27%   1.495 Glu                                                 
  873.769   6%   0.542 GPC                                                 
    0.000 999%   0.000 PCh                                                 
 1.22E+03  14%   0.760 GSH                                                 
 4.34E+03  12%   2.692 Ins                                                 
  785.047  40%   0.487 Lac                                                 
 2.92E+03   9%   1.815 NAA                                                 
  548.944  54%   0.341 NAAG                                                
  161.991  33%   0.101 Scyllo                                              
   34.542 999% 2.1E-02 Tau                                                 
    0.000 999%   0.000 -CrCH2                                              
  873.769   6%   0.542 GPC+PCh                                             
 3.47E+03   5%   2.155 NAA+NAAG                                            
 1.61E+03   7%   1.000 Cr+PCr                                              
 4.27E+03  22%   2.649 Glu+Gln                                             
  557.860 136%   0.346 Lip13a                                              
    0.000 999%   0.000 Lip13b                                              
  158.031 152% 9.8E-02 Lip09                                               
 2.40E+03  17%   1.490 MM09                                                
   80.773 178% 5.0E-02 Lip20                                               
 3.21E+03  22%   1.990 MM20                                                
  712.153  50%   0.442 MM12                                                
 2.76E+03  23%   1.712 MM14                                                
   15.986 999% 9.9E-03 MM17                                                
  557.860 136%   0.346 Lip13a+Lip13b                                       
 4.03E+03  16%   2.500 MM14+Lip13a+Lip13b+MM12                             
 2.56E+03  14%   1.588 MM09+Lip09                                          
 3.29E+03  21%   2.041 MM20+Lip20                                          
   6 lines in following misc. output table
  FWHM = 0.061 ppm    S/N =   7                                            
  Data shift = 0.015 ppm                                                   
  Ph: -15 deg       2.8 deg/ppm                                            
  alphaB,S = 8.5E+01,   1.6E+02                                            
   14 spline knots.   Ns = 7(1)                                            
   2 inflections.     1 extrema                                            
  498 points on ppm-axis = NY
      4.000000     3.992357     3.984714     3.977070     3.969427     3.961784     3.954141     3.946497     3.938854     3.931211
      3.923568     3.915925     3.908281     3.900638     3.892995     3.885352     3.877708     3.870065     3.862422     3.854779
      3.847136     3.839492     3.831849     3.824206     3.816563     3.808919     3.801276     3.793633     3.785990     3.778347
      3.770703     3.763060     3.755417     3.747774     3.740130     3.732487     3.724844     3.717201     3.709558     3.701914
      3.694271     3.686628     3.678985     3.671341     3.663698     3.656055     3.648412     3.640769     3.633125     3.625482
      3.617839     3.610196     3.602552     3.594909     3.587266     3.579623     3.571980     3.564336     3.556693     3.549050
      3.541407     3.533763     3.526120     3.518477     3.510834     3.503191     3.495547     3.487904     3.480261     3.472618
      3.464974     3.457331     3.449688     3.442045     3.434402     3.426758     3.419115     3.411472     3.403829     3.396185
      3.388542     3.380899     3.373256     3.365613     3.357969     3.350326     3.342683     3.335040     3.327396     3.319753
      3.312110     3.304467     3.296824     3.289180     3.281537     3.273894     3.266251     3.258607     3.250964     3.243321
      3.235678     3.228034     3.220391     3.212748     3.205105     3.197462     3.189818     3.182175     3.174532     3.166889
      3.159245     3.151602     3.143959     3.136316     3.128673     3.121029     3.113386     3.105743     3.098100     3.090456
      3.082813     3.075170     3.067527     3.059884     3.052240     3.044597     3.036954     3.029311     3.021667     3.014024
      3.006381     2.998738     2.991095     2.983451     2.975808     2.968165     2.960522     2.952878     2.945235     2.937592
      2.929949     2.922306     2.914662     2.907019     2.899376     2.891733     2.884089     2.876446     2.868803     2.861160
      2.853517     2.845873     2.838230     2.830587     2.822944     2.815300     2.807657     2.800014     2.792371     2.784728
      2.777084     2.769441     2.761798     2.754155     2.746511     2.738868     2.731225     2.723582     2.715939     2.708295
      2.700652     2.693009     2.685366     2.677722     2.670079     2.662436     2.654793     2.647150     2.639506     2.631863
      2.624220     2.616577     2.608933     2.601290     2.593647     2.586004     2.578361     2.570717     2.563074     2.555431
      2.547788     2.540144     2.532501     2.524858     2.517215     2.509572     2.501928     2.494285     2.486642     2.478999
      2.471355     2.463712     2.456069     2.448426     2.440783     2.433139     2.425496     2.417853     2.410210     2.402566
      2.394923     2.387280     2.379637     2.371994     2.364350     2.356707     2.349064     2.341421     2.333777     2.326134
      2.318491     2.310848     2.303205     2.295561     2.287918     2.280275     2.272632     2.264988     2.257345     2.249702
      2.242059     2.234416     2.226772     2.219129     2.211486     2.203843     2.196199     2.188556     2.180913     2.173270
      2.165627     2.157983     2.150340     2.142697     2.135054     2.127410     2.119767     2.112124     2.104481     2.096838
      2.089194     2.081551     2.073908     2.066265     2.058621     2.050978     2.043335     2.035692     2.028049     2.020405
      2.012762     2.005119     1.997476     1.989833     1.982190     1.974546     1.966903     1.959260     1.951617     1.943974
      1.936331     1.928688     1.921045     1.913402     1.905759     1.898115     1.890472     1.882829     1.875186     1.867543
      1.859900     1.852257     1.844614     1.836971     1.829327     1.821684     1.814041     1.806398     1.798755     1.791112
      1.783469     1.775826     1.768183     1.760540     1.752896     1.745253     1.737610     1.729967     1.722324     1.714681
      1.707038     1.699395     1.691752     1.684108     1.676465     1.668822     1.661179     1.653536     1.645893     1.638250
      1.630607     1.622964     1.615321     1.607677     1.600034     1.592391     1.584748     1.577105     1.569462     1.561819
      1.554176     1.546533     1.538890     1.531246     1.523603     1.515960     1.508317     1.500674     1.493031     1.485388
      1.477745     1.470102     1.462458     1.454815     1.447172     1.439529     1.431886     1.424243     1.416600     1.408957
      1.401314     1.393671     1.386027     1.378384     1.370741     1.363098     1.355455     1.347812     1.340169     1.332526
      1.324883     1.317240     1.309596     1.301953     1.294310     1.286667     1.279024     1.271381     1.263738     1.256095
      1.248452     1.240808     1.233165     1.225522     1.217879     1.210236     1.202593     1.194950     1.187307     1.179664
      1.172021     1.164377     1.156734     1.149091     1.141448     1.133805     1.126162     1.118519     1.110876     1.103233
      1.095590     1.087946     1.080303     1.072660     1.065017     1.057374     1.049731     1.042088     1.034445     1.026802
      1.019158     1.011515     1.003872     0.996229     0.988586     0.980943     0.973300     0.965657     0.958014     0.950371
      0.942727     0.935084     0.927441     0.919798     0.912155     0.904512     0.896869     0.889226     0.881583     0.873940
      0.866296     0.858653     0.851010     0.843367     0.835724     0.828081     0.820438     0.812795     0.805152     0.797508
      0.789865     0.782222     0.774579     0.766936     0.759293     0.751650     0.744007     0.736364     0.728721     0.721077
      0.713434     0.705791     0.698148     0.690505     0.682862     0.675219     0.667576     0.659933     0.652290     0.644646
      0.637003     0.629360     0.621717     0.614074     0.606431     0.598788     0.591145     0.583502     0.575858     0.568215
      0.560572     0.552929     0.545286     0.537643     0.530000     0.522357     0.514714     0.507071     0.499427     0.491784
      0.484141     0.476498     0.468855     0.461212     0.453569     0.445925     0.438282     0.430639     0.422996     0.415353
      0.407710     0.400067     0.392424     0.384780     0.377137     0.369494     0.361851     0.354208     0.346565     0.338922
      0.331278     0.323635     0.315992     0.308349     0.300706     0.293063     0.285420     0.277777     0.270133     0.262490
      0.254847     0.247204     0.239561     0.231918     0.224275     0.216631     0.208988     0.201345
 NY phased data points follow
   7.58386E+00  2.54058E+01  2.36322E+01  3.01160E+01  2.92488E+01  3.57776E+01  3.47369E+01  4.20142E+01  3.17314E+01  4.79335E+01
   4.84438E+01  5.81253E+01  3.64414E+01  4.58600E+01  2.88910E+01  2.11103E+01  3.04987E+01  2.92083E+01  2.25482E+01  2.08283E+01
   2.62205E+01  2.94967E+01  2.27007E+01  3.36646E+01  1.29164E+01  3.98495E+01  4.50428E+01  4.36937E+01  4.33416E+01  3.51132E+01
   2.38479E+01  3.70690E+01  3.09266E+01  3.09557E+01  1.41552E+01  2.42866E+01  4.00677E+01  3.51693E+01  2.61949E+01  3.02675E+01
   2.12481E+01  2.08068E+01  2.49250E+01  2.87397E+01  2.79626E+01  2.97510E+01  4.26236E+01  2.87273E+01  3.67712E+01  3.89383E+01
   5.03618E+01  3.39326E+01  2.20988E+01  2.20300E+01  3.03481E+01  1.63212E+01  2.65851E+01  2.34268E+01  2.94479E+01  2.48067E+01
   2.30375E+01  1.38667E+01  1.59188E+01  1.03844E+01  4.48652E+00  2.37404E+01  2.53687E-02  1.18714E+01  1.64283E+01  9.73365E+00
   6.67905E+00  1.03533E+01  1.54944E+01  2.89954E+01  1.55524E+01  1.93511E+01  3.40186E-01  2.20935E+01  1.68517E+01  7.44659E+00
   1.42129E+01  1.12494E+01  9.74224E+00  1.43566E+01  8.47686E+00  1.75563E+01  7.77886E+00  5.54725E+00  1.84234E+01  1.30084E+01
   1.44628E+01  5.53434E+00  2.37304E+01  1.46301E+01  1.20754E+01  1.44174E+01  2.26802E+01  1.48245E+01  2.12829E+01  4.15103E+01
   4.41081E+01  6.51908E+01  7.11075E+01  8.36354E+01  8.66519E+01  7.11961E+01  4.83907E+01  4.25559E+01  3.59158E+01  1.65765E+01
   5.00796E+00  8.71590E+00  1.37336E+01  1.97225E+01  8.12675E+00  8.03731E+00  6.11249E+00  1.18183E+01  1.27215E+01  1.27552E+01
   1.02217E+01  2.02635E+01  1.99173E+01  2.28414E+01  3.43963E+01  5.05481E+01  4.88532E+01  5.83992E+01  6.64798E+01  5.96246E+01
   3.59129E+01  3.22699E+01  1.98111E+01  3.27308E+01  1.34649E+01 -1.56700E+00  2.48540E+01  5.21335E+00  1.19714E+01  1.10370E+01
   4.43860E+00  3.04169E+00  2.32869E+01  1.60884E+01  5.25302E+00  3.53025E+00  1.23211E+01  5.19253E+00  3.45010E+00  9.52878E+00
   6.36032E+00  1.52042E+01  1.47056E+01  1.17427E+01  2.32719E+00  8.42631E+00  9.49152E+00 -3.29219E-02  1.44149E+01  1.24331E+01
   6.93208E-02  7.00716E+00 -1.74177E-01  2.48306E+00 -1.08868E+00 -3.18373E-01  6.24221E+00 -5.54237E+00  2.05018E+00 -6.73928E+00
  -9.34231E+00 -1.71970E+01 -1.20935E+01 -1.41775E+01 -1.87918E+01 -1.83036E+01 -1.28173E+01 -2.49957E+01 -9.32922E+00 -1.31439E+01
  -1.95443E+01  1.37851E+00 -1.48722E+01 -1.30728E+01 -6.87993E+00 -1.04764E+00 -1.19101E+01 -3.97715E+00 -1.29241E+00 -1.20777E+00
   2.22780E+00 -7.03623E+00  3.06358E+00  3.55095E+00 -4.88870E+00 -5.70299E+00 -5.02706E+00 -7.60735E+00 -5.60997E+00 -6.16506E+00
  -5.52780E+00 -3.49197E+00  7.38968E+00 -1.27121E+01  1.45815E+01 -1.04479E+00  5.99995E-01 -6.49561E+00 -9.60551E-01 -4.36236E+00
  -4.82333E+00  1.61248E-01  7.12354E+00  2.67988E+01  1.73582E+01  1.54819E+01  1.59214E+01  1.87544E+01  1.11749E+01  1.52957E+01
   6.42328E+00  6.82586E+00  1.14478E-01 -2.44221E+00 -7.75851E+00  1.72675E+01  8.42785E+00  8.86458E+00  2.26635E+01  2.84494E+01
   1.35077E+01  2.07024E+01  8.70374E+00  1.65368E+01  9.98266E+00  1.97070E+01  1.28845E+01  1.77582E+01  7.38566E+00  1.02161E+01
   1.03316E+01  5.17914E+00  8.64763E+00 -3.59930E-01  8.66446E+00 -5.06884E+00  1.41927E+01  1.24609E+01  1.45057E+01  2.07458E+01
   1.42207E+01  3.06472E+01  3.03441E+01  4.03462E+01  4.71635E+01  5.97641E+01  6.69225E+01  8.30500E+01  8.41765E+01  1.15684E+02
   1.25681E+02  1.11460E+02  1.03729E+02  7.54869E+01  6.04250E+01  2.62906E+01  3.17131E+01  1.68397E+01  1.50977E+01  1.35643E+01
   5.64102E+00  1.17956E+01  7.28453E+00  1.42550E+01  1.49494E+01  5.69533E+00  1.12303E+01  1.20875E+01  5.86021E+00 -1.08319E+00
  -9.88590E+00 -1.19929E+01  1.18182E+01  9.80475E+00  1.88640E+00  1.98174E+01 -4.08258E+00  9.66226E+00  7.27598E+00  6.34098E+00
   1.02725E+00  6.15387E+00  1.15531E+00 -4.73475E+00 -1.13179E+00  1.16756E+01  9.65534E+00  1.92815E+00  8.30196E+00 -3.86956E+00
  -1.82147E-01 -1.77798E+01  4.12734E+00  4.50403E+00  1.18122E+01  1.41204E+01  6.64186E+00  4.14388E-01  3.11027E+00  1.41225E+01
   6.79468E+00 -3.71963E+00  9.35010E+00  5.79158E+00 -6.97711E-01  1.36915E+01  3.89292E+00  6.75059E+00  1.18596E+01  3.30243E+00
   4.72670E+00  1.96523E+01  2.06933E+01  1.33429E+01  1.97856E+00  2.41335E+01  2.28667E+01  2.04526E+01  2.14401E+01  1.28746E+01
   1.80524E+01  1.10342E+01  9.27147E+00  1.06875E+01  2.23283E+01  2.25698E+01  1.61440E+01  9.88900E+00  1.14366E+01  2.81606E-01
   1.80687E+01  2.19798E+01  2.09325E+01  2.85029E+01  2.99941E+01  2.62445E+01  1.10514E+01  2.12809E+01 -1.01241E+00  1.62815E+01
  -1.48798E+00  6.10033E+00  1.17831E+00  7.56732E+00  1.46638E+01  2.03181E+01  3.13160E+00  1.25375E+01  3.72535E+00  1.96339E+01
   1.77421E+01  1.31043E+01  8.43991E+00  1.58579E+01  2.77105E+00  8.48043E+00  3.82172E+00  1.24926E+01  1.03142E+01  9.86247E+00
   2.31547E+01  1.16671E+01  1.02848E+01  1.10319E+01  7.91336E+00  3.39713E+00  5.37590E+00 -4.23067E+00 -3.54274E+00  5.11358E+00
   4.19584E-02 -4.97653E-01  2.81106E+00 -1.89797E+00  3.46974E+00  1.22369E+01  8.88138E+00  5.63067E-01  5.67557E+00  7.03017E+00
   1.48627E+01  1.75483E+01  1.93456E+01  7.73828E+00  9.35779E+00  1.85325E+01  1.06739E+01  1.10404E+01  1.74251E+01  2.19876E+00
   2.23159E+01  9.88042E+00  2.11029E+01  1.01244E+01  2.36167E+01  1.99629E+01  1.79258E+01  3.90524E+00  2.44791E+01  2.56076E+01
   2.57482E+01  1.98863E+01  9.51082E+00  2.62162E+01  1.34421E+01  1.64696E+01  1.49280E+01  8.07183E+00  1.08332E+01  9.26461E+00
   1.24064E+01  1.55754E+01  8.17573E+00  1.77783E+01  1.19723E+01  8.10419E+00  8.13919E+00  1.31909E+01  9.90903E+00  2.09654E+01
   1.46505E+01  1.71266E+00 -2.18881E+00  2.02002E+00  3.76844E+00 -8.27835E+00 -3.92976E+00  5.15323E+00 -4.70575E+00  7.10447E+00
   5.16578E+00 -4.15983E+00  3.54612E+00  1.47892E+00 -4.19967E+00  1.15937E+01  3.79407E+00 -7.00000E+00 -1.51949E+01  4.16266E+00
  -1.92795E+00  3.89018E-01  3.48258E+00 -1.28035E+00  4.85218E+00 -3.86050E+00 -7.85156E+00 -5.31558E+00 -1.40009E+01  7.03373E+00
   2.38397E+00  5.16428E+00 -5.49875E+00  2.25539E+00  2.31005E+00 -7.18080E+00  8.56325E+00  2.64278E-01  7.85130E+00  9.24089E+00
   3.87028E+00 -2.29342E+00  1.05084E+01 -6.95779E-01  2.60307E+00 -1.75192E+00  4.34139E+00  2.70163E+00 -6.52126E+00  2.51408E+00
   2.11142E+00 -8.05240E-01  3.24688E+00  8.25601E+00 -7.61683E-01  9.34617E+00 -1.92725E+00 -3.58346E+00  8.15092E+00  2.41799E-01
   9.72871E+00  1.80669E+00  9.00018E+00  3.12615E+00  1.32892E+01 -1.43876E+01  3.79301E+00 -4.74671E+00
 NY points of the fit to the data follow
   2.03640E+01  1.91509E+01  1.96407E+01  2.16618E+01  2.48940E+01  2.93891E+01  3.45244E+01  3.96126E+01  4.40315E+01  4.70703E+01
   4.81166E+01  4.68663E+01  4.35225E+01  3.87974E+01  3.36217E+01  2.87997E+01  2.47545E+01  2.17475E+01  1.98891E+01  1.87853E+01
   1.81940E+01  1.82339E+01  1.94405E+01  2.15314E+01  2.41981E+01  2.76086E+01  3.16748E+01  3.59908E+01  3.97912E+01  4.21819E+01
   4.25466E+01  4.08752E+01  3.75995E+01  3.34209E+01  2.89294E+01  2.45837E+01  2.08658E+01  1.81522E+01  1.66307E+01  1.59907E+01
   1.64873E+01  1.86315E+01  2.21470E+01  2.64106E+01  3.09195E+01  3.52470E+01  3.87820E+01  4.06873E+01  4.01484E+01  3.69147E+01
   3.15534E+01  2.52727E+01  1.95643E+01  1.55227E+01  1.33866E+01  1.30282E+01  1.41236E+01  1.61663E+01  1.83963E+01  2.01065E+01
   2.08940E+01  2.05988E+01  1.92844E+01  1.73102E+01  1.52266E+01  1.37242E+01  1.31452E+01  1.34298E+01  1.44145E+01  1.58497E+01
   1.73687E+01  1.86547E+01  1.94428E+01  1.96165E+01  1.92112E+01  1.83875E+01  1.73790E+01  1.63838E+01  1.55341E+01  1.50252E+01
   1.48856E+01  1.48234E+01  1.46008E+01  1.41744E+01  1.35301E+01  1.25832E+01  1.12397E+01  9.56941E+00  7.86902E+00  6.60092E+00
   6.16986E+00  6.57388E+00  7.55996E+00  8.79760E+00  1.00941E+01  1.17949E+01  1.58047E+01  2.29949E+01  3.18414E+01  4.18900E+01
   5.30172E+01  6.43915E+01  7.40875E+01  7.94789E+01  7.84734E+01  7.08895E+01  5.86923E+01  4.48944E+01  3.21170E+01  2.17384E+01
   1.40078E+01  8.80355E+00  6.36239E+00  5.94551E+00  5.99764E+00  6.12744E+00  6.28832E+00  6.53367E+00  6.97664E+00  8.07035E+00
   1.12112E+01  1.67194E+01  2.35684E+01  3.12694E+01  3.95262E+01  4.77354E+01  5.46429E+01  5.84138E+01  5.77417E+01  5.26686E+01
   4.44737E+01  3.50376E+01  2.59118E+01  1.79395E+01  1.15188E+01  6.97383E+00  4.84862E+00  4.75454E+00  5.70979E+00  7.12014E+00
   8.49845E+00  9.51324E+00  9.96062E+00  9.76495E+00  9.09413E+00  8.19284E+00  7.22649E+00  6.30577E+00  5.49854E+00  4.83687E+00
   4.32808E+00  3.93014E+00  3.65049E+00  3.45452E+00  3.24281E+00  3.02411E+00  2.81483E+00  2.61128E+00  2.41064E+00  2.12894E+00
   1.79118E+00  1.51628E+00  1.37626E+00  1.32198E+00  1.24820E+00  1.04619E+00  6.54587E-01  1.10165E-01 -5.09555E-01 -1.20156E+00
  -1.89968E+00 -2.46888E+00 -2.92804E+00 -3.33508E+00 -3.74348E+00 -4.09720E+00 -4.26266E+00 -4.23981E+00 -4.13815E+00 -4.10941E+00
  -4.24489E+00 -4.33962E+00 -4.12222E+00 -3.44909E+00 -2.29679E+00 -7.25388E-01  1.20026E+00  3.35512E+00  5.45140E+00  6.96702E+00
   7.47108E+00  6.90465E+00  5.45428E+00  3.50689E+00  1.66533E+00  4.82199E-01  3.49690E-01  1.54632E+00  3.97650E+00  7.15464E+00
   1.04010E+01  1.30200E+01  1.43397E+01  1.38751E+01  1.18936E+01  8.68420E+00  4.56704E+00  3.15391E-01 -3.11466E+00 -4.68812E+00
  -3.97818E+00 -1.27977E+00  2.82613E+00  7.53438E+00  1.18607E+01  1.47283E+01  1.53842E+01  1.38259E+01  1.05688E+01  6.36098E+00
   2.36304E+00 -5.30811E-01 -1.79397E+00 -1.24449E+00  8.06850E-01  3.80960E+00  6.92047E+00  9.38112E+00  1.08386E+01  1.14056E+01
   1.15823E+01  1.15888E+01  1.16631E+01  1.20894E+01  1.28788E+01  1.35885E+01  1.38032E+01  1.35179E+01  1.28239E+01  1.17187E+01
   1.03058E+01  8.95110E+00  8.04686E+00  7.85848E+00  8.39504E+00  9.51315E+00  1.10188E+01  1.25869E+01  1.42330E+01  1.64643E+01
   1.92904E+01  2.24311E+01  2.64664E+01  3.42744E+01  4.61856E+01  5.97220E+01  7.35665E+01  8.70760E+01  9.92856E+01  1.08393E+02
   1.11980E+02  1.08160E+02  9.70301E+01  8.09534E+01  6.34627E+01  4.75389E+01  3.44275E+01  2.41768E+01  1.68228E+01  1.29152E+01
   1.13425E+01  1.04819E+01  9.94684E+00  9.61479E+00  9.35437E+00  9.05779E+00  8.70003E+00  8.27410E+00  7.79868E+00  7.31462E+00
   6.86014E+00  6.45580E+00  6.11788E+00  5.85027E+00  5.63185E+00  5.43922E+00  5.25555E+00  5.07759E+00  4.91160E+00  4.76365E+00
   4.63770E+00  4.53965E+00  4.46545E+00  4.40585E+00  4.34985E+00  4.29209E+00  4.23213E+00  4.17384E+00  4.12434E+00  4.09145E+00
   4.08175E+00  4.10137E+00  4.14940E+00  4.22086E+00  4.31178E+00  4.42044E+00  4.54719E+00  4.69311E+00  4.85970E+00  5.05185E+00
   5.27447E+00  5.53123E+00  5.82582E+00  6.16162E+00  6.54211E+00  6.97142E+00  7.45458E+00  7.99853E+00  8.61546E+00  9.33414E+00
   1.02202E+01  1.12351E+01  1.22106E+01  1.30842E+01  1.38147E+01  1.43237E+01  1.45012E+01  1.42478E+01  1.36355E+01  1.29717E+01
   1.24850E+01  1.23430E+01  1.26461E+01  1.34053E+01  1.45446E+01  1.59137E+01  1.73108E+01  1.84891E+01  1.92960E+01  1.98610E+01
   2.05026E+01  2.11325E+01  2.14597E+01  2.14242E+01  2.09901E+01  2.00155E+01  1.81736E+01  1.52819E+01  1.18529E+01  8.54412E+00
   5.89292E+00  4.37168E+00  4.22441E+00  5.39752E+00  7.55736E+00  1.01770E+01  1.26618E+01  1.43663E+01  1.50161E+01  1.48243E+01
   1.41165E+01  1.31605E+01  1.21005E+01  1.10521E+01  1.02324E+01  9.64163E+00  9.16584E+00  8.75364E+00  8.38159E+00  8.03754E+00
   7.71513E+00  7.41137E+00  7.12541E+00  6.85777E+00  6.60989E+00  6.38385E+00  6.18223E+00  6.00797E+00  5.86428E+00  5.75461E+00
   5.68256E+00  5.65193E+00  5.66672E+00  5.73111E+00  5.84936E+00  6.02577E+00  6.26454E+00  6.56967E+00  6.94465E+00  7.39226E+00
   7.91418E+00  8.51065E+00  9.18013E+00  9.91891E+00  1.07208E+01  1.15769E+01  1.24754E+01  1.34017E+01  1.43386E+01  1.52665E+01
   1.61644E+01  1.70100E+01  1.77812E+01  1.84565E+01  1.90166E+01  1.94447E+01  1.97278E+01  1.98571E+01  1.98288E+01  1.96437E+01
   1.93076E+01  1.88306E+01  1.82270E+01  1.75137E+01  1.67102E+01  1.58370E+01  1.49149E+01  1.39642E+01  1.30037E+01  1.20505E+01
   1.11190E+01  1.02212E+01  9.36654E+00  8.56161E+00  7.81069E+00  7.11590E+00  6.47757E+00  5.89455E+00  5.36455E+00  4.88445E+00
   4.45065E+00  4.05926E+00  3.70635E+00  3.38801E+00  3.10052E+00  2.84040E+00  2.60446E+00  2.38986E+00  2.19405E+00  2.01477E+00
   1.85000E+00  1.69802E+00  1.55733E+00  1.42664E+00  1.30482E+00  1.19087E+00  1.08391E+00  9.83223E-01  8.88159E-01  7.98173E-01
   7.12770E-01  6.31504E-01  5.53985E-01  4.79888E-01  4.08936E-01  3.40866E-01  2.75430E-01  2.12395E-01  1.51569E-01  9.27912E-02
   3.59212E-02 -1.91832E-02 -7.26651E-02 -1.24650E-01 -1.75236E-01 -2.24504E-01 -2.72537E-01 -3.19432E-01 -3.65283E-01 -4.10162E-01
  -4.54117E-01 -4.97192E-01 -5.39442E-01 -5.80935E-01 -6.21730E-01 -6.61866E-01 -7.01369E-01 -7.40272E-01 -7.78629E-01 -8.16494E-01
  -8.53907E-01 -8.90885E-01 -9.27445E-01 -9.63619E-01 -9.99456E-01 -1.03500E+00 -1.07027E+00 -1.10528E+00 -1.14005E+00 -1.17462E+00
  -1.20905E+00 -1.24336E+00 -1.27758E+00 -1.31172E+00 -1.34582E+00 -1.37994E+00 -1.41413E+00 -1.44844E+00
 NY background values follow
     5.838E+00    5.821E+00    5.803E+00    5.786E+00    5.769E+00    5.752E+00    5.734E+00    5.717E+00    5.700E+00    5.683E+00
     5.665E+00    5.648E+00    5.631E+00    5.613E+00    5.596E+00    5.579E+00    5.561E+00    5.544E+00    5.527E+00    5.509E+00
     5.492E+00    5.475E+00    5.457E+00    5.440E+00    5.423E+00    5.405E+00    5.388E+00    5.371E+00    5.353E+00    5.336E+00
     5.318E+00    5.301E+00    5.284E+00    5.266E+00    5.249E+00    5.231E+00    5.214E+00    5.197E+00    5.179E+00    5.162E+00
     5.144E+00    5.127E+00    5.109E+00    5.092E+00    5.075E+00    5.057E+00    5.040E+00    5.022E+00    5.005E+00    4.987E+00
     4.970E+00    4.952E+00    4.935E+00    4.917E+00    4.900E+00    4.882E+00    4.865E+00    4.847E+00    4.830E+00    4.812E+00
     4.795E+00    4.777E+00    4.760E+00    4.742E+00    4.725E+00    4.707E+00    4.689E+00    4.672E+00    4.654E+00    4.637E+00
     4.619E+00    4.602E+00    4.584E+00    4.567E+00    4.549E+00    4.531E+00    4.514E+00    4.496E+00    4.479E+00    4.461E+00
     4.443E+00    4.426E+00    4.408E+00    4.391E+00    4.373E+00    4.355E+00    4.338E+00    4.320E+00    4.302E+00    4.285E+00
     4.267E+00    4.249E+00    4.232E+00    4.214E+00    4.197E+00    4.179E+00    4.161E+00    4.144E+00    4.126E+00    4.108E+00
     4.091E+00    4.073E+00    4.055E+00    4.038E+00    4.020E+00    4.002E+00    3.984E+00    3.967E+00    3.949E+00    3.931E+00
     3.914E+00    3.896E+00    3.878E+00    3.861E+00    3.843E+00    3.825E+00    3.807E+00    3.790E+00    3.772E+00    3.754E+00
     3.736E+00    3.719E+00    3.701E+00    3.683E+00    3.665E+00    3.648E+00    3.630E+00    3.612E+00    3.594E+00    3.577E+00
     3.559E+00    3.541E+00    3.523E+00    3.506E+00    3.488E+00    3.470E+00    3.452E+00    3.434E+00    3.417E+00    3.399E+00
     3.381E+00    3.363E+00    3.346E+00    3.328E+00    3.310E+00    3.292E+00    3.274E+00    3.257E+00    3.239E+00    3.221E+00
     3.203E+00    3.185E+00    3.167E+00    3.150E+00    3.132E+00    3.114E+00    3.096E+00    3.078E+00    3.060E+00    3.043E+00
     3.025E+00    3.007E+00    2.989E+00    2.971E+00    2.953E+00    2.936E+00    2.918E+00    2.900E+00    2.882E+00    2.864E+00
     2.846E+00    2.828E+00    2.811E+00    2.793E+00    2.775E+00    2.757E+00    2.739E+00    2.721E+00    2.703E+00    2.686E+00
     2.668E+00    2.650E+00    2.632E+00    2.614E+00    2.596E+00    2.578E+00    2.560E+00    2.543E+00    2.525E+00    2.507E+00
     2.489E+00    2.471E+00    2.453E+00    2.435E+00    2.417E+00    2.399E+00    2.382E+00    2.364E+00    2.346E+00    2.328E+00
     2.310E+00    2.292E+00    2.274E+00    2.256E+00    2.238E+00    2.220E+00    2.203E+00    2.185E+00    2.167E+00    2.149E+00
     2.131E+00    2.113E+00    2.095E+00    2.077E+00    2.059E+00    2.041E+00    2.023E+00    2.006E+00    1.988E+00    1.970E+00
     1.952E+00    1.934E+00    1.916E+00    1.898E+00    1.880E+00    1.862E+00    1.844E+00    1.826E+00    1.808E+00    1.790E+00
     1.773E+00    1.755E+00    1.737E+00    1.719E+00    1.701E+00    1.683E+00    1.665E+00    1.647E+00    1.629E+00    1.611E+00
     1.593E+00    1.575E+00    1.557E+00    1.539E+00    1.522E+00    1.504E+00    1.486E+00    1.468E+00    1.450E+00    1.432E+00
     1.414E+00    1.396E+00    1.378E+00    1.360E+00    1.342E+00    1.324E+00    1.306E+00    1.288E+00    1.270E+00    1.253E+00
     1.235E+00    1.217E+00    1.199E+00    1.181E+00    1.163E+00    1.145E+00    1.127E+00    1.109E+00    1.091E+00    1.073E+00
     1.055E+00    1.037E+00    1.019E+00    1.002E+00    9.836E-01    9.657E-01    9.477E-01    9.298E-01    9.119E-01    8.939E-01
     8.760E-01    8.581E-01    8.402E-01    8.222E-01    8.043E-01    7.864E-01    7.685E-01    7.505E-01    7.326E-01    7.147E-01
     6.968E-01    6.789E-01    6.609E-01    6.430E-01    6.251E-01    6.072E-01    5.893E-01    5.713E-01    5.534E-01    5.355E-01
     5.176E-01    4.997E-01    4.818E-01    4.639E-01    4.459E-01    4.280E-01    4.101E-01    3.922E-01    3.743E-01    3.564E-01
     3.385E-01    3.206E-01    3.027E-01    2.848E-01    2.669E-01    2.490E-01    2.311E-01    2.132E-01    1.953E-01    1.774E-01
     1.595E-01    1.416E-01    1.237E-01    1.059E-01    8.797E-02    7.009E-02    5.220E-02    3.432E-02    1.644E-02   -1.442E-03
    -1.932E-02   -3.720E-02   -5.507E-02   -7.295E-02   -9.082E-02   -1.087E-01   -1.266E-01   -1.444E-01   -1.623E-01   -1.802E-01
    -1.980E-01   -2.159E-01   -2.337E-01   -2.516E-01   -2.695E-01   -2.873E-01   -3.052E-01   -3.230E-01   -3.409E-01   -3.587E-01
    -3.766E-01   -3.944E-01   -4.122E-01   -4.301E-01   -4.479E-01   -4.657E-01   -4.836E-01   -5.014E-01   -5.192E-01   -5.371E-01
    -5.549E-01   -5.727E-01   -5.905E-01   -6.084E-01   -6.262E-01   -6.440E-01   -6.618E-01   -6.796E-01   -6.974E-01   -7.152E-01
    -7.330E-01   -7.508E-01   -7.686E-01   -7.864E-01   -8.042E-01   -8.220E-01   -8.398E-01   -8.576E-01   -8.754E-01   -8.932E-01
    -9.109E-01   -9.287E-01   -9.465E-01   -9.643E-01   -9.820E-01   -9.998E-01   -1.018E+00   -1.035E+00   -1.053E+00   -1.071E+00
    -1.089E+00   -1.106E+00   -1.124E+00   -1.142E+00   -1.160E+00   -1.177E+00   -1.195E+00   -1.213E+00   -1.231E+00   -1.248E+00
    -1.266E+00   -1.284E+00   -1.301E+00   -1.319E+00   -1.337E+00   -1.355E+00   -1.372E+00   -1.390E+00   -1.408E+00   -1.425E+00
    -1.443E+00   -1.461E+00   -1.478E+00   -1.496E+00   -1.514E+00   -1.531E+00   -1.549E+00   -1.567E+00   -1.585E+00   -1.602E+00
    -1.620E+00   -1.638E+00   -1.655E+00   -1.673E+00   -1.690E+00   -1.708E+00   -1.726E+00   -1.743E+00   -1.761E+00   -1.779E+00
    -1.796E+00   -1.814E+00   -1.832E+00   -1.849E+00   -1.867E+00   -1.884E+00   -1.902E+00   -1.920E+00   -1.937E+00   -1.955E+00
    -1.972E+00   -1.990E+00   -2.008E+00   -2.025E+00   -2.043E+00   -2.060E+00   -2.078E+00   -2.095E+00   -2.113E+00   -2.131E+00
    -2.148E+00   -2.166E+00   -2.183E+00   -2.201E+00   -2.218E+00   -2.236E+00   -2.253E+00   -2.271E+00   -2.288E+00   -2.306E+00
    -2.323E+00   -2.341E+00   -2.359E+00   -2.376E+00   -2.394E+00   -2.411E+00   -2.429E+00   -2.446E+00   -2.463E+00   -2.481E+00
    -2.498E+00   -2.516E+00   -2.533E+00   -2.551E+00   -2.568E+00   -2.586E+00   -2.603E+00   -2.621E+00   -2.638E+00   -2.656E+00
    -2.673E+00   -2.690E+00   -2.708E+00   -2.725E+00   -2.743E+00   -2.760E+00   -2.777E+00   -2.795E+00   -2.812E+00   -2.830E+00
    -2.847E+00   -2.864E+00   -2.882E+00   -2.899E+00   -2.916E+00   -2.934E+00   -2.951E+00   -2.969E+00
 Ala      Conc. = 3.02E+02
