 LCModel (Version 6.3-1L) Copyright: S.W. Provencher.          Ref.: Magn. Reson. Med. 30:672-679 (1993).                
 Slice#1 Row#7 Col#11  PD_05_press_2_raw_act
 36 lines in following concentration table = NCONC+1
    Conc.  %SD /Cr+PCr  Metabolite                                         
  542.090  37%   2.412 Ala                                                 
   36.846 545%   0.164 Asp                                                 
  155.652 154%   0.693 Cr                                                  
   69.115 352%   0.307 PCr                                                 
  100.580 126%   0.447 GABA                                                
  103.242 121%   0.459 Glc                                                 
  713.705  58%   3.175 Gln                                                 
 1.64E+03  29%   7.284 Glu                                                 
    0.000 999%   0.000 GPC                                                 
  105.289  28%   0.468 PCh                                                 
  170.247  68%   0.757 GSH                                                 
  725.724  50%   3.229 Ins                                                 
    0.000 999%   0.000 Lac                                                 
 3.56E+03   3%  15.830 NAA                                                 
    0.000 999%   0.000 NAAG                                                
   56.827  54%   0.253 Scyllo                                              
  230.613  83%   1.026 Tau                                                 
   94.628  80%   0.421 -CrCH2                                              
  105.289  28%   0.468 GPC+PCh                                             
 3.56E+03   3%  15.830 NAA+NAAG                                            
  224.767  34%   1.000 Cr+PCr                                              
 2.35E+03  29%  10.459 Glu+Gln                                             
 2.40E+03  26%  10.672 Lip13a                                              
    0.000 999%   0.000 Lip13b                                              
  287.349 123%   1.278 Lip09                                               
 1.70E+03  21%   7.563 MM09                                                
  513.277  50%   2.284 Lip20                                               
 3.24E+03  16%  14.405 MM20                                                
  464.073  50%   2.065 MM12                                                
  953.715  51%   4.243 MM14                                                
 1.65E+03  19%   7.323 MM17                                                
 2.40E+03  26%  10.672 Lip13a+Lip13b                                       
 3.82E+03  11%  16.980 MM14+Lip13a+Lip13b+MM12                             
 1.99E+03  12%   8.841 MM09+Lip09                                          
 3.75E+03  13%  16.689 MM20+Lip20                                          
   6 lines in following misc. output table
  FWHM = 0.061 ppm    S/N =  11                                            
  Data shift =-0.008 ppm                                                   
  Ph: -54 deg     -16.9 deg/ppm                                            
  alphaB,S = 8.5E+01,   2.0E+02                                            
   14 spline knots.   Ns = 8(1)                                            
   2 inflections.     1 extrema                                            
  498 points on ppm-axis = NY
      4.000000     3.992357     3.984714     3.977070     3.969427     3.961784     3.954141     3.946497     3.938854     3.931211
      3.923568     3.915925     3.908281     3.900638     3.892995     3.885352     3.877708     3.870065     3.862422     3.854779
      3.847136     3.839492     3.831849     3.824206     3.816563     3.808919     3.801276     3.793633     3.785990     3.778347
      3.770703     3.763060     3.755417     3.747774     3.740130     3.732487     3.724844     3.717201     3.709558     3.701914
      3.694271     3.686628     3.678985     3.671341     3.663698     3.656055     3.648412     3.640769     3.633125     3.625482
      3.617839     3.610196     3.602552     3.594909     3.587266     3.579623     3.571980     3.564336     3.556693     3.549050
      3.541407     3.533763     3.526120     3.518477     3.510834     3.503191     3.495547     3.487904     3.480261     3.472618
      3.464974     3.457331     3.449688     3.442045     3.434402     3.426758     3.419115     3.411472     3.403829     3.396185
      3.388542     3.380899     3.373256     3.365613     3.357969     3.350326     3.342683     3.335040     3.327396     3.319753
      3.312110     3.304467     3.296824     3.289180     3.281537     3.273894     3.266251     3.258607     3.250964     3.243321
      3.235678     3.228034     3.220391     3.212748     3.205105     3.197462     3.189818     3.182175     3.174532     3.166889
      3.159245     3.151602     3.143959     3.136316     3.128673     3.121029     3.113386     3.105743     3.098100     3.090456
      3.082813     3.075170     3.067527     3.059884     3.052240     3.044597     3.036954     3.029311     3.021667     3.014024
      3.006381     2.998738     2.991095     2.983451     2.975808     2.968165     2.960522     2.952878     2.945235     2.937592
      2.929949     2.922306     2.914662     2.907019     2.899376     2.891733     2.884089     2.876446     2.868803     2.861160
      2.853517     2.845873     2.838230     2.830587     2.822944     2.815300     2.807657     2.800014     2.792371     2.784728
      2.777084     2.769441     2.761798     2.754155     2.746511     2.738868     2.731225     2.723582     2.715939     2.708295
      2.700652     2.693009     2.685366     2.677722     2.670079     2.662436     2.654793     2.647150     2.639506     2.631863
      2.624220     2.616577     2.608933     2.601290     2.593647     2.586004     2.578361     2.570717     2.563074     2.555431
      2.547788     2.540144     2.532501     2.524858     2.517215     2.509572     2.501928     2.494285     2.486642     2.478999
      2.471355     2.463712     2.456069     2.448426     2.440783     2.433139     2.425496     2.417853     2.410210     2.402566
      2.394923     2.387280     2.379637     2.371994     2.364350     2.356707     2.349064     2.341421     2.333777     2.326134
      2.318491     2.310848     2.303205     2.295561     2.287918     2.280275     2.272632     2.264988     2.257345     2.249702
      2.242059     2.234416     2.226772     2.219129     2.211486     2.203843     2.196199     2.188556     2.180913     2.173270
      2.165627     2.157983     2.150340     2.142697     2.135054     2.127410     2.119767     2.112124     2.104481     2.096838
      2.089194     2.081551     2.073908     2.066265     2.058621     2.050978     2.043335     2.035692     2.028049     2.020405
      2.012762     2.005119     1.997476     1.989833     1.982190     1.974546     1.966903     1.959260     1.951617     1.943974
      1.936331     1.928688     1.921045     1.913402     1.905759     1.898115     1.890472     1.882829     1.875186     1.867543
      1.859900     1.852257     1.844614     1.836971     1.829327     1.821684     1.814041     1.806398     1.798755     1.791112
      1.783469     1.775826     1.768183     1.760540     1.752896     1.745253     1.737610     1.729967     1.722324     1.714681
      1.707038     1.699395     1.691752     1.684108     1.676465     1.668822     1.661179     1.653536     1.645893     1.638250
      1.630607     1.622964     1.615321     1.607677     1.600034     1.592391     1.584748     1.577105     1.569462     1.561819
      1.554176     1.546533     1.538890     1.531246     1.523603     1.515960     1.508317     1.500674     1.493031     1.485388
      1.477745     1.470102     1.462458     1.454815     1.447172     1.439529     1.431886     1.424243     1.416600     1.408957
      1.401314     1.393671     1.386027     1.378384     1.370741     1.363098     1.355455     1.347812     1.340169     1.332526
      1.324883     1.317240     1.309596     1.301953     1.294310     1.286667     1.279024     1.271381     1.263738     1.256095
      1.248452     1.240808     1.233165     1.225522     1.217879     1.210236     1.202593     1.194950     1.187307     1.179664
      1.172021     1.164377     1.156734     1.149091     1.141448     1.133805     1.126162     1.118519     1.110876     1.103233
      1.095590     1.087946     1.080303     1.072660     1.065017     1.057374     1.049731     1.042088     1.034445     1.026802
      1.019158     1.011515     1.003872     0.996229     0.988586     0.980943     0.973300     0.965657     0.958014     0.950371
      0.942727     0.935084     0.927441     0.919798     0.912155     0.904512     0.896869     0.889226     0.881583     0.873940
      0.866296     0.858653     0.851010     0.843367     0.835724     0.828081     0.820438     0.812795     0.805152     0.797508
      0.789865     0.782222     0.774579     0.766936     0.759293     0.751650     0.744007     0.736364     0.728721     0.721077
      0.713434     0.705791     0.698148     0.690505     0.682862     0.675219     0.667576     0.659933     0.652290     0.644646
      0.637003     0.629360     0.621717     0.614074     0.606431     0.598788     0.591145     0.583502     0.575858     0.568215
      0.560572     0.552929     0.545286     0.537643     0.530000     0.522357     0.514714     0.507071     0.499427     0.491784
      0.484141     0.476498     0.468855     0.461212     0.453569     0.445925     0.438282     0.430639     0.422996     0.415353
      0.407710     0.400067     0.392424     0.384780     0.377137     0.369494     0.361851     0.354208     0.346565     0.338922
      0.331278     0.323635     0.315992     0.308349     0.300706     0.293063     0.285420     0.277777     0.270133     0.262490
      0.254847     0.247204     0.239561     0.231918     0.224275     0.216631     0.208988     0.201345
 NY phased data points follow
   6.31955E+00  1.26411E+01  1.05140E+01  9.54376E+00  1.18342E+01  5.21751E+00  8.74715E+00  9.94137E+00  7.10779E+00  1.01120E-01
  -2.98718E+00 -6.53860E+00  6.56305E+00  7.35458E+00  3.70075E+00  2.06061E+00  1.84349E+01  7.59191E+00  7.01153E+00  3.28783E+00
   2.50312E+00  5.34010E+00  6.75530E+00  9.88448E+00  8.60558E+00  4.74149E+00  1.39930E+01  5.91876E+00  3.80262E+00  9.48317E+00
   5.96738E+00  1.46936E+01  3.84796E-01  9.00857E+00  6.82753E+00  5.80446E+00  4.11158E+00  6.81665E+00  2.87583E+00  9.55173E-01
   6.92069E+00  1.88535E+00 -6.22677E-02  7.00355E+00  8.75827E+00  1.26093E+01  7.77244E+00  4.50810E+00  1.93431E+01  1.50902E+01
  -2.43513E+00  9.01515E+00  1.33617E+01  3.75240E+00  1.81377E+00  6.53356E+00  8.44066E+00  1.02357E+01  2.71747E+00  2.15967E+00
   5.37735E+00  9.46451E+00  1.20969E+01  6.66017E+00  1.80621E+00  5.76235E+00  3.36529E+00  2.56656E+00  6.52591E+00  3.54921E+00
   8.38940E+00  5.76902E+00  1.12150E+01  2.11380E+00 -2.15005E+00  1.44016E+01  6.92580E+00  3.97338E+00  7.34819E+00  6.01619E+00
   6.04159E+00  6.71199E-01  4.14270E+00  8.57273E+00  3.98891E-01  5.17644E+00  8.13006E+00  1.54899E+01 -8.06048E-01  9.04580E+00
   6.51507E+00  5.69928E+00  1.38784E+01  5.45803E+00  3.60107E+00  1.21568E+01  7.37944E+00  7.77304E+00  1.39855E+01  2.17063E+00
   6.52852E+00  1.35185E+01  1.23747E+01  1.79917E+01  8.83018E+00  1.24675E+01  1.16986E+01  7.83369E+00  5.70623E+00  1.17954E+01
   8.09041E+00  2.46046E-01  5.01798E+00  2.96154E+00  5.81560E+00  7.98326E+00  3.11551E-01  9.56743E+00  9.72546E+00  1.16073E+01
   5.57355E+00  1.26087E+01  7.48007E+00  7.48863E+00  8.00183E+00 -4.86714E-01  1.38488E+01  1.10994E+01  1.99251E+01  1.83381E+01
   1.69567E+01  1.23133E+01  1.69397E+01  4.56731E+00  1.70510E+01  6.63605E+00  1.22914E+01  1.15559E+01  1.49353E+01  7.90141E+00
   7.53206E+00  9.71232E+00  6.63561E+00  1.14529E+01  7.71714E+00  4.47212E+00  3.15073E+00  3.44625E+00 -7.25838E-01  6.51783E+00
  -2.72109E+00  1.77092E+00  7.64970E+00  2.11191E+00  1.34533E+01  1.56510E+01  4.18901E+00  3.53319E+00  5.19490E+00  1.95285E+01
   1.27207E+01  8.13067E+00  1.28219E+00  5.34864E+00  6.22041E+00  2.32527E+00 -7.92761E-01  5.53301E+00  1.32951E+01 -4.01147E+00
  -5.95716E-02 -4.41271E+00 -5.97541E+00 -8.14723E+00  1.02925E-01 -4.96962E+00 -1.90976E+00 -8.37186E+00 -8.24719E+00 -5.93722E+00
  -7.41861E+00 -2.09836E+00 -1.95544E+00 -2.33168E+00  3.46729E+00  3.79713E+00  2.47629E+00 -1.58233E-01  7.41490E+00  1.05344E+00
  -1.39557E+00 -3.64312E+00  6.13930E+00  4.29232E+00 -1.01055E+00  8.16664E+00  7.81965E-01 -4.96053E-01 -6.52972E+00 -6.95110E+00
  -6.81006E+00 -5.58607E+00  1.60212E+00  7.15613E+00  6.94648E+00  4.12422E+00  4.37906E+00  2.00270E+00  1.21909E+00  3.46342E+00
   3.60899E+00  5.56039E+00  1.41812E+01  1.00941E+01  1.24584E+01  1.72773E+01  2.27078E+01  2.21566E+01  1.74377E+01  3.97734E+00
   2.84282E+00  6.76513E+00  6.30687E+00  5.02399E+00  6.49461E+00  2.30337E+00  4.64627E+00  8.90388E+00  9.08631E+00  5.57201E+00
   1.00440E+01  1.28848E+01  6.05166E+00  1.08054E+01  1.73596E+01  1.14078E+01  1.20737E+01  2.02076E+01  1.18352E+01  1.42657E+01
   1.80924E+01  2.05257E+01  6.15162E+00  5.93910E+00  1.76798E+01  1.58683E+01  1.36493E+01  1.78583E+01  1.49413E+01  1.70248E+01
   2.46115E+01  1.87171E+01  2.57203E+01  3.20439E+01  4.31161E+01  5.60863E+01  7.54059E+01  8.62607E+01  8.98772E+01  1.17650E+02
   1.21599E+02  1.19651E+02  1.08201E+02  9.35418E+01  7.59546E+01  5.05426E+01  3.77570E+01  3.12693E+01  2.32619E+01  2.39983E+01
   1.08772E+01  1.00709E+01  7.10654E+00  5.95616E+00  2.56727E+00  1.45354E+01  1.15958E+01  2.71165E+00  1.25345E+01  6.82102E+00
   5.62983E+00  5.60021E+00  1.69230E+01  6.98320E+00  5.11350E+00 -1.98792E+00  5.26070E+00  1.48714E+01  4.87162E+00  5.63504E+00
   1.35013E+01  1.06766E+01  9.68857E+00  4.20185E+00  1.22043E+01  1.32309E+01  9.45711E+00  1.13702E+01  1.34644E+01  1.50845E+01
   1.20113E+01  1.40386E+01  7.07121E+00  1.04774E+01  9.01649E+00  1.69402E+01  1.27188E+01  1.58918E+01  1.55162E+01  1.82901E+01
   1.60494E+01  2.09018E+01  2.01623E+01  5.01924E+00  2.26590E+01  1.89165E+01  1.33125E+01  2.20197E+01  2.12473E+01  1.78037E+01
   1.99644E+01  1.40670E+01  1.34682E+01  1.05149E+01  7.31890E+00  6.98586E+00  1.23839E+01  7.00865E+00  6.15382E+00  5.38092E+00
   2.56228E+00  8.85147E+00  5.55036E+00  8.25969E+00  1.24380E+01  5.84561E+00  7.98282E+00  1.31007E+01  2.32672E+01  1.40390E+01
   1.73577E+01  2.16970E+01  1.27142E+01  1.52433E+01  1.83848E+01  1.58720E+01  2.23791E+01  1.33240E+01  2.47738E+01  2.70302E+01
   2.19269E+01  2.26507E+01  1.64973E+01  2.67994E+01  1.42924E+01  1.57344E+01  2.14886E+01  8.00186E+00  1.72587E+01  1.96116E+01
   1.20681E+01  1.61870E+01  1.60115E+01  2.12527E+01  2.05569E+01  1.63252E+01  9.37947E+00  1.23156E+01  8.81240E+00  8.22273E+00
   1.78016E+01  9.54116E+00  1.01297E+01  1.04778E+01  9.86509E-03  1.13629E+01  9.29830E+00  9.31117E+00  3.32606E+00  1.71526E-01
   4.01973E-01  1.24212E+01  5.11036E+00  9.00164E+00  6.02700E+00  3.81359E+00  1.44419E+01  5.44667E+00 -4.16430E+00  4.53056E+00
   6.30799E+00  4.20781E+00  1.36215E+01  3.10309E+00  2.00304E+01  1.27008E+01  2.07430E+01  7.49136E+00  9.85114E+00  8.73120E+00
   7.59111E+00  1.26711E+01  1.53592E+01  7.88293E+00  1.34116E+01  1.65358E+01  2.16452E+01  1.51420E+01  1.73439E+01  1.80348E+01
   1.92190E+01  2.26704E+01  1.87663E+01  2.02205E+01  2.42880E+01  1.09871E+01  1.79161E+01  7.57590E+00  1.41264E+01  1.35952E+01
   1.12742E+01  9.63636E+00  4.00328E+00  3.98382E+00  8.43233E+00  5.35404E+00  7.75600E+00  6.27709E+00  7.54842E-01  1.57969E+00
   6.19608E+00  5.76036E+00  5.36372E+00 -4.93827E+00 -2.85583E-01  2.87827E+00  3.76878E+00  6.30784E+00  7.27366E+00  3.75714E+00
   4.11666E+00  5.19073E+00 -3.15983E+00  3.74444E+00  6.38137E+00  2.72669E+00  6.05301E+00  2.02109E+00  4.78772E+00 -6.52379E+00
   6.88805E-01  4.43804E+00  1.12791E+00  7.02918E+00  8.42415E+00  3.49279E+00  2.37114E+00  1.50322E+00 -3.49933E+00 -1.75247E+00
  -4.54406E-01 -1.79320E-01  1.19720E+01  1.72056E+00 -2.94328E+00  5.75253E+00  1.34965E+00 -2.15680E+00  9.80921E+00 -7.38580E+00
   6.12572E+00  1.93712E+00  1.06912E+00  5.86888E+00 -3.34763E+00 -5.63020E+00  4.34750E+00 -1.80021E+00 -6.55592E-01 -9.41166E-01
   2.11688E+00  3.39011E+00  4.23028E+00 -3.46332E+00  6.79605E+00  5.33687E+00  8.00840E+00  2.40938E+00  3.71721E+00 -2.65594E+00
   4.88838E+00  5.14580E+00  1.08059E+00  5.74597E+00 -1.32320E+00 -1.92524E+00  1.70248E+00 -1.43706E+00
 NY points of the fit to the data follow
   5.78339E+00  5.37119E+00  5.02149E+00  4.79245E+00  4.72729E+00  4.80986E+00  5.01558E+00  5.30112E+00  5.62984E+00  5.98399E+00
   6.32860E+00  6.59742E+00  6.71564E+00  6.64985E+00  6.42685E+00  6.12174E+00  5.84480E+00  5.72375E+00  5.78913E+00  6.00431E+00
   6.26848E+00  6.47800E+00  6.62767E+00  6.67382E+00  6.61357E+00  6.52411E+00  6.51049E+00  6.68673E+00  7.12098E+00  7.82552E+00
   8.72276E+00  9.64220E+00  1.03672E+01  1.07100E+01  1.05296E+01  9.81416E+00  8.68518E+00  7.37637E+00  6.14278E+00  5.26551E+00
   4.97360E+00  5.24259E+00  5.90003E+00  6.75122E+00  7.62606E+00  8.40759E+00  8.99885E+00  9.31757E+00  9.28359E+00  8.85966E+00
   8.10920E+00  7.20604E+00  6.34727E+00  5.69416E+00  5.33455E+00  5.24722E+00  5.35362E+00  5.58857E+00  5.89594E+00  6.19584E+00
   6.40435E+00  6.48316E+00  6.42686E+00  6.25742E+00  6.04389E+00  5.86196E+00  5.76062E+00  5.77064E+00  5.89574E+00  6.10557E+00
   6.36086E+00  6.61464E+00  6.81888E+00  6.93929E+00  6.97157E+00  6.91180E+00  6.75559E+00  6.52834E+00  6.31599E+00  6.20190E+00
   6.19364E+00  6.27813E+00  6.43282E+00  6.60979E+00  6.76813E+00  6.86340E+00  6.82131E+00  6.58392E+00  6.17707E+00  5.68516E+00
   5.20522E+00  4.82930E+00  4.59118E+00  4.47192E+00  4.46102E+00  4.68396E+00  5.28281E+00  6.20356E+00  7.32689E+00  8.53711E+00
   9.75552E+00  1.09306E+01  1.19597E+01  1.26350E+01  1.27634E+01  1.22934E+01  1.13269E+01  1.00672E+01  8.76096E+00  7.62202E+00
   6.73553E+00  6.08576E+00  5.63619E+00  5.39319E+00  5.30841E+00  5.27403E+00  5.25937E+00  5.26380E+00  5.32294E+00  5.55833E+00
   6.07216E+00  6.84000E+00  7.80588E+00  8.90073E+00  1.00538E+01  1.12046E+01  1.22438E+01  1.29729E+01  1.32173E+01  1.29213E+01
   1.21520E+01  1.10795E+01  9.91148E+00  8.81624E+00  7.88478E+00  7.13566E+00  6.58107E+00  6.26180E+00  6.15981E+00  6.19515E+00
   6.30918E+00  6.44127E+00  6.53588E+00  6.56322E+00  6.51665E+00  6.40259E+00  6.24548E+00  6.07041E+00  5.89680E+00  5.74241E+00
   5.61763E+00  5.52730E+00  5.45411E+00  5.31326E+00  5.06987E+00  4.74181E+00  4.37942E+00  4.06805E+00  3.80218E+00  3.53882E+00
   3.28426E+00  3.09218E+00  3.01385E+00  3.04280E+00  3.08260E+00  2.99532E+00  2.68487E+00  2.12889E+00  1.35259E+00  4.59917E-01
  -3.83757E-01 -1.10434E+00 -1.67249E+00 -2.13966E+00 -2.52101E+00 -2.75254E+00 -2.79477E+00 -2.64517E+00 -2.39043E+00 -2.19436E+00
  -2.09423E+00 -2.00779E+00 -1.84306E+00 -1.51737E+00 -9.92219E-01 -2.91197E-01  5.48061E-01  1.54728E+00  2.71353E+00  3.96040E+00
   5.09185E+00  5.92117E+00  6.38188E+00  6.52314E+00  6.46705E+00  6.37251E+00  6.37319E+00  6.52062E+00  6.88013E+00  7.45809E+00
   8.15495E+00  8.83856E+00  9.29228E+00  9.34211E+00  8.85790E+00  7.74705E+00  6.12326E+00  4.28191E+00  2.60572E+00  1.54908E+00
   1.33669E+00  1.99047E+00  3.37137E+00  5.23700E+00  7.21301E+00  8.77910E+00  9.50984E+00  9.25841E+00  8.11312E+00  6.36797E+00
   4.43890E+00  2.82396E+00  1.94758E+00  2.01655E+00  3.01129E+00  4.69836E+00  6.73149E+00  8.70817E+00  1.02282E+01  1.11815E+01
   1.16719E+01  1.18933E+01  1.20214E+01  1.21661E+01  1.24131E+01  1.27793E+01  1.32109E+01  1.36428E+01  1.40216E+01  1.42910E+01
   1.44218E+01  1.44229E+01  1.43734E+01  1.44172E+01  1.46578E+01  1.51189E+01  1.57737E+01  1.65797E+01  1.74520E+01  1.83222E+01
   1.92337E+01  2.06355E+01  2.45660E+01  3.24939E+01  4.37472E+01  5.72854E+01  7.18878E+01  8.64413E+01  1.00091E+02  1.11302E+02
   1.17422E+02  1.16259E+02  1.07555E+02  9.29556E+01  7.52448E+01  5.75562E+01  4.24039E+01  3.07480E+01  2.22336E+01  1.63444E+01
   1.31489E+01  1.18443E+01  1.11223E+01  1.06379E+01  1.02890E+01  1.00035E+01  9.71244E+00  9.38946E+00  9.03008E+00  8.64346E+00
   8.25451E+00  7.89476E+00  7.58732E+00  7.34818E+00  7.18707E+00  7.10157E+00  7.08029E+00  7.11222E+00  7.19022E+00  7.31250E+00
   7.48045E+00  7.69595E+00  7.96435E+00  8.29050E+00  8.67622E+00  9.12173E+00  9.62491E+00  1.01798E+01  1.07775E+01  1.14066E+01
   1.20536E+01  1.27027E+01  1.33373E+01  1.39401E+01  1.44939E+01  1.49825E+01  1.53915E+01  1.57096E+01  1.59289E+01  1.60458E+01
   1.60614E+01  1.59810E+01  1.58145E+01  1.55763E+01  1.52856E+01  1.49661E+01  1.46478E+01  1.43718E+01  1.42093E+01  1.42521E+01
   1.44147E+01  1.45438E+01  1.45331E+01  1.43002E+01  1.37894E+01  1.29382E+01  1.16486E+01  1.00115E+01  8.30987E+00  6.84909E+00
   5.91134E+00  5.68430E+00  6.24118E+00  7.54625E+00  9.41552E+00  1.15274E+01  1.35463E+01  1.52149E+01  1.63305E+01  1.68850E+01
   1.70442E+01  1.70180E+01  1.69641E+01  1.69483E+01  1.69943E+01  1.71652E+01  1.74592E+01  1.78062E+01  1.81648E+01  1.85089E+01
   1.88180E+01  1.90751E+01  1.92657E+01  1.93780E+01  1.94027E+01  1.93337E+01  1.91678E+01  1.89048E+01  1.85479E+01  1.81031E+01
   1.75791E+01  1.69865E+01  1.63375E+01  1.56453E+01  1.49235E+01  1.41857E+01  1.34447E+01  1.27124E+01  1.19992E+01  1.13141E+01
   1.06645E+01  1.00562E+01  9.49364E+00  8.97955E+00  8.51568E+00  8.10284E+00  7.74114E+00  7.43022E+00  7.16933E+00  6.95763E+00
   6.79433E+00  6.67897E+00  6.61137E+00  6.59176E+00  6.62074E+00  6.69935E+00  6.82903E+00  7.01167E+00  7.24927E+00  7.54386E+00
   7.89713E+00  8.31032E+00  8.78384E+00  9.31698E+00  9.90741E+00  1.05509E+01  1.12409E+01  1.19686E+01  1.27226E+01  1.34892E+01
   1.42522E+01  1.49937E+01  1.56945E+01  1.63346E+01  1.68948E+01  1.73568E+01  1.77044E+01  1.79245E+01  1.80079E+01  1.79495E+01
   1.77491E+01  1.74109E+01  1.69438E+01  1.63604E+01  1.56768E+01  1.49112E+01  1.40837E+01  1.32145E+01  1.23235E+01  1.14292E+01
   1.05485E+01  9.69560E+00  8.88223E+00  8.11720E+00  7.40660E+00  6.75400E+00  6.16078E+00  5.62644E+00  5.14891E+00  4.72499E+00
   4.35073E+00  4.02176E+00  3.73356E+00  3.48161E+00  3.26153E+00  3.06923E+00  2.90097E+00  2.75347E+00  2.62384E+00  2.50952E+00
   2.40827E+00  2.31818E+00  2.23765E+00  2.16538E+00  2.10023E+00  2.04123E+00  1.98751E+00  1.93839E+00  1.89330E+00  1.85178E+00
   1.81343E+00  1.77785E+00  1.74470E+00  1.71374E+00  1.68475E+00  1.65757E+00  1.63200E+00  1.60788E+00  1.58503E+00  1.56336E+00
   1.54280E+00  1.52328E+00  1.50466E+00  1.48687E+00  1.46983E+00  1.45350E+00  1.43786E+00  1.42287E+00  1.40843E+00  1.39450E+00
   1.38104E+00  1.36808E+00  1.35557E+00  1.34350E+00  1.33179E+00  1.32043E+00  1.30941E+00  1.29875E+00  1.28843E+00  1.27842E+00
   1.26866E+00  1.25916E+00  1.24994E+00  1.24102E+00  1.23237E+00  1.22396E+00  1.21576E+00  1.20781E+00  1.20012E+00  1.19272E+00
   1.18556E+00  1.17863E+00  1.17194E+00  1.16554E+00  1.15944E+00  1.15368E+00  1.14821E+00  1.14307E+00
 NY background values follow
     4.418E+00    4.412E+00    4.407E+00    4.401E+00    4.396E+00    4.390E+00    4.385E+00    4.379E+00    4.374E+00    4.368E+00
     4.363E+00    4.357E+00    4.352E+00    4.346E+00    4.341E+00    4.335E+00    4.330E+00    4.324E+00    4.318E+00    4.313E+00
     4.307E+00    4.302E+00    4.296E+00    4.291E+00    4.285E+00    4.280E+00    4.274E+00    4.269E+00    4.263E+00    4.257E+00
     4.252E+00    4.246E+00    4.241E+00    4.235E+00    4.230E+00    4.224E+00    4.218E+00    4.213E+00    4.207E+00    4.202E+00
     4.196E+00    4.190E+00    4.185E+00    4.179E+00    4.174E+00    4.168E+00    4.162E+00    4.157E+00    4.151E+00    4.146E+00
     4.140E+00    4.134E+00    4.129E+00    4.123E+00    4.118E+00    4.112E+00    4.106E+00    4.101E+00    4.095E+00    4.089E+00
     4.084E+00    4.078E+00    4.073E+00    4.067E+00    4.061E+00    4.056E+00    4.050E+00    4.044E+00    4.039E+00    4.033E+00
     4.027E+00    4.022E+00    4.016E+00    4.010E+00    4.005E+00    3.999E+00    3.993E+00    3.988E+00    3.982E+00    3.977E+00
     3.971E+00    3.965E+00    3.959E+00    3.954E+00    3.948E+00    3.942E+00    3.937E+00    3.931E+00    3.925E+00    3.920E+00
     3.914E+00    3.908E+00    3.903E+00    3.897E+00    3.891E+00    3.886E+00    3.880E+00    3.874E+00    3.868E+00    3.863E+00
     3.857E+00    3.851E+00    3.846E+00    3.840E+00    3.834E+00    3.829E+00    3.823E+00    3.817E+00    3.811E+00    3.806E+00
     3.800E+00    3.794E+00    3.788E+00    3.783E+00    3.777E+00    3.771E+00    3.766E+00    3.760E+00    3.754E+00    3.748E+00
     3.743E+00    3.737E+00    3.731E+00    3.725E+00    3.720E+00    3.714E+00    3.708E+00    3.702E+00    3.697E+00    3.691E+00
     3.685E+00    3.679E+00    3.674E+00    3.668E+00    3.662E+00    3.656E+00    3.650E+00    3.645E+00    3.639E+00    3.633E+00
     3.627E+00    3.622E+00    3.616E+00    3.610E+00    3.604E+00    3.598E+00    3.593E+00    3.587E+00    3.581E+00    3.575E+00
     3.570E+00    3.564E+00    3.558E+00    3.552E+00    3.546E+00    3.541E+00    3.535E+00    3.529E+00    3.523E+00    3.517E+00
     3.512E+00    3.506E+00    3.500E+00    3.494E+00    3.488E+00    3.483E+00    3.477E+00    3.471E+00    3.465E+00    3.459E+00
     3.453E+00    3.448E+00    3.442E+00    3.436E+00    3.430E+00    3.424E+00    3.419E+00    3.413E+00    3.407E+00    3.401E+00
     3.395E+00    3.389E+00    3.384E+00    3.378E+00    3.372E+00    3.366E+00    3.360E+00    3.354E+00    3.348E+00    3.343E+00
     3.337E+00    3.331E+00    3.325E+00    3.319E+00    3.313E+00    3.308E+00    3.302E+00    3.296E+00    3.290E+00    3.284E+00
     3.278E+00    3.272E+00    3.267E+00    3.261E+00    3.255E+00    3.249E+00    3.243E+00    3.237E+00    3.231E+00    3.225E+00
     3.220E+00    3.214E+00    3.208E+00    3.202E+00    3.196E+00    3.190E+00    3.184E+00    3.178E+00    3.173E+00    3.167E+00
     3.161E+00    3.155E+00    3.149E+00    3.143E+00    3.137E+00    3.131E+00    3.126E+00    3.120E+00    3.114E+00    3.108E+00
     3.102E+00    3.096E+00    3.090E+00    3.084E+00    3.078E+00    3.072E+00    3.067E+00    3.061E+00    3.055E+00    3.049E+00
     3.043E+00    3.037E+00    3.031E+00    3.025E+00    3.019E+00    3.013E+00    3.008E+00    3.002E+00    2.996E+00    2.990E+00
     2.984E+00    2.978E+00    2.972E+00    2.966E+00    2.960E+00    2.954E+00    2.948E+00    2.942E+00    2.937E+00    2.931E+00
     2.925E+00    2.919E+00    2.913E+00    2.907E+00    2.901E+00    2.895E+00    2.889E+00    2.883E+00    2.877E+00    2.871E+00
     2.865E+00    2.859E+00    2.854E+00    2.848E+00    2.842E+00    2.836E+00    2.830E+00    2.824E+00    2.818E+00    2.812E+00
     2.806E+00    2.800E+00    2.794E+00    2.788E+00    2.782E+00    2.776E+00    2.770E+00    2.764E+00    2.758E+00    2.753E+00
     2.747E+00    2.741E+00    2.735E+00    2.729E+00    2.723E+00    2.717E+00    2.711E+00    2.705E+00    2.699E+00    2.693E+00
     2.687E+00    2.681E+00    2.675E+00    2.669E+00    2.663E+00    2.657E+00    2.651E+00    2.645E+00    2.639E+00    2.633E+00
     2.628E+00    2.622E+00    2.616E+00    2.610E+00    2.604E+00    2.598E+00    2.592E+00    2.586E+00    2.580E+00    2.574E+00
     2.568E+00    2.562E+00    2.556E+00    2.550E+00    2.544E+00    2.538E+00    2.532E+00    2.526E+00    2.520E+00    2.514E+00
     2.508E+00    2.502E+00    2.496E+00    2.490E+00    2.484E+00    2.478E+00    2.472E+00    2.466E+00    2.460E+00    2.454E+00
     2.448E+00    2.442E+00    2.436E+00    2.430E+00    2.425E+00    2.419E+00    2.413E+00    2.407E+00    2.401E+00    2.395E+00
     2.389E+00    2.383E+00    2.377E+00    2.371E+00    2.365E+00    2.359E+00    2.353E+00    2.347E+00    2.341E+00    2.335E+00
     2.329E+00    2.323E+00    2.317E+00    2.311E+00    2.305E+00    2.299E+00    2.293E+00    2.287E+00    2.281E+00    2.275E+00
     2.269E+00    2.263E+00    2.257E+00    2.251E+00    2.245E+00    2.239E+00    2.233E+00    2.227E+00    2.221E+00    2.215E+00
     2.209E+00    2.203E+00    2.197E+00    2.191E+00    2.185E+00    2.179E+00    2.173E+00    2.167E+00    2.161E+00    2.155E+00
     2.149E+00    2.143E+00    2.137E+00    2.131E+00    2.125E+00    2.119E+00    2.113E+00    2.107E+00    2.101E+00    2.095E+00
     2.089E+00    2.083E+00    2.077E+00    2.071E+00    2.065E+00    2.059E+00    2.053E+00    2.047E+00    2.041E+00    2.035E+00
     2.029E+00    2.023E+00    2.017E+00    2.011E+00    2.005E+00    1.999E+00    1.993E+00    1.987E+00    1.981E+00    1.975E+00
     1.969E+00    1.963E+00    1.957E+00    1.951E+00    1.945E+00    1.939E+00    1.933E+00    1.927E+00    1.921E+00    1.915E+00
     1.909E+00    1.903E+00    1.897E+00    1.891E+00    1.885E+00    1.879E+00    1.873E+00    1.867E+00    1.861E+00    1.855E+00
     1.849E+00    1.843E+00    1.837E+00    1.831E+00    1.825E+00    1.819E+00    1.813E+00    1.807E+00    1.801E+00    1.795E+00
     1.789E+00    1.784E+00    1.778E+00    1.772E+00    1.766E+00    1.760E+00    1.754E+00    1.748E+00    1.742E+00    1.736E+00
     1.730E+00    1.724E+00    1.718E+00    1.712E+00    1.706E+00    1.700E+00    1.694E+00    1.688E+00    1.682E+00    1.676E+00
     1.670E+00    1.664E+00    1.658E+00    1.652E+00    1.646E+00    1.640E+00    1.634E+00    1.628E+00    1.622E+00    1.616E+00
     1.610E+00    1.604E+00    1.598E+00    1.592E+00    1.586E+00    1.580E+00    1.574E+00    1.568E+00    1.562E+00    1.556E+00
     1.550E+00    1.544E+00    1.538E+00    1.532E+00    1.526E+00    1.520E+00    1.514E+00    1.508E+00
 Ala      Conc. = 5.42E+02
