 LCModel (Version 6.3-1L) Copyright: S.W. Provencher.          Ref.: Magn. Reson. Med. 30:672-679 (1993).                
 Slice#1 Row#2 Col#11  PD_05_press_2_raw_act
 36 lines in following concentration table = NCONC+1
    Conc.  %SD /Cr+PCr  Metabolite                                         
    0.000 999%   0.000 Ala                                                 
    3.931 211%   0.000 Asp                                                 
    0.000 999%   0.000 Cr                                                  
    0.000 999%   0.000 PCr                                                 
    2.383 208%   0.000 GABA                                                
    2.431 204%   0.000 Glc                                                 
    0.000 999%   0.000 Gln                                                 
  112.699 279%   0.000 Glu                                                 
    0.000 999%   0.000 GPC                                                 
    0.000 999%   0.000 PCh                                                 
    0.000 999%   0.000 GSH                                                 
  355.407  92%   0.000 Ins                                                 
    0.000 999%   0.000 Lac                                                 
   80.536 114%   0.000 NAA                                                 
    0.000 999%   0.000 NAAG                                                
    0.777 213%   0.000 Scyllo                                              
    3.999 207%   0.000 Tau                                                 
 9.91E-03 999%   0.000 -CrCH2                                              
    0.000 999%   0.000 GPC+PCh                                             
   80.536 114%   0.000 NAA+NAAG                                            
    0.000 999%   0.000 Cr+PCr                                              
  112.699 279%   0.000 Glu+Gln                                             
    0.000 999%   0.000 Lip13a                                              
 1.14E+03  30%   0.000 Lip13b                                              
    0.000 999%   0.000 Lip09                                               
 1.58E+03  15%   0.000 MM09                                                
  230.118  99%   0.000 Lip20                                               
 2.37E+03  15%   0.000 MM20                                                
  474.993  15%   0.000 MM12                                                
 1.19E+03  15%   0.000 MM14                                                
  594.044  15%   0.000 MM17                                                
 1.14E+03  30%   0.000 Lip13a+Lip13b                                       
 2.80E+03  14%   0.000 MM14+Lip13a+Lip13b+MM12                             
 1.58E+03  15%   0.000 MM09+Lip09                                          
 2.61E+03  15%   0.000 MM20+Lip20                                          
   6 lines in following misc. output table
  FWHM = 0.038 ppm    S/N =   1                                            
  Data shift = 0.008 ppm                                                   
  Ph:  29 deg     -32.3 deg/ppm                                            
  alphaB,S = 8.5E+01,   1.3E+01                                            
   14 spline knots.   Ns = 5(1)                                            
   2 inflections.     1 extrema                                            
  498 points on ppm-axis = NY
      4.000000     3.992357     3.984714     3.977070     3.969427     3.961784     3.954141     3.946497     3.938854     3.931211
      3.923568     3.915925     3.908281     3.900638     3.892995     3.885352     3.877708     3.870065     3.862422     3.854779
      3.847136     3.839492     3.831849     3.824206     3.816563     3.808919     3.801276     3.793633     3.785990     3.778347
      3.770703     3.763060     3.755417     3.747774     3.740130     3.732487     3.724844     3.717201     3.709558     3.701914
      3.694271     3.686628     3.678985     3.671341     3.663698     3.656055     3.648412     3.640769     3.633125     3.625482
      3.617839     3.610196     3.602552     3.594909     3.587266     3.579623     3.571980     3.564336     3.556693     3.549050
      3.541407     3.533763     3.526120     3.518477     3.510834     3.503191     3.495547     3.487904     3.480261     3.472618
      3.464974     3.457331     3.449688     3.442045     3.434402     3.426758     3.419115     3.411472     3.403829     3.396185
      3.388542     3.380899     3.373256     3.365613     3.357969     3.350326     3.342683     3.335040     3.327396     3.319753
      3.312110     3.304467     3.296824     3.289180     3.281537     3.273894     3.266251     3.258607     3.250964     3.243321
      3.235678     3.228034     3.220391     3.212748     3.205105     3.197462     3.189818     3.182175     3.174532     3.166889
      3.159245     3.151602     3.143959     3.136316     3.128673     3.121029     3.113386     3.105743     3.098100     3.090456
      3.082813     3.075170     3.067527     3.059884     3.052240     3.044597     3.036954     3.029311     3.021667     3.014024
      3.006381     2.998738     2.991095     2.983451     2.975808     2.968165     2.960522     2.952878     2.945235     2.937592
      2.929949     2.922306     2.914662     2.907019     2.899376     2.891733     2.884089     2.876446     2.868803     2.861160
      2.853517     2.845873     2.838230     2.830587     2.822944     2.815300     2.807657     2.800014     2.792371     2.784728
      2.777084     2.769441     2.761798     2.754155     2.746511     2.738868     2.731225     2.723582     2.715939     2.708295
      2.700652     2.693009     2.685366     2.677722     2.670079     2.662436     2.654793     2.647150     2.639506     2.631863
      2.624220     2.616577     2.608933     2.601290     2.593647     2.586004     2.578361     2.570717     2.563074     2.555431
      2.547788     2.540144     2.532501     2.524858     2.517215     2.509572     2.501928     2.494285     2.486642     2.478999
      2.471355     2.463712     2.456069     2.448426     2.440783     2.433139     2.425496     2.417853     2.410210     2.402566
      2.394923     2.387280     2.379637     2.371994     2.364350     2.356707     2.349064     2.341421     2.333777     2.326134
      2.318491     2.310848     2.303205     2.295561     2.287918     2.280275     2.272632     2.264988     2.257345     2.249702
      2.242059     2.234416     2.226772     2.219129     2.211486     2.203843     2.196199     2.188556     2.180913     2.173270
      2.165627     2.157983     2.150340     2.142697     2.135054     2.127410     2.119767     2.112124     2.104481     2.096838
      2.089194     2.081551     2.073908     2.066265     2.058621     2.050978     2.043335     2.035692     2.028049     2.020405
      2.012762     2.005119     1.997476     1.989833     1.982190     1.974546     1.966903     1.959260     1.951617     1.943974
      1.936331     1.928688     1.921045     1.913402     1.905759     1.898115     1.890472     1.882829     1.875186     1.867543
      1.859900     1.852257     1.844614     1.836971     1.829327     1.821684     1.814041     1.806398     1.798755     1.791112
      1.783469     1.775826     1.768183     1.760540     1.752896     1.745253     1.737610     1.729967     1.722324     1.714681
      1.707038     1.699395     1.691752     1.684108     1.676465     1.668822     1.661179     1.653536     1.645893     1.638250
      1.630607     1.622964     1.615321     1.607677     1.600034     1.592391     1.584748     1.577105     1.569462     1.561819
      1.554176     1.546533     1.538890     1.531246     1.523603     1.515960     1.508317     1.500674     1.493031     1.485388
      1.477745     1.470102     1.462458     1.454815     1.447172     1.439529     1.431886     1.424243     1.416600     1.408957
      1.401314     1.393671     1.386027     1.378384     1.370741     1.363098     1.355455     1.347812     1.340169     1.332526
      1.324883     1.317240     1.309596     1.301953     1.294310     1.286667     1.279024     1.271381     1.263738     1.256095
      1.248452     1.240808     1.233165     1.225522     1.217879     1.210236     1.202593     1.194950     1.187307     1.179664
      1.172021     1.164377     1.156734     1.149091     1.141448     1.133805     1.126162     1.118519     1.110876     1.103233
      1.095590     1.087946     1.080303     1.072660     1.065017     1.057374     1.049731     1.042088     1.034445     1.026802
      1.019158     1.011515     1.003872     0.996229     0.988586     0.980943     0.973300     0.965657     0.958014     0.950371
      0.942727     0.935084     0.927441     0.919798     0.912155     0.904512     0.896869     0.889226     0.881583     0.873940
      0.866296     0.858653     0.851010     0.843367     0.835724     0.828081     0.820438     0.812795     0.805152     0.797508
      0.789865     0.782222     0.774579     0.766936     0.759293     0.751650     0.744007     0.736364     0.728721     0.721077
      0.713434     0.705791     0.698148     0.690505     0.682862     0.675219     0.667576     0.659933     0.652290     0.644646
      0.637003     0.629360     0.621717     0.614074     0.606431     0.598788     0.591145     0.583502     0.575858     0.568215
      0.560572     0.552929     0.545286     0.537643     0.530000     0.522357     0.514714     0.507071     0.499427     0.491784
      0.484141     0.476498     0.468855     0.461212     0.453569     0.445925     0.438282     0.430639     0.422996     0.415353
      0.407710     0.400067     0.392424     0.384780     0.377137     0.369494     0.361851     0.354208     0.346565     0.338922
      0.331278     0.323635     0.315992     0.308349     0.300706     0.293063     0.285420     0.277777     0.270133     0.262490
      0.254847     0.247204     0.239561     0.231918     0.224275     0.216631     0.208988     0.201345
 NY phased data points follow
   4.81879E+00 -1.68950E+01 -1.36229E+01  4.74979E+00  2.61169E+01  4.80318E+00  7.19139E+00 -2.29414E+01 -4.31653E+00  6.23489E+00
   1.61751E+01  1.53523E+01  9.14414E+00 -1.22778E+00 -5.32471E+00  2.24601E+00  8.58502E+00  1.63855E+01  1.92445E+01  6.42207E+00
   7.91200E+00 -2.81272E+00  6.72405E+00 -6.24589E+00  7.48275E+00  2.52002E+01  1.53897E+01  7.13248E+00  1.13069E+01 -8.00839E+00
   9.34027E-01  1.61946E+00  7.79986E+00  1.77761E+00  5.95748E+00 -3.22030E+00 -4.61406E+00  3.12566E-01  1.39885E+01  5.01063E+00
   8.01982E+00  8.43763E-01  7.73454E+00 -4.42821E+00  8.44394E+00  1.18304E-01  1.42954E+01  1.24518E+01  3.00245E+00 -6.60472E-01
   1.02627E+01 -8.09344E+00  6.34093E+00  1.04476E+01  1.85269E+00  2.46591E+00  6.71266E+00  2.99288E+00  1.02884E+01  1.78231E+00
   1.06612E+01  7.87983E+00 -1.56021E-01 -1.76311E+00  7.51096E+00  5.94261E+00  6.91926E+00  5.59715E+00  8.28875E+00  5.17713E+00
   1.07168E+01  4.67750E+00  1.28865E+01  4.68147E+00  1.20469E+01 -2.99244E+00  1.79399E+01 -3.06856E+00  8.05143E+00  1.13646E+01
   6.59519E+00  2.34061E+00  1.34982E+01 -1.05278E+00 -6.25800E-01 -3.38549E+00  5.43921E+00 -1.29406E+00  9.94889E+00  3.50608E+00
   6.69857E+00  9.07580E+00  3.60953E+00  4.14979E+00  4.64768E+00  4.85390E+00  5.80786E+00  1.26761E+00  4.46285E+00  1.12091E+01
  -1.54612E+00 -4.87084E+00  3.26534E-01  1.55197E+00  1.63964E+01  5.08000E+00  4.26791E+00 -1.86600E-01 -4.26513E+00  7.55678E+00
  -2.04029E+00  2.49168E+00  3.10546E-01  1.28449E+01  4.28807E+00 -3.38454E+00  2.55858E+01 -1.38448E+00  2.34611E+00  1.13585E+01
   4.17789E-01  7.42018E+00  4.28465E+00  2.37893E+00  1.68202E+00 -2.27429E+00  1.29998E+00  3.02637E+00  1.86740E+01 -2.00990E+00
   8.18724E+00  1.76643E+00  7.23877E+00  1.99591E+00  1.41654E+01  6.48044E+00  1.15988E+00  6.39895E+00  1.54563E+01  8.08847E+00
   1.19953E+01  1.04470E+01  1.04134E+01 -1.04366E+01  6.31765E+00  1.01993E+00  1.64749E+00  4.26562E+00  1.09425E+01  1.16105E+01
   4.53873E+00  1.18358E+01  8.12540E+00  9.43509E+00  5.55617E+00  1.08308E+01  5.03768E+00  3.76569E+00  1.45512E+01  3.66550E+00
   8.09662E+00  3.22062E+00  2.64170E+00  9.89855E+00  1.05424E+01  1.90913E+01  9.00616E+00  1.07376E+01 -2.55083E-01  6.29822E+00
   1.10140E+01  1.02251E+01  1.77918E+01  4.19094E+00  5.33407E-01  9.94770E+00 -5.48162E+00  5.18354E+00 -3.67651E+00  8.09365E+00
   3.02951E+00  4.66968E+00  1.63602E+00  9.04765E+00  9.28445E-01  8.22345E+00  1.00153E+01  1.27739E+00 -9.91168E-01  7.58303E+00
   6.62340E+00  4.90651E+00  3.79526E-01  1.57233E+01  1.44149E+01  5.67436E+00  4.47459E+00  6.31729E+00  1.24697E+01  8.24768E+00
   6.78298E+00  6.74399E+00  1.04436E+01  1.14977E+00  1.04089E+01 -3.61848E+00  8.21285E+00  1.27529E+01  2.54168E+00  3.86358E-01
   1.14303E+00  2.01281E+01  1.52786E+01  1.06840E+01  1.91848E+00  1.90243E+01  2.09618E+01 -2.98542E+00  1.56189E+01  4.07376E+00
   1.34987E+01  1.16015E+01  5.33279E+00  6.09187E+00  7.54259E+00  3.40406E+00  4.21358E+00  9.16163E-01  4.46365E+00  2.22567E+00
   1.30769E+01  2.35289E+00  4.33435E+00  8.93056E+00  7.53090E+00  9.43394E+00 -4.72567E+00  8.94880E+00 -3.88741E+00  1.46304E+01
  -1.23765E+00  1.09852E+01  1.30333E+01  8.57372E-01  1.49616E+01  1.75558E+01  9.66673E+00  2.17860E+01  1.90736E+01  1.32221E+01
   1.54002E+01  8.16040E+00  1.33562E+01  1.25703E+01  1.73954E+01  4.02698E+00  1.25359E+01  9.09413E+00  1.89104E+01  1.29966E+01
   1.27912E+01  2.28300E+01  1.76811E+01  1.13607E+01  1.81558E+01 -3.58036E+00 -2.34826E+00  5.91233E-01  1.47865E+01  1.50782E+01
   2.79774E-02  4.65899E+00  1.55444E+01  2.40659E+01  1.66131E+01  1.30705E+01  1.42255E+01  4.90588E+00  1.13132E+01  9.49858E+00
   1.24594E+01  2.78900E-01  1.11882E+01  1.83483E+01  6.19764E+00  1.81939E+01  1.34212E+01  1.04496E+01  9.22507E+00  9.09866E-01
   9.76577E+00  7.31304E+00  5.50962E+00  6.36450E+00  4.82544E+00 -2.02063E+00  9.01407E+00  1.34337E+01  7.58818E+00  9.57684E+00
   1.69995E+01  1.10918E+01  1.39327E+01  1.19082E+01  1.32917E+01  1.28284E+01  3.05041E+01  2.49040E+01  7.05180E+00  1.75691E+01
   1.59044E+01  1.99575E+01  1.12940E+01  2.35693E+01  1.58908E+01  1.07076E+01  6.66648E+00  1.17668E+01  1.23899E+01  1.27768E+01
   7.68170E+00  1.25439E+01  1.08091E+01  4.66960E+00  1.78167E+01  1.63679E+01  7.64728E+00  1.62543E+01  1.79866E+01  1.28078E+01
   1.79808E+01  7.55010E+00  2.58347E+01  1.85638E+01  2.12716E+01  2.18974E+00  1.36574E+01  2.58371E+00  7.79320E+00  8.14541E+00
  -3.17521E+00  2.53793E+00 -3.84196E+00  1.40376E+00 -3.67801E+00 -5.88450E+00  6.18484E+00 -2.97130E-01  6.26867E+00  6.34405E+00
  -9.86806E+00  5.56354E+00  7.33618E+00  1.48320E+00  1.17045E+01  1.36492E+01  7.91261E+00  1.00980E+01  1.10223E+01  1.80257E+01
   1.29951E+01  2.23857E+01  2.57373E+01  2.36890E+01  2.12985E+01  2.94914E+01  1.27481E+01  2.38389E+01  2.93547E+01  1.27597E+01
   3.11037E+01  1.06222E+01  2.28420E+01  1.32122E+01  1.70470E+01  1.00426E+01  1.39909E+01  9.61656E+00  1.58564E+01  6.19243E+00
   1.04280E+01  2.34397E+01  7.54850E+00  5.36439E+00  1.92038E+01  3.56151E+00  3.16013E+00  1.29615E+01  7.97645E+00  1.14266E+01
   1.93695E+01  7.90276E+00  7.01061E+00  1.49171E+01  8.95932E+00  1.94257E+01  1.53039E+01  1.87671E+01  1.16325E+01  7.30710E+00
   1.96140E+01  3.30385E+00  6.13521E-01  3.05098E+00  1.05089E+01  5.82032E+00  1.19316E+01  1.86349E+01  7.28970E+00  1.20501E+01
   7.59354E+00  1.09721E+01  7.83879E+00  5.71182E+00  4.08130E+00  9.05482E+00  1.00427E+01  9.98840E+00  8.64051E+00  7.62226E+00
   4.22783E+00 -2.69359E+00  5.01490E+00  6.47280E+00  7.32715E+00  1.52617E+00  2.30268E+00  1.20584E+01  8.86462E+00  6.31929E-01
   1.35184E+01  1.76419E+01  5.07345E+00  8.91218E+00  3.70344E-01  9.60945E+00 -2.55281E+00  1.10652E+01  8.19384E+00  7.38048E+00
  -1.03105E+01  6.22226E+00  4.00448E+00 -4.07789E+00 -4.43851E-01 -7.62581E+00  9.95209E+00  2.66333E+00 -7.17717E+00  9.97673E+00
   1.03945E+00  6.70463E+00  3.97428E+00  5.67518E-01  4.36939E+00  4.97176E+00  1.74302E+01  6.73012E+00 -2.83477E+00 -2.00099E+00
   6.04111E+00  7.29130E+00  3.97888E+00  1.33032E+00  9.77338E-01  8.48595E+00  1.42201E+01  8.65183E+00 -6.72537E+00 -2.05842E+00
  -9.68678E+00  9.32733E-01  1.56589E+01 -5.57711E+00  6.84259E+00 -1.84257E+00  7.54542E+00  7.23253E+00  8.34870E+00  1.53876E+00
   2.74311E+00  1.12657E+01  2.84731E+00  3.89477E+00 -1.19117E+00  2.31112E+00 -3.02432E+00  5.21527E+00  1.33092E-01  8.02288E+00
   2.26745E+00  3.95262E+00  4.99519E+00  1.26464E+01  1.01149E+01  4.60891E-02  4.77500E+00 -2.92188E+00
 NY points of the fit to the data follow
   4.83857E+00  4.71202E+00  4.66112E+00  4.63188E+00  4.61038E+00  4.59621E+00  4.58767E+00  4.58332E+00  4.58177E+00  4.58151E+00
   4.58139E+00  4.58127E+00  4.58091E+00  4.58029E+00  4.58009E+00  4.58081E+00  4.58357E+00  4.59013E+00  4.60219E+00  4.62140E+00
   4.65007E+00  4.69192E+00  4.74188E+00  4.77252E+00  4.76095E+00  4.70237E+00  4.61437E+00  4.53963E+00  4.53181E+00  4.62808E+00
   4.82109E+00  5.05834E+00  5.27574E+00  5.41995E+00  5.44136E+00  5.33167E+00  5.11632E+00  4.84689E+00  4.58696E+00  4.39089E+00
   4.29650E+00  4.34764E+00  4.65860E+00  5.33557E+00  6.29145E+00  7.24496E+00  7.88425E+00  7.96603E+00  7.42018E+00  6.40947E+00
   5.26666E+00  4.35096E+00  3.89074E+00  3.89108E+00  4.17477E+00  4.55902E+00  4.97886E+00  5.41871E+00  5.80016E+00  6.01665E+00
   5.99309E+00  5.72827E+00  5.31263E+00  4.88676E+00  4.59879E+00  4.53231E+00  4.65938E+00  4.91191E+00  5.20446E+00  5.45140E+00
   5.60818E+00  5.65759E+00  5.60880E+00  5.49021E+00  5.33657E+00  5.18741E+00  5.07140E+00  5.00602E+00  4.98187E+00  4.96388E+00
   4.94282E+00  4.91007E+00  4.82684E+00  4.65062E+00  4.36801E+00  4.02196E+00  3.69672E+00  3.48813E+00  3.46571E+00  3.64532E+00
   3.97470E+00  4.36420E+00  4.70890E+00  4.91926E+00  4.96645E+00  4.86478E+00  4.66076E+00  4.41137E+00  4.17932E+00  4.01598E+00
   3.94822E+00  3.97544E+00  4.07609E+00  4.21065E+00  4.35134E+00  4.48948E+00  4.61509E+00  4.72096E+00  4.80712E+00  4.88167E+00
   4.95543E+00  5.03394E+00  5.11309E+00  5.18527E+00  5.25032E+00  5.30895E+00  5.36520E+00  5.42361E+00  5.48758E+00  5.55829E+00
   5.63508E+00  5.71563E+00  5.79725E+00  5.87720E+00  5.95249E+00  6.02145E+00  6.08288E+00  6.13567E+00  6.17829E+00  6.20961E+00
   6.22959E+00  6.23921E+00  6.23957E+00  6.23168E+00  6.21666E+00  6.19545E+00  6.16858E+00  6.13542E+00  6.09528E+00  6.04850E+00
   5.99630E+00  5.94077E+00  5.88361E+00  5.82523E+00  5.76575E+00  5.70501E+00  5.64273E+00  5.57940E+00  5.51641E+00  5.45566E+00
   5.39838E+00  5.34476E+00  5.29443E+00  5.24673E+00  5.20134E+00  5.15680E+00  5.10678E+00  5.04726E+00  4.98150E+00  4.91893E+00
   4.87343E+00  4.85126E+00  4.84701E+00  4.84777E+00  4.83875E+00  4.81014E+00  4.76140E+00  4.70207E+00  4.64745E+00  4.60532E+00
   4.57374E+00  4.54345E+00  4.50503E+00  4.46602E+00  4.43846E+00  4.42834E+00  4.43148E+00  4.43881E+00  4.44329E+00  4.44127E+00
   4.43421E+00  4.42565E+00  4.41674E+00  4.41253E+00  4.41908E+00  4.43521E+00  4.46201E+00  4.50038E+00  4.54881E+00  4.59849E+00
   4.63837E+00  4.66590E+00  4.68807E+00  4.71230E+00  4.74216E+00  4.77111E+00  4.78945E+00  4.79594E+00  4.79911E+00  4.81706E+00
   4.86369E+00  4.94183E+00  5.03641E+00  5.12331E+00  5.18103E+00  5.19519E+00  5.16951E+00  5.12303E+00  5.08335E+00  5.08921E+00
   5.18100E+00  5.40052E+00  5.73613E+00  6.11483E+00  6.44229E+00  6.62970E+00  6.62454E+00  6.42856E+00  6.10221E+00  5.77383E+00
   5.58909E+00  5.63281E+00  5.91076E+00  6.34805E+00  6.85752E+00  7.34630E+00  7.73151E+00  7.97797E+00  8.11183E+00  8.20381E+00
   8.31475E+00  8.46406E+00  8.65381E+00  8.88597E+00  9.14947E+00  9.42516E+00  9.69470E+00  9.95130E+00  1.01973E+01  1.04499E+01
   1.07329E+01  1.10636E+01  1.14407E+01  1.18480E+01  1.22560E+01  1.26249E+01  1.29193E+01  1.31296E+01  1.32730E+01  1.33785E+01
   1.34784E+01  1.35806E+01  1.36746E+01  1.37379E+01  1.37740E+01  1.39104E+01  1.43162E+01  1.49479E+01  1.56052E+01  1.60173E+01
   1.59472E+01  1.53050E+01  1.42103E+01  1.29364E+01  1.17766E+01  1.09329E+01  1.04315E+01  1.00920E+01  9.74502E+00  9.41031E+00
   9.10186E+00  8.81820E+00  8.55834E+00  8.31821E+00  8.08651E+00  7.85562E+00  7.62303E+00  7.39225E+00  7.17093E+00  6.96782E+00
   6.78754E+00  6.63120E+00  6.49936E+00  6.39177E+00  6.30750E+00  6.24609E+00  6.20802E+00  6.19516E+00  6.21005E+00  6.25429E+00
   6.32917E+00  6.43559E+00  6.57367E+00  6.74263E+00  6.94088E+00  7.16603E+00  7.41455E+00  7.68171E+00  7.96202E+00  8.24924E+00
   8.53646E+00  8.81653E+00  9.08230E+00  9.32710E+00  9.54516E+00  9.73200E+00  9.88475E+00  1.00023E+01  1.00854E+01  1.01364E+01
   1.01593E+01  1.01594E+01  1.01428E+01  1.01160E+01  1.00859E+01  1.00584E+01  1.00390E+01  1.00316E+01  1.00390E+01  1.00621E+01
   1.01004E+01  1.01520E+01  1.02136E+01  1.02808E+01  1.03486E+01  1.04115E+01  1.04641E+01  1.05013E+01  1.05183E+01  1.05116E+01
   1.04781E+01  1.04164E+01  1.03257E+01  1.02067E+01  1.00612E+01  9.89169E+00  9.70174E+00  9.49550E+00  9.27765E+00  9.05320E+00
   8.82745E+00  8.60590E+00  8.39433E+00  8.19907E+00  8.02747E+00  7.88861E+00  7.79443E+00  7.76094E+00  7.80952E+00  7.96775E+00
   8.26927E+00  8.75177E+00  9.45261E+00  1.04017E+01  1.16124E+01  1.30712E+01  1.47296E+01  1.65005E+01  1.82615E+01  1.98663E+01
   2.11645E+01  2.20242E+01  2.23552E+01  2.21246E+01  2.13631E+01  2.01591E+01  1.86420E+01  1.69602E+01  1.52580E+01  1.36560E+01
   1.22403E+01  1.10587E+01  1.01248E+01  9.42626E+00  8.93491E+00  8.61576E+00  8.43418E+00  8.36009E+00  8.36989E+00  8.44651E+00
   8.57842E+00  8.75827E+00  8.98139E+00  9.24464E+00  9.54538E+00  9.88084E+00  1.02476E+01  1.06413E+01  1.10567E+01  1.14870E+01
   1.19246E+01  1.23610E+01  1.27866E+01  1.31915E+01  1.35657E+01  1.38991E+01  1.41825E+01  1.44076E+01  1.45673E+01  1.46565E+01
   1.46719E+01  1.46121E+01  1.44781E+01  1.42729E+01  1.40014E+01  1.36702E+01  1.32872E+01  1.28614E+01  1.24021E+01  1.19190E+01
   1.14215E+01  1.09184E+01  1.04179E+01  9.92693E+00  9.45151E+00  8.99640E+00  8.56518E+00  8.16034E+00  7.78334E+00  7.43478E+00
   7.11449E+00  6.82172E+00  6.55526E+00  6.31360E+00  6.09499E+00  5.89759E+00  5.71955E+00  5.55902E+00  5.41425E+00  5.28358E+00
   5.16551E+00  5.05863E+00  4.96171E+00  4.87361E+00  4.79334E+00  4.72003E+00  4.65290E+00  4.59127E+00  4.53454E+00  4.48219E+00
   4.43377E+00  4.38887E+00  4.34714E+00  4.30827E+00  4.27198E+00  4.23804E+00  4.20622E+00  4.17634E+00  4.14823E+00  4.12174E+00
   4.09674E+00  4.07309E+00  4.05070E+00  4.02946E+00  4.00929E+00  3.99011E+00  3.97184E+00  3.95443E+00  3.93780E+00  3.92190E+00
   3.90670E+00  3.89213E+00  3.87815E+00  3.86474E+00  3.85185E+00  3.83945E+00  3.82751E+00  3.81601E+00  3.80491E+00  3.79419E+00
   3.78384E+00  3.77384E+00  3.76415E+00  3.75477E+00  3.74568E+00  3.73687E+00  3.72831E+00  3.72001E+00  3.71193E+00  3.70408E+00
   3.69643E+00  3.68899E+00  3.68174E+00  3.67468E+00  3.66778E+00  3.66106E+00  3.65449E+00  3.64807E+00  3.64180E+00  3.63567E+00
   3.62967E+00  3.62380E+00  3.61806E+00  3.61243E+00  3.60691E+00  3.60151E+00  3.59620E+00  3.59100E+00
 NY background values follow
     4.363E+00    4.361E+00    4.360E+00    4.358E+00    4.356E+00    4.354E+00    4.352E+00    4.350E+00    4.348E+00    4.346E+00
     4.344E+00    4.342E+00    4.340E+00    4.338E+00    4.336E+00    4.335E+00    4.333E+00    4.331E+00    4.329E+00    4.327E+00
     4.325E+00    4.323E+00    4.321E+00    4.319E+00    4.317E+00    4.315E+00    4.313E+00    4.311E+00    4.310E+00    4.308E+00
     4.306E+00    4.304E+00    4.302E+00    4.300E+00    4.298E+00    4.296E+00    4.294E+00    4.292E+00    4.290E+00    4.288E+00
     4.286E+00    4.285E+00    4.283E+00    4.281E+00    4.279E+00    4.277E+00    4.275E+00    4.273E+00    4.271E+00    4.269E+00
     4.267E+00    4.265E+00    4.263E+00    4.261E+00    4.260E+00    4.258E+00    4.256E+00    4.254E+00    4.252E+00    4.250E+00
     4.248E+00    4.246E+00    4.244E+00    4.242E+00    4.240E+00    4.238E+00    4.236E+00    4.235E+00    4.233E+00    4.231E+00
     4.229E+00    4.227E+00    4.225E+00    4.223E+00    4.221E+00    4.219E+00    4.217E+00    4.215E+00    4.213E+00    4.211E+00
     4.210E+00    4.208E+00    4.206E+00    4.204E+00    4.202E+00    4.200E+00    4.198E+00    4.196E+00    4.194E+00    4.192E+00
     4.190E+00    4.188E+00    4.186E+00    4.185E+00    4.183E+00    4.181E+00    4.179E+00    4.177E+00    4.175E+00    4.173E+00
     4.171E+00    4.169E+00    4.167E+00    4.165E+00    4.163E+00    4.161E+00    4.160E+00    4.158E+00    4.156E+00    4.154E+00
     4.152E+00    4.150E+00    4.148E+00    4.146E+00    4.144E+00    4.142E+00    4.140E+00    4.138E+00    4.136E+00    4.135E+00
     4.133E+00    4.131E+00    4.129E+00    4.127E+00    4.125E+00    4.123E+00    4.121E+00    4.119E+00    4.117E+00    4.115E+00
     4.113E+00    4.111E+00    4.110E+00    4.108E+00    4.106E+00    4.104E+00    4.102E+00    4.100E+00    4.098E+00    4.096E+00
     4.094E+00    4.092E+00    4.090E+00    4.088E+00    4.086E+00    4.085E+00    4.083E+00    4.081E+00    4.079E+00    4.077E+00
     4.075E+00    4.073E+00    4.071E+00    4.069E+00    4.067E+00    4.065E+00    4.063E+00    4.061E+00    4.060E+00    4.058E+00
     4.056E+00    4.054E+00    4.052E+00    4.050E+00    4.048E+00    4.046E+00    4.044E+00    4.042E+00    4.040E+00    4.038E+00
     4.036E+00    4.034E+00    4.033E+00    4.031E+00    4.029E+00    4.027E+00    4.025E+00    4.023E+00    4.021E+00    4.019E+00
     4.017E+00    4.015E+00    4.013E+00    4.011E+00    4.009E+00    4.008E+00    4.006E+00    4.004E+00    4.002E+00    4.000E+00
     3.998E+00    3.996E+00    3.994E+00    3.992E+00    3.990E+00    3.988E+00    3.986E+00    3.984E+00    3.983E+00    3.981E+00
     3.979E+00    3.977E+00    3.975E+00    3.973E+00    3.971E+00    3.969E+00    3.967E+00    3.965E+00    3.963E+00    3.961E+00
     3.959E+00    3.958E+00    3.956E+00    3.954E+00    3.952E+00    3.950E+00    3.948E+00    3.946E+00    3.944E+00    3.942E+00
     3.940E+00    3.938E+00    3.936E+00    3.934E+00    3.932E+00    3.931E+00    3.929E+00    3.927E+00    3.925E+00    3.923E+00
     3.921E+00    3.919E+00    3.917E+00    3.915E+00    3.913E+00    3.911E+00    3.909E+00    3.907E+00    3.906E+00    3.904E+00
     3.902E+00    3.900E+00    3.898E+00    3.896E+00    3.894E+00    3.892E+00    3.890E+00    3.888E+00    3.886E+00    3.884E+00
     3.882E+00    3.880E+00    3.879E+00    3.877E+00    3.875E+00    3.873E+00    3.871E+00    3.869E+00    3.867E+00    3.865E+00
     3.863E+00    3.861E+00    3.859E+00    3.857E+00    3.855E+00    3.854E+00    3.852E+00    3.850E+00    3.848E+00    3.846E+00
     3.844E+00    3.842E+00    3.840E+00    3.838E+00    3.836E+00    3.834E+00    3.832E+00    3.830E+00    3.828E+00    3.827E+00
     3.825E+00    3.823E+00    3.821E+00    3.819E+00    3.817E+00    3.815E+00    3.813E+00    3.811E+00    3.809E+00    3.807E+00
     3.805E+00    3.803E+00    3.802E+00    3.800E+00    3.798E+00    3.796E+00    3.794E+00    3.792E+00    3.790E+00    3.788E+00
     3.786E+00    3.784E+00    3.782E+00    3.780E+00    3.778E+00    3.776E+00    3.775E+00    3.773E+00    3.771E+00    3.769E+00
     3.767E+00    3.765E+00    3.763E+00    3.761E+00    3.759E+00    3.757E+00    3.755E+00    3.753E+00    3.751E+00    3.750E+00
     3.748E+00    3.746E+00    3.744E+00    3.742E+00    3.740E+00    3.738E+00    3.736E+00    3.734E+00    3.732E+00    3.730E+00
     3.728E+00    3.726E+00    3.724E+00    3.723E+00    3.721E+00    3.719E+00    3.717E+00    3.715E+00    3.713E+00    3.711E+00
     3.709E+00    3.707E+00    3.705E+00    3.703E+00    3.701E+00    3.699E+00    3.697E+00    3.696E+00    3.694E+00    3.692E+00
     3.690E+00    3.688E+00    3.686E+00    3.684E+00    3.682E+00    3.680E+00    3.678E+00    3.676E+00    3.674E+00    3.672E+00
     3.671E+00    3.669E+00    3.667E+00    3.665E+00    3.663E+00    3.661E+00    3.659E+00    3.657E+00    3.655E+00    3.653E+00
     3.651E+00    3.649E+00    3.647E+00    3.645E+00    3.644E+00    3.642E+00    3.640E+00    3.638E+00    3.636E+00    3.634E+00
     3.632E+00    3.630E+00    3.628E+00    3.626E+00    3.624E+00    3.622E+00    3.620E+00    3.618E+00    3.617E+00    3.615E+00
     3.613E+00    3.611E+00    3.609E+00    3.607E+00    3.605E+00    3.603E+00    3.601E+00    3.599E+00    3.597E+00    3.595E+00
     3.593E+00    3.591E+00    3.590E+00    3.588E+00    3.586E+00    3.584E+00    3.582E+00    3.580E+00    3.578E+00    3.576E+00
     3.574E+00    3.572E+00    3.570E+00    3.568E+00    3.566E+00    3.565E+00    3.563E+00    3.561E+00    3.559E+00    3.557E+00
     3.555E+00    3.553E+00    3.551E+00    3.549E+00    3.547E+00    3.545E+00    3.543E+00    3.541E+00    3.539E+00    3.538E+00
     3.536E+00    3.534E+00    3.532E+00    3.530E+00    3.528E+00    3.526E+00    3.524E+00    3.522E+00    3.520E+00    3.518E+00
     3.516E+00    3.514E+00    3.512E+00    3.511E+00    3.509E+00    3.507E+00    3.505E+00    3.503E+00    3.501E+00    3.499E+00
     3.497E+00    3.495E+00    3.493E+00    3.491E+00    3.489E+00    3.487E+00    3.485E+00    3.484E+00    3.482E+00    3.480E+00
     3.478E+00    3.476E+00    3.474E+00    3.472E+00    3.470E+00    3.468E+00    3.466E+00    3.464E+00    3.462E+00    3.460E+00
     3.458E+00    3.457E+00    3.455E+00    3.453E+00    3.451E+00    3.449E+00    3.447E+00    3.445E+00    3.443E+00    3.441E+00
     3.439E+00    3.437E+00    3.435E+00    3.433E+00    3.432E+00    3.430E+00    3.428E+00    3.426E+00    3.424E+00    3.422E+00
     3.420E+00    3.418E+00    3.416E+00    3.414E+00    3.412E+00    3.410E+00    3.408E+00    3.406E+00
 Asp      Conc. = 3.93E+00
