 LCModel (Version 6.3-1L) Copyright: S.W. Provencher.          Ref.: Magn. Reson. Med. 30:672-679 (1993).                
 Slice#3 Row#9 Col#12  PD_05_press_2_raw_act
 36 lines in following concentration table = NCONC+1
    Conc.  %SD /Cr+PCr  Metabolite                                         
  121.902  48%   1.255 Ala                                                 
   21.789  83%   0.224 Asp                                                 
   97.131  33%   1.000 Cr                                                  
    0.000 999%   0.000 PCr                                                 
   13.641  80%   0.140 GABA                                                
   12.122  90%   0.125 Glc                                                 
    0.000 999%   0.000 Gln                                                 
   94.608 116%   0.974 Glu                                                 
   39.451  32%   0.406 GPC                                                 
    0.000 999%   0.000 PCh                                                 
  102.009  42%   1.050 GSH                                                 
  318.073  45%   3.275 Ins                                                 
    0.000 999%   0.000 Lac                                                 
   86.511  44%   0.891 NAA                                                 
  120.289  33%   1.238 NAAG                                                
    4.879  74% 5.0E-02 Scyllo                                              
   18.701  96%   0.193 Tau                                                 
    8.770 200% 9.0E-02 -CrCH2                                              
   39.451  32%   0.406 GPC+PCh                                             
  206.801  24%   2.129 NAA+NAAG                                            
   97.131  33%   1.000 Cr+PCr                                              
   94.608 116%   0.974 Glu+Gln                                             
 7.32E+03  12%  75.331 Lip13a                                              
    0.000 999%   0.000 Lip13b                                              
 2.88E+03  11%  29.646 Lip09                                               
 2.58E+03   9%  26.515 MM09                                                
  854.541  39%   8.798 Lip20                                               
  157.755 232%   1.624 MM20                                                
 2.40E+03  19%  24.690 MM12                                                
 3.73E+03  11%  38.364 MM14                                                
 2.99E+03  13%  30.821 MM17                                                
 7.32E+03  12%  75.331 Lip13a+Lip13b                                       
 1.34E+04   5% 138.384 MM14+Lip13a+Lip13b+MM12                             
 5.45E+03   6%  56.161 MM09+Lip09                                          
 1.01E+03  34%  10.422 MM20+Lip20                                          
   6 lines in following misc. output table
  FWHM = 0.031 ppm    S/N =   6                                            
  Data shift = 0.008 ppm                                                   
  Ph: 108 deg      35.3 deg/ppm                                            
  alphaB,S = 8.7E-01,   1.0E+01                                            
   14 spline knots.   Ns = 6(1)                                            
  ( 4) 2 infls.   ( 2) 1 extrs.                                            
  498 points on ppm-axis = NY
      4.000000     3.992357     3.984714     3.977070     3.969427     3.961784     3.954141     3.946497     3.938854     3.931211
      3.923568     3.915925     3.908281     3.900638     3.892995     3.885352     3.877708     3.870065     3.862422     3.854779
      3.847136     3.839492     3.831849     3.824206     3.816563     3.808919     3.801276     3.793633     3.785990     3.778347
      3.770703     3.763060     3.755417     3.747774     3.740130     3.732487     3.724844     3.717201     3.709558     3.701914
      3.694271     3.686628     3.678985     3.671341     3.663698     3.656055     3.648412     3.640769     3.633125     3.625482
      3.617839     3.610196     3.602552     3.594909     3.587266     3.579623     3.571980     3.564336     3.556693     3.549050
      3.541407     3.533763     3.526120     3.518477     3.510834     3.503191     3.495547     3.487904     3.480261     3.472618
      3.464974     3.457331     3.449688     3.442045     3.434402     3.426758     3.419115     3.411472     3.403829     3.396185
      3.388542     3.380899     3.373256     3.365613     3.357969     3.350326     3.342683     3.335040     3.327396     3.319753
      3.312110     3.304467     3.296824     3.289180     3.281537     3.273894     3.266251     3.258607     3.250964     3.243321
      3.235678     3.228034     3.220391     3.212748     3.205105     3.197462     3.189818     3.182175     3.174532     3.166889
      3.159245     3.151602     3.143959     3.136316     3.128673     3.121029     3.113386     3.105743     3.098100     3.090456
      3.082813     3.075170     3.067527     3.059884     3.052240     3.044597     3.036954     3.029311     3.021667     3.014024
      3.006381     2.998738     2.991095     2.983451     2.975808     2.968165     2.960522     2.952878     2.945235     2.937592
      2.929949     2.922306     2.914662     2.907019     2.899376     2.891733     2.884089     2.876446     2.868803     2.861160
      2.853517     2.845873     2.838230     2.830587     2.822944     2.815300     2.807657     2.800014     2.792371     2.784728
      2.777084     2.769441     2.761798     2.754155     2.746511     2.738868     2.731225     2.723582     2.715939     2.708295
      2.700652     2.693009     2.685366     2.677722     2.670079     2.662436     2.654793     2.647150     2.639506     2.631863
      2.624220     2.616577     2.608933     2.601290     2.593647     2.586004     2.578361     2.570717     2.563074     2.555431
      2.547788     2.540144     2.532501     2.524858     2.517215     2.509572     2.501928     2.494285     2.486642     2.478999
      2.471355     2.463712     2.456069     2.448426     2.440783     2.433139     2.425496     2.417853     2.410210     2.402566
      2.394923     2.387280     2.379637     2.371994     2.364350     2.356707     2.349064     2.341421     2.333777     2.326134
      2.318491     2.310848     2.303205     2.295561     2.287918     2.280275     2.272632     2.264988     2.257345     2.249702
      2.242059     2.234416     2.226772     2.219129     2.211486     2.203843     2.196199     2.188556     2.180913     2.173270
      2.165627     2.157983     2.150340     2.142697     2.135054     2.127410     2.119767     2.112124     2.104481     2.096838
      2.089194     2.081551     2.073908     2.066265     2.058621     2.050978     2.043335     2.035692     2.028049     2.020405
      2.012762     2.005119     1.997476     1.989833     1.982190     1.974546     1.966903     1.959260     1.951617     1.943974
      1.936331     1.928688     1.921045     1.913402     1.905759     1.898115     1.890472     1.882829     1.875186     1.867543
      1.859900     1.852257     1.844614     1.836971     1.829327     1.821684     1.814041     1.806398     1.798755     1.791112
      1.783469     1.775826     1.768183     1.760540     1.752896     1.745253     1.737610     1.729967     1.722324     1.714681
      1.707038     1.699395     1.691752     1.684108     1.676465     1.668822     1.661179     1.653536     1.645893     1.638250
      1.630607     1.622964     1.615321     1.607677     1.600034     1.592391     1.584748     1.577105     1.569462     1.561819
      1.554176     1.546533     1.538890     1.531246     1.523603     1.515960     1.508317     1.500674     1.493031     1.485388
      1.477745     1.470102     1.462458     1.454815     1.447172     1.439529     1.431886     1.424243     1.416600     1.408957
      1.401314     1.393671     1.386027     1.378384     1.370741     1.363098     1.355455     1.347812     1.340169     1.332526
      1.324883     1.317240     1.309596     1.301953     1.294310     1.286667     1.279024     1.271381     1.263738     1.256095
      1.248452     1.240808     1.233165     1.225522     1.217879     1.210236     1.202593     1.194950     1.187307     1.179664
      1.172021     1.164377     1.156734     1.149091     1.141448     1.133805     1.126162     1.118519     1.110876     1.103233
      1.095590     1.087946     1.080303     1.072660     1.065017     1.057374     1.049731     1.042088     1.034445     1.026802
      1.019158     1.011515     1.003872     0.996229     0.988586     0.980943     0.973300     0.965657     0.958014     0.950371
      0.942727     0.935084     0.927441     0.919798     0.912155     0.904512     0.896869     0.889226     0.881583     0.873940
      0.866296     0.858653     0.851010     0.843367     0.835724     0.828081     0.820438     0.812795     0.805152     0.797508
      0.789865     0.782222     0.774579     0.766936     0.759293     0.751650     0.744007     0.736364     0.728721     0.721077
      0.713434     0.705791     0.698148     0.690505     0.682862     0.675219     0.667576     0.659933     0.652290     0.644646
      0.637003     0.629360     0.621717     0.614074     0.606431     0.598788     0.591145     0.583502     0.575858     0.568215
      0.560572     0.552929     0.545286     0.537643     0.530000     0.522357     0.514714     0.507071     0.499427     0.491784
      0.484141     0.476498     0.468855     0.461212     0.453569     0.445925     0.438282     0.430639     0.422996     0.415353
      0.407710     0.400067     0.392424     0.384780     0.377137     0.369494     0.361851     0.354208     0.346565     0.338922
      0.331278     0.323635     0.315992     0.308349     0.300706     0.293063     0.285420     0.277777     0.270133     0.262490
      0.254847     0.247204     0.239561     0.231918     0.224275     0.216631     0.208988     0.201345
 NY phased data points follow
  -1.03120E+01 -1.71534E+01 -1.00995E+01 -8.52347E+00 -1.03784E+01 -8.00153E+00 -1.25199E+01 -8.16913E+00 -1.13541E+01 -6.85835E+00
  -6.06914E+00 -1.65232E+00 -4.65722E+00 -3.57414E+00 -6.70606E+00 -7.06896E+00 -7.61583E+00 -5.78205E+00 -6.90655E+00 -5.23558E+00
  -8.50327E+00 -3.53239E+00 -3.68227E+00 -8.69319E+00 -6.10711E+00 -3.46433E+00 -1.13615E+01 -7.21026E+00 -8.45223E+00 -2.10637E+00
  -4.71006E+00 -2.93188E+00 -2.71015E+00 -1.09192E+01 -7.21035E+00 -4.92290E+00 -6.26961E+00 -1.02613E+01 -5.79626E+00 -5.58888E+00
  -7.59817E+00 -5.42331E+00 -8.13143E+00 -5.26168E+00 -7.66672E+00 -4.21013E+00 -3.33562E+00 -3.27915E+00 -4.58583E+00 -1.71257E+00
  -4.20572E+00 -5.87671E+00 -1.31001E+00 -6.18539E+00 -3.09706E+00 -5.54159E+00 -4.16254E+00 -4.36412E+00 -2.29145E+00 -4.00700E+00
  -3.83837E-02 -3.54306E+00 -7.35186E+00 -3.55566E+00 -5.67553E+00 -6.33162E+00 -8.57188E+00 -6.83177E+00 -7.26752E+00 -2.21121E+00
  -4.13141E+00 -6.54438E+00 -7.76891E+00 -8.74898E+00 -7.56181E+00 -1.47684E+00 -1.02221E+01 -3.22107E+00 -5.93893E+00 -4.73043E+00
  -4.00269E+00 -3.56103E+00 -4.70324E+00 -7.87842E+00 -2.52370E+00 -3.84504E+00 -1.24234E+00 -3.87274E+00 -5.56873E+00 -8.65303E+00
  -7.32266E+00 -6.65467E+00 -4.59196E+00 -3.95270E+00 -4.50561E+00 -5.45446E+00 -2.53489E+00 -7.31102E-01 -8.04357E+00 -3.14689E+00
  -5.44087E+00 -5.60466E+00 -2.16881E+00  3.07414E+00 -1.52611E-01 -1.19600E+00 -4.71256E-01 -3.43214E+00 -7.41675E+00 -4.01308E+00
  -4.88197E+00 -4.20719E+00 -4.99405E+00 -4.01582E+00 -7.17629E+00 -2.54332E+00  1.42379E+00 -6.71863E+00 -3.37215E+00 -3.14786E+00
  -8.27824E+00 -3.49304E+00 -6.39741E+00 -2.60792E+00 -1.49774E+00 -2.07399E+00 -4.04439E+00 -4.53513E-01  6.63195E-01  2.58421E+00
  -9.32862E-01  1.69158E-01 -4.25709E+00  3.23307E-01 -5.33672E+00 -4.58346E+00 -2.19763E+00 -5.63181E+00 -4.58826E+00 -5.12663E+00
  -4.29917E+00 -4.54114E+00 -5.60559E+00 -2.10139E+00 -3.42957E+00 -2.54562E+00 -2.32905E+00 -9.90402E-01 -2.15046E+00  1.64096E+00
  -3.90165E+00 -8.34883E-01 -4.29045E+00 -3.32033E+00 -3.64645E+00 -9.33262E-01 -3.92580E+00 -1.09372E+00 -2.69649E+00 -1.36708E+00
  -2.91791E+00 -3.14779E+00 -4.32064E+00  2.16784E+00 -6.21378E+00 -4.29192E+00 -2.95621E+00 -1.17675E+00 -1.90161E+00 -1.75558E+00
  -5.00812E+00 -3.16617E+00 -5.25553E+00 -4.99339E+00 -2.28782E+00 -2.55552E+00 -3.47245E+00 -1.97335E+00 -3.78062E+00 -2.44503E+00
  -2.67052E+00 -1.56907E+00 -7.30787E-01  2.72943E+00 -5.47387E+00 -3.19721E+00  9.95464E-01  1.07878E+00 -1.93575E-01  2.41756E+00
   5.26464E-02 -7.40785E-01 -3.76125E+00  2.14218E+00 -1.61944E+00  2.61398E-01  9.70128E-01  2.57110E-02 -7.83687E+00 -3.38194E+00
   1.16986E+00  6.79817E-01  6.32219E-01 -4.98945E-01  6.49063E-01 -1.42090E+00 -4.42945E-01 -4.22361E+00 -4.27872E-01  2.62753E+00
   4.66015E-01  4.41366E-01  8.57127E-01  1.67353E-01 -1.08299E+00 -1.72833E-01  4.39893E+00  8.97651E-01  1.72406E+00  2.07298E+00
  -3.14638E+00 -2.54193E+00  3.55891E-01  2.99479E+00 -1.59220E+00  4.64313E-01 -5.13004E-02  2.68471E+00  2.44629E-01  9.33489E-01
  -9.06552E-01 -5.20664E-01 -1.52098E+00  1.17085E-01  6.82716E-01  3.49460E+00  2.59185E+00  3.03047E+00  5.12142E+00  4.72479E+00
   9.62761E-01 -1.98849E+00  6.73631E-01  5.77338E+00  1.99864E+00  2.24369E+00 -6.34503E-02  1.57378E+00 -9.35626E-01  4.73635E+00
  -2.27250E-01  3.46008E+00  2.84037E+00  2.03756E+00  8.51238E+00  7.30204E+00  4.49523E+00  1.18012E+01  6.49725E+00  1.03813E+01
   9.50851E+00  9.35672E+00  7.66098E+00  3.93135E+00  6.54860E+00  7.93961E+00  6.80406E+00  2.06947E+00 -5.84987E-01  1.33608E+00
   4.01846E+00  4.35505E+00  2.10085E+00  6.55576E+00  8.07423E+00  5.69586E+00  1.00487E+01  8.99674E+00  5.54584E+00  7.56050E+00
   3.98641E+00  6.31282E+00  1.11666E+01  1.05552E+01  4.89587E+00  9.51096E+00  1.27889E+01  7.76505E+00  1.00733E+01  7.43007E+00
   9.32077E+00  6.09857E+00  8.42891E+00  1.02920E+01  1.14854E+01  1.60337E+01  1.17583E+01  1.33786E+01  1.20839E+01  1.43091E+01
   1.05936E+01  9.55462E+00  1.50639E+01  1.36606E+01  1.41989E+01  1.27313E+01  1.10313E+01  1.03556E+01  1.32621E+01  1.59432E+01
   2.03526E+01  1.78699E+01  1.46772E+01  1.88408E+01  1.32140E+01  1.31347E+01  1.10510E+01  1.64121E+01  1.53057E+01  1.24370E+01
   1.73573E+01  2.36173E+01  2.37434E+01  2.26970E+01  2.00046E+01  2.04812E+01  2.72864E+01  2.48367E+01  2.87631E+01  2.49168E+01
   2.41864E+01  2.69000E+01  2.36784E+01  2.55707E+01  2.22602E+01  2.49702E+01  1.99570E+01  2.97561E+01  2.66575E+01  2.80176E+01
   2.62262E+01  2.82520E+01  2.87160E+01  2.48874E+01  2.56060E+01  2.80669E+01  2.69033E+01  2.68823E+01  2.55995E+01  2.30946E+01
   2.36243E+01  2.95975E+01  2.55477E+01  2.96613E+01  2.87812E+01  2.48834E+01  2.36917E+01  2.96129E+01  2.69035E+01  3.05457E+01
   2.62423E+01  2.89900E+01  2.64609E+01  2.11279E+01  2.97938E+01  2.52046E+01  2.97789E+01  2.70819E+01  2.85311E+01  2.70523E+01
   2.86885E+01  2.35521E+01  3.43338E+01  3.01226E+01  2.32340E+01  2.81019E+01  2.63944E+01  2.31979E+01  2.85238E+01  2.71094E+01
   2.47749E+01  2.71669E+01  2.16208E+01  1.99752E+01  2.55811E+01  2.37593E+01  2.56588E+01  2.39798E+01  2.39097E+01  2.46225E+01
   2.17481E+01  2.39403E+01  2.10975E+01  2.19333E+01  2.51721E+01  2.62891E+01  2.67961E+01  2.51597E+01  2.57930E+01  2.46140E+01
   2.40667E+01  2.41536E+01  2.72073E+01  1.85923E+01  2.04662E+01  2.06625E+01  2.27921E+01  1.96271E+01  1.64599E+01  2.12820E+01
   1.74133E+01  1.76931E+01  1.89997E+01  1.74528E+01  2.41822E+01  1.60046E+01  1.84620E+01  1.52021E+01  1.33816E+01  1.63099E+01
   1.06323E+01  1.97613E+01  1.20534E+01  9.92339E+00  1.38839E+01  1.42696E+01  1.01697E+01  1.14204E+01  7.31925E+00  7.51063E+00
   9.27696E+00  7.85074E+00  7.96743E+00  8.63342E+00  5.05349E+00  6.79886E+00  7.74783E+00  3.96246E+00  5.34137E+00  4.86758E+00
   4.51733E+00  6.99872E-01  5.49371E+00  9.95661E-01  6.22559E-01  3.34662E+00  3.57109E+00  4.99060E-01 -1.59213E+00  2.62367E+00
   2.43395E+00  3.10053E-01 -6.28301E+00 -1.93544E+00 -3.89491E+00 -1.60375E+00 -1.01013E+00 -3.82234E+00 -3.70240E+00 -3.20426E-01
  -2.69118E+00 -2.48216E+00 -4.12405E+00 -6.66230E+00 -4.50659E+00 -5.06741E+00 -1.04436E+01 -5.41227E+00 -7.36837E+00 -7.58141E+00
  -9.28300E+00 -9.91675E+00 -8.73243E+00 -6.58028E+00 -8.53598E+00 -8.13390E+00 -1.04920E+01 -9.51147E+00 -7.89452E+00 -7.18537E+00
  -9.31500E+00 -6.29745E+00 -9.69073E+00 -1.38048E+01 -1.13493E+01 -1.05067E+01 -1.05814E+01 -1.01829E+01 -5.96711E+00 -1.27604E+01
  -1.01208E+01 -1.42171E+01 -7.84608E+00 -7.18992E+00 -7.61187E+00 -1.69144E+01 -1.40203E+01 -1.00523E+01
 NY points of the fit to the data follow
  -8.11489E+00 -8.25840E+00 -8.33897E+00 -8.33694E+00 -8.26959E+00 -8.19567E+00 -8.20129E+00 -8.23509E+00 -8.04134E+00 -7.41630E+00
  -6.40915E+00 -5.38328E+00 -4.84102E+00 -5.06271E+00 -5.76857E+00 -6.44566E+00 -6.94415E+00 -7.36399E+00 -7.67045E+00 -7.74953E+00
  -7.65764E+00 -7.48697E+00 -7.30498E+00 -7.15719E+00 -7.10836E+00 -7.22574E+00 -7.31765E+00 -7.08556E+00 -6.34911E+00 -5.24647E+00
  -4.25241E+00 -3.92612E+00 -4.37261E+00 -5.02110E+00 -5.43153E+00 -5.66926E+00 -5.90121E+00 -6.04087E+00 -6.15848E+00 -6.41261E+00
  -6.76558E+00 -7.04321E+00 -7.18292E+00 -7.13936E+00 -6.75336E+00 -5.88907E+00 -4.66429E+00 -3.50226E+00 -2.97281E+00 -3.36168E+00
  -4.37381E+00 -5.42931E+00 -6.18427E+00 -6.62413E+00 -6.81259E+00 -6.77826E+00 -6.57365E+00 -6.24318E+00 -5.79497E+00 -5.27823E+00
  -4.84553E+00 -4.69303E+00 -4.87496E+00 -5.25958E+00 -5.66431E+00 -5.94060E+00 -6.01994E+00 -5.92763E+00 -5.72747E+00 -5.47317E+00
  -5.20916E+00 -4.97324E+00 -4.79447E+00 -4.71572E+00 -4.74032E+00 -4.80752E+00 -4.86968E+00 -4.94488E+00 -5.04154E+00 -5.11196E+00
  -5.13932E+00 -5.13366E+00 -5.08145E+00 -4.98623E+00 -4.90950E+00 -4.94451E+00 -5.14857E+00 -5.49605E+00 -5.85208E+00 -6.02989E+00
  -5.95406E+00 -5.70673E+00 -5.39952E+00 -5.08353E+00 -4.81058E+00 -4.63456E+00 -4.59426E+00 -4.72246E+00 -5.02400E+00 -5.11863E+00
  -4.52931E+00 -3.11625E+00 -1.27776E+00  2.15608E-01  5.96443E-01 -2.87081E-01 -1.63360E+00 -2.72425E+00 -3.48930E+00 -4.07102E+00
  -4.35734E+00 -4.40714E+00 -4.37991E+00 -4.33376E+00 -4.28519E+00 -4.23390E+00 -4.18604E+00 -4.15025E+00 -4.13098E+00 -4.12582E+00
  -4.12546E+00 -4.12805E+00 -4.17286E+00 -4.11223E+00 -3.59303E+00 -2.42019E+00 -7.99209E-01  6.78155E-01  1.33527E+00  8.81833E-01
  -1.36427E-01 -9.58305E-01 -1.43858E+00 -1.85320E+00 -2.31818E+00 -2.82827E+00 -3.35158E+00 -3.68744E+00 -3.69949E+00 -3.41789E+00
  -2.95405E+00 -2.46818E+00 -2.11821E+00 -1.95636E+00 -1.93775E+00 -1.97838E+00 -2.02125E+00 -2.04817E+00 -2.06108E+00 -2.04689E+00
  -2.02587E+00 -2.02914E+00 -2.06502E+00 -2.11784E+00 -2.15620E+00 -2.13541E+00 -2.03035E+00 -1.88466E+00 -1.78284E+00 -1.77087E+00
  -1.83583E+00 -1.92480E+00 -1.97974E+00 -1.97924E+00 -1.95271E+00 -1.93454E+00 -1.94424E+00 -1.99283E+00 -2.06264E+00 -2.11731E+00
  -2.11868E+00 -2.05538E+00 -1.97050E+00 -1.94982E+00 -2.02749E+00 -2.15305E+00 -2.24570E+00 -2.26308E+00 -2.22843E+00 -2.21823E+00
  -2.26443E+00 -2.32534E+00 -2.34571E+00 -2.31437E+00 -2.25980E+00 -2.22164E+00 -2.20322E+00 -2.12601E+00 -1.90722E+00 -1.54435E+00
  -1.13683E+00 -8.15156E-01 -6.91734E-01 -8.02083E-01 -1.11942E+00 -1.54021E+00 -1.93009E+00 -2.16833E+00 -2.16445E+00 -1.90049E+00
  -1.49673E+00 -1.15390E+00 -9.37041E-01 -7.87956E-01 -6.74460E-01 -6.39235E-01 -6.86416E-01 -7.79173E-01 -8.84777E-01 -9.75679E-01
  -1.03006E+00 -1.02468E+00 -9.15485E-01 -6.74754E-01 -3.21853E-01  6.00222E-02  3.41825E-01  4.24858E-01  2.97634E-01  4.31157E-02
  -2.56746E-01 -5.20381E-01 -6.43499E-01 -5.09078E-01 -1.33002E-01  3.36026E-01  7.46414E-01  1.02680E+00  1.14870E+00  1.08384E+00
   8.65431E-01  6.27536E-01  5.44501E-01  7.35819E-01  1.18600E+00  1.73966E+00  2.22001E+00  2.48045E+00  2.41532E+00  2.02660E+00
   1.47877E+00  1.00704E+00  7.84546E-01  8.71959E-01  1.25760E+00  1.84288E+00  2.42792E+00  2.83510E+00  3.01309E+00  3.01598E+00
   2.87957E+00  2.63570E+00  2.65110E+00  3.38815E+00  4.95392E+00  6.87439E+00  8.43249E+00  9.14757E+00  9.08866E+00  8.98830E+00
   9.16354E+00  9.07724E+00  8.16819E+00  6.83783E+00  5.71821E+00  4.92752E+00  4.31929E+00  3.88937E+00  3.70019E+00  3.63702E+00
   3.64389E+00  3.72496E+00  3.87703E+00  4.07679E+00  4.29645E+00  4.51140E+00  4.71283E+00  4.91138E+00  5.13273E+00  5.39964E+00
   5.71777E+00  6.08443E+00  6.49918E+00  6.95653E+00  7.43815E+00  7.92671E+00  8.41605E+00  8.90314E+00  9.38255E+00  9.85488E+00
   1.03265E+01  1.07991E+01  1.12638E+01  1.17048E+01  1.21033E+01  1.24488E+01  1.27395E+01  1.29745E+01  1.31542E+01  1.32874E+01
   1.33858E+01  1.34569E+01  1.35018E+01  1.35219E+01  1.35238E+01  1.35168E+01  1.35096E+01  1.35134E+01  1.35400E+01  1.36006E+01
   1.37052E+01  1.38627E+01  1.40804E+01  1.43645E+01  1.47189E+01  1.51464E+01  1.56473E+01  1.62201E+01  1.68611E+01  1.75643E+01
   1.83221E+01  1.91229E+01  1.99507E+01  2.08411E+01  2.19414E+01  2.32607E+01  2.45809E+01  2.55332E+01  2.58242E+01  2.54396E+01
   2.47298E+01  2.41114E+01  2.37286E+01  2.36296E+01  2.40035E+01  2.49985E+01  2.63332E+01  2.74806E+01  2.79962E+01  2.79476E+01
   2.76651E+01  2.73185E+01  2.69091E+01  2.65475E+01  2.62926E+01  2.61198E+01  2.60098E+01  2.59561E+01  2.59562E+01  2.60079E+01
   2.61084E+01  2.62541E+01  2.64398E+01  2.66596E+01  2.69062E+01  2.71714E+01  2.74465E+01  2.77217E+01  2.79873E+01  2.82334E+01
   2.84503E+01  2.86287E+01  2.87602E+01  2.88375E+01  2.88547E+01  2.88075E+01  2.86937E+01  2.85132E+01  2.82679E+01  2.79625E+01
   2.76034E+01  2.71995E+01  2.67614E+01  2.63011E+01  2.58319E+01  2.53675E+01  2.49217E+01  2.45078E+01  2.41381E+01  2.38232E+01
   2.35714E+01  2.33888E+01  2.32784E+01  2.32403E+01  2.32712E+01  2.33650E+01  2.35127E+01  2.37027E+01  2.39215E+01  2.41542E+01
   2.43854E+01  2.45995E+01  2.47818E+01  2.49192E+01  2.50008E+01  2.50180E+01  2.49654E+01  2.48409E+01  2.46451E+01  2.43819E+01
   2.40574E+01  2.36799E+01  2.32590E+01  2.28052E+01  2.23289E+01  2.18400E+01  2.13473E+01  2.08582E+01  2.03781E+01  1.99106E+01
   1.94569E+01  1.90167E+01  1.85878E+01  1.81664E+01  1.77481E+01  1.73274E+01  1.68990E+01  1.64573E+01  1.59975E+01  1.55155E+01
   1.50080E+01  1.44731E+01  1.39098E+01  1.33185E+01  1.27006E+01  1.20585E+01  1.13956E+01  1.07156E+01  1.00231E+01  9.32260E+00
   8.61885E+00  7.91648E+00  7.21988E+00  6.53307E+00  5.85961E+00  5.20258E+00  4.56452E+00  3.94746E+00  3.35290E+00  2.78181E+00
   2.23476E+00  1.71189E+00  1.21307E+00  7.37833E-01  2.85526E-01 -1.44711E-01 -5.53849E-01 -9.42938E-01 -1.31306E+00 -1.66533E+00
  -2.00086E+00 -2.32077E+00 -2.62612E+00 -2.91791E+00 -3.19707E+00 -3.46451E+00 -3.72109E+00 -3.96759E+00 -4.20475E+00 -4.43322E+00
  -4.65362E+00 -4.86654E+00 -5.07250E+00 -5.27202E+00 -5.46551E+00 -5.65339E+00 -5.83601E+00 -6.01375E+00 -6.18693E+00 -6.35585E+00
  -6.52076E+00 -6.68190E+00 -6.83950E+00 -6.99379E+00 -7.14497E+00 -7.29321E+00 -7.43867E+00 -7.58149E+00 -7.72182E+00 -7.85982E+00
  -7.99560E+00 -8.12927E+00 -8.26092E+00 -8.39066E+00 -8.51857E+00 -8.64478E+00 -8.76933E+00 -8.89230E+00 -9.01374E+00 -9.13374E+00
  -9.25236E+00 -9.36966E+00 -9.48569E+00 -9.60048E+00 -9.71408E+00 -9.82654E+00 -9.93792E+00 -1.00483E+01
 NY background values follow
    -9.560E+00   -9.517E+00   -9.474E+00   -9.431E+00   -9.389E+00   -9.346E+00   -9.303E+00   -9.260E+00   -9.217E+00   -9.174E+00
    -9.131E+00   -9.088E+00   -9.046E+00   -9.003E+00   -8.960E+00   -8.917E+00   -8.875E+00   -8.832E+00   -8.790E+00   -8.747E+00
    -8.705E+00   -8.662E+00   -8.620E+00   -8.578E+00   -8.535E+00   -8.493E+00   -8.451E+00   -8.409E+00   -8.367E+00   -8.325E+00
    -8.284E+00   -8.242E+00   -8.200E+00   -8.159E+00   -8.117E+00   -8.076E+00   -8.035E+00   -7.994E+00   -7.953E+00   -7.912E+00
    -7.871E+00   -7.830E+00   -7.790E+00   -7.749E+00   -7.709E+00   -7.669E+00   -7.629E+00   -7.589E+00   -7.549E+00   -7.510E+00
    -7.470E+00   -7.431E+00   -7.391E+00   -7.352E+00   -7.313E+00   -7.274E+00   -7.235E+00   -7.197E+00   -7.158E+00   -7.120E+00
    -7.082E+00   -7.043E+00   -7.005E+00   -6.967E+00   -6.929E+00   -6.892E+00   -6.854E+00   -6.817E+00   -6.779E+00   -6.742E+00
    -6.705E+00   -6.668E+00   -6.631E+00   -6.594E+00   -6.557E+00   -6.521E+00   -6.484E+00   -6.448E+00   -6.412E+00   -6.376E+00
    -6.340E+00   -6.304E+00   -6.268E+00   -6.232E+00   -6.196E+00   -6.161E+00   -6.125E+00   -6.090E+00   -6.055E+00   -6.020E+00
    -5.985E+00   -5.950E+00   -5.915E+00   -5.880E+00   -5.845E+00   -5.811E+00   -5.776E+00   -5.742E+00   -5.708E+00   -5.673E+00
    -5.639E+00   -5.605E+00   -5.571E+00   -5.537E+00   -5.503E+00   -5.470E+00   -5.436E+00   -5.402E+00   -5.369E+00   -5.335E+00
    -5.302E+00   -5.268E+00   -5.235E+00   -5.202E+00   -5.169E+00   -5.136E+00   -5.103E+00   -5.070E+00   -5.037E+00   -5.004E+00
    -4.971E+00   -4.938E+00   -4.905E+00   -4.872E+00   -4.840E+00   -4.807E+00   -4.775E+00   -4.742E+00   -4.709E+00   -4.677E+00
    -4.644E+00   -4.612E+00   -4.579E+00   -4.547E+00   -4.515E+00   -4.482E+00   -4.450E+00   -4.418E+00   -4.385E+00   -4.353E+00
    -4.321E+00   -4.289E+00   -4.257E+00   -4.225E+00   -4.192E+00   -4.161E+00   -4.129E+00   -4.097E+00   -4.065E+00   -4.033E+00
    -4.002E+00   -3.970E+00   -3.939E+00   -3.907E+00   -3.876E+00   -3.845E+00   -3.814E+00   -3.783E+00   -3.752E+00   -3.722E+00
    -3.691E+00   -3.661E+00   -3.630E+00   -3.600E+00   -3.570E+00   -3.540E+00   -3.511E+00   -3.481E+00   -3.452E+00   -3.423E+00
    -3.394E+00   -3.365E+00   -3.336E+00   -3.308E+00   -3.279E+00   -3.251E+00   -3.223E+00   -3.196E+00   -3.168E+00   -3.141E+00
    -3.114E+00   -3.087E+00   -3.061E+00   -3.034E+00   -3.008E+00   -2.982E+00   -2.957E+00   -2.931E+00   -2.906E+00   -2.881E+00
    -2.857E+00   -2.832E+00   -2.808E+00   -2.785E+00   -2.761E+00   -2.738E+00   -2.715E+00   -2.692E+00   -2.670E+00   -2.648E+00
    -2.626E+00   -2.604E+00   -2.583E+00   -2.562E+00   -2.542E+00   -2.521E+00   -2.502E+00   -2.482E+00   -2.463E+00   -2.444E+00
    -2.425E+00   -2.407E+00   -2.389E+00   -2.371E+00   -2.354E+00   -2.337E+00   -2.321E+00   -2.305E+00   -2.289E+00   -2.273E+00
    -2.258E+00   -2.244E+00   -2.229E+00   -2.215E+00   -2.202E+00   -2.189E+00   -2.176E+00   -2.164E+00   -2.152E+00   -2.140E+00
    -2.129E+00   -2.119E+00   -2.108E+00   -2.098E+00   -2.089E+00   -2.080E+00   -2.071E+00   -2.063E+00   -2.055E+00   -2.047E+00
    -2.040E+00   -2.034E+00   -2.028E+00   -2.022E+00   -2.016E+00   -2.011E+00   -2.007E+00   -2.003E+00   -1.999E+00   -1.996E+00
    -1.993E+00   -1.990E+00   -1.988E+00   -1.987E+00   -1.985E+00   -1.985E+00   -1.984E+00   -1.984E+00   -1.985E+00   -1.986E+00
    -1.987E+00   -1.989E+00   -1.991E+00   -1.994E+00   -1.997E+00   -2.000E+00   -2.004E+00   -2.009E+00   -2.013E+00   -2.019E+00
    -2.024E+00   -2.030E+00   -2.037E+00   -2.044E+00   -2.051E+00   -2.059E+00   -2.067E+00   -2.076E+00   -2.085E+00   -2.095E+00
    -2.105E+00   -2.115E+00   -2.126E+00   -2.137E+00   -2.149E+00   -2.161E+00   -2.174E+00   -2.187E+00   -2.200E+00   -2.214E+00
    -2.228E+00   -2.243E+00   -2.258E+00   -2.273E+00   -2.289E+00   -2.306E+00   -2.322E+00   -2.340E+00   -2.357E+00   -2.375E+00
    -2.394E+00   -2.412E+00   -2.432E+00   -2.451E+00   -2.471E+00   -2.492E+00   -2.513E+00   -2.534E+00   -2.555E+00   -2.577E+00
    -2.600E+00   -2.623E+00   -2.646E+00   -2.670E+00   -2.694E+00   -2.718E+00   -2.743E+00   -2.768E+00   -2.794E+00   -2.820E+00
    -2.847E+00   -2.873E+00   -2.901E+00   -2.928E+00   -2.956E+00   -2.985E+00   -3.013E+00   -3.042E+00   -3.072E+00   -3.102E+00
    -3.132E+00   -3.163E+00   -3.194E+00   -3.225E+00   -3.257E+00   -3.289E+00   -3.322E+00   -3.355E+00   -3.388E+00   -3.422E+00
    -3.456E+00   -3.491E+00   -3.525E+00   -3.561E+00   -3.596E+00   -3.632E+00   -3.668E+00   -3.705E+00   -3.742E+00   -3.779E+00
    -3.817E+00   -3.855E+00   -3.894E+00   -3.932E+00   -3.972E+00   -4.011E+00   -4.051E+00   -4.091E+00   -4.132E+00   -4.173E+00
    -4.214E+00   -4.256E+00   -4.298E+00   -4.340E+00   -4.383E+00   -4.426E+00   -4.469E+00   -4.513E+00   -4.557E+00   -4.601E+00
    -4.646E+00   -4.691E+00   -4.737E+00   -4.782E+00   -4.828E+00   -4.875E+00   -4.922E+00   -4.969E+00   -5.016E+00   -5.064E+00
    -5.112E+00   -5.161E+00   -5.210E+00   -5.259E+00   -5.308E+00   -5.358E+00   -5.408E+00   -5.459E+00   -5.510E+00   -5.561E+00
    -5.612E+00   -5.664E+00   -5.716E+00   -5.769E+00   -5.822E+00   -5.875E+00   -5.928E+00   -5.982E+00   -6.036E+00   -6.091E+00
    -6.146E+00   -6.201E+00   -6.256E+00   -6.312E+00   -6.368E+00   -6.424E+00   -6.481E+00   -6.538E+00   -6.596E+00   -6.653E+00
    -6.711E+00   -6.770E+00   -6.828E+00   -6.887E+00   -6.946E+00   -7.006E+00   -7.066E+00   -7.126E+00   -7.187E+00   -7.247E+00
    -7.308E+00   -7.370E+00   -7.432E+00   -7.494E+00   -7.556E+00   -7.618E+00   -7.681E+00   -7.744E+00   -7.808E+00   -7.872E+00
    -7.936E+00   -8.000E+00   -8.065E+00   -8.129E+00   -8.195E+00   -8.260E+00   -8.326E+00   -8.392E+00   -8.458E+00   -8.524E+00
    -8.591E+00   -8.658E+00   -8.726E+00   -8.793E+00   -8.861E+00   -8.929E+00   -8.997E+00   -9.066E+00   -9.135E+00   -9.204E+00
    -9.273E+00   -9.343E+00   -9.413E+00   -9.483E+00   -9.553E+00   -9.624E+00   -9.695E+00   -9.766E+00   -9.837E+00   -9.909E+00
    -9.980E+00   -1.005E+01   -1.012E+01   -1.020E+01   -1.027E+01   -1.034E+01   -1.041E+01   -1.049E+01   -1.056E+01   -1.063E+01
    -1.071E+01   -1.078E+01   -1.085E+01   -1.093E+01   -1.100E+01   -1.107E+01   -1.115E+01   -1.122E+01   -1.130E+01   -1.137E+01
    -1.144E+01   -1.152E+01   -1.159E+01   -1.167E+01   -1.174E+01   -1.182E+01   -1.189E+01   -1.197E+01   -1.204E+01   -1.211E+01
    -1.219E+01   -1.226E+01   -1.234E+01   -1.241E+01   -1.249E+01   -1.256E+01   -1.263E+01   -1.271E+01
 Ala      Conc. = 1.22E+02
