 LCModel (Version 6.3-1L) Copyright: S.W. Provencher.          Ref.: Magn. Reson. Med. 30:672-679 (1993).                
 Slice#2 Row#1 Col#7  PD_05_press_2_raw_act
 36 lines in following concentration table = NCONC+1
    Conc.  %SD /Cr+PCr  Metabolite                                         
    0.000 999%   0.000 Ala                                                 
   95.697  90%   0.149 Asp                                                 
    0.000 999%   0.000 Cr                                                  
  643.685  40%   1.000 PCr                                                 
   59.414  88% 9.2E-02 GABA                                                
   59.794  87% 9.3E-02 Glc                                                 
    0.000 999%   0.000 Gln                                                 
 1.96E+03 150%   3.043 Glu                                                 
  208.857 238%   0.324 GPC                                                 
   38.425 999% 6.0E-02 PCh                                                 
    0.000 999%   0.000 GSH                                                 
 1.92E+03  54%   2.981 Ins                                                 
    0.000 999%   0.000 Lac                                                 
  607.815  60%   0.944 NAA                                                 
    0.000 999%   0.000 NAAG                                                
   19.356  89% 3.0E-02 Scyllo                                              
   97.054  88%   0.151 Tau                                                 
    0.000 999%   0.000 -CrCH2                                              
  247.281  42%   0.384 GPC+PCh                                             
  607.815  60%   0.944 NAA+NAAG                                            
  643.685  40%   1.000 Cr+PCr                                              
 1.96E+03 150%   3.043 Glu+Gln                                             
  707.999 128%   1.100 Lip13a                                              
    0.000 999%   0.000 Lip13b                                              
  176.154 158%   0.274 Lip09                                               
 1.80E+03  25%   2.798 MM09                                                
  101.702 164%   0.158 Lip20                                               
 1.54E+03  60%   2.388 MM20                                                
  585.604  51%   0.910 MM12                                                
 1.50E+03  50%   2.331 MM14                                                
    0.000 999%   0.000 MM17                                                
  707.999 128%   1.100 Lip13a+Lip13b                                       
 2.79E+03  28%   4.341 MM14+Lip13a+Lip13b+MM12                             
 1.98E+03  19%   3.072 MM09+Lip09                                          
 1.64E+03  54%   2.546 MM20+Lip20                                          
   6 lines in following misc. output table
  FWHM = 0.168 ppm    S/N =   1                                            
  Data shift =-0.061 ppm                                                   
  Ph:-136 deg     -11.9 deg/ppm                                            
  alphaB,S = 8.5E+01,   1.6E+02                                            
   12 spline knots.   Ns = 9(2)                                            
  ( 6) 2 infls.   ( 1) 1 extrs.                                            
  498 points on ppm-axis = NY
      4.000000     3.992357     3.984714     3.977070     3.969427     3.961784     3.954141     3.946497     3.938854     3.931211
      3.923568     3.915925     3.908281     3.900638     3.892995     3.885352     3.877708     3.870065     3.862422     3.854779
      3.847136     3.839492     3.831849     3.824206     3.816563     3.808919     3.801276     3.793633     3.785990     3.778347
      3.770703     3.763060     3.755417     3.747774     3.740130     3.732487     3.724844     3.717201     3.709558     3.701914
      3.694271     3.686628     3.678985     3.671341     3.663698     3.656055     3.648412     3.640769     3.633125     3.625482
      3.617839     3.610196     3.602552     3.594909     3.587266     3.579623     3.571980     3.564336     3.556693     3.549050
      3.541407     3.533763     3.526120     3.518477     3.510834     3.503191     3.495547     3.487904     3.480261     3.472618
      3.464974     3.457331     3.449688     3.442045     3.434402     3.426758     3.419115     3.411472     3.403829     3.396185
      3.388542     3.380899     3.373256     3.365613     3.357969     3.350326     3.342683     3.335040     3.327396     3.319753
      3.312110     3.304467     3.296824     3.289180     3.281537     3.273894     3.266251     3.258607     3.250964     3.243321
      3.235678     3.228034     3.220391     3.212748     3.205105     3.197462     3.189818     3.182175     3.174532     3.166889
      3.159245     3.151602     3.143959     3.136316     3.128673     3.121029     3.113386     3.105743     3.098100     3.090456
      3.082813     3.075170     3.067527     3.059884     3.052240     3.044597     3.036954     3.029311     3.021667     3.014024
      3.006381     2.998738     2.991095     2.983451     2.975808     2.968165     2.960522     2.952878     2.945235     2.937592
      2.929949     2.922306     2.914662     2.907019     2.899376     2.891733     2.884089     2.876446     2.868803     2.861160
      2.853517     2.845873     2.838230     2.830587     2.822944     2.815300     2.807657     2.800014     2.792371     2.784728
      2.777084     2.769441     2.761798     2.754155     2.746511     2.738868     2.731225     2.723582     2.715939     2.708295
      2.700652     2.693009     2.685366     2.677722     2.670079     2.662436     2.654793     2.647150     2.639506     2.631863
      2.624220     2.616577     2.608933     2.601290     2.593647     2.586004     2.578361     2.570717     2.563074     2.555431
      2.547788     2.540144     2.532501     2.524858     2.517215     2.509572     2.501928     2.494285     2.486642     2.478999
      2.471355     2.463712     2.456069     2.448426     2.440783     2.433139     2.425496     2.417853     2.410210     2.402566
      2.394923     2.387280     2.379637     2.371994     2.364350     2.356707     2.349064     2.341421     2.333777     2.326134
      2.318491     2.310848     2.303205     2.295561     2.287918     2.280275     2.272632     2.264988     2.257345     2.249702
      2.242059     2.234416     2.226772     2.219129     2.211486     2.203843     2.196199     2.188556     2.180913     2.173270
      2.165627     2.157983     2.150340     2.142697     2.135054     2.127410     2.119767     2.112124     2.104481     2.096838
      2.089194     2.081551     2.073908     2.066265     2.058621     2.050978     2.043335     2.035692     2.028049     2.020405
      2.012762     2.005119     1.997476     1.989833     1.982190     1.974546     1.966903     1.959260     1.951617     1.943974
      1.936331     1.928688     1.921045     1.913402     1.905759     1.898115     1.890472     1.882829     1.875186     1.867543
      1.859900     1.852257     1.844614     1.836971     1.829327     1.821684     1.814041     1.806398     1.798755     1.791112
      1.783469     1.775826     1.768183     1.760540     1.752896     1.745253     1.737610     1.729967     1.722324     1.714681
      1.707038     1.699395     1.691752     1.684108     1.676465     1.668822     1.661179     1.653536     1.645893     1.638250
      1.630607     1.622964     1.615321     1.607677     1.600034     1.592391     1.584748     1.577105     1.569462     1.561819
      1.554176     1.546533     1.538890     1.531246     1.523603     1.515960     1.508317     1.500674     1.493031     1.485388
      1.477745     1.470102     1.462458     1.454815     1.447172     1.439529     1.431886     1.424243     1.416600     1.408957
      1.401314     1.393671     1.386027     1.378384     1.370741     1.363098     1.355455     1.347812     1.340169     1.332526
      1.324883     1.317240     1.309596     1.301953     1.294310     1.286667     1.279024     1.271381     1.263738     1.256095
      1.248452     1.240808     1.233165     1.225522     1.217879     1.210236     1.202593     1.194950     1.187307     1.179664
      1.172021     1.164377     1.156734     1.149091     1.141448     1.133805     1.126162     1.118519     1.110876     1.103233
      1.095590     1.087946     1.080303     1.072660     1.065017     1.057374     1.049731     1.042088     1.034445     1.026802
      1.019158     1.011515     1.003872     0.996229     0.988586     0.980943     0.973300     0.965657     0.958014     0.950371
      0.942727     0.935084     0.927441     0.919798     0.912155     0.904512     0.896869     0.889226     0.881583     0.873940
      0.866296     0.858653     0.851010     0.843367     0.835724     0.828081     0.820438     0.812795     0.805152     0.797508
      0.789865     0.782222     0.774579     0.766936     0.759293     0.751650     0.744007     0.736364     0.728721     0.721077
      0.713434     0.705791     0.698148     0.690505     0.682862     0.675219     0.667576     0.659933     0.652290     0.644646
      0.637003     0.629360     0.621717     0.614074     0.606431     0.598788     0.591145     0.583502     0.575858     0.568215
      0.560572     0.552929     0.545286     0.537643     0.530000     0.522357     0.514714     0.507071     0.499427     0.491784
      0.484141     0.476498     0.468855     0.461212     0.453569     0.445925     0.438282     0.430639     0.422996     0.415353
      0.407710     0.400067     0.392424     0.384780     0.377137     0.369494     0.361851     0.354208     0.346565     0.338922
      0.331278     0.323635     0.315992     0.308349     0.300706     0.293063     0.285420     0.277777     0.270133     0.262490
      0.254847     0.247204     0.239561     0.231918     0.224275     0.216631     0.208988     0.201345
 NY phased data points follow
   5.93132E+00  3.07845E+01 -4.84812E+00 -3.21547E+01  1.26925E+01  2.05167E+01  3.20396E+01 -3.84986E+00 -7.00542E+00  2.54844E+00
   3.48883E+01  2.30644E+01  1.03021E+01 -1.51596E+01 -2.36374E+00  1.20967E+01  3.66309E+01 -9.84080E-01 -4.44727E+00 -1.19922E+01
  -1.79734E+01  6.04189E+00  7.76373E+00  3.80895E-01 -1.05872E+01 -1.10196E+01 -7.66145E-01 -1.80250E+01 -1.46756E+01  7.12320E-01
   1.60399E+01  1.13086E+01  4.96469E+00 -1.33776E+01 -1.60741E+01 -3.05573E+00 -3.62275E+00  4.81589E+00  1.09972E+01  5.35410E+00
   1.62792E+00  1.01663E+01 -2.04946E+01 -8.70973E+00 -3.76511E+00 -2.40858E+00  9.17276E+00 -1.64126E+01  1.30475E+00 -1.06747E+01
  -5.25278E+00 -2.38310E+01  2.02710E+00 -2.61191E+00  1.18159E+00 -3.63165E+00  7.92319E+00 -1.94029E+00 -1.29433E+01 -2.98689E+00
  -4.04344E+00 -1.98531E+00  3.36115E+00 -7.40843E+00  1.40535E+00 -1.61127E+00 -9.39058E+00 -3.79274E+00 -2.76341E+00  5.37415E+00
  -4.86733E+00  2.04431E+01 -5.76669E+00  1.37034E+01  9.00527E+00 -3.60795E+00 -4.62124E-01 -3.43274E+00 -1.69400E+01 -8.83342E+00
   1.34879E-01 -1.70346E+01 -4.49246E+00 -7.34038E-01  1.04907E-01  5.03160E+00 -1.01564E+01 -8.94272E-01 -1.00982E+01 -1.37819E+01
   1.41528E+00  1.65230E+01 -1.03852E+01 -3.05274E+00 -6.81385E+00 -2.78021E+00 -1.38083E+01 -8.49006E+00  2.29447E+01  1.65298E-01
  -4.31030E+00  7.36172E-01  1.67330E+01  4.74725E+00  1.33981E+01  2.64419E+00  1.32635E+01 -4.42382E+00 -8.79974E+00 -3.79272E+00
   2.28163E+00 -1.80333E+01  7.85686E+00 -2.86482E+00  2.69297E+01  3.13954E+00  3.33664E+00  1.18340E+00 -1.29773E+01 -2.75713E+01
  -3.94162E+00 -1.14180E+01  9.08906E+00  7.82130E+00  1.29151E+01 -1.04053E+00 -1.54555E+01 -4.17602E+00 -7.70530E+00 -1.80949E+01
  -9.51444E-01  1.57407E+01  9.16609E-01  9.99474E-01 -1.71873E+01 -1.46091E+01  2.41353E+00  6.45961E+00  1.59608E+01  2.49782E+00
   3.40609E+00  5.47422E+00  1.71357E+01  1.74266E+00  1.17023E+01 -5.72848E+00  8.94977E+00 -3.37581E+00 -1.14998E+01 -1.90914E+00
  -1.06939E+01 -4.75338E+00 -8.22237E+00 -8.33315E+00 -1.23395E+01 -1.37892E+00  4.48267E+00 -7.19059E+00 -7.28269E+00 -5.90225E+00
   6.32733E+00 -7.66643E+00 -5.76362E+00 -1.06231E+00 -2.65615E+00  4.00312E+00  3.99475E+00  7.66478E-01 -2.11831E+01 -8.47528E+00
   1.35036E+01  1.25420E+00  2.21415E+00 -1.23324E+00  5.19977E+00  2.41718E+00 -6.39365E+00  6.33762E+00 -1.30798E+01 -2.58286E+01
  -6.17676E+00  1.04045E+00  4.38809E+00 -1.39001E+01  8.27119E+00 -2.27906E+01  1.13497E+01  1.14465E+01 -1.71288E+01 -5.92176E+00
   9.38256E+00 -4.11571E+00 -2.19401E+00  4.70381E+00  6.50500E-01  5.12248E+00  1.17675E+01 -2.82510E+00 -3.04144E+01  1.89069E-01
   5.07580E-01 -1.12907E+00 -7.33217E+00  7.66323E+00 -3.14370E+00  1.01487E+00  9.08162E+00 -6.98026E-01  9.94318E+00 -6.60096E+00
  -7.69083E+00 -5.66569E+00 -6.59908E+00  1.03382E+00 -6.08775E+00 -5.65296E+00 -6.64873E+00  5.40329E+00  4.36569E+00 -1.20434E+01
  -3.13749E+00 -1.51836E+01 -2.84377E+00 -1.51255E+01 -1.75568E+01 -1.52456E+01 -3.32957E+00 -1.71560E+01 -3.11214E+00  7.01284E+00
   1.43551E-01 -2.60345E+00 -2.74823E+00 -2.85016E+00  1.98933E+00 -1.73627E+01  1.14197E+01 -4.39768E+00 -7.47788E+00  2.02497E+01
   4.44178E+00 -7.75651E+00 -3.47257E+00  3.61944E+00  2.53658E+01  1.36067E+00  2.15421E+01 -7.73690E+00  7.02564E+00  1.11364E+01
   8.50190E+00  4.97366E+00 -1.18182E+00 -6.68190E-01  2.22587E+00  2.33574E+01  8.41102E+00  7.90389E+00  4.30638E+00  2.78584E+01
   1.18620E+01  1.11602E+01 -6.64943E+00  1.52308E+01  7.23191E+00  1.32059E+01  3.80565E+01  1.69920E+01  1.90978E+01 -1.62169E+01
   1.00464E+01  8.01950E+00  1.02999E+01  1.15753E+01 -6.86707E+00 -1.32046E+01 -1.43202E+01 -1.97789E+01 -3.74857E+00 -1.12326E+00
   4.81014E+00  1.37344E+01  4.06883E+00 -3.42360E+00 -1.33799E+01 -1.42393E+01 -7.77736E+00  5.80491E+00  1.42423E+01  8.21574E-01
  -1.11307E+01 -6.42944E+00 -1.09315E+01  1.07288E+00 -7.38682E+00 -2.35449E+01  1.92943E+01 -6.26011E-01 -7.62426E-01 -1.05960E+01
  -1.57555E+01 -1.22309E+01 -9.46078E+00  2.21296E+00 -6.33708E-01 -2.00425E+01 -8.92926E+00  6.73060E+00 -1.55336E+01  4.91246E+00
  -1.31889E+01 -2.24780E+01 -1.17402E+01  1.00345E+01 -1.45308E+01  8.60509E+00 -4.75509E+00 -1.77287E+01 -1.33340E+01  2.79437E+00
  -7.84899E+00  2.00050E+00  5.17202E+00  1.68314E+01  1.06145E+01  8.07912E+00 -5.99482E+00  9.06662E+00  1.89215E+01  8.74149E+00
   9.05483E+00  4.84777E+00  7.96323E+00 -7.32139E-02  8.79645E+00  1.88692E+01  2.82517E-01  1.22242E+01  1.25822E+01  1.27902E+01
   8.78525E+00  1.78044E+00  1.57976E+01  9.42635E+00  5.04068E+00  1.40336E+01  1.33907E+01  3.22565E+00  2.18892E+01  1.29646E+01
   1.16548E+01  1.49973E+00  3.00888E+00  1.37402E+01  8.64158E+00  9.07246E+00 -9.76188E+00  6.49857E+00  1.61394E+01  1.20289E+01
  -2.78370E+00  1.06557E+01  6.66333E+00  1.15259E+01  2.61889E+01  7.92410E+00  9.29073E+00 -4.08944E+00  6.82098E+00 -9.45105E+00
   2.66111E+00 -1.13767E+00 -7.06313E+00 -1.86301E+00 -2.36671E+00  2.06199E+00  1.09303E+01  3.27383E+00  9.37146E+00  2.18270E+01
   3.96751E+01  2.13250E+01  3.89412E+01  1.86521E+01  3.27968E+01  2.09223E+01  3.07045E+01  1.90197E+01  1.43412E+01  6.35476E+00
   6.09928E+00  9.26075E+00  2.21118E+01  1.53704E+01  2.16722E+01  1.81338E+01  2.54794E+01  1.95357E+01  1.18080E+01  6.11154E+00
   9.21871E+00  2.06956E+01  1.87299E+01  1.68245E+01  1.90627E+01  4.75016E+00  1.22113E+01  7.32552E+00 -6.06551E+00  1.26667E-01
   4.89604E+00  1.09001E+01  6.91225E+00  5.85527E+00 -8.76366E+00 -4.08739E+00 -6.00542E+00 -1.98400E+00  6.40461E+00  1.29972E+01
   1.98308E+01  2.41020E+01 -1.12275E+01  2.61001E+00  9.84743E-01  1.88731E+01  1.85693E+01 -1.26987E+01  6.12692E+00 -1.97964E+00
   6.57361E+00  1.40290E+01  2.90022E+00 -3.83367E-01  1.30159E+00  6.63291E-01  1.98961E+01 -1.03910E+00  3.13526E+00  1.36407E+01
  -8.81696E+00 -3.27434E+00  2.89027E+01 -9.60979E+00  9.67115E+00  1.05799E+01  3.79667E+00  5.51323E+00 -5.16945E-01  4.34306E+00
   8.67377E+00 -9.68967E+00  9.21081E-01  1.10024E+00  6.36944E+00  2.62243E+01  6.09221E+00  2.09967E+01 -1.31246E+01  6.91693E+00
  -5.10763E+00  9.42974E+00  2.01014E+00  2.02835E+01  1.11123E+01  2.67466E+00  2.04194E+00 -1.02858E+01  1.64297E+00  5.57683E+00
  -6.18463E+00  1.74359E+01 -2.66657E-01  2.70119E+01  2.17136E+01 -1.08185E+00  1.34996E-01  1.70610E+01 -5.21407E-01 -3.49684E+00
   1.52694E+01  4.68287E+00  1.18591E+01 -1.36836E+01  1.01811E+01  2.85620E-01  1.89142E+00  7.18040E+00 -5.97728E+00 -9.20738E+00
  -2.00906E+00  7.85431E+00 -1.45275E+01 -1.53605E+00 -1.46847E+00 -8.33058E+00  4.74313E+00 -7.93174E-01
 NY points of the fit to the data follow
   9.00707E-01  7.61536E-01  1.20223E+00  8.92045E-01  1.36089E+00  8.86321E-01  1.38979E+00  7.46752E-01  1.29780E+00  5.09279E-01
   1.05799E+00  1.78205E-01  6.89317E-01 -2.24996E-01  2.38320E-01 -6.07054E-01 -2.29285E-01 -1.00904E+00 -7.27447E-01 -1.41888E+00
  -1.27300E+00 -1.89043E+00 -1.88918E+00 -2.42642E+00 -2.55071E+00 -2.94518E+00 -3.12981E+00 -3.31799E+00 -3.45652E+00 -3.35618E+00
  -3.32050E+00 -2.97746E+00 -2.79351E+00 -2.43504E+00 -2.18421E+00 -1.86881E+00 -1.57919E+00 -1.34276E+00 -1.04526E+00 -8.98952E-01
  -6.05239E-01 -5.00279E-01 -1.66877E-01 -8.28899E-02  2.75483E-01  2.83511E-01  5.89775E-01  4.86750E-01  7.03703E-01  4.91291E-01
   6.01367E-01  3.34669E-01  3.95119E-01  1.17761E-01  1.82360E-01 -9.58202E-02 -2.99219E-02 -3.47243E-01 -2.95196E-01 -6.71317E-01
  -6.29694E-01 -1.07271E+00 -1.02303E+00 -1.47345E+00 -1.36827E+00 -1.76362E+00 -1.57088E+00 -1.87934E+00 -1.58994E+00 -1.83758E+00
  -1.51685E+00 -1.83842E+00 -1.60421E+00 -2.03834E+00 -1.87868E+00 -2.38895E+00 -2.27281E+00 -2.80561E+00 -2.68880E+00 -3.20914E+00
  -3.08874E+00 -3.58907E+00 -3.45576E+00 -3.93004E+00 -3.63837E+00 -3.95877E+00 -3.57070E+00 -3.69860E+00 -3.25787E+00 -3.16569E+00
  -2.70031E+00 -2.39298E+00 -1.96319E+00 -1.47579E+00 -1.10435E+00 -4.62708E-01 -1.87956E-01  5.81741E-01  7.11067E-01  1.55530E+00
   1.47082E+00  2.32268E+00  2.01397E+00  2.81765E+00  2.28437E+00  2.97077E+00  2.23217E+00  2.75440E+00  1.89112E+00  2.40586E+00
   1.55011E+00  2.03509E+00  1.30086E+00  1.75037E+00  1.17057E+00  1.54432E+00  1.12024E+00  1.36698E+00  1.15078E+00  1.31521E+00
   1.36658E+00  1.52991E+00  1.85876E+00  2.04343E+00  2.60460E+00  2.74415E+00  3.26171E+00  3.20432E+00  3.62771E+00  3.34214E+00
   3.64510E+00  3.13665E+00  3.30429E+00  2.59368E+00  2.62406E+00  1.76837E+00  1.67873E+00  7.60554E-01  5.72352E-01 -3.74173E-01
  -6.47819E-01 -1.58862E+00 -1.91785E+00 -2.75167E+00 -3.07032E+00 -3.68232E+00 -3.92403E+00 -4.26599E+00 -4.39562E+00 -4.46356E+00
  -4.51209E+00 -4.55284E+00 -4.59318E+00 -4.62287E+00 -4.66328E+00 -4.68755E+00 -4.72969E+00 -4.75025E+00 -4.79820E+00 -4.81336E+00
  -4.86256E+00 -4.87057E+00 -4.91934E+00 -4.92780E+00 -4.97278E+00 -4.98180E+00 -5.01555E+00 -5.02472E+00 -5.04808E+00 -5.06429E+00
  -5.07315E+00 -5.09186E+00 -5.07983E+00 -5.09733E+00 -5.06085E+00 -5.07560E+00 -5.01361E+00 -5.02373E+00 -4.93482E+00 -4.93598E+00
  -4.82512E+00 -4.81595E+00 -4.68869E+00 -4.66475E+00 -4.52409E+00 -4.46956E+00 -4.31368E+00 -4.22254E+00 -4.05337E+00 -3.94981E+00
  -3.76942E+00 -3.67472E+00 -3.51874E+00 -3.44275E+00 -3.32906E+00 -3.26724E+00 -3.16402E+00 -3.06553E+00 -2.86589E+00 -2.77966E+00
  -2.47129E+00 -2.46337E+00 -2.07549E+00 -2.23723E+00 -1.86294E+00 -2.23520E+00 -1.84314E+00 -2.37035E+00 -1.92956E+00 -2.55121E+00
  -2.03354E+00 -2.70450E+00 -2.11631E+00 -2.83018E+00 -2.21715E+00 -2.94637E+00 -2.33892E+00 -3.04360E+00 -2.45838E+00 -3.07543E+00
  -2.52295E+00 -2.99561E+00 -2.50629E+00 -2.80322E+00 -2.37345E+00 -2.49775E+00 -2.09931E+00 -2.06903E+00 -1.71999E+00 -1.57260E+00
  -1.27873E+00 -1.02004E+00 -7.69713E-01 -4.10601E-01 -1.06640E-01  3.34618E-01  7.58266E-01  1.21238E+00  1.72791E+00  2.04260E+00
   2.50459E+00  2.69757E+00  3.26347E+00  3.46921E+00  4.08041E+00  4.40439E+00  5.08634E+00  5.58835E+00  6.23588E+00  6.89334E+00
   7.38919E+00  8.14866E+00  8.42736E+00  9.25892E+00  9.30044E+00  1.02140E+01  9.99733E+00  1.09613E+01  1.04343E+01  1.13820E+01
   1.05472E+01  1.14214E+01  1.03082E+01  1.10614E+01  9.75474E+00  1.03500E+01  8.92888E+00  9.34562E+00  7.87309E+00  8.09079E+00
   6.65845E+00  6.69106E+00  5.32791E+00  5.18680E+00  3.94138E+00  3.67299E+00  2.63266E+00  2.30726E+00  1.55210E+00  1.25658E+00
   7.99670E-01  6.04077E-01  4.51010E-01  3.63317E-01  2.70222E-01  2.03516E-01  1.47542E-01  8.43218E-02  4.19565E-02 -1.13964E-02
  -4.71717E-02 -9.18721E-02 -1.20193E-01 -1.50717E-01 -1.66702E-01 -1.75022E-01 -1.72021E-01 -1.61057E-01 -1.44610E-01 -1.18805E-01
  -9.17530E-02 -5.41760E-02 -1.68545E-02  3.21055E-02  8.36867E-02  1.47398E-01  2.16214E-01  2.98163E-01  3.88178E-01  4.92199E-01
   6.07248E-01  7.38006E-01  8.83344E-01  1.04624E+00  1.22701E+00  1.42776E+00  1.64905E+00  1.89232E+00  2.15803E+00  2.44660E+00
   2.75794E+00  3.09130E+00  3.44556E+00  3.81865E+00  4.20815E+00  4.61068E+00  5.02233E+00  5.43854E+00  5.85435E+00  6.26435E+00
   6.66308E+00  7.04495E+00  7.40470E+00  7.73737E+00  8.03868E+00  8.30508E+00  8.53400E+00  8.72383E+00  8.87411E+00  8.98541E+00
   9.05937E+00  9.09853E+00  9.10622E+00  9.08638E+00  9.04329E+00  8.98144E+00  8.90523E+00  8.81883E+00  8.72597E+00  8.62982E+00
   8.53286E+00  8.43689E+00  8.34300E+00  8.25161E+00  8.16251E+00  8.07506E+00  7.98823E+00  7.90080E+00  7.81149E+00  7.71911E+00
   7.62266E+00  7.52151E+00  7.41542E+00  7.30471E+00  7.19020E+00  7.07336E+00  6.95621E+00  6.84141E+00  6.73217E+00  6.63223E+00
   6.54585E+00  6.47768E+00  6.43275E+00  6.41636E+00  6.43394E+00  6.49101E+00  6.59296E+00  6.74487E+00  6.95135E+00  7.21627E+00
   7.54248E+00  7.93152E+00  8.38334E+00  8.89598E+00  9.46535E+00  1.00850E+01  1.07460E+01  1.14370E+01  1.21444E+01  1.28526E+01
   1.35443E+01  1.42014E+01  1.48056E+01  1.53390E+01  1.57854E+01  1.61304E+01  1.63629E+01  1.64749E+01  1.64627E+01  1.63262E+01
   1.60697E+01  1.57009E+01  1.52308E+01  1.46732E+01  1.40434E+01  1.33580E+01  1.26338E+01  1.18871E+01  1.11331E+01  1.03857E+01
   9.65650E+00  8.95526E+00  8.28949E+00  7.66461E+00  7.08410E+00  6.54972E+00  6.06177E+00  5.61939E+00  5.22078E+00  4.86354E+00
   4.54480E+00  4.26151E+00  4.01049E+00  3.78863E+00  3.59292E+00  3.42055E+00  3.26890E+00  3.13560E+00  3.01849E+00  2.91567E+00
   2.82542E+00  2.74625E+00  2.67683E+00  2.61600E+00  2.56275E+00  2.51620E+00  2.47557E+00  2.44021E+00  2.40951E+00  2.38299E+00
   2.36018E+00  2.34070E+00  2.32421E+00  2.31043E+00  2.29907E+00  2.28992E+00  2.28276E+00  2.27743E+00  2.27375E+00  2.27159E+00
   2.27083E+00  2.27134E+00  2.27303E+00  2.27580E+00  2.27957E+00  2.28428E+00  2.28984E+00  2.29621E+00  2.30332E+00  2.31112E+00
   2.31957E+00  2.32863E+00  2.33825E+00  2.34840E+00  2.35905E+00  2.37017E+00  2.38173E+00  2.39371E+00  2.40608E+00  2.41881E+00
   2.43190E+00  2.44532E+00  2.45905E+00  2.47308E+00  2.48739E+00  2.50198E+00  2.51681E+00  2.53189E+00  2.54721E+00  2.56274E+00
   2.57849E+00  2.59444E+00  2.61059E+00  2.62693E+00  2.64345E+00  2.66014E+00  2.67700E+00  2.69402E+00  2.71121E+00  2.72856E+00
   2.74605E+00  2.76371E+00  2.78151E+00  2.79947E+00  2.81760E+00  2.83589E+00  2.85436E+00  2.87303E+00
 NY background values follow
    -8.255E+00   -8.233E+00   -8.211E+00   -8.189E+00   -8.167E+00   -8.146E+00   -8.124E+00   -8.102E+00   -8.080E+00   -8.058E+00
    -8.036E+00   -8.014E+00   -7.992E+00   -7.970E+00   -7.949E+00   -7.927E+00   -7.905E+00   -7.883E+00   -7.861E+00   -7.839E+00
    -7.817E+00   -7.795E+00   -7.773E+00   -7.752E+00   -7.730E+00   -7.708E+00   -7.686E+00   -7.664E+00   -7.642E+00   -7.620E+00
    -7.598E+00   -7.577E+00   -7.555E+00   -7.533E+00   -7.511E+00   -7.489E+00   -7.467E+00   -7.445E+00   -7.423E+00   -7.401E+00
    -7.380E+00   -7.358E+00   -7.336E+00   -7.314E+00   -7.292E+00   -7.270E+00   -7.248E+00   -7.226E+00   -7.204E+00   -7.183E+00
    -7.161E+00   -7.139E+00   -7.117E+00   -7.095E+00   -7.073E+00   -7.051E+00   -7.029E+00   -7.007E+00   -6.986E+00   -6.964E+00
    -6.942E+00   -6.920E+00   -6.898E+00   -6.876E+00   -6.854E+00   -6.832E+00   -6.810E+00   -6.789E+00   -6.767E+00   -6.745E+00
    -6.723E+00   -6.701E+00   -6.679E+00   -6.657E+00   -6.635E+00   -6.613E+00   -6.592E+00   -6.570E+00   -6.548E+00   -6.526E+00
    -6.504E+00   -6.482E+00   -6.460E+00   -6.438E+00   -6.416E+00   -6.395E+00   -6.373E+00   -6.351E+00   -6.329E+00   -6.307E+00
    -6.285E+00   -6.263E+00   -6.241E+00   -6.219E+00   -6.198E+00   -6.176E+00   -6.154E+00   -6.132E+00   -6.110E+00   -6.088E+00
    -6.066E+00   -6.044E+00   -6.022E+00   -6.001E+00   -5.979E+00   -5.957E+00   -5.935E+00   -5.913E+00   -5.891E+00   -5.869E+00
    -5.847E+00   -5.825E+00   -5.804E+00   -5.782E+00   -5.760E+00   -5.738E+00   -5.716E+00   -5.694E+00   -5.672E+00   -5.650E+00
    -5.628E+00   -5.606E+00   -5.585E+00   -5.563E+00   -5.541E+00   -5.519E+00   -5.497E+00   -5.475E+00   -5.453E+00   -5.431E+00
    -5.409E+00   -5.388E+00   -5.366E+00   -5.344E+00   -5.322E+00   -5.300E+00   -5.278E+00   -5.256E+00   -5.234E+00   -5.212E+00
    -5.191E+00   -5.169E+00   -5.147E+00   -5.125E+00   -5.103E+00   -5.081E+00   -5.059E+00   -5.037E+00   -5.015E+00   -4.994E+00
    -4.972E+00   -4.950E+00   -4.928E+00   -4.906E+00   -4.884E+00   -4.862E+00   -4.840E+00   -4.818E+00   -4.797E+00   -4.775E+00
    -4.753E+00   -4.731E+00   -4.709E+00   -4.687E+00   -4.665E+00   -4.643E+00   -4.621E+00   -4.600E+00   -4.578E+00   -4.556E+00
    -4.534E+00   -4.512E+00   -4.490E+00   -4.468E+00   -4.446E+00   -4.424E+00   -4.403E+00   -4.381E+00   -4.359E+00   -4.337E+00
    -4.315E+00   -4.293E+00   -4.271E+00   -4.249E+00   -4.227E+00   -4.205E+00   -4.184E+00   -4.162E+00   -4.140E+00   -4.118E+00
    -4.096E+00   -4.074E+00   -4.052E+00   -4.030E+00   -4.008E+00   -3.987E+00   -3.965E+00   -3.943E+00   -3.921E+00   -3.899E+00
    -3.877E+00   -3.855E+00   -3.833E+00   -3.811E+00   -3.790E+00   -3.768E+00   -3.746E+00   -3.724E+00   -3.702E+00   -3.680E+00
    -3.658E+00   -3.636E+00   -3.614E+00   -3.592E+00   -3.571E+00   -3.549E+00   -3.527E+00   -3.505E+00   -3.483E+00   -3.461E+00
    -3.439E+00   -3.417E+00   -3.395E+00   -3.374E+00   -3.352E+00   -3.330E+00   -3.308E+00   -3.286E+00   -3.264E+00   -3.242E+00
    -3.220E+00   -3.198E+00   -3.177E+00   -3.155E+00   -3.133E+00   -3.111E+00   -3.089E+00   -3.067E+00   -3.045E+00   -3.023E+00
    -3.001E+00   -2.979E+00   -2.958E+00   -2.936E+00   -2.914E+00   -2.892E+00   -2.870E+00   -2.848E+00   -2.826E+00   -2.804E+00
    -2.782E+00   -2.761E+00   -2.739E+00   -2.717E+00   -2.695E+00   -2.673E+00   -2.651E+00   -2.629E+00   -2.607E+00   -2.585E+00
    -2.563E+00   -2.542E+00   -2.520E+00   -2.498E+00   -2.476E+00   -2.454E+00   -2.432E+00   -2.410E+00   -2.388E+00   -2.366E+00
    -2.344E+00   -2.323E+00   -2.301E+00   -2.279E+00   -2.257E+00   -2.235E+00   -2.213E+00   -2.191E+00   -2.169E+00   -2.147E+00
    -2.126E+00   -2.104E+00   -2.082E+00   -2.060E+00   -2.038E+00   -2.016E+00   -1.994E+00   -1.972E+00   -1.950E+00   -1.928E+00
    -1.907E+00   -1.885E+00   -1.863E+00   -1.841E+00   -1.819E+00   -1.797E+00   -1.775E+00   -1.753E+00   -1.731E+00   -1.709E+00
    -1.688E+00   -1.666E+00   -1.644E+00   -1.622E+00   -1.600E+00   -1.578E+00   -1.556E+00   -1.534E+00   -1.512E+00   -1.491E+00
    -1.469E+00   -1.447E+00   -1.425E+00   -1.403E+00   -1.381E+00   -1.359E+00   -1.337E+00   -1.315E+00   -1.293E+00   -1.272E+00
    -1.250E+00   -1.228E+00   -1.206E+00   -1.184E+00   -1.162E+00   -1.140E+00   -1.118E+00   -1.096E+00   -1.074E+00   -1.053E+00
    -1.031E+00   -1.009E+00   -9.869E-01   -9.650E-01   -9.431E-01   -9.212E-01   -8.993E-01   -8.774E-01   -8.555E-01   -8.336E-01
    -8.117E-01   -7.898E-01   -7.679E-01   -7.460E-01   -7.241E-01   -7.022E-01   -6.803E-01   -6.584E-01   -6.365E-01   -6.146E-01
    -5.927E-01   -5.708E-01   -5.489E-01   -5.270E-01   -5.051E-01   -4.832E-01   -4.613E-01   -4.394E-01   -4.175E-01   -3.956E-01
    -3.737E-01   -3.518E-01   -3.299E-01   -3.080E-01   -2.861E-01   -2.642E-01   -2.423E-01   -2.204E-01   -1.985E-01   -1.766E-01
    -1.547E-01   -1.328E-01   -1.109E-01   -8.897E-02   -6.707E-02   -4.517E-02   -2.327E-02   -1.366E-03    2.053E-02    4.243E-02
     6.433E-02    8.623E-02    1.081E-01    1.300E-01    1.519E-01    1.738E-01    1.957E-01    2.176E-01    2.395E-01    2.614E-01
     2.833E-01    3.052E-01    3.271E-01    3.490E-01    3.709E-01    3.928E-01    4.147E-01    4.366E-01    4.585E-01    4.804E-01
     5.023E-01    5.242E-01    5.461E-01    5.680E-01    5.899E-01    6.118E-01    6.337E-01    6.556E-01    6.775E-01    6.994E-01
     7.213E-01    7.433E-01    7.652E-01    7.871E-01    8.090E-01    8.309E-01    8.528E-01    8.747E-01    8.966E-01    9.185E-01
     9.404E-01    9.623E-01    9.842E-01    1.006E+00    1.028E+00    1.050E+00    1.072E+00    1.094E+00    1.116E+00    1.137E+00
     1.159E+00    1.181E+00    1.203E+00    1.225E+00    1.247E+00    1.269E+00    1.291E+00    1.313E+00    1.335E+00    1.356E+00
     1.378E+00    1.400E+00    1.422E+00    1.444E+00    1.466E+00    1.488E+00    1.510E+00    1.532E+00    1.554E+00    1.575E+00
     1.597E+00    1.619E+00    1.641E+00    1.663E+00    1.685E+00    1.707E+00    1.729E+00    1.751E+00    1.773E+00    1.794E+00
     1.816E+00    1.838E+00    1.860E+00    1.882E+00    1.904E+00    1.926E+00    1.948E+00    1.970E+00    1.992E+00    2.013E+00
     2.035E+00    2.057E+00    2.079E+00    2.101E+00    2.123E+00    2.145E+00    2.167E+00    2.189E+00    2.211E+00    2.233E+00
     2.254E+00    2.276E+00    2.298E+00    2.320E+00    2.342E+00    2.364E+00    2.386E+00    2.408E+00    2.430E+00    2.452E+00
     2.473E+00    2.495E+00    2.517E+00    2.539E+00    2.561E+00    2.583E+00    2.605E+00    2.627E+00
 Asp      Conc. = 9.57E+01
