 LCModel (Version 6.3-1L) Copyright: S.W. Provencher.          Ref.: Magn. Reson. Med. 30:672-679 (1993).                
 Slice#2 Row#7 Col#1  PD_05_press_2_raw_act
 36 lines in following concentration table = NCONC+1
    Conc.  %SD /Cr+PCr  Metabolite                                         
 1.04E+03  32%   0.853 Ala                                                 
   83.286 281% 6.8E-02 Asp                                                 
 1.22E+03   9%   1.000 Cr                                                  
    0.000 999%   0.000 PCr                                                 
   33.359 446% 2.7E-02 GABA                                                
  104.206 140% 8.5E-02 Glc                                                 
  209.524 296%   0.171 Gln                                                 
    0.000 999%   0.000 Glu                                                 
  366.442  12%   0.299 GPC                                                 
    0.000 999%   0.000 PCh                                                 
  985.218  18%   0.805 GSH                                                 
 2.35E+03  26%   1.916 Ins                                                 
  279.595 126%   0.228 Lac                                                 
 1.68E+03   7%   1.375 NAA                                                 
    0.000 999%   0.000 NAAG                                                
   86.833  47% 7.1E-02 Scyllo                                              
  368.819  63%   0.301 Tau                                                 
  391.562  56%   0.320 -CrCH2                                              
  366.442  12%   0.299 GPC+PCh                                             
 1.68E+03   7%   1.375 NAA+NAAG                                            
 1.22E+03   9%   1.000 Cr+PCr                                              
  209.524 296%   0.171 Glu+Gln                                             
    0.000 999%   0.000 Lip13a                                              
   30.438 310% 2.5E-02 Lip13b                                              
    0.000 999%   0.000 Lip09                                               
 1.51E+03  15%   1.233 MM09                                                
    2.827 899% 2.3E-03 Lip20                                               
 2.15E+03  17%   1.758 MM20                                                
  450.347  18%   0.368 MM12                                                
 1.71E+03  11%   1.393 MM14                                                
  807.144  16%   0.659 MM17                                                
   30.438 310% 2.5E-02 Lip13a+Lip13b                                       
 2.19E+03  12%   1.785 MM14+Lip13a+Lip13b+MM12                             
 1.51E+03  15%   1.233 MM09+Lip09                                          
 2.15E+03  17%   1.760 MM20+Lip20                                          
   6 lines in following misc. output table
  FWHM = 0.076 ppm    S/N =   4                                            
  Data shift = 0.008 ppm                                                   
  Ph: -38 deg     -16.7 deg/ppm                                            
  alphaB,S = 7.4E-01,   2.2E+01                                            
   14 spline knots.   Ns =11(1)                                            
  (16)11 infls.   (18) 6 extrs.                                            
  498 points on ppm-axis = NY
      4.000000     3.992357     3.984714     3.977070     3.969427     3.961784     3.954141     3.946497     3.938854     3.931211
      3.923568     3.915925     3.908281     3.900638     3.892995     3.885352     3.877708     3.870065     3.862422     3.854779
      3.847136     3.839492     3.831849     3.824206     3.816563     3.808919     3.801276     3.793633     3.785990     3.778347
      3.770703     3.763060     3.755417     3.747774     3.740130     3.732487     3.724844     3.717201     3.709558     3.701914
      3.694271     3.686628     3.678985     3.671341     3.663698     3.656055     3.648412     3.640769     3.633125     3.625482
      3.617839     3.610196     3.602552     3.594909     3.587266     3.579623     3.571980     3.564336     3.556693     3.549050
      3.541407     3.533763     3.526120     3.518477     3.510834     3.503191     3.495547     3.487904     3.480261     3.472618
      3.464974     3.457331     3.449688     3.442045     3.434402     3.426758     3.419115     3.411472     3.403829     3.396185
      3.388542     3.380899     3.373256     3.365613     3.357969     3.350326     3.342683     3.335040     3.327396     3.319753
      3.312110     3.304467     3.296824     3.289180     3.281537     3.273894     3.266251     3.258607     3.250964     3.243321
      3.235678     3.228034     3.220391     3.212748     3.205105     3.197462     3.189818     3.182175     3.174532     3.166889
      3.159245     3.151602     3.143959     3.136316     3.128673     3.121029     3.113386     3.105743     3.098100     3.090456
      3.082813     3.075170     3.067527     3.059884     3.052240     3.044597     3.036954     3.029311     3.021667     3.014024
      3.006381     2.998738     2.991095     2.983451     2.975808     2.968165     2.960522     2.952878     2.945235     2.937592
      2.929949     2.922306     2.914662     2.907019     2.899376     2.891733     2.884089     2.876446     2.868803     2.861160
      2.853517     2.845873     2.838230     2.830587     2.822944     2.815300     2.807657     2.800014     2.792371     2.784728
      2.777084     2.769441     2.761798     2.754155     2.746511     2.738868     2.731225     2.723582     2.715939     2.708295
      2.700652     2.693009     2.685366     2.677722     2.670079     2.662436     2.654793     2.647150     2.639506     2.631863
      2.624220     2.616577     2.608933     2.601290     2.593647     2.586004     2.578361     2.570717     2.563074     2.555431
      2.547788     2.540144     2.532501     2.524858     2.517215     2.509572     2.501928     2.494285     2.486642     2.478999
      2.471355     2.463712     2.456069     2.448426     2.440783     2.433139     2.425496     2.417853     2.410210     2.402566
      2.394923     2.387280     2.379637     2.371994     2.364350     2.356707     2.349064     2.341421     2.333777     2.326134
      2.318491     2.310848     2.303205     2.295561     2.287918     2.280275     2.272632     2.264988     2.257345     2.249702
      2.242059     2.234416     2.226772     2.219129     2.211486     2.203843     2.196199     2.188556     2.180913     2.173270
      2.165627     2.157983     2.150340     2.142697     2.135054     2.127410     2.119767     2.112124     2.104481     2.096838
      2.089194     2.081551     2.073908     2.066265     2.058621     2.050978     2.043335     2.035692     2.028049     2.020405
      2.012762     2.005119     1.997476     1.989833     1.982190     1.974546     1.966903     1.959260     1.951617     1.943974
      1.936331     1.928688     1.921045     1.913402     1.905759     1.898115     1.890472     1.882829     1.875186     1.867543
      1.859900     1.852257     1.844614     1.836971     1.829327     1.821684     1.814041     1.806398     1.798755     1.791112
      1.783469     1.775826     1.768183     1.760540     1.752896     1.745253     1.737610     1.729967     1.722324     1.714681
      1.707038     1.699395     1.691752     1.684108     1.676465     1.668822     1.661179     1.653536     1.645893     1.638250
      1.630607     1.622964     1.615321     1.607677     1.600034     1.592391     1.584748     1.577105     1.569462     1.561819
      1.554176     1.546533     1.538890     1.531246     1.523603     1.515960     1.508317     1.500674     1.493031     1.485388
      1.477745     1.470102     1.462458     1.454815     1.447172     1.439529     1.431886     1.424243     1.416600     1.408957
      1.401314     1.393671     1.386027     1.378384     1.370741     1.363098     1.355455     1.347812     1.340169     1.332526
      1.324883     1.317240     1.309596     1.301953     1.294310     1.286667     1.279024     1.271381     1.263738     1.256095
      1.248452     1.240808     1.233165     1.225522     1.217879     1.210236     1.202593     1.194950     1.187307     1.179664
      1.172021     1.164377     1.156734     1.149091     1.141448     1.133805     1.126162     1.118519     1.110876     1.103233
      1.095590     1.087946     1.080303     1.072660     1.065017     1.057374     1.049731     1.042088     1.034445     1.026802
      1.019158     1.011515     1.003872     0.996229     0.988586     0.980943     0.973300     0.965657     0.958014     0.950371
      0.942727     0.935084     0.927441     0.919798     0.912155     0.904512     0.896869     0.889226     0.881583     0.873940
      0.866296     0.858653     0.851010     0.843367     0.835724     0.828081     0.820438     0.812795     0.805152     0.797508
      0.789865     0.782222     0.774579     0.766936     0.759293     0.751650     0.744007     0.736364     0.728721     0.721077
      0.713434     0.705791     0.698148     0.690505     0.682862     0.675219     0.667576     0.659933     0.652290     0.644646
      0.637003     0.629360     0.621717     0.614074     0.606431     0.598788     0.591145     0.583502     0.575858     0.568215
      0.560572     0.552929     0.545286     0.537643     0.530000     0.522357     0.514714     0.507071     0.499427     0.491784
      0.484141     0.476498     0.468855     0.461212     0.453569     0.445925     0.438282     0.430639     0.422996     0.415353
      0.407710     0.400067     0.392424     0.384780     0.377137     0.369494     0.361851     0.354208     0.346565     0.338922
      0.331278     0.323635     0.315992     0.308349     0.300706     0.293063     0.285420     0.277777     0.270133     0.262490
      0.254847     0.247204     0.239561     0.231918     0.224275     0.216631     0.208988     0.201345
 NY phased data points follow
  -1.15088E+02 -1.12253E+02 -1.07051E+02 -9.74984E+01 -1.04284E+02 -9.63452E+01 -9.07311E+01 -8.45219E+01 -8.26453E+01 -7.93181E+01
  -7.98334E+01 -7.61394E+01 -7.52760E+01 -7.92118E+01 -7.61668E+01 -7.66055E+01 -7.93139E+01 -8.17315E+01 -7.85671E+01 -7.94123E+01
  -7.97384E+01 -7.02661E+01 -8.27854E+01 -8.10427E+01 -7.53189E+01 -6.33619E+01 -7.07609E+01 -6.33164E+01 -6.37367E+01 -6.17000E+01
  -6.87864E+01 -6.41146E+01 -6.76316E+01 -6.05153E+01 -6.29393E+01 -6.41742E+01 -6.16638E+01 -5.72314E+01 -6.74820E+01 -6.24096E+01
  -6.27635E+01 -5.79435E+01 -6.07693E+01 -5.56214E+01 -5.88773E+01 -5.13137E+01 -5.11807E+01 -5.69853E+01 -5.32085E+01 -4.63326E+01
  -5.35736E+01 -4.84080E+01 -4.63481E+01 -5.40939E+01 -4.59642E+01 -6.04871E+01 -5.53965E+01 -4.94418E+01 -4.79454E+01 -5.12815E+01
  -5.28292E+01 -5.25005E+01 -4.85770E+01 -5.08050E+01 -5.45788E+01 -4.60202E+01 -5.61516E+01 -4.68023E+01 -4.72246E+01 -4.77831E+01
  -4.42301E+01 -5.17118E+01 -4.21073E+01 -3.88387E+01 -3.76814E+01 -4.27087E+01 -3.96091E+01 -3.66108E+01 -3.90597E+01 -3.97333E+01
  -3.47291E+01 -4.48419E+01 -5.20242E+01 -4.48739E+01 -4.23341E+01 -3.60640E+01 -3.35259E+01 -4.20492E+01 -3.92639E+01 -3.54170E+01
  -3.08563E+01 -3.67163E+01 -3.34057E+01 -3.48542E+01 -2.33916E+01 -2.70646E+01 -2.75486E+01 -2.36957E+01 -2.66452E+01 -1.94288E+01
  -1.57171E+01 -1.54436E+01 -1.27903E+01 -1.75556E+01 -6.86408E+00 -9.64854E+00 -8.56053E+00 -2.30672E+01 -2.24254E+01 -2.22580E+01
  -2.07926E+01 -2.02704E+01 -1.42024E+01 -2.30837E+01 -2.07675E+01 -2.41274E+01 -2.02679E+01 -2.81876E+01 -2.24477E+01 -1.68807E+01
  -1.82727E+01 -1.85142E+01 -1.26143E+01 -1.29469E+01 -2.46558E+00  3.10959E+00  6.81109E+00  5.45002E+00  9.63199E+00  2.71420E+00
   2.55523E+00 -8.48421E-01  6.37860E+00 -1.06357E+01 -1.24482E+01 -8.00779E+00 -7.75191E+00 -1.27578E+01 -1.72506E+01 -1.55190E+01
  -1.36275E+01 -1.28943E+01 -1.02107E+01 -1.49787E+01 -1.75715E+01 -1.30426E+01 -2.05377E+01 -2.05102E+01 -2.38732E+01 -1.71548E+01
  -1.12201E+01 -1.01463E+01 -1.71760E+01 -1.38614E+01 -1.58009E+01 -1.44562E+01 -1.73817E+01 -1.54818E+01 -1.17164E+01 -8.07029E+00
  -1.13572E+01 -2.04229E+01 -1.60444E+01 -1.59896E+01 -1.71049E+01 -1.04779E+01 -7.18138E+00 -1.30209E+01 -1.02713E+01 -7.16589E+00
  -1.38543E+01 -1.26443E+01 -1.21314E+01 -8.81319E+00 -1.21973E+01 -1.91340E+01 -7.46380E+00 -1.58383E+01 -1.75050E+01 -1.84793E+01
  -1.56622E+01 -1.56216E+01 -1.71667E+01 -2.10376E+01 -1.65685E+01 -1.96034E+01 -6.80682E+00 -1.50999E+01 -1.13976E+01 -7.83316E+00
  -5.53717E+00  4.74802E+00 -4.39158E-01  1.56815E+00 -1.33272E-01 -8.62830E+00  6.45212E-01 -8.59713E+00 -3.45285E-01 -6.23312E+00
  -5.45195E+00  6.00067E-01 -5.15995E+00 -5.39031E+00 -5.61800E+00  5.94462E+00  1.49434E+00 -1.88123E+00 -1.08378E+00  4.53432E+00
  -8.12444E+00  5.05210E+00  8.04728E+00  4.47609E+00 -1.50071E-01  2.04192E+00  1.59955E-01  6.10308E+00  1.32516E+00  4.05581E+00
   6.00995E+00 -2.08369E-01  1.01941E+01 -2.03715E+00  1.48548E+00  4.66043E+00  1.10347E+01  1.21973E+01  8.07140E-01  9.24515E+00
   3.59339E+00  1.22809E+01  6.00143E-01  2.25343E+00  4.20077E+00  4.19098E+00  2.22958E+00  1.32415E+00  3.35720E+00  1.22492E+01
   6.33703E+00  7.41054E+00  5.96793E+00 -1.27187E+00  2.67480E-01  1.77474E+00  5.50593E+00  8.39517E+00  1.27990E+01  3.87937E+00
   7.77435E+00  1.06844E+01  1.44794E+01  1.33479E+01  1.86077E+01  2.79553E+01  3.11412E+01  4.32699E+01  4.48013E+01  4.33608E+01
   5.44612E+01  4.25535E+01  4.01756E+01  4.49505E+01  3.22909E+01  4.24587E+01  2.78507E+01  2.31681E+01  2.12007E+01  1.63678E+01
   2.22706E+01  7.40171E+00  1.68647E+01  1.15725E+01  1.46224E+01  8.91383E+00  1.15880E+01  1.35258E+01  8.08495E+00  5.22287E+00
   3.33533E+00  2.32156E+00  5.13532E+00  1.17409E+01  1.52067E+01  2.71702E+00  8.26932E-01 -4.61250E+00  1.44069E+00  5.04437E+00
  -4.31953E-01  1.01990E+01  6.71376E+00  4.87827E-03  6.19914E+00  3.00828E+00  1.18867E+01  8.31734E+00  3.98283E+00  8.62216E+00
   1.31178E+01  1.31122E+01  2.00302E+01  1.32569E+01  1.56233E+01  1.77971E+01  2.24678E+01  1.18519E+01  2.22168E+01  2.74339E+01
   1.43521E+01  2.16093E+01  2.10361E+01  2.29800E+01  3.09316E+01  2.46183E+01  2.82940E+01  2.72193E+01  2.83596E+01  3.79862E+01
   3.86725E+01  3.65461E+01  2.76787E+01  3.21337E+01  3.02341E+01  3.69756E+01  3.70710E+01  2.51032E+01  2.59726E+01  2.69590E+01
   2.27794E+01  2.65014E+01  2.72291E+01  2.18595E+01  3.23113E+01  2.34683E+01  2.36279E+01  1.53371E+01  2.19202E+01  2.08293E+01
   1.63064E+01  2.09926E+01  2.96013E+01  2.06554E+01  2.15355E+01  1.67506E+01  1.29128E+01  1.49379E+01  1.45830E+01  1.65404E+01
   1.45989E+01  1.57338E+01  1.42541E+01  1.59011E+01  1.10266E+01  1.68355E+01  1.06954E+01  1.83459E+01  1.03885E+01  1.29662E+01
   1.75046E+01  1.36763E+01  8.96924E+00  1.58626E+01  1.47174E+01  1.47925E+01  8.37003E+00  1.47679E+01  6.68450E+00  1.19295E+01
   1.05572E+01  1.23568E+01  1.32602E+01  9.66950E+00  1.44632E+01  1.08642E+01  9.00772E+00  1.91432E+01  8.78334E+00  1.35730E+01
   2.08895E+01  1.14365E+01  1.77829E+01  1.42866E+01  1.40234E+01  1.35720E+01  1.67977E+01  1.56719E+01  1.92891E+01  2.07060E+01
   1.53521E+01  2.03109E+01  1.79025E+01  1.71135E+01  2.18436E+01  1.64236E+01  1.38888E+01  1.00155E+01  1.63928E+01  1.61640E+01
   1.07696E+01  1.45650E+01  1.91689E+01  1.52262E+01  9.81697E+00  1.92656E+01  7.47366E+00  1.09183E+01  1.00329E+01  9.47448E-01
   1.28824E+01  1.43488E+01  7.52773E+00  8.55054E+00  2.05020E+01  1.05479E+01  5.55255E+00  1.48411E+01  1.41289E+01  1.54837E+01
   7.81286E+00  1.44102E+01  1.36632E+01  6.33921E+00  1.23538E+01  7.97775E+00  1.28953E+01  8.22555E+00  1.57440E+01  7.06368E+00
   1.11044E+01  1.66213E+01  1.03237E+01  1.19847E+01  1.27465E+01  1.14549E+01  6.98654E+00  1.21624E+01  8.76495E+00  9.85245E+00
   1.05250E+01  3.23129E+00  1.87838E+01  5.87909E+00  4.03781E+00  1.17999E+01  1.49165E+01  1.47298E+01  1.28707E+01  1.24099E+01
   1.87042E+01  9.77874E+00  1.40618E+01  1.13989E+01  1.64554E+01  1.38585E+01  1.08138E+01  1.54125E+01  7.93628E+00  9.61021E+00
   9.40192E+00  7.94158E+00  1.80526E+01  7.45969E+00  1.13525E+01  1.78693E+00  7.07977E+00  9.69760E+00  7.96195E+00  8.33946E+00
   1.41455E+01  3.28639E+00  1.14565E+01  8.30381E+00  1.03605E+01  1.80111E+01  7.23319E+00  1.31726E+01  1.45546E+01  1.33946E+01
   2.01127E+01  8.46842E+00  7.75356E+00  1.17661E+01  1.10858E+01  7.37385E+00  1.16620E+01  9.86333E+00  9.09455E+00  8.52764E+00
   4.73148E+00  8.17240E+00  1.40313E+01  1.33405E+01  1.19802E+01  1.30181E+01  9.58439E+00  1.61468E+01
 NY points of the fit to the data follow
  -9.78667E+01 -9.84297E+01 -9.70254E+01 -9.55871E+01 -9.54434E+01 -9.43582E+01 -9.17714E+01 -8.90856E+01 -8.58225E+01 -8.24074E+01
  -7.96828E+01 -7.83909E+01 -7.84162E+01 -7.74392E+01 -7.59279E+01 -7.54678E+01 -7.63799E+01 -7.86322E+01 -7.97061E+01 -7.97283E+01
  -7.82793E+01 -7.64839E+01 -7.72569E+01 -7.69041E+01 -7.51349E+01 -7.29212E+01 -7.03465E+01 -6.73464E+01 -6.44727E+01 -6.24997E+01
  -6.22479E+01 -6.17995E+01 -6.05799E+01 -6.00312E+01 -6.06563E+01 -6.29116E+01 -6.44435E+01 -6.40434E+01 -6.29953E+01 -6.24390E+01
  -6.26029E+01 -6.15143E+01 -6.04267E+01 -5.92075E+01 -5.73539E+01 -5.55621E+01 -5.44581E+01 -5.45974E+01 -5.51985E+01 -5.50984E+01
  -5.46972E+01 -5.47963E+01 -5.53873E+01 -5.56923E+01 -5.51176E+01 -5.40053E+01 -5.31529E+01 -5.26026E+01 -5.22550E+01 -5.21416E+01
  -5.20071E+01 -5.16601E+01 -5.08766E+01 -4.99627E+01 -4.94988E+01 -4.89913E+01 -4.81615E+01 -4.72070E+01 -4.62346E+01 -4.53268E+01
  -4.44053E+01 -4.38552E+01 -4.34278E+01 -4.28640E+01 -4.23310E+01 -4.19087E+01 -4.15625E+01 -4.10722E+01 -4.07023E+01 -4.06160E+01
  -4.02484E+01 -4.00619E+01 -3.99673E+01 -3.97311E+01 -3.95689E+01 -3.95420E+01 -3.94688E+01 -3.93618E+01 -3.91674E+01 -3.86750E+01
  -3.82739E+01 -3.86852E+01 -3.89708E+01 -3.61316E+01 -3.30156E+01 -3.18791E+01 -2.96731E+01 -2.60358E+01 -2.24029E+01 -1.85413E+01
  -1.49953E+01 -1.23392E+01 -1.12434E+01 -1.21200E+01 -1.24756E+01 -1.23550E+01 -1.32137E+01 -1.52510E+01 -1.86059E+01 -2.06541E+01
  -2.11313E+01 -2.15297E+01 -2.24560E+01 -2.43290E+01 -2.52783E+01 -2.65377E+01 -2.76948E+01 -2.76008E+01 -2.40966E+01 -2.10649E+01
  -1.97348E+01 -1.63360E+01 -1.16803E+01 -7.13571E+00 -1.92518E+00  2.37976E+00  5.21358E+00  6.06049E+00  4.97624E+00  4.66457E+00
   4.50097E+00  2.80403E+00 -6.76178E-01 -5.33210E+00 -8.21131E+00 -9.07488E+00 -9.54519E+00 -1.10839E+01 -1.32411E+01 -1.43756E+01
  -1.54602E+01 -1.52926E+01 -1.49239E+01 -1.46332E+01 -1.45622E+01 -1.46295E+01 -1.47788E+01 -1.48023E+01 -1.46296E+01 -1.45162E+01
  -1.44096E+01 -1.44316E+01 -1.47099E+01 -1.48377E+01 -1.49235E+01 -1.48772E+01 -1.47366E+01 -1.46903E+01 -1.46746E+01 -1.45302E+01
  -1.43320E+01 -1.41164E+01 -1.38665E+01 -1.36863E+01 -1.35313E+01 -1.34026E+01 -1.32767E+01 -1.31875E+01 -1.31535E+01 -1.30932E+01
  -1.31546E+01 -1.32574E+01 -1.32999E+01 -1.32964E+01 -1.31172E+01 -1.30789E+01 -1.30893E+01 -1.30159E+01 -1.32074E+01 -1.33225E+01
  -1.31061E+01 -1.27123E+01 -1.21389E+01 -1.16363E+01 -1.11843E+01 -1.03255E+01 -9.07273E+00 -7.74348E+00 -6.94237E+00 -6.41449E+00
  -5.85672E+00 -5.52507E+00 -5.43454E+00 -5.37122E+00 -5.36598E+00 -5.32271E+00 -5.25285E+00 -4.89516E+00 -4.11441E+00 -3.40340E+00
  -2.89085E+00 -2.45479E+00 -1.86006E+00 -1.28365E+00 -1.24671E+00 -1.36233E+00 -1.25540E+00 -1.14113E+00 -1.01441E+00 -1.08960E+00
  -1.09941E+00 -1.07934E+00 -1.04409E+00 -8.40806E-01 -5.49758E-01 -2.15281E-01  9.69397E-02  4.24328E-01  8.82948E-01  1.44906E+00
   2.03120E+00  2.38761E+00  2.44046E+00  2.59737E+00  2.88867E+00  2.98648E+00  2.91599E+00  2.97403E+00  3.41277E+00  3.76126E+00
   3.91428E+00  4.51343E+00  5.39556E+00  5.92105E+00  6.10699E+00  6.24782E+00  6.57656E+00  6.68937E+00  6.37622E+00  6.26291E+00
   6.42428E+00  6.71447E+00  7.03287E+00  7.41156E+00  8.20340E+00  9.02339E+00  9.56947E+00  9.92178E+00  1.01677E+01  9.70123E+00
   9.12549E+00  1.31466E+01  1.77046E+01  1.91640E+01  2.27138E+01  2.85680E+01  3.37561E+01  3.92606E+01  4.38630E+01  4.69441E+01
   4.74268E+01  4.46383E+01  4.29283E+01  4.20058E+01  3.94287E+01  3.47805E+01  2.81857E+01  2.38806E+01  2.22124E+01  2.07561E+01
   1.83694E+01  1.44769E+01  1.23520E+01  9.84814E+00  8.79181E+00  8.51750E+00  8.37951E+00  8.28500E+00  8.21591E+00  8.16885E+00
   8.13871E+00  8.12111E+00  8.11790E+00  8.13158E+00  8.16137E+00  8.20300E+00  8.25384E+00  8.31800E+00  8.39668E+00  8.48924E+00
   8.59485E+00  8.71658E+00  8.85575E+00  9.01642E+00  9.20198E+00  9.41548E+00  9.66154E+00  9.94575E+00  1.02724E+01  1.06485E+01
   1.10799E+01  1.15717E+01  1.21262E+01  1.27460E+01  1.34317E+01  1.41827E+01  1.49956E+01  1.58651E+01  1.67831E+01  1.77412E+01
   1.87298E+01  1.97394E+01  2.07594E+01  2.17788E+01  2.27783E+01  2.37103E+01  2.48198E+01  2.69252E+01  2.86206E+01  2.91384E+01
   3.01073E+01  3.13647E+01  3.18288E+01  3.16407E+01  3.00380E+01  2.82139E+01  2.69050E+01  2.45866E+01  2.25487E+01  2.16482E+01
   2.06893E+01  1.98652E+01  1.95480E+01  2.04611E+01  2.20731E+01  2.24978E+01  2.20531E+01  2.18941E+01  2.26578E+01  2.27971E+01
   2.20599E+01  2.11337E+01  2.05689E+01  2.01607E+01  1.96413E+01  1.83185E+01  1.72056E+01  1.58619E+01  1.43417E+01  1.35617E+01
   1.31505E+01  1.28127E+01  1.26545E+01  1.27281E+01  1.31926E+01  1.36072E+01  1.37217E+01  1.38102E+01  1.39674E+01  1.42071E+01
   1.42020E+01  1.40793E+01  1.40187E+01  1.40585E+01  1.41337E+01  1.40849E+01  1.39397E+01  1.38200E+01  1.36470E+01  1.35530E+01
   1.35095E+01  1.34944E+01  1.35008E+01  1.35273E+01  1.35738E+01  1.36416E+01  1.37319E+01  1.38467E+01  1.39871E+01  1.41545E+01
   1.43493E+01  1.45715E+01  1.48201E+01  1.50934E+01  1.53887E+01  1.57024E+01  1.60295E+01  1.63646E+01  1.67007E+01  1.70309E+01
   1.73471E+01  1.76415E+01  1.79056E+01  1.81317E+01  1.83126E+01  1.84422E+01  1.85153E+01  1.85285E+01  1.84796E+01  1.83685E+01
   1.81967E+01  1.79677E+01  1.76857E+01  1.73572E+01  1.69887E+01  1.65884E+01  1.61641E+01  1.57243E+01  1.52766E+01  1.48285E+01
   1.43865E+01  1.39566E+01  1.35436E+01  1.31514E+01  1.27827E+01  1.24396E+01  1.21231E+01  1.18339E+01  1.15714E+01  1.13352E+01
   1.11237E+01  1.09359E+01  1.07700E+01  1.06245E+01  1.04976E+01  1.03877E+01  1.02930E+01  1.02122E+01  1.01436E+01  1.00863E+01
   1.00388E+01  1.00002E+01  9.96922E+00  9.94539E+00  9.92771E+00  9.91575E+00  9.90859E+00  9.90591E+00  9.90699E+00  9.91171E+00
   9.91946E+00  9.93012E+00  9.94307E+00  9.95828E+00  9.97526E+00  9.99408E+00  1.00143E+01  1.00359E+01  1.00584E+01  1.00820E+01
   1.01062E+01  1.01312E+01  1.01566E+01  1.01825E+01  1.02085E+01  1.02349E+01  1.02615E+01  1.02884E+01  1.03154E+01  1.03427E+01
   1.03699E+01  1.03974E+01  1.04249E+01  1.04526E+01  1.04803E+01  1.05081E+01  1.05359E+01  1.05638E+01  1.05918E+01  1.06199E+01
   1.06480E+01  1.06762E+01  1.07043E+01  1.07327E+01  1.07611E+01  1.07897E+01  1.08182E+01  1.08469E+01  1.08756E+01  1.09046E+01
   1.09336E+01  1.09629E+01  1.09921E+01  1.10217E+01  1.10513E+01  1.10814E+01  1.11115E+01  1.11419E+01  1.11725E+01  1.12034E+01
   1.12346E+01  1.12663E+01  1.12981E+01  1.13305E+01  1.13631E+01  1.13963E+01  1.14299E+01  1.14641E+01
 NY background values follow
    -1.033E+02   -1.025E+02   -1.017E+02   -1.010E+02   -1.002E+02   -9.938E+01   -9.860E+01   -9.782E+01   -9.703E+01   -9.625E+01
    -9.546E+01   -9.468E+01   -9.390E+01   -9.312E+01   -9.234E+01   -9.156E+01   -9.078E+01   -9.001E+01   -8.923E+01   -8.846E+01
    -8.768E+01   -8.691E+01   -8.614E+01   -8.537E+01   -8.461E+01   -8.384E+01   -8.308E+01   -8.232E+01   -8.156E+01   -8.081E+01
    -8.005E+01   -7.930E+01   -7.855E+01   -7.780E+01   -7.706E+01   -7.632E+01   -7.558E+01   -7.484E+01   -7.411E+01   -7.338E+01
    -7.265E+01   -7.192E+01   -7.120E+01   -7.049E+01   -6.977E+01   -6.906E+01   -6.835E+01   -6.765E+01   -6.695E+01   -6.625E+01
    -6.556E+01   -6.487E+01   -6.418E+01   -6.350E+01   -6.282E+01   -6.215E+01   -6.148E+01   -6.081E+01   -6.015E+01   -5.949E+01
    -5.884E+01   -5.819E+01   -5.754E+01   -5.690E+01   -5.626E+01   -5.562E+01   -5.499E+01   -5.437E+01   -5.374E+01   -5.313E+01
    -5.251E+01   -5.190E+01   -5.130E+01   -5.070E+01   -5.010E+01   -4.951E+01   -4.892E+01   -4.834E+01   -4.776E+01   -4.719E+01
    -4.662E+01   -4.605E+01   -4.549E+01   -4.493E+01   -4.438E+01   -4.384E+01   -4.329E+01   -4.276E+01   -4.223E+01   -4.170E+01
    -4.117E+01   -4.066E+01   -4.014E+01   -3.964E+01   -3.913E+01   -3.863E+01   -3.814E+01   -3.765E+01   -3.716E+01   -3.668E+01
    -3.621E+01   -3.574E+01   -3.527E+01   -3.481E+01   -3.435E+01   -3.390E+01   -3.345E+01   -3.300E+01   -3.256E+01   -3.212E+01
    -3.169E+01   -3.126E+01   -3.084E+01   -3.042E+01   -3.000E+01   -2.959E+01   -2.918E+01   -2.877E+01   -2.837E+01   -2.798E+01
    -2.758E+01   -2.719E+01   -2.681E+01   -2.642E+01   -2.604E+01   -2.567E+01   -2.530E+01   -2.493E+01   -2.456E+01   -2.420E+01
    -2.384E+01   -2.349E+01   -2.314E+01   -2.279E+01   -2.244E+01   -2.210E+01   -2.176E+01   -2.143E+01   -2.109E+01   -2.077E+01
    -2.044E+01   -2.012E+01   -1.979E+01   -1.948E+01   -1.916E+01   -1.885E+01   -1.854E+01   -1.823E+01   -1.793E+01   -1.763E+01
    -1.733E+01   -1.704E+01   -1.674E+01   -1.645E+01   -1.617E+01   -1.588E+01   -1.560E+01   -1.532E+01   -1.504E+01   -1.477E+01
    -1.450E+01   -1.423E+01   -1.396E+01   -1.370E+01   -1.343E+01   -1.317E+01   -1.292E+01   -1.266E+01   -1.241E+01   -1.216E+01
    -1.191E+01   -1.166E+01   -1.142E+01   -1.118E+01   -1.094E+01   -1.070E+01   -1.046E+01   -1.023E+01   -9.999E+00   -9.769E+00
    -9.541E+00   -9.316E+00   -9.092E+00   -8.870E+00   -8.650E+00   -8.431E+00   -8.215E+00   -8.001E+00   -7.788E+00   -7.577E+00
    -7.368E+00   -7.161E+00   -6.956E+00   -6.753E+00   -6.551E+00   -6.351E+00   -6.153E+00   -5.957E+00   -5.763E+00   -5.570E+00
    -5.379E+00   -5.190E+00   -5.002E+00   -4.817E+00   -4.633E+00   -4.451E+00   -4.270E+00   -4.091E+00   -3.914E+00   -3.739E+00
    -3.565E+00   -3.393E+00   -3.223E+00   -3.054E+00   -2.887E+00   -2.721E+00   -2.557E+00   -2.395E+00   -2.235E+00   -2.076E+00
    -1.918E+00   -1.762E+00   -1.608E+00   -1.455E+00   -1.304E+00   -1.155E+00   -1.007E+00   -8.604E-01   -7.154E-01   -5.718E-01
    -4.297E-01   -2.889E-01   -1.494E-01   -1.119E-02    1.258E-01    2.617E-01    3.965E-01    5.302E-01    6.629E-01    7.946E-01
     9.254E-01    1.055E+00    1.184E+00    1.313E+00    1.440E+00    1.567E+00    1.694E+00    1.819E+00    1.944E+00    2.069E+00
     2.193E+00    2.317E+00    2.440E+00    2.564E+00    2.686E+00    2.809E+00    2.932E+00    3.054E+00    3.176E+00    3.299E+00
     3.421E+00    3.543E+00    3.666E+00    3.789E+00    3.911E+00    4.035E+00    4.158E+00    4.282E+00    4.406E+00    4.531E+00
     4.656E+00    4.782E+00    4.908E+00    5.035E+00    5.162E+00    5.290E+00    5.417E+00    5.545E+00    5.674E+00    5.802E+00
     5.929E+00    6.057E+00    6.185E+00    6.312E+00    6.438E+00    6.564E+00    6.690E+00    6.814E+00    6.938E+00    7.061E+00
     7.183E+00    7.304E+00    7.423E+00    7.541E+00    7.658E+00    7.774E+00    7.888E+00    8.000E+00    8.111E+00    8.219E+00
     8.326E+00    8.431E+00    8.534E+00    8.635E+00    8.733E+00    8.829E+00    8.923E+00    9.014E+00    9.102E+00    9.188E+00
     9.271E+00    9.351E+00    9.428E+00    9.502E+00    9.573E+00    9.640E+00    9.704E+00    9.765E+00    9.823E+00    9.877E+00
     9.928E+00    9.975E+00    1.002E+01    1.006E+01    1.010E+01    1.013E+01    1.017E+01    1.020E+01    1.022E+01    1.025E+01
     1.027E+01    1.029E+01    1.031E+01    1.032E+01    1.033E+01    1.034E+01    1.035E+01    1.035E+01    1.035E+01    1.036E+01
     1.035E+01    1.035E+01    1.035E+01    1.034E+01    1.033E+01    1.032E+01    1.031E+01    1.029E+01    1.028E+01    1.026E+01
     1.024E+01    1.022E+01    1.020E+01    1.018E+01    1.016E+01    1.013E+01    1.011E+01    1.008E+01    1.006E+01    1.003E+01
     9.999E+00    9.970E+00    9.940E+00    9.910E+00    9.879E+00    9.848E+00    9.816E+00    9.784E+00    9.751E+00    9.719E+00
     9.686E+00    9.653E+00    9.620E+00    9.588E+00    9.555E+00    9.522E+00    9.490E+00    9.458E+00    9.426E+00    9.394E+00
     9.363E+00    9.333E+00    9.303E+00    9.273E+00    9.245E+00    9.217E+00    9.190E+00    9.163E+00    9.138E+00    9.113E+00
     9.090E+00    9.067E+00    9.046E+00    9.026E+00    9.007E+00    8.990E+00    8.974E+00    8.959E+00    8.946E+00    8.934E+00
     8.924E+00    8.916E+00    8.909E+00    8.904E+00    8.901E+00    8.900E+00    8.901E+00    8.904E+00    8.909E+00    8.916E+00
     8.925E+00    8.935E+00    8.948E+00    8.962E+00    8.978E+00    8.996E+00    9.015E+00    9.036E+00    9.058E+00    9.081E+00
     9.106E+00    9.132E+00    9.160E+00    9.189E+00    9.218E+00    9.249E+00    9.281E+00    9.314E+00    9.348E+00    9.382E+00
     9.418E+00    9.454E+00    9.491E+00    9.528E+00    9.566E+00    9.605E+00    9.644E+00    9.683E+00    9.723E+00    9.763E+00
     9.803E+00    9.844E+00    9.884E+00    9.925E+00    9.965E+00    1.001E+01    1.005E+01    1.009E+01    1.013E+01    1.017E+01
     1.021E+01    1.024E+01    1.028E+01    1.032E+01    1.036E+01    1.040E+01    1.043E+01    1.047E+01    1.051E+01    1.054E+01
     1.058E+01    1.061E+01    1.064E+01    1.068E+01    1.071E+01    1.075E+01    1.078E+01    1.081E+01    1.085E+01    1.088E+01
     1.091E+01    1.094E+01    1.097E+01    1.101E+01    1.104E+01    1.107E+01    1.110E+01    1.113E+01    1.116E+01    1.119E+01
     1.122E+01    1.125E+01    1.129E+01    1.132E+01    1.135E+01    1.138E+01    1.141E+01    1.144E+01    1.147E+01    1.150E+01
     1.153E+01    1.156E+01    1.160E+01    1.163E+01    1.166E+01    1.169E+01    1.172E+01    1.176E+01
 Ala      Conc. = 1.04E+03
