 LCModel (Version 6.3-1L) Copyright: S.W. Provencher.          Ref.: Magn. Reson. Med. 30:672-679 (1993).                
 Slice#1 Row#2 Col#3  PD_05_press_2_raw_act
 36 lines in following concentration table = NCONC+1
    Conc.  %SD /Cr+PCr  Metabolite                                         
    0.000 999%   0.000 Ala                                                 
   53.936 103%   0.211 Asp                                                 
  256.160  31%   1.000 Cr                                                  
    0.000 999%   0.000 PCr                                                 
   28.851 115%   0.113 GABA                                                
   29.066 116%   0.113 Glc                                                 
   42.394 498%   0.165 Gln                                                 
  315.215  78%   1.231 Glu                                                 
   99.876  31%   0.390 GPC                                                 
    0.000 999%   0.000 PCh                                                 
    0.000 999%   0.000 GSH                                                 
  518.266  57%   2.023 Ins                                                 
    0.000 999%   0.000 Lac                                                 
  358.194  27%   1.398 NAA                                                 
  111.114  81%   0.434 NAAG                                                
    8.752 124% 3.4E-02 Scyllo                                              
   34.050 161%   0.133 Tau                                                 
   30.153 218%   0.118 -CrCH2                                              
   99.876  31%   0.390 GPC+PCh                                             
  469.308  27%   1.832 NAA+NAAG                                            
  256.160  31%   1.000 Cr+PCr                                              
  357.609  82%   1.396 Glu+Gln                                             
 7.41E+03  14%  28.917 Lip13a                                              
    0.000 999%   0.000 Lip13b                                              
    0.000 999%   0.000 Lip09                                               
 1.41E+03  23%   5.490 MM09                                                
 1.87E+03  29%   7.289 Lip20                                               
 2.35E+03  23%   9.182 MM20                                                
  439.494  33%   1.716 MM12                                                
  248.625 194%   0.971 MM14                                                
 1.06E+03  25%   4.142 MM17                                                
 7.41E+03  14%  28.917 Lip13a+Lip13b                                       
 8.10E+03  10%  31.603 MM14+Lip13a+Lip13b+MM12                             
 1.41E+03  23%   5.490 MM09+Lip09                                          
 4.22E+03  14%  16.470 MM20+Lip20                                          
   6 lines in following misc. output table
  FWHM = 0.031 ppm    S/N =   2                                            
  Data shift = 0.015 ppm                                                   
  Ph: -69 deg      -5.5 deg/ppm                                            
  alphaB,S = 8.5E+01,   6.4E+00                                            
   14 spline knots.   Ns = 5(1)                                            
   2 inflections.     2 extrema                                            
  498 points on ppm-axis = NY
      4.000000     3.992357     3.984714     3.977070     3.969427     3.961784     3.954141     3.946497     3.938854     3.931211
      3.923568     3.915925     3.908281     3.900638     3.892995     3.885352     3.877708     3.870065     3.862422     3.854779
      3.847136     3.839492     3.831849     3.824206     3.816563     3.808919     3.801276     3.793633     3.785990     3.778347
      3.770703     3.763060     3.755417     3.747774     3.740130     3.732487     3.724844     3.717201     3.709558     3.701914
      3.694271     3.686628     3.678985     3.671341     3.663698     3.656055     3.648412     3.640769     3.633125     3.625482
      3.617839     3.610196     3.602552     3.594909     3.587266     3.579623     3.571980     3.564336     3.556693     3.549050
      3.541407     3.533763     3.526120     3.518477     3.510834     3.503191     3.495547     3.487904     3.480261     3.472618
      3.464974     3.457331     3.449688     3.442045     3.434402     3.426758     3.419115     3.411472     3.403829     3.396185
      3.388542     3.380899     3.373256     3.365613     3.357969     3.350326     3.342683     3.335040     3.327396     3.319753
      3.312110     3.304467     3.296824     3.289180     3.281537     3.273894     3.266251     3.258607     3.250964     3.243321
      3.235678     3.228034     3.220391     3.212748     3.205105     3.197462     3.189818     3.182175     3.174532     3.166889
      3.159245     3.151602     3.143959     3.136316     3.128673     3.121029     3.113386     3.105743     3.098100     3.090456
      3.082813     3.075170     3.067527     3.059884     3.052240     3.044597     3.036954     3.029311     3.021667     3.014024
      3.006381     2.998738     2.991095     2.983451     2.975808     2.968165     2.960522     2.952878     2.945235     2.937592
      2.929949     2.922306     2.914662     2.907019     2.899376     2.891733     2.884089     2.876446     2.868803     2.861160
      2.853517     2.845873     2.838230     2.830587     2.822944     2.815300     2.807657     2.800014     2.792371     2.784728
      2.777084     2.769441     2.761798     2.754155     2.746511     2.738868     2.731225     2.723582     2.715939     2.708295
      2.700652     2.693009     2.685366     2.677722     2.670079     2.662436     2.654793     2.647150     2.639506     2.631863
      2.624220     2.616577     2.608933     2.601290     2.593647     2.586004     2.578361     2.570717     2.563074     2.555431
      2.547788     2.540144     2.532501     2.524858     2.517215     2.509572     2.501928     2.494285     2.486642     2.478999
      2.471355     2.463712     2.456069     2.448426     2.440783     2.433139     2.425496     2.417853     2.410210     2.402566
      2.394923     2.387280     2.379637     2.371994     2.364350     2.356707     2.349064     2.341421     2.333777     2.326134
      2.318491     2.310848     2.303205     2.295561     2.287918     2.280275     2.272632     2.264988     2.257345     2.249702
      2.242059     2.234416     2.226772     2.219129     2.211486     2.203843     2.196199     2.188556     2.180913     2.173270
      2.165627     2.157983     2.150340     2.142697     2.135054     2.127410     2.119767     2.112124     2.104481     2.096838
      2.089194     2.081551     2.073908     2.066265     2.058621     2.050978     2.043335     2.035692     2.028049     2.020405
      2.012762     2.005119     1.997476     1.989833     1.982190     1.974546     1.966903     1.959260     1.951617     1.943974
      1.936331     1.928688     1.921045     1.913402     1.905759     1.898115     1.890472     1.882829     1.875186     1.867543
      1.859900     1.852257     1.844614     1.836971     1.829327     1.821684     1.814041     1.806398     1.798755     1.791112
      1.783469     1.775826     1.768183     1.760540     1.752896     1.745253     1.737610     1.729967     1.722324     1.714681
      1.707038     1.699395     1.691752     1.684108     1.676465     1.668822     1.661179     1.653536     1.645893     1.638250
      1.630607     1.622964     1.615321     1.607677     1.600034     1.592391     1.584748     1.577105     1.569462     1.561819
      1.554176     1.546533     1.538890     1.531246     1.523603     1.515960     1.508317     1.500674     1.493031     1.485388
      1.477745     1.470102     1.462458     1.454815     1.447172     1.439529     1.431886     1.424243     1.416600     1.408957
      1.401314     1.393671     1.386027     1.378384     1.370741     1.363098     1.355455     1.347812     1.340169     1.332526
      1.324883     1.317240     1.309596     1.301953     1.294310     1.286667     1.279024     1.271381     1.263738     1.256095
      1.248452     1.240808     1.233165     1.225522     1.217879     1.210236     1.202593     1.194950     1.187307     1.179664
      1.172021     1.164377     1.156734     1.149091     1.141448     1.133805     1.126162     1.118519     1.110876     1.103233
      1.095590     1.087946     1.080303     1.072660     1.065017     1.057374     1.049731     1.042088     1.034445     1.026802
      1.019158     1.011515     1.003872     0.996229     0.988586     0.980943     0.973300     0.965657     0.958014     0.950371
      0.942727     0.935084     0.927441     0.919798     0.912155     0.904512     0.896869     0.889226     0.881583     0.873940
      0.866296     0.858653     0.851010     0.843367     0.835724     0.828081     0.820438     0.812795     0.805152     0.797508
      0.789865     0.782222     0.774579     0.766936     0.759293     0.751650     0.744007     0.736364     0.728721     0.721077
      0.713434     0.705791     0.698148     0.690505     0.682862     0.675219     0.667576     0.659933     0.652290     0.644646
      0.637003     0.629360     0.621717     0.614074     0.606431     0.598788     0.591145     0.583502     0.575858     0.568215
      0.560572     0.552929     0.545286     0.537643     0.530000     0.522357     0.514714     0.507071     0.499427     0.491784
      0.484141     0.476498     0.468855     0.461212     0.453569     0.445925     0.438282     0.430639     0.422996     0.415353
      0.407710     0.400067     0.392424     0.384780     0.377137     0.369494     0.361851     0.354208     0.346565     0.338922
      0.331278     0.323635     0.315992     0.308349     0.300706     0.293063     0.285420     0.277777     0.270133     0.262490
      0.254847     0.247204     0.239561     0.231918     0.224275     0.216631     0.208988     0.201345
 NY phased data points follow
   1.16948E+01 -1.89772E+01 -2.50983E+01 -1.00868E+01  8.72265E+00  1.63298E+01 -3.23113E+00 -8.77213E+00  4.85467E+00  1.63567E+01
   2.68982E+01  1.14410E+01  7.78708E+00  4.56756E+00 -2.12070E+00 -6.73192E+00  1.92304E+01  7.17209E+00  1.04211E+01  5.50781E+00
  -2.02048E+00 -7.24327E+00 -1.55735E+00 -1.06848E+01  2.49431E+01  1.10475E+01  1.73139E+01  6.66888E+00 -4.25354E-01  1.16731E-01
   2.36427E+00 -1.98418E+00  2.90029E+00  8.85237E+00  4.49480E+00 -6.80461E+00  2.34602E-01  8.22222E+00  9.82758E-02  3.99258E-02
   9.63010E+00 -1.00391E+00  1.05937E+01 -1.17906E+00  5.88620E+00  1.32775E+01  2.30165E+01  2.55037E+00  1.81986E+01  2.01594E+01
   1.86538E+01 -3.07285E+00  1.73558E+01  1.31151E+00  3.71861E+00 -4.60224E+00  1.03064E+01  5.73048E+00  1.49989E+00  8.85362E+00
   1.35946E+01 -1.05712E+01 -5.88237E-01  1.55432E+00  9.92806E+00 -5.53118E+00 -1.34257E+00 -2.92757E+00  3.91228E+00  8.61434E+00
   9.89472E+00  7.77104E+00 -7.59829E+00  4.55963E+00  3.36415E+00 -2.41697E+00  3.50667E+00  6.30368E+00  1.50922E+01  1.06897E+01
   3.64491E+00 -7.20136E+00  9.29935E+00 -5.97650E+00 -2.73583E+00  3.70373E+00 -5.13189E-01 -2.71469E+00  1.83200E+01  1.27095E+01
   1.02360E+01 -2.19254E+00  7.49575E+00  9.64762E-01  7.76832E+00  5.20719E+00  9.35971E+00 -1.28104E+01  4.22110E+00  3.43596E-01
   1.92463E+01  1.23474E+01  2.38145E+01  1.42070E+01  2.02288E+01  1.36521E+01  1.57014E+00 -5.14112E+00  3.56447E+00  7.59689E+00
   8.10419E+00  6.00394E+00  1.28693E+01 -3.46451E+00  2.23543E+00 -3.63252E+00 -7.11084E+00 -3.60722E+00  8.59006E+00 -2.76075E+00
   1.59608E+01  5.01929E+00  5.25014E+00  9.67998E+00  2.10152E+00  3.68519E+00  1.89783E+01  3.51908E+01  1.43910E+01  3.90701E+00
   1.49660E+01 -6.94288E+00  9.95479E+00  5.84004E+00 -1.70274E-01  7.13553E-01 -1.34053E+00  8.22721E+00  9.61261E+00  3.52199E+00
   7.06599E+00 -4.07171E+00  6.86714E+00  1.13556E+01  6.94330E+00 -2.32511E-01  9.10117E+00  3.87901E+00  9.99793E+00  1.06331E+01
   3.69804E+00  1.16067E+00  1.58587E+00  1.45750E+01  9.14877E+00 -9.40497E+00 -1.08329E+00  7.67735E+00  7.95056E+00  5.81479E+00
   5.51607E+00 -3.07374E-01  9.28828E+00 -6.99758E+00  9.03141E+00 -1.66687E+00  1.31330E+01  1.00117E+01 -1.55789E+00  8.52769E+00
   1.36960E+01 -3.32979E+00  1.64124E+01  7.25931E+00  9.93160E+00 -3.72288E+00  7.82811E-01 -1.14665E+01  3.88042E-01 -7.59833E+00
   2.46728E+00  9.43652E+00  6.83034E+00  4.21919E+00  7.64964E+00  5.28517E+00  1.02734E+01  8.45535E+00  1.32639E+01  3.65305E+00
   2.38981E+00  1.56391E+01  1.40270E+01  1.04073E+01  1.23871E+01 -2.23248E+00  9.79994E+00  1.23032E+01  5.72676E+00  8.06151E-01
   1.37389E+01  1.34500E+01  6.46974E+00  1.34074E+01  4.21498E-01  9.15982E+00  1.14569E+01  9.86131E-01 -6.57289E+00  5.59888E-01
   1.33843E+01  1.22340E+01  1.17526E+01  3.97147E+00  1.95021E+01  2.88166E+01  4.90754E+00  3.37048E+00  7.91918E+00  2.08022E+01
   9.09288E+00  8.13463E+00  8.63498E+00  1.15875E+01  7.90564E+00  1.22252E+01  1.62081E+01  1.32589E+01  1.16550E+01  1.62750E+01
   7.31034E+00  8.64293E+00  1.92780E+01  1.14883E+01  2.38425E+01 -7.98690E+00  6.93476E+00  1.03310E+01  1.81984E+01  4.86293E+00
   1.71681E+01  1.19489E+01  8.36095E+00  2.94384E+01  1.62204E+01  2.54447E+01  1.59387E+01  2.54977E+01  1.87468E+01  1.18392E+01
   2.01258E+01  1.12716E+01  1.60290E+01  1.26588E+01  1.94132E+01  2.57741E+01  1.81682E+01  2.72102E+01  3.66409E+01  3.59065E+01
   3.93940E+01  3.62409E+01  2.15219E+01  2.29621E+01  1.07302E+01  1.37420E+01  2.37069E+01  5.28554E+00  1.60026E+01  2.43792E+00
   1.31264E+01  2.00315E+01  1.44980E+01  1.47263E+01  2.01727E+01  1.46530E+01  9.91131E+00  1.66306E+00  1.17248E+01  3.43427E+00
   2.29302E+00  7.91174E+00  1.53050E+01  1.42277E+01  1.06379E+01  1.44117E+01  1.18342E+01  1.53261E+01  2.29826E+01  8.78130E+00
  -1.83955E-01  2.07936E+01  1.72538E+01  8.43526E+00  1.16572E+01 -2.61197E+00  5.28940E+00  7.41783E+00  2.23063E+01  7.32684E+00
   1.66188E+01  7.91691E-02  1.35232E+01  1.47749E+01  1.14035E+01  2.63405E+01  1.62732E+01  5.97401E+00  9.46368E+00  1.84509E+00
   2.17888E+01  1.55294E+01  2.97037E+01  3.40246E+01  1.84774E+01  8.43654E+00  1.06690E+01  1.16269E-01  8.94721E+00  3.60298E+00
   6.34394E+00  1.59368E+01  5.76074E+00  4.07071E+00  3.93121E+00  2.78923E+00  3.97293E+00  9.80040E+00  5.47731E+00  5.62022E+00
   5.90691E+00  1.37669E+01  7.58063E+00  1.23331E+01 -1.26442E+00  1.14325E+01  2.11620E+00  8.41620E+00  1.30698E+01  7.29126E+00
   1.65279E+01  1.19044E+01  1.87741E+01  5.25328E+00  1.93403E+01  1.70849E+01  3.40860E+01  3.14195E+01  2.73164E+01  3.32247E+01
   4.92132E+01  3.27054E+01  3.34044E+01  3.03068E+01  4.63872E+01  4.16394E+01  3.21238E+01  3.20050E+01  3.41111E+01  2.87366E+01
   3.16602E+01  2.79586E+01  3.02071E+01  2.72875E+01  3.01088E+01  2.90329E+01  3.36858E+01  4.47937E+01  2.46459E+01  3.43094E+01
   3.22459E+01  1.28582E+01  2.27327E+01  3.10292E+01  3.17486E+01  2.62534E+01  2.10949E+01  1.82625E+01  1.95475E+01  2.56993E+01
   2.26073E+01  9.47260E+00  3.12738E+01  1.85153E+01  1.75077E+01  2.17970E+01  1.57367E+01  1.85144E+01  1.56546E+01  3.14651E+01
   9.55186E+00  1.48732E+01  2.55447E+01  4.13277E+00  2.23490E+01  1.03206E+01  1.44541E+01  7.63745E+00  2.30832E+01  1.61092E+01
  -1.51853E+00  1.35999E+01  1.06607E+01  1.67784E+01  1.21629E+01  1.43237E+01  1.83741E+01  5.05600E+00  2.04122E+01  2.19711E+00
   1.52205E+01  3.54356E+00  1.27637E+01  1.36288E+01  6.31874E+00  1.87526E+01  8.35915E+00  2.71609E-01 -1.04493E+00 -5.76072E+00
   2.17858E+00  1.23704E+01  1.71351E+01  9.69484E+00  4.10104E+00  1.69356E+00  8.23362E+00  1.33517E+01  1.22973E+01  8.72446E+00
   8.87707E+00  1.43415E+01  4.87402E+00  1.14397E+01  1.50816E+01  3.50313E+00  1.05582E+01 -4.66982E+00  1.18836E+01  5.04460E+00
   6.99148E+00  4.72900E+00  8.89351E+00  7.14300E+00  2.28984E+01  4.63064E+00 -5.86922E+00  5.37486E+00  1.93875E+01  1.02041E+01
   6.20119E+00  4.09765E+00 -5.29440E+00  5.21679E+00 -3.50869E+00  2.18781E+00 -6.90106E+00  8.09258E+00 -2.49592E+00  9.94046E+00
   4.57908E+00  8.03697E+00  1.65825E+01  6.97132E+00  2.07538E+00  9.05980E+00  1.09876E+01 -3.47151E+00 -5.77906E+00  3.08516E+00
   4.37563E+00  1.11515E+01  1.64476E+00  1.67676E+01 -3.98434E+00 -8.23929E+00 -9.01752E+00 -4.40158E+00 -7.56368E+00 -5.65698E+00
   1.35166E+01 -3.58014E+00  6.63324E-01  9.70542E-01  4.65206E+00 -5.15835E+00  2.52678E+00  5.61606E+00  2.81059E+00  2.56839E+00
  -4.35285E-01 -7.18654E+00 -6.39145E+00 -4.15784E+00 -7.88063E+00  2.81246E-01 -1.36053E+01 -4.95976E-01
 NY points of the fit to the data follow
   3.65418E+00  3.72211E+00  3.82844E+00  4.05359E+00  4.37012E+00  4.33564E+00  3.39097E+00  2.99156E+00  5.43835E+00  1.00270E+01
   1.38158E+01  1.43965E+01  1.18977E+01  8.26605E+00  5.12080E+00  3.61866E+00  3.74936E+00  3.87550E+00  3.53250E+00  3.39542E+00
   3.47400E+00  3.67629E+00  3.95206E+00  4.28846E+00  4.40988E+00  4.08385E+00  3.40948E+00  2.67564E+00  2.33841E+00  2.72092E+00
   3.82438E+00  5.21873E+00  6.11815E+00  6.17637E+00  5.72877E+00  5.03531E+00  4.38571E+00  3.88693E+00  3.48358E+00  3.32703E+00
   3.42826E+00  3.55150E+00  3.50699E+00  3.74175E+00  5.30336E+00  8.19163E+00  1.07794E+01  1.14389E+01  9.79416E+00  6.81178E+00
   3.95643E+00  2.29694E+00  2.08093E+00  2.62944E+00  3.05546E+00  3.26847E+00  3.67698E+00  4.49019E+00  5.57151E+00  6.39879E+00
   6.50543E+00  5.82259E+00  4.57803E+00  3.40477E+00  2.84790E+00  2.94575E+00  3.44858E+00  3.95006E+00  4.35493E+00  4.78614E+00
   5.15178E+00  5.33388E+00  5.30526E+00  5.15282E+00  4.95646E+00  4.68470E+00  4.44229E+00  4.26051E+00  4.05956E+00  3.94021E+00
   3.95155E+00  4.01236E+00  4.19093E+00  4.46805E+00  4.50120E+00  3.96037E+00  2.97399E+00  2.07079E+00  1.71172E+00  1.98762E+00
   2.73884E+00  3.56466E+00  4.13637E+00  4.50051E+00  4.68461E+00  4.66204E+00  4.35295E+00  3.48133E+00  2.06643E+00  3.63753E+00
   9.93391E+00  1.76968E+01  2.20736E+01  2.06047E+01  1.52042E+01  9.09813E+00  4.47022E+00  3.02558E+00  3.81024E+00  4.03308E+00
   3.99444E+00  4.10384E+00  4.22266E+00  4.34122E+00  4.44086E+00  4.53746E+00  4.61950E+00  4.68394E+00  4.76576E+00  4.88027E+00
   4.99306E+00  4.88868E+00  4.05075E+00  4.69383E+00  9.40742E+00  1.64340E+01  2.15645E+01  2.17614E+01  1.76638E+01  1.21719E+01
   7.46134E+00  5.21114E+00  5.48446E+00  5.84821E+00  5.69226E+00  5.69405E+00  5.76039E+00  5.86311E+00  5.96579E+00  6.00233E+00
   5.97915E+00  5.94629E+00  5.96642E+00  6.08289E+00  6.23523E+00  6.33160E+00  6.33088E+00  6.26130E+00  6.20074E+00  6.19151E+00
   6.21557E+00  6.21119E+00  6.14311E+00  6.05786E+00  6.02963E+00  6.12053E+00  6.29087E+00  6.31933E+00  6.04558E+00  5.56156E+00
   5.13871E+00  5.07544E+00  5.34410E+00  5.68615E+00  5.85013E+00  5.70192E+00  5.33646E+00  4.94784E+00  4.65780E+00  4.55603E+00
   4.60772E+00  4.66085E+00  4.55727E+00  4.17633E+00  3.71091E+00  3.48974E+00  3.67677E+00  4.00385E+00  4.09242E+00  3.86185E+00
   3.50202E+00  3.33775E+00  3.55574E+00  3.86408E+00  3.93152E+00  3.83577E+00  3.80961E+00  4.01202E+00  4.36957E+00  4.69759E+00
   4.82208E+00  4.68383E+00  4.43196E+00  4.37694E+00  4.52058E+00  4.65804E+00  4.70150E+00  4.64260E+00  4.53834E+00  4.49288E+00
   4.65030E+00  5.06907E+00  5.64558E+00  6.08112E+00  6.21083E+00  6.05551E+00  5.54015E+00  4.77124E+00  4.11134E+00  3.72352E+00
   3.68078E+00  4.01164E+00  5.14150E+00  7.15774E+00  9.12820E+00  1.01107E+01  9.90169E+00  8.87758E+00  7.41930E+00  5.68617E+00
   4.24247E+00  3.89076E+00  4.73503E+00  6.54800E+00  8.60788E+00  1.02146E+01  1.10788E+01  1.11795E+01  1.09055E+01  1.06742E+01
   1.05574E+01  1.06519E+01  1.10284E+01  1.15312E+01  1.20238E+01  1.24356E+01  1.27659E+01  1.30770E+01  1.33771E+01  1.34872E+01
   1.34417E+01  1.35234E+01  1.39775E+01  1.47583E+01  1.56341E+01  1.64076E+01  1.69809E+01  1.71831E+01  1.70354E+01  1.68862E+01
   1.68180E+01  1.66959E+01  1.75561E+01  2.01394E+01  2.30403E+01  2.35040E+01  2.25018E+01  2.51202E+01  3.18171E+01  3.79572E+01
   3.92025E+01  3.48314E+01  2.72139E+01  1.95599E+01  1.47450E+01  1.37872E+01  1.37649E+01  1.28410E+01  1.20538E+01  1.13991E+01
   1.08345E+01  1.04418E+01  1.02239E+01  1.00405E+01  9.77830E+00  9.40714E+00  8.97117E+00  8.52115E+00  8.11269E+00  7.77655E+00
   7.52561E+00  7.35383E+00  7.24345E+00  7.18554E+00  7.16364E+00  7.15893E+00  7.16964E+00  7.20459E+00  7.27860E+00  7.41069E+00
   7.61296E+00  7.88093E+00  8.18234E+00  8.49973E+00  8.83267E+00  9.16760E+00  9.49743E+00  9.82919E+00  1.01575E+01  1.04792E+01
   1.07874E+01  1.10662E+01  1.13002E+01  1.14737E+01  1.15799E+01  1.16231E+01  1.16040E+01  1.15249E+01  1.13919E+01  1.12113E+01
   1.09910E+01  1.07400E+01  1.04681E+01  1.01858E+01  9.90416E+00  9.63311E+00  9.38152E+00  9.15706E+00  8.96609E+00  8.81382E+00
   8.70434E+00  8.64037E+00  8.62354E+00  8.65483E+00  8.73486E+00  8.86397E+00  9.04221E+00  9.26953E+00  9.54604E+00  9.87241E+00
   1.02499E+01  1.06803E+01  1.11654E+01  1.17076E+01  1.23092E+01  1.29734E+01  1.37029E+01  1.45007E+01  1.53685E+01  1.63074E+01
   1.73175E+01  1.83973E+01  1.95439E+01  2.07517E+01  2.20131E+01  2.33174E+01  2.46521E+01  2.60019E+01  2.73493E+01  2.86744E+01
   2.99558E+01  3.11711E+01  3.22980E+01  3.33144E+01  3.41996E+01  3.49348E+01  3.55039E+01  3.58946E+01  3.60987E+01  3.61122E+01
   3.59356E+01  3.55739E+01  3.50362E+01  3.43359E+01  3.34898E+01  3.25172E+01  3.14392E+01  3.02781E+01  2.90567E+01  2.77976E+01
   2.65228E+01  2.52526E+01  2.40051E+01  2.27967E+01  2.16417E+01  2.05520E+01  1.95373E+01  1.86051E+01  1.77608E+01  1.70081E+01
   1.63493E+01  1.57852E+01  1.53155E+01  1.49382E+01  1.46506E+01  1.44489E+01  1.43283E+01  1.42830E+01  1.43058E+01  1.43882E+01
   1.45210E+01  1.46936E+01  1.48950E+01  1.51129E+01  1.53346E+01  1.55473E+01  1.57385E+01  1.58965E+01  1.60106E+01  1.60716E+01
   1.60721E+01  1.60069E+01  1.58732E+01  1.56708E+01  1.54017E+01  1.50701E+01  1.46818E+01  1.42446E+01  1.37673E+01  1.32594E+01
   1.27307E+01  1.21905E+01  1.16477E+01  1.11103E+01  1.05857E+01  1.00797E+01  9.59694E+00  9.14058E+00  8.71287E+00  8.31509E+00
   7.94764E+00  7.61006E+00  7.30121E+00  7.01952E+00  6.76329E+00  6.53069E+00  6.31980E+00  6.12857E+00  5.95494E+00  5.79704E+00
   5.65328E+00  5.52223E+00  5.40252E+00  5.29278E+00  5.19182E+00  5.09867E+00  5.01260E+00  4.93292E+00  4.85894E+00  4.78996E+00
   4.72542E+00  4.66495E+00  4.60828E+00  4.55510E+00  4.50501E+00  4.45764E+00  4.41275E+00  4.37024E+00  4.33001E+00  4.29186E+00
   4.25553E+00  4.22081E+00  4.18764E+00  4.15601E+00  4.12588E+00  4.09708E+00  4.06941E+00  4.04277E+00  4.01719E+00  3.99271E+00
   3.96925E+00  3.94665E+00  3.92477E+00  3.90363E+00  3.88328E+00  3.86374E+00  3.84492E+00  3.82665E+00  3.80887E+00  3.79165E+00
   3.77506E+00  3.75908E+00  3.74359E+00  3.72845E+00  3.71369E+00  3.69939E+00  3.68561E+00  3.67227E+00  3.65924E+00  3.64644E+00
   3.63396E+00  3.62189E+00  3.61022E+00  3.59886E+00  3.58767E+00  3.57667E+00  3.56596E+00  3.55561E+00  3.54556E+00  3.53568E+00
   3.52591E+00  3.51630E+00  3.50697E+00  3.49794E+00  3.48911E+00  3.48034E+00  3.47164E+00  3.46310E+00
 NY background values follow
     2.023E+00    2.024E+00    2.025E+00    2.026E+00    2.027E+00    2.028E+00    2.029E+00    2.030E+00    2.031E+00    2.032E+00
     2.033E+00    2.034E+00    2.034E+00    2.035E+00    2.036E+00    2.037E+00    2.038E+00    2.039E+00    2.040E+00    2.041E+00
     2.042E+00    2.043E+00    2.044E+00    2.045E+00    2.046E+00    2.047E+00    2.048E+00    2.049E+00    2.050E+00    2.051E+00
     2.052E+00    2.053E+00    2.054E+00    2.055E+00    2.056E+00    2.057E+00    2.058E+00    2.059E+00    2.060E+00    2.061E+00
     2.061E+00    2.062E+00    2.063E+00    2.064E+00    2.065E+00    2.066E+00    2.067E+00    2.068E+00    2.069E+00    2.070E+00
     2.071E+00    2.072E+00    2.073E+00    2.074E+00    2.075E+00    2.076E+00    2.077E+00    2.078E+00    2.079E+00    2.079E+00
     2.080E+00    2.081E+00    2.082E+00    2.083E+00    2.084E+00    2.085E+00    2.086E+00    2.087E+00    2.088E+00    2.089E+00
     2.090E+00    2.091E+00    2.092E+00    2.093E+00    2.094E+00    2.095E+00    2.095E+00    2.096E+00    2.097E+00    2.098E+00
     2.099E+00    2.100E+00    2.101E+00    2.102E+00    2.103E+00    2.104E+00    2.105E+00    2.106E+00    2.107E+00    2.108E+00
     2.108E+00    2.109E+00    2.110E+00    2.111E+00    2.112E+00    2.113E+00    2.114E+00    2.115E+00    2.116E+00    2.117E+00
     2.118E+00    2.119E+00    2.119E+00    2.120E+00    2.121E+00    2.122E+00    2.123E+00    2.124E+00    2.125E+00    2.126E+00
     2.127E+00    2.128E+00    2.129E+00    2.130E+00    2.130E+00    2.131E+00    2.132E+00    2.133E+00    2.134E+00    2.135E+00
     2.136E+00    2.137E+00    2.138E+00    2.139E+00    2.139E+00    2.140E+00    2.141E+00    2.142E+00    2.143E+00    2.144E+00
     2.145E+00    2.146E+00    2.147E+00    2.148E+00    2.148E+00    2.149E+00    2.150E+00    2.151E+00    2.152E+00    2.153E+00
     2.154E+00    2.155E+00    2.156E+00    2.156E+00    2.157E+00    2.158E+00    2.159E+00    2.160E+00    2.161E+00    2.162E+00
     2.163E+00    2.164E+00    2.164E+00    2.165E+00    2.166E+00    2.167E+00    2.168E+00    2.169E+00    2.170E+00    2.171E+00
     2.171E+00    2.172E+00    2.173E+00    2.174E+00    2.175E+00    2.176E+00    2.177E+00    2.178E+00    2.178E+00    2.179E+00
     2.180E+00    2.181E+00    2.182E+00    2.183E+00    2.184E+00    2.185E+00    2.185E+00    2.186E+00    2.187E+00    2.188E+00
     2.189E+00    2.190E+00    2.191E+00    2.191E+00    2.192E+00    2.193E+00    2.194E+00    2.195E+00    2.196E+00    2.197E+00
     2.197E+00    2.198E+00    2.199E+00    2.200E+00    2.201E+00    2.202E+00    2.203E+00    2.203E+00    2.204E+00    2.205E+00
     2.206E+00    2.207E+00    2.208E+00    2.208E+00    2.209E+00    2.210E+00    2.211E+00    2.212E+00    2.213E+00    2.214E+00
     2.214E+00    2.215E+00    2.216E+00    2.217E+00    2.218E+00    2.219E+00    2.219E+00    2.220E+00    2.221E+00    2.222E+00
     2.223E+00    2.224E+00    2.224E+00    2.225E+00    2.226E+00    2.227E+00    2.228E+00    2.229E+00    2.229E+00    2.230E+00
     2.231E+00    2.232E+00    2.233E+00    2.233E+00    2.234E+00    2.235E+00    2.236E+00    2.237E+00    2.238E+00    2.238E+00
     2.239E+00    2.240E+00    2.241E+00    2.242E+00    2.242E+00    2.243E+00    2.244E+00    2.245E+00    2.246E+00    2.246E+00
     2.247E+00    2.248E+00    2.249E+00    2.250E+00    2.250E+00    2.251E+00    2.252E+00    2.253E+00    2.254E+00    2.254E+00
     2.255E+00    2.256E+00    2.257E+00    2.258E+00    2.258E+00    2.259E+00    2.260E+00    2.261E+00    2.262E+00    2.262E+00
     2.263E+00    2.264E+00    2.265E+00    2.266E+00    2.266E+00    2.267E+00    2.268E+00    2.269E+00    2.270E+00    2.270E+00
     2.271E+00    2.272E+00    2.273E+00    2.273E+00    2.274E+00    2.275E+00    2.276E+00    2.277E+00    2.277E+00    2.278E+00
     2.279E+00    2.280E+00    2.280E+00    2.281E+00    2.282E+00    2.283E+00    2.283E+00    2.284E+00    2.285E+00    2.286E+00
     2.287E+00    2.287E+00    2.288E+00    2.289E+00    2.290E+00    2.290E+00    2.291E+00    2.292E+00    2.293E+00    2.293E+00
     2.294E+00    2.295E+00    2.296E+00    2.296E+00    2.297E+00    2.298E+00    2.299E+00    2.299E+00    2.300E+00    2.301E+00
     2.302E+00    2.302E+00    2.303E+00    2.304E+00    2.305E+00    2.305E+00    2.306E+00    2.307E+00    2.308E+00    2.308E+00
     2.309E+00    2.310E+00    2.311E+00    2.311E+00    2.312E+00    2.313E+00    2.313E+00    2.314E+00    2.315E+00    2.316E+00
     2.316E+00    2.317E+00    2.318E+00    2.319E+00    2.319E+00    2.320E+00    2.321E+00    2.321E+00    2.322E+00    2.323E+00
     2.324E+00    2.324E+00    2.325E+00    2.326E+00    2.327E+00    2.327E+00    2.328E+00    2.329E+00    2.329E+00    2.330E+00
     2.331E+00    2.332E+00    2.332E+00    2.333E+00    2.334E+00    2.334E+00    2.335E+00    2.336E+00    2.336E+00    2.337E+00
     2.338E+00    2.339E+00    2.339E+00    2.340E+00    2.341E+00    2.341E+00    2.342E+00    2.343E+00    2.343E+00    2.344E+00
     2.345E+00    2.346E+00    2.346E+00    2.347E+00    2.348E+00    2.348E+00    2.349E+00    2.350E+00    2.350E+00    2.351E+00
     2.352E+00    2.352E+00    2.353E+00    2.354E+00    2.354E+00    2.355E+00    2.356E+00    2.357E+00    2.357E+00    2.358E+00
     2.359E+00    2.359E+00    2.360E+00    2.361E+00    2.361E+00    2.362E+00    2.363E+00    2.363E+00    2.364E+00    2.365E+00
     2.365E+00    2.366E+00    2.367E+00    2.367E+00    2.368E+00    2.369E+00    2.369E+00    2.370E+00    2.371E+00    2.371E+00
     2.372E+00    2.373E+00    2.373E+00    2.374E+00    2.374E+00    2.375E+00    2.376E+00    2.376E+00    2.377E+00    2.378E+00
     2.378E+00    2.379E+00    2.380E+00    2.380E+00    2.381E+00    2.382E+00    2.382E+00    2.383E+00    2.384E+00    2.384E+00
     2.385E+00    2.385E+00    2.386E+00    2.387E+00    2.387E+00    2.388E+00    2.389E+00    2.389E+00    2.390E+00    2.391E+00
     2.391E+00    2.392E+00    2.392E+00    2.393E+00    2.394E+00    2.394E+00    2.395E+00    2.396E+00    2.396E+00    2.397E+00
     2.397E+00    2.398E+00    2.399E+00    2.399E+00    2.400E+00    2.400E+00    2.401E+00    2.402E+00    2.402E+00    2.403E+00
     2.404E+00    2.404E+00    2.405E+00    2.405E+00    2.406E+00    2.407E+00    2.407E+00    2.408E+00    2.408E+00    2.409E+00
     2.410E+00    2.410E+00    2.411E+00    2.411E+00    2.412E+00    2.413E+00    2.413E+00    2.414E+00    2.414E+00    2.415E+00
     2.416E+00    2.416E+00    2.417E+00    2.417E+00    2.418E+00    2.418E+00    2.419E+00    2.420E+00
 Asp      Conc. = 5.39E+01
