 LCModel (Version 6.3-1L) Copyright: S.W. Provencher.          Ref.: Magn. Reson. Med. 30:672-679 (1993).                
 Slice#2 Row#6 Col#6  PD_05_press_2_raw_act
 36 lines in following concentration table = NCONC+1
    Conc.  %SD /Cr+PCr  Metabolite                                         
  380.287 135%   0.159 Ala                                                 
  495.532 110%   0.207 Asp                                                 
 1.31E+03  75%   0.547 Cr                                                  
 1.09E+03  92%   0.453 PCr                                                 
  185.351 188% 7.7E-02 GABA                                                
  128.439 266% 5.4E-02 Glc                                                 
   48.727 999% 2.0E-02 Gln                                                 
  877.025 143%   0.366 Glu                                                 
 1.04E+03   8%   0.435 GPC                                                 
    0.000 999%   0.000 PCh                                                 
  772.380  40%   0.322 GSH                                                 
 4.14E+03  27%   1.728 Ins                                                 
 1.49E+03  40%   0.621 Lac                                                 
 5.28E+03   5%   2.203 NAA                                                 
    0.000 999%   0.000 NAAG                                                
  304.921  29%   0.127 Scyllo                                              
  650.298  82%   0.271 Tau                                                 
 1.02E+03  39%   0.423 -CrCH2                                              
 1.04E+03   8%   0.435 GPC+PCh                                             
 5.28E+03   5%   2.203 NAA+NAAG                                            
 2.40E+03   9%   1.000 Cr+PCr                                              
  925.752 208%   0.386 Glu+Gln                                             
 2.66E+03  59%   1.109 Lip13a                                              
    0.000 999%   0.000 Lip13b                                              
  412.823 148%   0.172 Lip09                                               
 3.91E+03  22%   1.631 MM09                                                
  403.784  97%   0.168 Lip20                                               
 8.30E+03  16%   3.461 MM20                                                
 1.16E+03  42%   0.486 MM12                                                
 4.14E+03  30%   1.724 MM14                                                
  608.209 130%   0.254 MM17                                                
 2.66E+03  59%   1.109 Lip13a+Lip13b                                       
 7.96E+03  20%   3.319 MM14+Lip13a+Lip13b+MM12                             
 4.32E+03  18%   1.803 MM09+Lip09                                          
 8.70E+03  15%   3.629 MM20+Lip20                                          
   6 lines in following misc. output table
  FWHM = 0.069 ppm    S/N =   7                                            
  Data shift = 0.008 ppm                                                   
  Ph: -38 deg      -4.1 deg/ppm                                            
  alphaB,S = 1.0E+00,   1.6E+02                                            
   14 spline knots.   Ns = 8(1)                                            
  (13) 2 infls.   (13) 1 extrs.                                            
  498 points on ppm-axis = NY
      4.000000     3.992357     3.984714     3.977070     3.969427     3.961784     3.954141     3.946497     3.938854     3.931211
      3.923568     3.915925     3.908281     3.900638     3.892995     3.885352     3.877708     3.870065     3.862422     3.854779
      3.847136     3.839492     3.831849     3.824206     3.816563     3.808919     3.801276     3.793633     3.785990     3.778347
      3.770703     3.763060     3.755417     3.747774     3.740130     3.732487     3.724844     3.717201     3.709558     3.701914
      3.694271     3.686628     3.678985     3.671341     3.663698     3.656055     3.648412     3.640769     3.633125     3.625482
      3.617839     3.610196     3.602552     3.594909     3.587266     3.579623     3.571980     3.564336     3.556693     3.549050
      3.541407     3.533763     3.526120     3.518477     3.510834     3.503191     3.495547     3.487904     3.480261     3.472618
      3.464974     3.457331     3.449688     3.442045     3.434402     3.426758     3.419115     3.411472     3.403829     3.396185
      3.388542     3.380899     3.373256     3.365613     3.357969     3.350326     3.342683     3.335040     3.327396     3.319753
      3.312110     3.304467     3.296824     3.289180     3.281537     3.273894     3.266251     3.258607     3.250964     3.243321
      3.235678     3.228034     3.220391     3.212748     3.205105     3.197462     3.189818     3.182175     3.174532     3.166889
      3.159245     3.151602     3.143959     3.136316     3.128673     3.121029     3.113386     3.105743     3.098100     3.090456
      3.082813     3.075170     3.067527     3.059884     3.052240     3.044597     3.036954     3.029311     3.021667     3.014024
      3.006381     2.998738     2.991095     2.983451     2.975808     2.968165     2.960522     2.952878     2.945235     2.937592
      2.929949     2.922306     2.914662     2.907019     2.899376     2.891733     2.884089     2.876446     2.868803     2.861160
      2.853517     2.845873     2.838230     2.830587     2.822944     2.815300     2.807657     2.800014     2.792371     2.784728
      2.777084     2.769441     2.761798     2.754155     2.746511     2.738868     2.731225     2.723582     2.715939     2.708295
      2.700652     2.693009     2.685366     2.677722     2.670079     2.662436     2.654793     2.647150     2.639506     2.631863
      2.624220     2.616577     2.608933     2.601290     2.593647     2.586004     2.578361     2.570717     2.563074     2.555431
      2.547788     2.540144     2.532501     2.524858     2.517215     2.509572     2.501928     2.494285     2.486642     2.478999
      2.471355     2.463712     2.456069     2.448426     2.440783     2.433139     2.425496     2.417853     2.410210     2.402566
      2.394923     2.387280     2.379637     2.371994     2.364350     2.356707     2.349064     2.341421     2.333777     2.326134
      2.318491     2.310848     2.303205     2.295561     2.287918     2.280275     2.272632     2.264988     2.257345     2.249702
      2.242059     2.234416     2.226772     2.219129     2.211486     2.203843     2.196199     2.188556     2.180913     2.173270
      2.165627     2.157983     2.150340     2.142697     2.135054     2.127410     2.119767     2.112124     2.104481     2.096838
      2.089194     2.081551     2.073908     2.066265     2.058621     2.050978     2.043335     2.035692     2.028049     2.020405
      2.012762     2.005119     1.997476     1.989833     1.982190     1.974546     1.966903     1.959260     1.951617     1.943974
      1.936331     1.928688     1.921045     1.913402     1.905759     1.898115     1.890472     1.882829     1.875186     1.867543
      1.859900     1.852257     1.844614     1.836971     1.829327     1.821684     1.814041     1.806398     1.798755     1.791112
      1.783469     1.775826     1.768183     1.760540     1.752896     1.745253     1.737610     1.729967     1.722324     1.714681
      1.707038     1.699395     1.691752     1.684108     1.676465     1.668822     1.661179     1.653536     1.645893     1.638250
      1.630607     1.622964     1.615321     1.607677     1.600034     1.592391     1.584748     1.577105     1.569462     1.561819
      1.554176     1.546533     1.538890     1.531246     1.523603     1.515960     1.508317     1.500674     1.493031     1.485388
      1.477745     1.470102     1.462458     1.454815     1.447172     1.439529     1.431886     1.424243     1.416600     1.408957
      1.401314     1.393671     1.386027     1.378384     1.370741     1.363098     1.355455     1.347812     1.340169     1.332526
      1.324883     1.317240     1.309596     1.301953     1.294310     1.286667     1.279024     1.271381     1.263738     1.256095
      1.248452     1.240808     1.233165     1.225522     1.217879     1.210236     1.202593     1.194950     1.187307     1.179664
      1.172021     1.164377     1.156734     1.149091     1.141448     1.133805     1.126162     1.118519     1.110876     1.103233
      1.095590     1.087946     1.080303     1.072660     1.065017     1.057374     1.049731     1.042088     1.034445     1.026802
      1.019158     1.011515     1.003872     0.996229     0.988586     0.980943     0.973300     0.965657     0.958014     0.950371
      0.942727     0.935084     0.927441     0.919798     0.912155     0.904512     0.896869     0.889226     0.881583     0.873940
      0.866296     0.858653     0.851010     0.843367     0.835724     0.828081     0.820438     0.812795     0.805152     0.797508
      0.789865     0.782222     0.774579     0.766936     0.759293     0.751650     0.744007     0.736364     0.728721     0.721077
      0.713434     0.705791     0.698148     0.690505     0.682862     0.675219     0.667576     0.659933     0.652290     0.644646
      0.637003     0.629360     0.621717     0.614074     0.606431     0.598788     0.591145     0.583502     0.575858     0.568215
      0.560572     0.552929     0.545286     0.537643     0.530000     0.522357     0.514714     0.507071     0.499427     0.491784
      0.484141     0.476498     0.468855     0.461212     0.453569     0.445925     0.438282     0.430639     0.422996     0.415353
      0.407710     0.400067     0.392424     0.384780     0.377137     0.369494     0.361851     0.354208     0.346565     0.338922
      0.331278     0.323635     0.315992     0.308349     0.300706     0.293063     0.285420     0.277777     0.270133     0.262490
      0.254847     0.247204     0.239561     0.231918     0.224275     0.216631     0.208988     0.201345
 NY phased data points follow
  -1.79433E+02 -1.88102E+02 -1.67161E+02 -2.02424E+02 -1.69917E+02 -1.44436E+02 -1.30663E+02 -1.24671E+02 -1.22804E+02 -1.14995E+02
  -1.10652E+02 -1.36217E+02 -1.20082E+02 -1.40253E+02 -1.18199E+02 -1.31327E+02 -1.46037E+02 -1.43274E+02 -1.36874E+02 -1.39172E+02
  -1.46174E+02 -1.41734E+02 -1.39507E+02 -1.31129E+02 -1.19385E+02 -1.23600E+02 -1.18904E+02 -1.32157E+02 -1.23194E+02 -1.17636E+02
  -1.08127E+02 -1.32251E+02 -1.02703E+02 -1.29923E+02 -1.16659E+02 -1.00921E+02 -9.15439E+01 -1.09578E+02 -9.56616E+01 -1.14365E+02
  -1.09177E+02 -9.11428E+01 -9.89571E+01 -1.03677E+02 -1.10203E+02 -8.60122E+01 -8.73781E+01 -8.15387E+01 -7.48206E+01 -9.04046E+01
  -9.11619E+01 -9.53321E+01 -8.69155E+01 -1.03368E+02 -8.27544E+01 -9.19941E+01 -7.23199E+01 -8.77460E+01 -7.23535E+01 -8.01469E+01
  -8.73698E+01 -8.84260E+01 -1.01256E+02 -1.02815E+02 -9.40950E+01 -9.82281E+01 -8.74316E+01 -1.10766E+02 -8.18608E+01 -1.00112E+02
  -8.27717E+01 -9.26331E+01 -9.65992E+01 -9.61479E+01 -9.19612E+01 -9.88355E+01 -7.27209E+01 -9.04604E+01 -8.50122E+01 -8.76704E+01
  -9.66767E+01 -9.39850E+01 -7.74548E+01 -8.62630E+01 -6.86838E+01 -6.95471E+01 -6.73525E+01 -6.47505E+01 -5.55129E+01 -7.57837E+01
  -7.59516E+01 -7.14727E+01 -5.59980E+01 -5.68153E+01 -5.92636E+01 -7.03662E+01 -5.08386E+01 -6.49179E+01 -4.76344E+01 -3.05046E+01
  -1.58212E+01 -3.97089E+00  6.74707E+00 -5.88072E+00  1.46939E+01 -2.05156E+01 -1.37346E+01 -2.15117E+01 -2.68186E+01 -4.14390E+01
  -4.24682E+01 -7.65283E+01 -3.89275E+01 -4.51936E+01 -5.57493E+01 -4.81611E+01 -5.10473E+01 -4.88243E+01 -4.67595E+01 -6.50043E+01
  -3.80691E+01 -4.86220E+01 -2.25493E+01 -1.33970E+01 -1.30593E+01  1.04398E+01  9.98939E+00 -1.24273E+00 -2.19844E-02 -7.88442E+00
  -8.36946E+00 -1.95204E+01 -1.47625E+01 -3.82634E+01 -5.23495E+01 -4.48005E+01 -5.76336E+01 -4.10281E+01 -5.52488E+01 -6.25619E+01
  -4.57395E+01 -5.23915E+01 -6.05230E+01 -5.03513E+01 -4.16003E+01 -6.66536E+01 -5.28809E+01 -5.67961E+01 -6.12935E+01 -4.98590E+01
  -6.29350E+01 -5.68457E+01 -5.35716E+01 -6.11865E+01 -7.71549E+01 -5.57243E+01 -6.25682E+01 -3.86013E+01 -3.94752E+01 -5.69831E+01
  -5.83369E+01 -6.91103E+01 -7.56124E+01 -4.60676E+01 -4.05699E+01 -5.32432E+01 -5.60668E+01 -7.57756E+01 -5.66227E+01 -4.40493E+01
  -6.64339E+01 -5.81125E+01 -4.35617E+01 -5.20283E+01 -7.23471E+01 -6.38501E+01 -6.87722E+01 -9.00154E+01 -7.31712E+01 -6.17725E+01
  -6.50545E+01 -4.79314E+01 -5.18961E+01 -4.71642E+01 -6.11659E+01 -7.49145E+01 -3.73730E+01 -4.99386E+01 -5.34364E+01 -4.01358E+01
  -3.64324E+01 -2.99573E+01 -4.44152E+01 -2.07859E+01 -3.01526E+01 -3.04657E+01 -2.10681E+01 -4.39734E+01 -1.91715E+01 -4.14532E+01
  -3.62207E+01 -4.98945E+01 -4.30662E+01 -1.93088E+01 -1.53352E+01 -4.89432E+01 -2.02274E+01 -4.07295E+01 -3.00239E+01 -1.87550E+01
  -3.91703E+01 -3.65770E+01 -1.00316E+01 -1.25905E+01 -2.53805E+01 -3.24629E+01 -3.15905E+01 -3.28098E+01 -5.10151E+00 -6.97852E+00
  -2.06706E+01 -1.19298E+01 -1.73678E+01 -1.39073E+01 -2.62036E+00 -2.96378E+01 -1.47980E+01 -2.19636E+01  6.71437E+00 -1.49772E+01
   1.36645E+01 -8.23009E+00  3.91427E-01  3.21199E-01  1.65683E+01  2.04103E+01  1.34383E+01 -6.04208E+00  1.11749E+00  5.29548E-01
  -2.99015E+00 -1.64122E+01 -5.20460E+00  8.68255E+00 -7.66298E-01 -9.53640E+00  1.38866E+01  2.95245E+00  8.49273E+00  1.21692E+01
   3.31483E+01  9.11944E+00  3.57344E+01  3.01488E+01  3.76195E+01  5.72124E+01  5.41965E+01  9.66444E+01  1.38751E+02  1.58381E+02
   1.66491E+02  1.40902E+02  1.31377E+02  1.05639E+02  1.13549E+02  6.98478E+01  5.77109E+01  5.09830E+01  2.05773E+01  1.22963E+01
   6.86359E+00  5.90910E+00  3.78631E+00 -9.98629E+00  1.00065E+01 -5.01772E+00 -1.68632E+00  1.04938E+01 -9.56580E-01 -2.72908E+01
   1.31305E+01 -9.56992E+00 -1.82201E+00  1.52212E+00 -1.74342E+01 -1.92709E+01 -2.98294E+00 -6.12837E+00 -6.72895E+00  5.53608E+00
  -1.72050E+00 -7.06952E+00 -7.55206E+00 -5.40657E+00 -9.08308E+00 -2.09312E+01  2.51821E+00 -7.88796E+00 -2.43127E+00 -1.70321E+01
   3.92925E+00 -1.60139E+01 -1.18556E+01  8.82547E+00 -2.47568E+01 -1.53454E+01 -1.11260E+01 -1.71434E+01  4.28011E+00 -2.92285E+00
  -2.60104E+00 -1.36815E+01 -1.59117E+01 -7.20860E+00  6.41486E+00  1.25069E+01 -1.08271E+01 -2.09235E+01 -9.11140E+00 -1.07204E+01
  -5.90075E+00 -2.30762E+00  2.96761E+00  1.22235E+01 -3.55882E+00 -6.70318E+00 -8.94738E-02 -2.08690E+01 -6.79234E+00  3.76488E+00
   2.68266E+00  3.97927E+00  2.31428E+01  2.46933E+01  2.19703E+01 -7.88751E+00 -3.15975E-01  3.44033E+01  2.53594E+01  4.12427E+01
   2.57571E+01  3.13952E+01  3.37792E+01  3.72063E+01  2.86709E+01  3.24374E+01  3.40930E+01  3.54448E+01  3.95903E+01  2.03332E+01
   1.83727E+01  6.03987E+00  2.46012E+01 -6.84319E+00  1.02500E+01  1.81624E+01  2.47703E+01  3.47161E+01  9.32728E+00  1.55555E+01
   2.46682E+01  2.66133E+01  8.25825E+00 -5.57113E+00  1.83282E+01  2.81903E+01  2.42368E+01  2.92115E+01  1.48409E+01  1.19909E+01
   1.39339E+01  1.60051E+01 -1.27094E+00 -1.02219E+01  1.36432E+01 -8.28650E+00  1.11315E+01 -8.96323E+00 -4.02485E+00  1.83293E+01
   1.38036E+00 -2.22828E+00 -8.92381E+00 -2.30191E+00  1.27056E+01 -4.53179E-01  9.88620E+00  1.60549E+01  2.15451E+00  4.60844E+00
   1.75363E+01  1.25072E+00  7.44711E+00  6.57707E+00 -2.11546E+00  6.67294E+00  2.27961E+01  3.30005E+01  2.39290E+01  4.60962E+01
   1.00609E+01  1.47411E+01  3.04414E+01  7.61008E+00  2.38886E+01  3.25253E+01  2.29527E+01  3.57322E+01  1.19134E+01  2.25753E+01
   2.56385E+01  1.52464E+01  3.94057E+01  2.60185E+01  2.07910E+01  1.87703E+01  3.52327E+01  5.87492E+00  1.57580E+01  1.89894E+01
   2.55432E+01  2.48735E+00  7.93632E+00 -7.68131E+00  1.08310E+01 -2.01283E+00 -3.07157E+00 -1.63902E+01  1.05589E+01  2.03777E+00
   1.06386E+01  6.40863E+00  1.18555E+01  1.32774E+00  1.45398E+01  3.33075E-01 -1.20794E+00  8.88660E+00  1.73348E+01  2.08921E+01
  -8.20632E+00  3.26867E+01 -1.13689E+01  4.49937E+00  1.15663E+01  2.11390E+01 -2.59253E+01 -2.03055E+01 -3.82228E+00 -1.22794E+01
   1.05088E+01  1.95845E+01  1.28026E+01  7.65722E+00  2.56669E+01 -2.11947E-01  8.65495E+00  2.21766E+01  6.04619E+00 -8.28792E+00
  -6.03980E+00 -1.50443E+00 -1.07657E+01  1.77804E+00 -8.31704E+00  1.08425E+01  3.26630E+00 -8.80468E+00 -2.94414E+00  5.51694E+00
  -1.59083E+01  3.39205E+00  1.07758E+01  1.17533E+01  2.11968E+01 -9.45499E-01 -3.13095E+01  3.48555E+01  5.36005E+00  1.29025E+01
   1.36132E+01  8.99491E+00  2.36369E+01  1.62672E+01 -3.58835E+00  7.78964E+00 -1.56254E+01  7.39641E+00 -6.28083E+00 -3.38235E+00
   7.81900E-01  1.30647E+01  1.51600E+01 -3.07889E+00  8.88719E+00  9.77098E+00 -7.88315E+00 -4.70037E+00
 NY points of the fit to the data follow
  -1.55829E+02 -1.56324E+02 -1.55618E+02 -1.53509E+02 -1.50285E+02 -1.45966E+02 -1.40570E+02 -1.34469E+02 -1.28482E+02 -1.23696E+02
  -1.20938E+02 -1.20304E+02 -1.21224E+02 -1.22955E+02 -1.25041E+02 -1.27370E+02 -1.29925E+02 -1.32515E+02 -1.34855E+02 -1.36476E+02
  -1.37108E+02 -1.36800E+02 -1.35806E+02 -1.34298E+02 -1.32330E+02 -1.29720E+02 -1.26338E+02 -1.22434E+02 -1.18616E+02 -1.15463E+02
  -1.13278E+02 -1.12042E+02 -1.11461E+02 -1.11331E+02 -1.11611E+02 -1.12300E+02 -1.13405E+02 -1.14797E+02 -1.15893E+02 -1.15804E+02
  -1.14049E+02 -1.10946E+02 -1.06839E+02 -1.01916E+02 -9.67786E+01 -9.24633E+01 -8.99318E+01 -8.95005E+01 -9.08033E+01 -9.31484E+01
  -9.57774E+01 -9.82011E+01 -1.00175E+02 -1.01527E+02 -1.02155E+02 -1.01910E+02 -1.00589E+02 -9.83803E+01 -9.60662E+01 -9.43982E+01
  -9.36176E+01 -9.35002E+01 -9.37012E+01 -9.38398E+01 -9.36577E+01 -9.31256E+01 -9.23244E+01 -9.12882E+01 -8.99521E+01 -8.83275E+01
  -8.65986E+01 -8.49763E+01 -8.36568E+01 -8.27629E+01 -8.23053E+01 -8.22438E+01 -8.24511E+01 -8.27016E+01 -8.27011E+01 -8.21337E+01
  -8.11606E+01 -7.98471E+01 -7.82277E+01 -7.64990E+01 -7.49756E+01 -7.39801E+01 -7.36811E+01 -7.39612E+01 -7.44270E+01 -7.48207E+01
  -7.50734E+01 -7.52310E+01 -7.53359E+01 -7.52874E+01 -7.45023E+01 -7.13238E+01 -6.51883E+01 -5.64393E+01 -4.51470E+01 -3.14098E+01
  -1.66019E+01 -3.64071E+00  4.40039E+00  6.10498E+00  2.33340E+00 -4.80580E+00 -1.33832E+01 -2.25875E+01 -3.21761E+01 -4.18112E+01
  -5.09334E+01 -5.86301E+01 -6.38483E+01 -6.58675E+01 -6.59577E+01 -6.55428E+01 -6.49068E+01 -6.39516E+01 -6.19258E+01 -5.76520E+01
  -5.12878E+01 -4.28936E+01 -3.22702E+01 -1.98972E+01 -7.56442E+00  2.09758E+00  7.03554E+00  6.87666E+00  2.85843E+00 -3.29618E+00
  -1.04449E+01 -1.83020E+01 -2.67561E+01 -3.54400E+01 -4.35726E+01 -5.00944E+01 -5.39638E+01 -5.50362E+01 -5.48662E+01 -5.43272E+01
  -5.37063E+01 -5.31163E+01 -5.25766E+01 -5.20790E+01 -5.16709E+01 -5.14668E+01 -5.15055E+01 -5.17452E+01 -5.21032E+01 -5.24658E+01
  -5.27447E+01 -5.29153E+01 -5.29840E+01 -5.30594E+01 -5.31909E+01 -5.33804E+01 -5.36503E+01 -5.39811E+01 -5.43371E+01 -5.45943E+01
  -5.45654E+01 -5.41743E+01 -5.35393E+01 -5.29103E+01 -5.25019E+01 -5.23607E+01 -5.23871E+01 -5.24798E+01 -5.26472E+01 -5.29628E+01
  -5.34107E+01 -5.40089E+01 -5.46815E+01 -5.52864E+01 -5.56343E+01 -5.55410E+01 -5.50979E+01 -5.45479E+01 -5.40735E+01 -5.37295E+01
  -5.33665E+01 -5.27789E+01 -5.19575E+01 -5.09601E+01 -4.97650E+01 -4.82551E+01 -4.63164E+01 -4.39521E+01 -4.13154E+01 -3.87714E+01
  -3.67046E+01 -3.52390E+01 -3.42335E+01 -3.35411E+01 -3.31454E+01 -3.30443E+01 -3.31066E+01 -3.31717E+01 -3.29961E+01 -3.23880E+01
  -3.13584E+01 -3.00532E+01 -2.87425E+01 -2.76914E+01 -2.70539E+01 -2.68900E+01 -2.71077E+01 -2.75467E+01 -2.81240E+01 -2.87246E+01
  -2.91838E+01 -2.92978E+01 -2.89034E+01 -2.80174E+01 -2.68812E+01 -2.58714E+01 -2.51606E+01 -2.47042E+01 -2.43716E+01 -2.39929E+01
  -2.34262E+01 -2.25681E+01 -2.14393E+01 -2.02040E+01 -1.89575E+01 -1.77078E+01 -1.64846E+01 -1.53649E+01 -1.43415E+01 -1.32798E+01
  -1.20286E+01 -1.05669E+01 -8.96687E+00 -7.29532E+00 -5.63145E+00 -4.14879E+00 -3.01048E+00 -2.22026E+00 -1.62840E+00 -1.04372E+00
  -2.87929E-01  7.47307E-01  2.10284E+00  3.76315E+00  5.60416E+00  7.46954E+00  9.23864E+00  1.08622E+01  1.23212E+01  1.36013E+01
   1.47968E+01  1.63609E+01  2.03163E+01  2.89503E+01  4.16949E+01  5.87144E+01  8.04919E+01  1.05652E+02  1.29855E+02  1.47195E+02
   1.53517E+02  1.48726E+02  1.36011E+02  1.19259E+02  1.00925E+02  8.17091E+01  6.20532E+01  4.28164E+01  2.54030E+01  1.16788E+01
   3.46393E+00  2.80190E-01 -1.22514E+00 -2.26495E+00 -3.09550E+00 -3.82847E+00 -4.52053E+00 -5.18446E+00 -5.82372E+00 -6.43678E+00
  -7.01503E+00 -7.54128E+00 -8.00010E+00 -8.37775E+00 -8.66772E+00 -8.87463E+00 -9.00663E+00 -9.07451E+00 -9.09176E+00 -9.06901E+00
  -9.01413E+00 -8.93482E+00 -8.83409E+00 -8.71425E+00 -8.57706E+00 -8.42237E+00 -8.25126E+00 -8.06896E+00 -7.88105E+00 -7.69177E+00
  -7.50487E+00 -7.32461E+00 -7.15384E+00 -6.99438E+00 -6.84750E+00 -6.71225E+00 -6.58565E+00 -6.46351E+00 -6.34056E+00 -6.21086E+00
  -6.06732E+00 -5.90178E+00 -5.70458E+00 -5.46527E+00 -5.17241E+00 -4.81353E+00 -4.37312E+00 -3.82948E+00 -3.14346E+00 -2.25791E+00
  -1.21801E+00 -9.41482E-02  1.08411E+00  2.24334E+00  3.24013E+00  3.91552E+00  4.20482E+00  4.27872E+00  4.42148E+00  4.82421E+00
   5.61548E+00  6.87562E+00  8.63625E+00  1.08365E+01  1.33034E+01  1.58331E+01  1.82918E+01  2.06372E+01  2.28616E+01  2.51385E+01
   2.75696E+01  2.98138E+01  3.17153E+01  3.31309E+01  3.36855E+01  3.28390E+01  3.01307E+01  2.58194E+01  2.09351E+01  1.63900E+01
   1.29146E+01  1.10109E+01  1.08690E+01  1.23164E+01  1.47623E+01  1.74588E+01  1.98968E+01  2.18998E+01  2.33119E+01  2.38409E+01
   2.35498E+01  2.25380E+01  2.08876E+01  1.87460E+01  1.63889E+01  1.42760E+01  1.26725E+01  1.13682E+01  1.02336E+01  9.21873E+00
   8.30121E+00  7.47026E+00  6.72101E+00  6.05172E+00  5.46269E+00  4.95527E+00  4.53157E+00  4.19393E+00  3.94520E+00  3.78848E+00
   3.72739E+00  3.76572E+00  3.90757E+00  4.15710E+00  4.51866E+00  4.99643E+00  5.59430E+00  6.31517E+00  7.16074E+00  8.13083E+00
   9.22306E+00  1.04321E+01  1.17493E+01  1.31617E+01  1.46525E+01  1.62002E+01  1.77795E+01  1.93609E+01  2.09120E+01  2.23980E+01
   2.37832E+01  2.50324E+01  2.61125E+01  2.69940E+01  2.76520E+01  2.80683E+01  2.82315E+01  2.81382E+01  2.77931E+01  2.72082E+01
   2.64025E+01  2.54010E+01  2.42332E+01  2.29320E+01  2.15315E+01  2.00660E+01  1.85684E+01  1.70691E+01  1.55950E+01  1.41691E+01
   1.28100E+01  1.15317E+01  1.03440E+01  9.25265E+00  8.26026E+00  7.36630E+00  6.56795E+00  5.86055E+00  5.23831E+00  4.69465E+00
   4.22274E+00  3.81558E+00  3.46633E+00  3.16848E+00  2.91608E+00  2.70368E+00  2.52645E+00  2.37996E+00  2.26032E+00  2.16411E+00
   2.08843E+00  2.03076E+00  1.98890E+00  1.96089E+00  1.94503E+00  1.93984E+00  1.94416E+00  1.95689E+00  1.97711E+00  2.00389E+00
   2.03650E+00  2.07427E+00  2.11672E+00  2.16334E+00  2.21371E+00  2.26740E+00  2.32409E+00  2.38352E+00  2.44551E+00  2.50979E+00
   2.57614E+00  2.64432E+00  2.71421E+00  2.78567E+00  2.85864E+00  2.93293E+00  3.00842E+00  3.08497E+00  3.16255E+00  3.24111E+00
   3.32059E+00  3.40087E+00  3.48188E+00  3.56354E+00  3.64588E+00  3.72886E+00  3.81244E+00  3.89653E+00  3.98107E+00  4.06606E+00
   4.15155E+00  4.23748E+00  4.32383E+00  4.41051E+00  4.49753E+00  4.58491E+00  4.67268E+00  4.76080E+00  4.84924E+00  4.93794E+00
   5.02694E+00  5.11627E+00  5.20596E+00  5.29597E+00  5.38626E+00  5.47682E+00  5.56771E+00  5.65899E+00
 NY background values follow
    -1.682E+02   -1.671E+02   -1.661E+02   -1.650E+02   -1.640E+02   -1.629E+02   -1.619E+02   -1.609E+02   -1.598E+02   -1.588E+02
    -1.577E+02   -1.567E+02   -1.556E+02   -1.546E+02   -1.536E+02   -1.525E+02   -1.515E+02   -1.505E+02   -1.494E+02   -1.484E+02
    -1.474E+02   -1.464E+02   -1.453E+02   -1.443E+02   -1.433E+02   -1.423E+02   -1.413E+02   -1.403E+02   -1.393E+02   -1.383E+02
    -1.373E+02   -1.363E+02   -1.353E+02   -1.343E+02   -1.333E+02   -1.323E+02   -1.314E+02   -1.304E+02   -1.294E+02   -1.285E+02
    -1.275E+02   -1.265E+02   -1.256E+02   -1.247E+02   -1.237E+02   -1.228E+02   -1.219E+02   -1.209E+02   -1.200E+02   -1.191E+02
    -1.182E+02   -1.173E+02   -1.164E+02   -1.155E+02   -1.147E+02   -1.138E+02   -1.129E+02   -1.121E+02   -1.112E+02   -1.104E+02
    -1.095E+02   -1.087E+02   -1.078E+02   -1.070E+02   -1.062E+02   -1.054E+02   -1.046E+02   -1.038E+02   -1.030E+02   -1.022E+02
    -1.014E+02   -1.006E+02   -9.985E+01   -9.908E+01   -9.832E+01   -9.757E+01   -9.682E+01   -9.608E+01   -9.535E+01   -9.462E+01
    -9.390E+01   -9.319E+01   -9.248E+01   -9.178E+01   -9.108E+01   -9.039E+01   -8.971E+01   -8.903E+01   -8.837E+01   -8.770E+01
    -8.705E+01   -8.640E+01   -8.576E+01   -8.512E+01   -8.449E+01   -8.387E+01   -8.325E+01   -8.264E+01   -8.204E+01   -8.144E+01
    -8.085E+01   -8.027E+01   -7.969E+01   -7.911E+01   -7.854E+01   -7.798E+01   -7.743E+01   -7.687E+01   -7.633E+01   -7.579E+01
    -7.525E+01   -7.472E+01   -7.420E+01   -7.368E+01   -7.317E+01   -7.266E+01   -7.215E+01   -7.165E+01   -7.116E+01   -7.067E+01
    -7.018E+01   -6.970E+01   -6.922E+01   -6.875E+01   -6.828E+01   -6.781E+01   -6.735E+01   -6.690E+01   -6.645E+01   -6.600E+01
    -6.555E+01   -6.511E+01   -6.468E+01   -6.424E+01   -6.381E+01   -6.338E+01   -6.296E+01   -6.254E+01   -6.212E+01   -6.171E+01
    -6.130E+01   -6.089E+01   -6.049E+01   -6.008E+01   -5.968E+01   -5.929E+01   -5.889E+01   -5.850E+01   -5.811E+01   -5.772E+01
    -5.733E+01   -5.695E+01   -5.656E+01   -5.618E+01   -5.580E+01   -5.542E+01   -5.505E+01   -5.467E+01   -5.430E+01   -5.392E+01
    -5.355E+01   -5.318E+01   -5.281E+01   -5.244E+01   -5.207E+01   -5.170E+01   -5.133E+01   -5.096E+01   -5.059E+01   -5.023E+01
    -4.986E+01   -4.949E+01   -4.912E+01   -4.875E+01   -4.838E+01   -4.801E+01   -4.764E+01   -4.727E+01   -4.690E+01   -4.653E+01
    -4.615E+01   -4.578E+01   -4.540E+01   -4.502E+01   -4.465E+01   -4.427E+01   -4.389E+01   -4.351E+01   -4.313E+01   -4.275E+01
    -4.236E+01   -4.198E+01   -4.160E+01   -4.122E+01   -4.084E+01   -4.046E+01   -4.008E+01   -3.970E+01   -3.932E+01   -3.894E+01
    -3.856E+01   -3.818E+01   -3.781E+01   -3.743E+01   -3.706E+01   -3.669E+01   -3.631E+01   -3.595E+01   -3.558E+01   -3.521E+01
    -3.485E+01   -3.449E+01   -3.413E+01   -3.377E+01   -3.341E+01   -3.306E+01   -3.271E+01   -3.237E+01   -3.202E+01   -3.168E+01
    -3.134E+01   -3.101E+01   -3.067E+01   -3.035E+01   -3.002E+01   -2.970E+01   -2.938E+01   -2.907E+01   -2.876E+01   -2.845E+01
    -2.815E+01   -2.785E+01   -2.755E+01   -2.726E+01   -2.697E+01   -2.669E+01   -2.641E+01   -2.613E+01   -2.586E+01   -2.559E+01
    -2.532E+01   -2.506E+01   -2.480E+01   -2.454E+01   -2.429E+01   -2.404E+01   -2.380E+01   -2.355E+01   -2.332E+01   -2.308E+01
    -2.285E+01   -2.262E+01   -2.239E+01   -2.217E+01   -2.195E+01   -2.174E+01   -2.153E+01   -2.132E+01   -2.111E+01   -2.091E+01
    -2.071E+01   -2.051E+01   -2.032E+01   -2.013E+01   -1.994E+01   -1.976E+01   -1.958E+01   -1.940E+01   -1.922E+01   -1.905E+01
    -1.888E+01   -1.872E+01   -1.856E+01   -1.839E+01   -1.824E+01   -1.808E+01   -1.793E+01   -1.778E+01   -1.764E+01   -1.749E+01
    -1.735E+01   -1.721E+01   -1.707E+01   -1.694E+01   -1.681E+01   -1.668E+01   -1.655E+01   -1.643E+01   -1.630E+01   -1.618E+01
    -1.606E+01   -1.594E+01   -1.583E+01   -1.571E+01   -1.560E+01   -1.549E+01   -1.538E+01   -1.528E+01   -1.517E+01   -1.507E+01
    -1.496E+01   -1.486E+01   -1.476E+01   -1.466E+01   -1.457E+01   -1.447E+01   -1.438E+01   -1.428E+01   -1.419E+01   -1.410E+01
    -1.401E+01   -1.392E+01   -1.383E+01   -1.374E+01   -1.365E+01   -1.356E+01   -1.347E+01   -1.339E+01   -1.330E+01   -1.322E+01
    -1.313E+01   -1.305E+01   -1.296E+01   -1.288E+01   -1.280E+01   -1.271E+01   -1.263E+01   -1.255E+01   -1.247E+01   -1.239E+01
    -1.231E+01   -1.222E+01   -1.214E+01   -1.206E+01   -1.198E+01   -1.190E+01   -1.182E+01   -1.174E+01   -1.166E+01   -1.158E+01
    -1.151E+01   -1.143E+01   -1.135E+01   -1.127E+01   -1.119E+01   -1.111E+01   -1.103E+01   -1.095E+01   -1.087E+01   -1.079E+01
    -1.071E+01   -1.064E+01   -1.056E+01   -1.048E+01   -1.040E+01   -1.032E+01   -1.024E+01   -1.016E+01   -1.008E+01   -9.996E+00
    -9.915E+00   -9.834E+00   -9.753E+00   -9.671E+00   -9.589E+00   -9.507E+00   -9.424E+00   -9.341E+00   -9.258E+00   -9.174E+00
    -9.090E+00   -9.005E+00   -8.920E+00   -8.835E+00   -8.749E+00   -8.662E+00   -8.575E+00   -8.488E+00   -8.400E+00   -8.312E+00
    -8.223E+00   -8.133E+00   -8.043E+00   -7.952E+00   -7.860E+00   -7.768E+00   -7.675E+00   -7.582E+00   -7.488E+00   -7.393E+00
    -7.298E+00   -7.201E+00   -7.104E+00   -7.006E+00   -6.908E+00   -6.808E+00   -6.708E+00   -6.607E+00   -6.505E+00   -6.403E+00
    -6.299E+00   -6.195E+00   -6.089E+00   -5.983E+00   -5.876E+00   -5.768E+00   -5.658E+00   -5.548E+00   -5.437E+00   -5.325E+00
    -5.212E+00   -5.098E+00   -4.983E+00   -4.868E+00   -4.752E+00   -4.635E+00   -4.517E+00   -4.399E+00   -4.280E+00   -4.160E+00
    -4.040E+00   -3.920E+00   -3.799E+00   -3.677E+00   -3.555E+00   -3.433E+00   -3.310E+00   -3.188E+00   -3.064E+00   -2.941E+00
    -2.818E+00   -2.694E+00   -2.570E+00   -2.446E+00   -2.323E+00   -2.199E+00   -2.075E+00   -1.951E+00   -1.828E+00   -1.704E+00
    -1.581E+00   -1.458E+00   -1.335E+00   -1.212E+00   -1.090E+00   -9.683E-01   -8.469E-01   -7.259E-01   -6.054E-01   -4.854E-01
    -3.659E-01   -2.470E-01   -1.288E-01   -1.120E-02    1.058E-01    2.221E-01    3.379E-01    4.530E-01    5.676E-01    6.816E-01
     7.950E-01    9.079E-01    1.020E+00    1.132E+00    1.244E+00    1.354E+00    1.465E+00    1.575E+00    1.684E+00    1.793E+00
     1.902E+00    2.010E+00    2.118E+00    2.226E+00    2.333E+00    2.440E+00    2.546E+00    2.653E+00    2.758E+00    2.864E+00
     2.969E+00    3.074E+00    3.179E+00    3.284E+00    3.388E+00    3.492E+00    3.596E+00    3.700E+00    3.803E+00    3.907E+00
     4.010E+00    4.113E+00    4.216E+00    4.319E+00    4.422E+00    4.525E+00    4.628E+00    4.731E+00
 Ala      Conc. = 3.80E+02
