 LCModel (Version 6.3-1L) Copyright: S.W. Provencher.          Ref.: Magn. Reson. Med. 30:672-679 (1993).                
 Slice#2 Row#8 Col#1  PD_05_press_2_raw_act
 36 lines in following concentration table = NCONC+1
    Conc.  %SD /Cr+PCr  Metabolite                                         
 7.58E+03  16%  20.887 Ala                                                 
  214.604  65%   0.591 Asp                                                 
  362.864  54%   1.000 Cr                                                  
    0.000 999%   0.000 PCr                                                 
   25.239 333% 7.0E-02 GABA                                                
   75.631 112%   0.208 Glc                                                 
    0.000 999%   0.000 Gln                                                 
 3.62E+04   7%  99.808 Glu                                                 
    0.000 999%   0.000 GPC                                                 
  298.789  30%   0.823 PCh                                                 
   58.897 552%   0.162 GSH                                                 
 2.95E+03  39%   8.121 Ins                                                 
 4.37E+03  26%  12.050 Lac                                                 
  368.213  53%   1.015 NAA                                                 
    0.000 999%   0.000 NAAG                                                
   37.367  75%   0.103 Scyllo                                              
  162.193  86%   0.447 Tau                                                 
  102.226  80%   0.282 -CrCH2                                              
  298.789  30%   0.823 GPC+PCh                                             
  368.213  53%   1.015 NAA+NAAG                                            
  362.864  54%   1.000 Cr+PCr                                              
 3.62E+04   7%  99.808 Glu+Gln                                             
    0.000 999%   0.000 Lip13a                                              
  252.632  76%   0.696 Lip13b                                              
    0.000 999%   0.000 Lip09                                               
    0.376 999% 1.0E-03 MM09                                                
    0.000 999%   0.000 Lip20                                               
    0.000 999%   0.000 MM20                                                
    0.112 999% 3.1E-04 MM12                                                
    2.047 999% 5.6E-03 MM14                                                
    3.752 725% 1.0E-02 MM17                                                
  252.632  76%   0.696 Lip13a+Lip13b                                       
  254.791  77%   0.702 MM14+Lip13a+Lip13b+MM12                             
    0.376 999% 1.0E-03 MM09+Lip09                                          
    0.000 999%   0.000 MM20+Lip20                                          
   6 lines in following misc. output table
  FWHM = 0.183 ppm    S/N =   2                                            
  Data shift =-0.076 ppm                                                   
  Ph: -73 deg       0.3 deg/ppm                                            
  alphaB,S = 9.8E-01,   1.9E+02                                            
   10 spline knots.   Ns = 9(2)                                            
  (14) 2 infls.   ( 7) 1 extrs.                                            
  498 points on ppm-axis = NY
      4.000000     3.992357     3.984714     3.977070     3.969427     3.961784     3.954141     3.946497     3.938854     3.931211
      3.923568     3.915925     3.908281     3.900638     3.892995     3.885352     3.877708     3.870065     3.862422     3.854779
      3.847136     3.839492     3.831849     3.824206     3.816563     3.808919     3.801276     3.793633     3.785990     3.778347
      3.770703     3.763060     3.755417     3.747774     3.740130     3.732487     3.724844     3.717201     3.709558     3.701914
      3.694271     3.686628     3.678985     3.671341     3.663698     3.656055     3.648412     3.640769     3.633125     3.625482
      3.617839     3.610196     3.602552     3.594909     3.587266     3.579623     3.571980     3.564336     3.556693     3.549050
      3.541407     3.533763     3.526120     3.518477     3.510834     3.503191     3.495547     3.487904     3.480261     3.472618
      3.464974     3.457331     3.449688     3.442045     3.434402     3.426758     3.419115     3.411472     3.403829     3.396185
      3.388542     3.380899     3.373256     3.365613     3.357969     3.350326     3.342683     3.335040     3.327396     3.319753
      3.312110     3.304467     3.296824     3.289180     3.281537     3.273894     3.266251     3.258607     3.250964     3.243321
      3.235678     3.228034     3.220391     3.212748     3.205105     3.197462     3.189818     3.182175     3.174532     3.166889
      3.159245     3.151602     3.143959     3.136316     3.128673     3.121029     3.113386     3.105743     3.098100     3.090456
      3.082813     3.075170     3.067527     3.059884     3.052240     3.044597     3.036954     3.029311     3.021667     3.014024
      3.006381     2.998738     2.991095     2.983451     2.975808     2.968165     2.960522     2.952878     2.945235     2.937592
      2.929949     2.922306     2.914662     2.907019     2.899376     2.891733     2.884089     2.876446     2.868803     2.861160
      2.853517     2.845873     2.838230     2.830587     2.822944     2.815300     2.807657     2.800014     2.792371     2.784728
      2.777084     2.769441     2.761798     2.754155     2.746511     2.738868     2.731225     2.723582     2.715939     2.708295
      2.700652     2.693009     2.685366     2.677722     2.670079     2.662436     2.654793     2.647150     2.639506     2.631863
      2.624220     2.616577     2.608933     2.601290     2.593647     2.586004     2.578361     2.570717     2.563074     2.555431
      2.547788     2.540144     2.532501     2.524858     2.517215     2.509572     2.501928     2.494285     2.486642     2.478999
      2.471355     2.463712     2.456069     2.448426     2.440783     2.433139     2.425496     2.417853     2.410210     2.402566
      2.394923     2.387280     2.379637     2.371994     2.364350     2.356707     2.349064     2.341421     2.333777     2.326134
      2.318491     2.310848     2.303205     2.295561     2.287918     2.280275     2.272632     2.264988     2.257345     2.249702
      2.242059     2.234416     2.226772     2.219129     2.211486     2.203843     2.196199     2.188556     2.180913     2.173270
      2.165627     2.157983     2.150340     2.142697     2.135054     2.127410     2.119767     2.112124     2.104481     2.096838
      2.089194     2.081551     2.073908     2.066265     2.058621     2.050978     2.043335     2.035692     2.028049     2.020405
      2.012762     2.005119     1.997476     1.989833     1.982190     1.974546     1.966903     1.959260     1.951617     1.943974
      1.936331     1.928688     1.921045     1.913402     1.905759     1.898115     1.890472     1.882829     1.875186     1.867543
      1.859900     1.852257     1.844614     1.836971     1.829327     1.821684     1.814041     1.806398     1.798755     1.791112
      1.783469     1.775826     1.768183     1.760540     1.752896     1.745253     1.737610     1.729967     1.722324     1.714681
      1.707038     1.699395     1.691752     1.684108     1.676465     1.668822     1.661179     1.653536     1.645893     1.638250
      1.630607     1.622964     1.615321     1.607677     1.600034     1.592391     1.584748     1.577105     1.569462     1.561819
      1.554176     1.546533     1.538890     1.531246     1.523603     1.515960     1.508317     1.500674     1.493031     1.485388
      1.477745     1.470102     1.462458     1.454815     1.447172     1.439529     1.431886     1.424243     1.416600     1.408957
      1.401314     1.393671     1.386027     1.378384     1.370741     1.363098     1.355455     1.347812     1.340169     1.332526
      1.324883     1.317240     1.309596     1.301953     1.294310     1.286667     1.279024     1.271381     1.263738     1.256095
      1.248452     1.240808     1.233165     1.225522     1.217879     1.210236     1.202593     1.194950     1.187307     1.179664
      1.172021     1.164377     1.156734     1.149091     1.141448     1.133805     1.126162     1.118519     1.110876     1.103233
      1.095590     1.087946     1.080303     1.072660     1.065017     1.057374     1.049731     1.042088     1.034445     1.026802
      1.019158     1.011515     1.003872     0.996229     0.988586     0.980943     0.973300     0.965657     0.958014     0.950371
      0.942727     0.935084     0.927441     0.919798     0.912155     0.904512     0.896869     0.889226     0.881583     0.873940
      0.866296     0.858653     0.851010     0.843367     0.835724     0.828081     0.820438     0.812795     0.805152     0.797508
      0.789865     0.782222     0.774579     0.766936     0.759293     0.751650     0.744007     0.736364     0.728721     0.721077
      0.713434     0.705791     0.698148     0.690505     0.682862     0.675219     0.667576     0.659933     0.652290     0.644646
      0.637003     0.629360     0.621717     0.614074     0.606431     0.598788     0.591145     0.583502     0.575858     0.568215
      0.560572     0.552929     0.545286     0.537643     0.530000     0.522357     0.514714     0.507071     0.499427     0.491784
      0.484141     0.476498     0.468855     0.461212     0.453569     0.445925     0.438282     0.430639     0.422996     0.415353
      0.407710     0.400067     0.392424     0.384780     0.377137     0.369494     0.361851     0.354208     0.346565     0.338922
      0.331278     0.323635     0.315992     0.308349     0.300706     0.293063     0.285420     0.277777     0.270133     0.262490
      0.254847     0.247204     0.239561     0.231918     0.224275     0.216631     0.208988     0.201345
 NY phased data points follow
  -3.65926E+02 -3.63847E+02 -3.61764E+02 -3.58724E+02 -3.46198E+02 -3.42623E+02 -3.35873E+02 -3.26925E+02 -3.24390E+02 -3.22886E+02
  -3.19030E+02 -3.16292E+02 -3.09663E+02 -3.01556E+02 -3.03078E+02 -3.05828E+02 -2.87062E+02 -2.84828E+02 -2.88785E+02 -2.78748E+02
  -2.75047E+02 -2.78105E+02 -2.71586E+02 -2.70868E+02 -2.72189E+02 -2.71185E+02 -2.67005E+02 -2.61480E+02 -2.59156E+02 -2.55035E+02
  -2.57622E+02 -2.50205E+02 -2.47363E+02 -2.44644E+02 -2.42988E+02 -2.36772E+02 -2.31398E+02 -2.33872E+02 -2.29789E+02 -2.24467E+02
  -2.26377E+02 -2.24930E+02 -2.24660E+02 -2.22713E+02 -2.29031E+02 -2.17919E+02 -2.19428E+02 -2.16850E+02 -2.12743E+02 -2.15717E+02
  -2.13428E+02 -2.15057E+02 -2.10467E+02 -2.05961E+02 -2.01906E+02 -2.04457E+02 -1.96394E+02 -2.08554E+02 -2.00544E+02 -1.99873E+02
  -1.95005E+02 -1.99322E+02 -1.95769E+02 -1.98333E+02 -1.91884E+02 -1.96848E+02 -1.87606E+02 -1.88292E+02 -1.88135E+02 -1.85115E+02
  -1.87538E+02 -1.84188E+02 -1.84160E+02 -1.77086E+02 -1.73914E+02 -1.72699E+02 -1.76637E+02 -1.78663E+02 -1.68613E+02 -1.72680E+02
  -1.71777E+02 -1.68708E+02 -1.63469E+02 -1.62545E+02 -1.58474E+02 -1.58870E+02 -1.60134E+02 -1.56520E+02 -1.58153E+02 -1.55330E+02
  -1.53198E+02 -1.47204E+02 -1.56956E+02 -1.53626E+02 -1.45098E+02 -1.48013E+02 -1.45134E+02 -1.50108E+02 -1.43070E+02 -1.45098E+02
  -1.41900E+02 -1.42005E+02 -1.43570E+02 -1.46607E+02 -1.40624E+02 -1.30972E+02 -1.40572E+02 -1.35315E+02 -1.34343E+02 -1.28314E+02
  -1.30086E+02 -1.32588E+02 -1.17007E+02 -1.22778E+02 -1.22610E+02 -1.23470E+02 -1.24407E+02 -1.32208E+02 -1.35805E+02 -1.27021E+02
  -1.30834E+02 -1.32779E+02 -1.20463E+02 -1.19333E+02 -1.22931E+02 -1.20763E+02 -1.22302E+02 -1.15616E+02 -1.18216E+02 -1.18285E+02
  -1.21052E+02 -1.19452E+02 -1.17113E+02 -1.15367E+02 -1.18707E+02 -1.09324E+02 -1.00987E+02 -1.11540E+02 -1.06650E+02 -1.16350E+02
  -1.17476E+02 -1.27569E+02 -1.27794E+02 -1.27167E+02 -1.29640E+02 -1.29149E+02 -1.28762E+02 -1.25113E+02 -1.29503E+02 -1.28424E+02
  -1.24293E+02 -1.19175E+02 -1.19878E+02 -1.22327E+02 -1.22671E+02 -1.17497E+02 -1.20573E+02 -1.15129E+02 -1.14541E+02 -1.18934E+02
  -1.14513E+02 -1.09519E+02 -1.09361E+02 -1.14410E+02 -1.10517E+02 -1.02578E+02 -1.12011E+02 -1.02991E+02 -1.01388E+02 -1.02014E+02
  -1.04782E+02 -1.05247E+02 -9.89857E+01 -1.00032E+02 -9.93760E+01 -9.58206E+01 -9.29347E+01 -9.74380E+01 -9.09856E+01 -8.44199E+01
  -9.11895E+01 -9.42639E+01 -8.85596E+01 -9.02815E+01 -9.03795E+01 -9.43546E+01 -8.75920E+01 -8.31077E+01 -8.53397E+01 -8.13299E+01
  -8.37532E+01 -8.22898E+01 -8.34261E+01 -8.10223E+01 -8.38018E+01 -8.44936E+01 -8.36424E+01 -8.19600E+01 -8.78139E+01 -7.92590E+01
  -7.87604E+01 -8.08645E+01 -8.69810E+01 -9.04649E+01 -8.92979E+01 -9.75439E+01 -9.21419E+01 -1.03999E+02 -1.11471E+02 -1.05883E+02
  -1.08233E+02 -1.07393E+02 -1.11203E+02 -1.07885E+02 -1.11268E+02 -1.06214E+02 -1.17760E+02 -1.11841E+02 -1.19603E+02 -1.12773E+02
  -1.15560E+02 -1.15198E+02 -1.18699E+02 -1.14664E+02 -1.11221E+02 -1.09969E+02 -1.10623E+02 -1.11385E+02 -1.08138E+02 -1.09026E+02
  -1.07588E+02 -1.08735E+02 -1.01893E+02 -1.05144E+02 -1.05846E+02 -9.71359E+01 -1.02393E+02 -9.97209E+01 -9.75481E+01 -1.08464E+02
  -1.05260E+02 -1.01748E+02 -9.97032E+01 -9.84923E+01 -9.66375E+01 -9.73389E+01 -9.74707E+01 -9.10909E+01 -9.22574E+01 -9.29459E+01
  -9.19380E+01 -9.42075E+01 -8.80971E+01 -8.78734E+01 -8.78445E+01 -8.01680E+01 -8.60267E+01 -7.57065E+01 -7.78171E+01 -7.49186E+01
  -7.87602E+01 -8.30422E+01 -7.41442E+01 -8.32305E+01 -7.19794E+01 -6.90348E+01 -7.17681E+01 -7.01910E+01 -6.70107E+01 -6.16343E+01
  -6.09297E+01 -7.04991E+01 -7.59965E+01 -8.59219E+01 -9.02809E+01 -9.59270E+01 -9.15130E+01 -9.74954E+01 -9.33986E+01 -9.54730E+01
  -9.36350E+01 -8.94562E+01 -8.74352E+01 -8.43033E+01 -8.57992E+01 -8.68785E+01 -8.48273E+01 -7.64710E+01 -8.20206E+01 -8.28554E+01
  -8.18659E+01 -8.35823E+01 -7.96885E+01 -7.68353E+01 -7.39000E+01 -7.45751E+01 -8.04182E+01 -7.70724E+01 -7.56928E+01 -6.90352E+01
  -7.63719E+01 -7.05604E+01 -7.38928E+01 -7.09896E+01 -7.08471E+01 -6.95122E+01 -6.76545E+01 -6.53851E+01 -6.92252E+01 -6.37178E+01
  -6.36349E+01 -6.76004E+01 -6.85672E+01 -6.99708E+01 -6.38238E+01 -6.15081E+01 -6.96859E+01 -6.63467E+01 -7.03980E+01 -6.56847E+01
  -6.37991E+01 -7.03572E+01 -6.62168E+01 -6.63726E+01 -6.08189E+01 -6.62035E+01 -6.12465E+01 -5.41701E+01 -5.66530E+01 -5.66578E+01
  -5.45244E+01 -5.39964E+01 -5.61636E+01 -5.79717E+01 -5.44227E+01 -5.50851E+01 -4.92684E+01 -5.52333E+01 -5.71247E+01 -5.41681E+01
  -5.90979E+01 -4.42731E+01 -4.85988E+01 -4.79078E+01 -4.69230E+01 -4.85102E+01 -4.58229E+01 -5.17475E+01 -4.82974E+01 -4.79426E+01
  -4.59343E+01 -4.45522E+01 -4.78560E+01 -5.01230E+01 -4.47609E+01 -4.85736E+01 -5.15672E+01 -4.78405E+01 -4.71883E+01 -5.05038E+01
  -5.12696E+01 -4.94564E+01 -6.13672E+01 -5.44729E+01 -5.80274E+01 -5.45877E+01 -5.74908E+01 -5.92849E+01 -5.83498E+01 -5.72350E+01
  -5.64734E+01 -4.95287E+01 -5.82867E+01 -5.47438E+01 -5.56382E+01 -5.48252E+01 -5.81533E+01 -5.60139E+01 -5.38961E+01 -5.40063E+01
  -4.97630E+01 -5.32706E+01 -5.22388E+01 -4.54272E+01 -5.33600E+01 -5.22628E+01 -4.82722E+01 -4.79564E+01 -4.71632E+01 -5.43596E+01
  -5.55671E+01 -5.89366E+01 -5.73130E+01 -5.82023E+01 -5.62082E+01 -5.54464E+01 -5.30665E+01 -5.58353E+01 -5.28371E+01 -5.32648E+01
  -5.77349E+01 -5.49445E+01 -5.85053E+01 -6.09374E+01 -5.15449E+01 -5.96962E+01 -5.42959E+01 -5.19785E+01 -6.07690E+01 -5.12215E+01
  -5.58405E+01 -5.25845E+01 -5.33101E+01 -5.18294E+01 -5.52394E+01 -5.18654E+01 -4.73269E+01 -5.33494E+01 -4.44224E+01 -5.27252E+01
  -4.71012E+01 -5.48844E+01 -5.37906E+01 -5.22221E+01 -4.27418E+01 -4.82803E+01 -5.05470E+01 -4.88336E+01 -5.03444E+01 -5.16414E+01
  -5.25372E+01 -5.32862E+01 -4.67767E+01 -5.29789E+01 -5.36876E+01 -5.10474E+01 -4.64823E+01 -4.93555E+01 -4.58789E+01 -4.79770E+01
  -4.60193E+01 -5.11160E+01 -4.81427E+01 -4.56468E+01 -4.66272E+01 -5.24285E+01 -4.64581E+01 -5.01072E+01 -4.55540E+01 -4.82719E+01
  -4.63932E+01 -4.90534E+01 -4.43042E+01 -5.19762E+01 -4.68071E+01 -4.63419E+01 -4.50271E+01 -3.97801E+01 -4.74199E+01 -4.33407E+01
  -4.48256E+01 -4.59865E+01 -4.73273E+01 -4.39164E+01 -4.31793E+01 -4.30372E+01 -4.60295E+01 -4.41915E+01 -4.57263E+01 -4.70190E+01
  -4.75817E+01 -4.56510E+01 -4.99423E+01 -4.64268E+01 -3.78746E+01 -4.33800E+01 -4.55726E+01 -3.70676E+01 -4.27577E+01 -3.51464E+01
  -4.58259E+01 -4.11185E+01 -3.95524E+01 -3.56621E+01 -3.67618E+01 -3.91279E+01 -4.12547E+01 -3.70951E+01 -3.79776E+01 -3.89651E+01
  -3.80625E+01 -4.07972E+01 -4.39209E+01 -3.94732E+01 -4.08558E+01 -4.15800E+01 -3.63956E+01 -3.87241E+01
 NY points of the fit to the data follow
  -3.49699E+02 -3.46442E+02 -3.44276E+02 -3.41015E+02 -3.38196E+02 -3.34466E+02 -3.30723E+02 -3.25736E+02 -3.21426E+02 -3.17160E+02
  -3.16201E+02 -3.13264E+02 -3.13733E+02 -3.10399E+02 -3.09699E+02 -3.02426E+02 -2.99444E+02 -2.91199E+02 -2.90032E+02 -2.82774E+02
  -2.84101E+02 -2.77737E+02 -2.78390E+02 -2.71689E+02 -2.72187E+02 -2.65937E+02 -2.66719E+02 -2.60892E+02 -2.60970E+02 -2.54840E+02
  -2.53708E+02 -2.48130E+02 -2.47076E+02 -2.42635E+02 -2.41641E+02 -2.38451E+02 -2.37481E+02 -2.35102E+02 -2.33417E+02 -2.31484E+02
  -2.29172E+02 -2.27283E+02 -2.24670E+02 -2.23513E+02 -2.21377E+02 -2.21077E+02 -2.18934E+02 -2.18444E+02 -2.15502E+02 -2.14823E+02
  -2.12460E+02 -2.12124E+02 -2.10580E+02 -2.10622E+02 -2.09030E+02 -2.08173E+02 -2.05634E+02 -2.04385E+02 -2.02075E+02 -2.01024E+02
  -1.99404E+02 -1.98634E+02 -1.96839E+02 -1.95859E+02 -1.93899E+02 -1.92841E+02 -1.90866E+02 -1.89806E+02 -1.87796E+02 -1.86779E+02
  -1.84790E+02 -1.83959E+02 -1.82099E+02 -1.81359E+02 -1.79536E+02 -1.78814E+02 -1.76993E+02 -1.76305E+02 -1.74459E+02 -1.73806E+02
  -1.72090E+02 -1.71425E+02 -1.69798E+02 -1.69043E+02 -1.67242E+02 -1.65406E+02 -1.63152E+02 -1.61586E+02 -1.59311E+02 -1.58032E+02
  -1.55717E+02 -1.54511E+02 -1.52156E+02 -1.51131E+02 -1.48767E+02 -1.48012E+02 -1.45722E+02 -1.45085E+02 -1.42840E+02 -1.42374E+02
  -1.40226E+02 -1.39951E+02 -1.37959E+02 -1.37914E+02 -1.36126E+02 -1.36301E+02 -1.34718E+02 -1.34913E+02 -1.33366E+02 -1.33140E+02
  -1.31585E+02 -1.31454E+02 -1.30039E+02 -1.30067E+02 -1.28821E+02 -1.28831E+02 -1.27686E+02 -1.27589E+02 -1.26486E+02 -1.26286E+02
  -1.25253E+02 -1.25023E+02 -1.24085E+02 -1.23908E+02 -1.23035E+02 -1.22570E+02 -1.21651E+02 -1.21266E+02 -1.20407E+02 -1.20145E+02
  -1.19373E+02 -1.19179E+02 -1.18480E+02 -1.18332E+02 -1.17695E+02 -1.17560E+02 -1.16986E+02 -1.16897E+02 -1.16392E+02 -1.16313E+02
  -1.15855E+02 -1.15725E+02 -1.15304E+02 -1.15113E+02 -1.14712E+02 -1.14501E+02 -1.14131E+02 -1.13907E+02 -1.13549E+02 -1.13151E+02
  -1.12771E+02 -1.12367E+02 -1.12005E+02 -1.11606E+02 -1.11272E+02 -1.10876E+02 -1.10564E+02 -1.10170E+02 -1.09896E+02 -1.09517E+02
  -1.09251E+02 -1.08886E+02 -1.08637E+02 -1.08310E+02 -1.08070E+02 -1.07757E+02 -1.07502E+02 -1.07198E+02 -1.06956E+02 -1.06692E+02
  -1.06424E+02 -1.06151E+02 -1.05849E+02 -1.05574E+02 -1.05259E+02 -1.04995E+02 -1.04639E+02 -1.04361E+02 -1.03954E+02 -1.03619E+02
  -1.03131E+02 -1.02682E+02 -1.02131E+02 -1.01573E+02 -1.00897E+02 -1.00108E+02 -9.91142E+01 -9.78479E+01 -9.64050E+01 -9.58078E+01
  -9.48206E+01 -9.45858E+01 -9.58900E+01 -9.57850E+01 -9.79204E+01 -9.66922E+01 -9.70106E+01 -9.20429E+01 -8.64208E+01 -8.17877E+01
  -7.80095E+01 -7.61254E+01 -7.53076E+01 -7.77680E+01 -8.28339E+01 -8.95222E+01 -9.34394E+01 -9.78961E+01 -1.00786E+02 -1.03129E+02
  -1.05044E+02 -1.06508E+02 -1.07693E+02 -1.08923E+02 -1.10089E+02 -1.10934E+02 -1.12679E+02 -1.13156E+02 -1.14848E+02 -1.14112E+02
  -1.15225E+02 -1.13226E+02 -1.14361E+02 -1.12014E+02 -1.12796E+02 -1.11401E+02 -1.11496E+02 -1.09414E+02 -1.08430E+02 -1.06625E+02
  -1.03783E+02 -1.02405E+02 -9.94946E+01 -9.97132E+01 -9.71474E+01 -9.77726E+01 -9.49729E+01 -9.57581E+01 -9.15977E+01 -9.34705E+01
  -9.07032E+01 -9.29085E+01 -8.92735E+01 -9.09828E+01 -8.88965E+01 -9.10976E+01 -8.88117E+01 -9.04727E+01 -8.89186E+01 -8.90495E+01
  -8.79448E+01 -8.68914E+01 -8.64056E+01 -8.47455E+01 -8.54783E+01 -8.29982E+01 -8.43314E+01 -8.11656E+01 -8.29300E+01 -7.93727E+01
  -8.13493E+01 -7.73475E+01 -7.98654E+01 -7.62073E+01 -7.91543E+01 -7.63011E+01 -7.93058E+01 -7.66462E+01 -7.91977E+01 -7.68388E+01
  -7.87735E+01 -7.68911E+01 -7.88572E+01 -7.79314E+01 -7.98419E+01 -7.91827E+01 -8.05555E+01 -8.00476E+01 -8.08790E+01 -8.07030E+01
  -8.15712E+01 -8.16713E+01 -8.20496E+01 -8.20259E+01 -8.21906E+01 -8.21504E+01 -8.20226E+01 -8.21585E+01 -8.20299E+01 -8.20699E+01
  -8.18651E+01 -8.18366E+01 -8.16013E+01 -8.15638E+01 -8.13878E+01 -8.12244E+01 -8.08950E+01 -8.05627E+01 -8.01037E+01 -7.96121E+01
  -7.90063E+01 -7.83345E+01 -7.75903E+01 -7.67295E+01 -7.57183E+01 -7.44955E+01 -7.29546E+01 -7.08716E+01 -6.76461E+01 -6.30344E+01
  -6.27377E+01 -6.08743E+01 -6.23816E+01 -6.21510E+01 -6.47660E+01 -6.58361E+01 -7.01771E+01 -6.85749E+01 -6.97496E+01 -6.82809E+01
  -6.80872E+01 -6.72089E+01 -6.66065E+01 -6.61128E+01 -6.45556E+01 -6.44725E+01 -6.19902E+01 -6.23809E+01 -5.85525E+01 -5.77430E+01
  -5.46960E+01 -5.56863E+01 -5.30232E+01 -5.51671E+01 -5.26467E+01 -5.57763E+01 -5.38444E+01 -5.50600E+01 -5.29104E+01 -5.36166E+01
  -5.15314E+01 -5.15789E+01 -5.01564E+01 -4.93624E+01 -4.86693E+01 -4.79402E+01 -4.82299E+01 -4.77592E+01 -4.83948E+01 -4.66697E+01
  -4.81702E+01 -4.62790E+01 -4.80318E+01 -4.62421E+01 -4.83992E+01 -4.73740E+01 -5.04816E+01 -4.93514E+01 -5.17741E+01 -5.08748E+01
  -5.27714E+01 -5.19372E+01 -5.33788E+01 -5.25101E+01 -5.36666E+01 -5.32879E+01 -5.41899E+01 -5.42660E+01 -5.45613E+01 -5.42572E+01
  -5.46639E+01 -5.46305E+01 -5.49808E+01 -5.52354E+01 -5.56064E+01 -5.63809E+01 -5.67233E+01 -5.68600E+01 -5.69026E+01 -5.68879E+01
  -5.68380E+01 -5.67612E+01 -5.66674E+01 -5.65586E+01 -5.64405E+01 -5.63130E+01 -5.61806E+01 -5.60423E+01 -5.59018E+01 -5.57572E+01
  -5.56118E+01 -5.54636E+01 -5.53157E+01 -5.51659E+01 -5.50171E+01 -5.48669E+01 -5.47179E+01 -5.45679E+01 -5.44196E+01 -5.42705E+01
  -5.41233E+01 -5.39754E+01 -5.38293E+01 -5.36825E+01 -5.35378E+01 -5.33925E+01 -5.32491E+01 -5.31049E+01 -5.29626E+01 -5.28195E+01
  -5.26783E+01 -5.25363E+01 -5.23959E+01 -5.22545E+01 -5.21146E+01 -5.19736E+01 -5.18341E+01 -5.16933E+01 -5.15538E+01 -5.14128E+01
  -5.12729E+01 -5.11315E+01 -5.09912E+01 -5.08490E+01 -5.07076E+01 -5.05643E+01 -5.04217E+01 -5.02770E+01 -5.01330E+01 -4.99868E+01
  -4.98412E+01 -4.96935E+01 -4.95466E+01 -4.93976E+01 -4.92493E+01 -4.90990E+01 -4.89493E+01 -4.87977E+01 -4.86468E+01 -4.84939E+01
  -4.83417E+01 -4.81875E+01 -4.80341E+01 -4.78786E+01 -4.77240E+01 -4.75673E+01 -4.74115E+01 -4.72536E+01 -4.70965E+01 -4.69375E+01
  -4.67793E+01 -4.66190E+01 -4.64596E+01 -4.62981E+01 -4.61375E+01 -4.59749E+01 -4.58132E+01 -4.56494E+01 -4.54864E+01 -4.53213E+01
  -4.51571E+01 -4.49909E+01 -4.48255E+01 -4.46580E+01 -4.44912E+01 -4.43224E+01 -4.41544E+01 -4.39843E+01 -4.38150E+01 -4.36434E+01
  -4.34726E+01 -4.32997E+01 -4.31274E+01 -4.29529E+01 -4.27791E+01 -4.26029E+01 -4.24273E+01 -4.22495E+01 -4.20721E+01 -4.18923E+01
  -4.17128E+01 -4.15309E+01 -4.13492E+01 -4.11648E+01 -4.09806E+01 -4.07935E+01 -4.06062E+01 -4.04159E+01 -4.02251E+01 -4.00308E+01
  -3.98357E+01 -3.96366E+01 -3.94359E+01 -3.92304E+01 -3.90224E+01 -3.88082E+01 -3.85898E+01 -3.83628E+01
 NY background values follow
    -3.586E+02   -3.559E+02   -3.532E+02   -3.505E+02   -3.477E+02   -3.450E+02   -3.423E+02   -3.396E+02   -3.370E+02   -3.343E+02
    -3.316E+02   -3.289E+02   -3.262E+02   -3.236E+02   -3.209E+02   -3.183E+02   -3.156E+02   -3.130E+02   -3.104E+02   -3.077E+02
    -3.051E+02   -3.025E+02   -2.999E+02   -2.973E+02   -2.948E+02   -2.922E+02   -2.896E+02   -2.871E+02   -2.846E+02   -2.820E+02
    -2.795E+02   -2.770E+02   -2.745E+02   -2.721E+02   -2.696E+02   -2.671E+02   -2.647E+02   -2.623E+02   -2.599E+02   -2.575E+02
    -2.551E+02   -2.527E+02   -2.503E+02   -2.480E+02   -2.457E+02   -2.434E+02   -2.411E+02   -2.388E+02   -2.365E+02   -2.343E+02
    -2.320E+02   -2.298E+02   -2.276E+02   -2.255E+02   -2.233E+02   -2.212E+02   -2.190E+02   -2.169E+02   -2.149E+02   -2.128E+02
    -2.107E+02   -2.087E+02   -2.067E+02   -2.047E+02   -2.028E+02   -2.008E+02   -1.989E+02   -1.970E+02   -1.951E+02   -1.933E+02
    -1.915E+02   -1.897E+02   -1.879E+02   -1.861E+02   -1.844E+02   -1.827E+02   -1.810E+02   -1.793E+02   -1.777E+02   -1.760E+02
    -1.744E+02   -1.729E+02   -1.713E+02   -1.698E+02   -1.683E+02   -1.668E+02   -1.653E+02   -1.638E+02   -1.624E+02   -1.610E+02
    -1.596E+02   -1.583E+02   -1.569E+02   -1.556E+02   -1.543E+02   -1.530E+02   -1.517E+02   -1.505E+02   -1.492E+02   -1.480E+02
    -1.468E+02   -1.457E+02   -1.445E+02   -1.434E+02   -1.423E+02   -1.412E+02   -1.401E+02   -1.390E+02   -1.380E+02   -1.370E+02
    -1.360E+02   -1.350E+02   -1.340E+02   -1.330E+02   -1.321E+02   -1.312E+02   -1.303E+02   -1.294E+02   -1.285E+02   -1.276E+02
    -1.268E+02   -1.260E+02   -1.252E+02   -1.244E+02   -1.236E+02   -1.228E+02   -1.221E+02   -1.213E+02   -1.206E+02   -1.199E+02
    -1.192E+02   -1.185E+02   -1.179E+02   -1.172E+02   -1.166E+02   -1.159E+02   -1.153E+02   -1.147E+02   -1.142E+02   -1.136E+02
    -1.130E+02   -1.125E+02   -1.119E+02   -1.114E+02   -1.109E+02   -1.104E+02   -1.099E+02   -1.095E+02   -1.090E+02   -1.085E+02
    -1.081E+02   -1.077E+02   -1.073E+02   -1.069E+02   -1.065E+02   -1.061E+02   -1.057E+02   -1.053E+02   -1.050E+02   -1.047E+02
    -1.043E+02   -1.040E+02   -1.037E+02   -1.034E+02   -1.031E+02   -1.028E+02   -1.025E+02   -1.023E+02   -1.020E+02   -1.018E+02
    -1.015E+02   -1.013E+02   -1.011E+02   -1.009E+02   -1.007E+02   -1.005E+02   -1.003E+02   -1.001E+02   -9.996E+01   -9.980E+01
    -9.965E+01   -9.950E+01   -9.937E+01   -9.923E+01   -9.911E+01   -9.899E+01   -9.889E+01   -9.878E+01   -9.869E+01   -9.860E+01
    -9.851E+01   -9.844E+01   -9.837E+01   -9.830E+01   -9.825E+01   -9.819E+01   -9.815E+01   -9.811E+01   -9.807E+01   -9.804E+01
    -9.802E+01   -9.800E+01   -9.799E+01   -9.798E+01   -9.797E+01   -9.797E+01   -9.798E+01   -9.799E+01   -9.800E+01   -9.802E+01
    -9.804E+01   -9.806E+01   -9.809E+01   -9.813E+01   -9.816E+01   -9.820E+01   -9.825E+01   -9.829E+01   -9.834E+01   -9.839E+01
    -9.845E+01   -9.850E+01   -9.856E+01   -9.862E+01   -9.868E+01   -9.874E+01   -9.881E+01   -9.887E+01   -9.894E+01   -9.900E+01
    -9.907E+01   -9.913E+01   -9.920E+01   -9.926E+01   -9.933E+01   -9.939E+01   -9.945E+01   -9.951E+01   -9.957E+01   -9.963E+01
    -9.969E+01   -9.974E+01   -9.979E+01   -9.984E+01   -9.989E+01   -9.993E+01   -9.997E+01   -1.000E+02   -1.000E+02   -1.001E+02
    -1.001E+02   -1.001E+02   -1.001E+02   -1.002E+02   -1.002E+02   -1.002E+02   -1.002E+02   -1.002E+02   -1.001E+02   -1.001E+02
    -1.001E+02   -1.001E+02   -1.000E+02   -9.999E+01   -9.994E+01   -9.988E+01   -9.981E+01   -9.974E+01   -9.966E+01   -9.957E+01
    -9.947E+01   -9.937E+01   -9.926E+01   -9.913E+01   -9.900E+01   -9.886E+01   -9.871E+01   -9.855E+01   -9.839E+01   -9.821E+01
    -9.802E+01   -9.782E+01   -9.761E+01   -9.739E+01   -9.716E+01   -9.691E+01   -9.666E+01   -9.640E+01   -9.612E+01   -9.584E+01
    -9.554E+01   -9.524E+01   -9.492E+01   -9.460E+01   -9.427E+01   -9.393E+01   -9.358E+01   -9.322E+01   -9.286E+01   -9.249E+01
    -9.211E+01   -9.172E+01   -9.132E+01   -9.092E+01   -9.052E+01   -9.010E+01   -8.969E+01   -8.926E+01   -8.883E+01   -8.840E+01
    -8.796E+01   -8.751E+01   -8.707E+01   -8.661E+01   -8.616E+01   -8.570E+01   -8.524E+01   -8.477E+01   -8.430E+01   -8.383E+01
    -8.336E+01   -8.288E+01   -8.240E+01   -8.193E+01   -8.145E+01   -8.097E+01   -8.048E+01   -8.000E+01   -7.952E+01   -7.904E+01
    -7.856E+01   -7.808E+01   -7.760E+01   -7.712E+01   -7.664E+01   -7.616E+01   -7.569E+01   -7.521E+01   -7.474E+01   -7.428E+01
    -7.381E+01   -7.335E+01   -7.289E+01   -7.244E+01   -7.199E+01   -7.154E+01   -7.110E+01   -7.066E+01   -7.023E+01   -6.980E+01
    -6.938E+01   -6.896E+01   -6.855E+01   -6.815E+01   -6.775E+01   -6.736E+01   -6.697E+01   -6.659E+01   -6.622E+01   -6.586E+01
    -6.550E+01   -6.515E+01   -6.480E+01   -6.446E+01   -6.413E+01   -6.380E+01   -6.348E+01   -6.316E+01   -6.285E+01   -6.255E+01
    -6.225E+01   -6.195E+01   -6.167E+01   -6.138E+01   -6.110E+01   -6.083E+01   -6.056E+01   -6.030E+01   -6.004E+01   -5.978E+01
    -5.953E+01   -5.929E+01   -5.905E+01   -5.881E+01   -5.858E+01   -5.835E+01   -5.812E+01   -5.790E+01   -5.768E+01   -5.746E+01
    -5.725E+01   -5.704E+01   -5.684E+01   -5.664E+01   -5.644E+01   -5.624E+01   -5.605E+01   -5.586E+01   -5.567E+01   -5.548E+01
    -5.530E+01   -5.512E+01   -5.494E+01   -5.476E+01   -5.459E+01   -5.442E+01   -5.424E+01   -5.407E+01   -5.391E+01   -5.374E+01
    -5.357E+01   -5.341E+01   -5.325E+01   -5.309E+01   -5.293E+01   -5.277E+01   -5.261E+01   -5.245E+01   -5.229E+01   -5.213E+01
    -5.198E+01   -5.182E+01   -5.166E+01   -5.151E+01   -5.135E+01   -5.119E+01   -5.103E+01   -5.088E+01   -5.072E+01   -5.056E+01
    -5.040E+01   -5.024E+01   -5.008E+01   -4.992E+01   -4.976E+01   -4.960E+01   -4.944E+01   -4.928E+01   -4.912E+01   -4.896E+01
    -4.879E+01   -4.863E+01   -4.847E+01   -4.831E+01   -4.814E+01   -4.798E+01   -4.781E+01   -4.765E+01   -4.748E+01   -4.732E+01
    -4.715E+01   -4.699E+01   -4.682E+01   -4.665E+01   -4.649E+01   -4.632E+01   -4.615E+01   -4.598E+01   -4.581E+01   -4.565E+01
    -4.548E+01   -4.531E+01   -4.514E+01   -4.497E+01   -4.480E+01   -4.463E+01   -4.446E+01   -4.428E+01   -4.411E+01   -4.394E+01
    -4.377E+01   -4.360E+01   -4.342E+01   -4.325E+01   -4.308E+01   -4.290E+01   -4.273E+01   -4.255E+01   -4.238E+01   -4.220E+01
    -4.203E+01   -4.185E+01   -4.168E+01   -4.150E+01   -4.132E+01   -4.115E+01   -4.097E+01   -4.079E+01   -4.061E+01   -4.044E+01
    -4.026E+01   -4.008E+01   -3.990E+01   -3.972E+01   -3.954E+01   -3.936E+01   -3.918E+01   -3.900E+01
 Ala      Conc. = 7.58E+03
