 LCModel (Version 6.3-1L) Copyright: S.W. Provencher.          Ref.: Magn. Reson. Med. 30:672-679 (1993).                
 Slice#3 Row#3 Col#11  PD_05_press_2_raw_act
 36 lines in following concentration table = NCONC+1
    Conc.  %SD /Cr+PCr  Metabolite                                         
 4.01E+03  24%  14.368 Ala                                                 
   57.751 101%   0.207 Asp                                                 
    0.000 999%   0.000 Cr                                                  
  278.806  47%   1.000 PCr                                                 
   44.136  79%   0.158 GABA                                                
   35.848  98%   0.129 Glc                                                 
    0.000 999%   0.000 Gln                                                 
    0.000 999%   0.000 Glu                                                 
    0.000 999%   0.000 GPC                                                 
   76.991  56%   0.276 PCh                                                 
    0.000 999%   0.000 GSH                                                 
    0.000 999%   0.000 Ins                                                 
  954.859  91%   3.425 Lac                                                 
  906.861  16%   3.253 NAA                                                 
    0.000 999%   0.000 NAAG                                                
   16.573  69% 5.9E-02 Scyllo                                              
   62.557  92%   0.224 Tau                                                 
  190.895  60%   0.685 -CrCH2                                              
   76.991  56%   0.276 GPC+PCh                                             
  906.861  16%   3.253 NAA+NAAG                                            
  278.806  47%   1.000 Cr+PCr                                              
    0.000 999%   0.000 Glu+Gln                                             
    0.000 999%   0.000 Lip13a                                              
  489.882  66%   1.757 Lip13b                                              
  130.060  68%   0.466 Lip09                                               
   69.455 264%   0.249 MM09                                                
   74.689  67%   0.268 Lip20                                               
  104.315 264%   0.374 MM20                                                
   20.840 264% 7.5E-02 MM12                                                
   52.045 265%   0.187 MM14                                                
   25.882 266% 9.3E-02 MM17                                                
  489.882  66%   1.757 Lip13a+Lip13b                                       
  562.766  58%   2.018 MM14+Lip13a+Lip13b+MM12                             
  199.515  89%   0.716 MM09+Lip09                                          
  179.004 148%   0.642 MM20+Lip20                                          
   6 lines in following misc. output table
  FWHM = 0.199 ppm    S/N =   1                                            
  Data shift = 0.115 ppm                                                   
  Ph: -58 deg     -38.9 deg/ppm                                            
  alphaB,S = 8.5E+01,   4.1E+02                                            
   10 spline knots.   Ns = 9(2)                                            
   2 inflections.     1 extrema                                            
  498 points on ppm-axis = NY
      4.000000     3.992357     3.984714     3.977070     3.969427     3.961784     3.954141     3.946497     3.938854     3.931211
      3.923568     3.915925     3.908281     3.900638     3.892995     3.885352     3.877708     3.870065     3.862422     3.854779
      3.847136     3.839492     3.831849     3.824206     3.816563     3.808919     3.801276     3.793633     3.785990     3.778347
      3.770703     3.763060     3.755417     3.747774     3.740130     3.732487     3.724844     3.717201     3.709558     3.701914
      3.694271     3.686628     3.678985     3.671341     3.663698     3.656055     3.648412     3.640769     3.633125     3.625482
      3.617839     3.610196     3.602552     3.594909     3.587266     3.579623     3.571980     3.564336     3.556693     3.549050
      3.541407     3.533763     3.526120     3.518477     3.510834     3.503191     3.495547     3.487904     3.480261     3.472618
      3.464974     3.457331     3.449688     3.442045     3.434402     3.426758     3.419115     3.411472     3.403829     3.396185
      3.388542     3.380899     3.373256     3.365613     3.357969     3.350326     3.342683     3.335040     3.327396     3.319753
      3.312110     3.304467     3.296824     3.289180     3.281537     3.273894     3.266251     3.258607     3.250964     3.243321
      3.235678     3.228034     3.220391     3.212748     3.205105     3.197462     3.189818     3.182175     3.174532     3.166889
      3.159245     3.151602     3.143959     3.136316     3.128673     3.121029     3.113386     3.105743     3.098100     3.090456
      3.082813     3.075170     3.067527     3.059884     3.052240     3.044597     3.036954     3.029311     3.021667     3.014024
      3.006381     2.998738     2.991095     2.983451     2.975808     2.968165     2.960522     2.952878     2.945235     2.937592
      2.929949     2.922306     2.914662     2.907019     2.899376     2.891733     2.884089     2.876446     2.868803     2.861160
      2.853517     2.845873     2.838230     2.830587     2.822944     2.815300     2.807657     2.800014     2.792371     2.784728
      2.777084     2.769441     2.761798     2.754155     2.746511     2.738868     2.731225     2.723582     2.715939     2.708295
      2.700652     2.693009     2.685366     2.677722     2.670079     2.662436     2.654793     2.647150     2.639506     2.631863
      2.624220     2.616577     2.608933     2.601290     2.593647     2.586004     2.578361     2.570717     2.563074     2.555431
      2.547788     2.540144     2.532501     2.524858     2.517215     2.509572     2.501928     2.494285     2.486642     2.478999
      2.471355     2.463712     2.456069     2.448426     2.440783     2.433139     2.425496     2.417853     2.410210     2.402566
      2.394923     2.387280     2.379637     2.371994     2.364350     2.356707     2.349064     2.341421     2.333777     2.326134
      2.318491     2.310848     2.303205     2.295561     2.287918     2.280275     2.272632     2.264988     2.257345     2.249702
      2.242059     2.234416     2.226772     2.219129     2.211486     2.203843     2.196199     2.188556     2.180913     2.173270
      2.165627     2.157983     2.150340     2.142697     2.135054     2.127410     2.119767     2.112124     2.104481     2.096838
      2.089194     2.081551     2.073908     2.066265     2.058621     2.050978     2.043335     2.035692     2.028049     2.020405
      2.012762     2.005119     1.997476     1.989833     1.982190     1.974546     1.966903     1.959260     1.951617     1.943974
      1.936331     1.928688     1.921045     1.913402     1.905759     1.898115     1.890472     1.882829     1.875186     1.867543
      1.859900     1.852257     1.844614     1.836971     1.829327     1.821684     1.814041     1.806398     1.798755     1.791112
      1.783469     1.775826     1.768183     1.760540     1.752896     1.745253     1.737610     1.729967     1.722324     1.714681
      1.707038     1.699395     1.691752     1.684108     1.676465     1.668822     1.661179     1.653536     1.645893     1.638250
      1.630607     1.622964     1.615321     1.607677     1.600034     1.592391     1.584748     1.577105     1.569462     1.561819
      1.554176     1.546533     1.538890     1.531246     1.523603     1.515960     1.508317     1.500674     1.493031     1.485388
      1.477745     1.470102     1.462458     1.454815     1.447172     1.439529     1.431886     1.424243     1.416600     1.408957
      1.401314     1.393671     1.386027     1.378384     1.370741     1.363098     1.355455     1.347812     1.340169     1.332526
      1.324883     1.317240     1.309596     1.301953     1.294310     1.286667     1.279024     1.271381     1.263738     1.256095
      1.248452     1.240808     1.233165     1.225522     1.217879     1.210236     1.202593     1.194950     1.187307     1.179664
      1.172021     1.164377     1.156734     1.149091     1.141448     1.133805     1.126162     1.118519     1.110876     1.103233
      1.095590     1.087946     1.080303     1.072660     1.065017     1.057374     1.049731     1.042088     1.034445     1.026802
      1.019158     1.011515     1.003872     0.996229     0.988586     0.980943     0.973300     0.965657     0.958014     0.950371
      0.942727     0.935084     0.927441     0.919798     0.912155     0.904512     0.896869     0.889226     0.881583     0.873940
      0.866296     0.858653     0.851010     0.843367     0.835724     0.828081     0.820438     0.812795     0.805152     0.797508
      0.789865     0.782222     0.774579     0.766936     0.759293     0.751650     0.744007     0.736364     0.728721     0.721077
      0.713434     0.705791     0.698148     0.690505     0.682862     0.675219     0.667576     0.659933     0.652290     0.644646
      0.637003     0.629360     0.621717     0.614074     0.606431     0.598788     0.591145     0.583502     0.575858     0.568215
      0.560572     0.552929     0.545286     0.537643     0.530000     0.522357     0.514714     0.507071     0.499427     0.491784
      0.484141     0.476498     0.468855     0.461212     0.453569     0.445925     0.438282     0.430639     0.422996     0.415353
      0.407710     0.400067     0.392424     0.384780     0.377137     0.369494     0.361851     0.354208     0.346565     0.338922
      0.331278     0.323635     0.315992     0.308349     0.300706     0.293063     0.285420     0.277777     0.270133     0.262490
      0.254847     0.247204     0.239561     0.231918     0.224275     0.216631     0.208988     0.201345
 NY phased data points follow
  -7.62463E+00 -7.82962E+00 -5.98970E+00  6.49684E+00  4.98834E+00  1.27190E+00  2.96914E+00 -1.06863E+01 -1.71497E+00 -1.08248E+01
   5.70608E+00 -5.50870E+00 -8.81486E+00  4.15448E+00 -1.09253E-01 -7.48124E+00  5.31682E+00 -6.56267E-01 -7.50612E+00 -1.56850E+00
   7.51558E+00 -3.06832E+00 -4.66815E-01  1.00624E+00 -7.98583E+00 -1.18711E+01 -1.17881E+01 -2.21863E+00 -3.94566E+00 -6.99644E+00
  -6.89902E+00 -4.16381E+00  9.57912E-01 -3.20879E+00  2.28111E+00  2.32259E-01  6.07861E-01 -7.23927E-01 -2.85873E+00 -1.31812E+00
  -5.08648E+00 -8.15654E+00  4.18274E+00 -1.27449E+00  5.63675E+00  3.14894E+00 -7.21602E+00  4.93405E+00  2.76359E-01  5.01870E-01
  -3.05383E+00  3.58099E+00 -3.32336E+00  3.12954E-01 -3.00381E+00 -4.87000E+00 -4.01551E+00 -1.15577E+01  8.03419E-01 -1.19327E+01
  -7.38843E-01 -4.04120E+00 -1.45697E+00 -3.37546E+00  3.19263E+00 -1.15843E+01 -8.48604E+00 -6.31605E+00  1.08879E+00 -1.63456E+00
  -4.08212E+00  6.72495E+00 -1.14062E-01 -3.69019E+00 -6.07617E+00 -5.64046E+00 -4.81814E+00 -4.44903E+00 -3.38658E+00 -2.10227E+00
   1.40154E+01 -1.52687E+01  5.31819E+00 -1.81738E+00 -5.43716E+00  2.38613E+00  7.91571E+00 -2.41782E-01  3.21974E+00 -1.29442E+00
   7.45648E+00  1.17040E+01 -5.72830E-01  1.26250E+00  1.11593E+01  2.80020E+00  4.88867E+00  1.70745E+00  8.62431E+00  2.25046E+00
   4.19822E-01  2.59717E+00 -4.35162E+00 -6.06419E+00  4.75248E+00 -5.11269E+00  2.66614E-01  3.61596E+00 -2.22186E+00  4.75963E+00
  -2.39963E+00 -4.24645E+00 -3.14218E+00  5.55729E+00 -3.50709E+00 -1.56716E+00  2.41432E+00 -1.28570E+00  2.01193E+00  7.14369E+00
   9.48335E+00  2.12047E+00 -3.20420E-01  5.82323E+00  6.62661E+00  1.80659E+00  1.89163E+00  1.42401E+00  2.31191E+00 -4.43994E+00
  -4.03585E+00  1.01777E+01  1.49347E+00  6.71105E+00  9.18352E+00  3.18445E+00  1.38805E+00 -4.12584E+00 -2.96163E+00  1.80083E+00
   4.46893E+00  2.46829E+00  5.53418E+00  3.45819E+00  7.67755E-01  4.20397E+00 -1.31778E+00  6.55109E-01 -6.13173E+00  5.43354E+00
   1.01003E+01 -2.55788E+00 -4.07778E+00  1.73223E+00  2.78454E+00  2.38178E+00 -2.50999E+00  2.37251E+00  6.04425E+00  8.24246E-01
   5.96159E+00 -4.81875E-01  1.91664E+00  1.05866E+00  8.42862E+00 -2.17270E+00  6.75653E-01  8.98189E+00 -2.32973E-01  2.04541E+00
   1.08232E+00 -6.58701E+00  4.58989E+00 -7.62948E+00  9.04331E-01  5.47569E-01  2.74841E+00  4.70929E-01 -1.51004E+00  1.60592E+00
   6.95074E-01  7.90741E+00  3.78143E+00  1.07677E+00  4.64660E+00 -6.51724E+00 -1.32292E+01  8.97978E-01 -4.59511E+00  6.31638E+00
   1.28825E-01 -1.36645E+00 -1.25568E-01 -1.38234E+01  2.86911E+00  1.32737E+00 -5.59542E+00  9.11834E+00 -4.75780E+00 -1.43617E+00
  -2.14820E+00 -2.26117E-01  1.40864E+00  6.32697E+00  2.90559E+00  1.33977E+01  1.29582E+00  1.49196E+00 -8.66692E-01 -4.95347E+00
  -7.34647E+00 -6.56608E+00 -1.12629E+01 -5.72237E-01 -4.76374E-01 -9.52494E+00  6.29244E-01 -5.28786E+00 -3.11266E+00  7.24765E-01
  -2.27697E+00 -6.53418E+00  6.49498E-01 -2.21605E+00 -3.79725E+00 -2.18581E+00 -7.67587E-01 -7.26893E+00 -5.55776E-01  2.94459E+00
  -2.06298E+00 -1.86953E+00 -1.15913E+01  6.28545E-01  5.55323E+00  1.50905E+00  4.70555E+00 -3.29538E+00 -2.04566E+00 -2.33097E+00
  -1.46094E+00  1.53560E+01  1.05210E-01 -1.97199E+00 -5.72136E+00 -7.71546E-01 -9.43605E-01  2.11659E+00  1.14280E+00  1.26403E+01
   6.13700E+00  1.78433E+01  1.13501E+01  2.47697E+00  1.35678E+01  1.29035E+01  1.02780E+01  8.91851E+00 -1.40956E+00  1.10979E+01
   1.13443E+01  1.44229E+01  1.10148E+01 -4.77636E-01 -2.82170E+00  2.35556E+00  1.62439E+00  8.23914E+00  5.86249E+00  1.62337E+00
   1.42049E+01  3.19692E+00  7.88167E+00  4.58887E+00  5.70955E+00  5.86117E+00  2.75536E+00 -4.16144E+00 -5.20097E+00 -4.67340E+00
  -9.43951E-01 -4.20069E+00  4.63935E+00 -8.63427E+00  1.91784E+00 -6.72269E+00 -1.19585E+00 -7.04859E+00  3.24063E+00 -6.88834E+00
  -3.73118E+00 -6.35167E+00 -8.03129E+00 -9.66322E+00  1.53521E+00 -3.79416E+00 -5.99481E+00 -5.32910E+00  1.78440E-01  2.73649E+00
  -4.32119E+00 -2.49602E+00 -2.04679E+01 -1.58829E+00 -1.31803E+01 -7.92923E+00 -4.61929E+00  1.94919E+00  7.62426E+00  1.78800E+01
   5.23457E+00  7.70670E+00  7.14218E+00  7.88729E+00  1.08370E+01  5.93226E+00  5.35869E+00  4.32516E+00  4.79777E+00  5.53361E+00
   1.17019E+00 -1.04551E+00  1.26037E+00  4.05166E+00 -2.31119E+00  3.58366E+00  3.10041E+00  4.31311E+00 -1.23454E+00  9.94802E+00
   1.20872E+01  6.48533E+00  1.19302E+01  1.30791E+01 -3.95140E+00  4.93402E+00 -2.75386E-01  9.80752E+00 -1.77820E+00 -6.94393E+00
   2.15202E+00  1.21520E+00  3.91843E+00 -2.79258E+00 -2.50945E+00  1.01459E+01  5.57409E+00  1.28415E+01  5.25920E+00  2.30002E+00
   1.56383E+01  8.33578E+00  7.38754E+00  1.29285E+01  9.57599E+00  7.94932E+00  8.54683E+00  1.14953E+01  6.65555E+00  3.82971E-01
   7.90792E+00  3.38989E+00  1.20983E+01  9.46551E-01  6.25340E+00  2.93585E+00  1.57788E+00 -4.54531E+00 -2.66268E+00  4.45606E+00
  -4.68662E+00  5.02144E+00 -3.73939E+00  4.48785E+00  2.88676E+00 -3.89102E+00 -3.36354E+00  5.61643E+00  1.00041E+00  3.93654E+00
  -6.67597E+00  6.26752E+00 -5.75605E-02 -5.47572E+00 -7.66620E+00 -4.17319E-01 -3.17520E-01 -5.38357E+00  2.19589E-01 -5.12878E+00
   8.34472E+00  2.58373E+00  2.23484E+00 -9.88075E+00  1.01536E+00 -4.71963E+00  7.09136E-01  8.89410E-01 -9.21637E+00 -7.10284E+00
  -3.01831E+00 -3.45959E+00 -7.97709E+00  4.76998E+00 -4.13476E+00 -2.00855E-01 -8.21147E+00 -7.28657E+00  2.09986E+00  2.91642E+00
  -6.17943E+00  2.81163E+00 -3.66255E-01 -8.57557E-01  3.32396E+00 -5.49777E+00 -2.36027E+00 -7.30957E+00  8.33833E-03 -5.08607E+00
  -5.09154E+00 -2.23342E+00  1.63098E+00 -2.25019E+00 -1.20004E+01  1.29928E+00  1.96460E+00 -9.77492E+00 -7.76431E+00 -4.19655E+00
   1.21635E+00 -6.75164E+00 -1.98560E+00 -6.98865E+00 -2.86061E+00 -1.60904E+00 -4.31798E+00  1.44086E+00 -4.83485E-01 -6.57625E+00
  -8.62644E+00 -5.43053E+00 -7.31067E+00 -8.44732E+00 -5.88760E+00 -2.10500E+00 -3.75603E+00 -8.24154E+00  3.14731E+00 -5.55530E+00
   4.39025E+00 -8.32802E+00 -1.30120E+01 -2.18685E+00 -4.54122E+00 -2.97946E+00 -9.43506E+00 -1.14987E+01 -2.72423E+00 -5.39382E+00
  -1.00112E+01  1.87717E+00  5.49440E+00 -9.22335E+00  2.98733E+00 -5.12488E-01 -8.06467E+00 -3.78098E+00 -8.09023E+00 -2.65058E+00
  -4.58340E-01 -3.00501E+00 -9.98460E+00 -3.24882E+00 -7.06554E+00 -8.98414E+00 -5.59976E+00  2.61063E+00 -2.96218E+00 -1.91327E+00
  -8.23289E+00 -5.01516E+00 -5.40827E+00 -2.56270E+00 -9.09976E+00 -1.36695E+00  5.88184E-01 -9.62792E-02 -1.11871E+01 -9.26083E-01
  -7.62513E+00 -5.62650E+00 -7.61581E+00 -1.18320E+00  4.98178E+00  8.37147E-01 -2.69469E+00 -5.24106E+00
 NY points of the fit to the data follow
  -1.62623E-01 -9.23891E-02 -1.78403E-01 -1.19218E-01 -1.76926E-01 -6.01508E-02 -2.88095E-02  2.29120E-01  1.57389E-01  4.92112E-01
   2.29087E-01  6.04900E-01  9.03346E-02  4.62170E-01 -3.38705E-01  1.80123E-01 -7.69307E-01 -9.01709E-02 -1.11978E+00 -2.81514E-01
  -1.33489E+00 -3.55254E-01 -1.44954E+00 -4.00156E-01 -1.48705E+00 -4.20125E-01 -1.47137E+00 -4.45874E-01 -1.43628E+00 -5.10925E-01
  -1.42405E+00 -6.46686E-01 -1.43698E+00 -8.57464E-01 -1.49394E+00 -1.10370E+00 -1.55886E+00 -1.32842E+00 -1.57196E+00 -1.46389E+00
  -1.50914E+00 -1.45772E+00 -1.27947E+00 -1.27528E+00 -9.42239E-01 -1.00292E+00 -6.25508E-01 -7.60323E-01 -5.37474E-01 -8.20320E-01
  -7.01319E-01 -1.02831E+00 -9.68558E-01 -1.23904E+00 -1.18755E+00 -1.25719E+00 -1.13129E+00 -1.10919E+00 -9.88556E-01 -9.25903E-01
  -8.50475E-01 -7.88507E-01 -7.92833E-01 -7.60855E-01 -7.78149E-01 -7.53201E-01 -7.72626E-01 -7.47762E-01 -7.50557E-01 -7.24887E-01
  -7.13580E-01 -6.91279E-01 -6.68383E-01 -6.51664E-01 -6.19887E-01 -6.11532E-01 -5.78452E-01 -5.82552E-01 -5.52438E-01 -5.69191E-01
  -5.39232E-01 -5.62462E-01 -5.33640E-01 -5.55627E-01 -5.05930E-01 -4.26920E-01 -3.04999E-01 -1.71294E-01  1.55155E-02  1.60939E-01
   3.99608E-01  5.16374E-01  7.88076E-01  8.45218E-01  1.13073E+00  1.11015E+00  1.39183E+00  1.29133E+00  1.55654E+00  1.37819E+00
   1.61870E+00  1.38339E+00  1.60118E+00  1.33299E+00  1.53632E+00  1.24868E+00  1.44247E+00  1.15083E+00  1.38184E+00  1.22171E+00
   1.45768E+00  1.39467E+00  1.59017E+00  1.60005E+00  1.71742E+00  1.77057E+00  1.78366E+00  1.87184E+00  1.78078E+00  1.89790E+00
   1.71804E+00  1.87598E+00  1.63409E+00  1.83770E+00  1.57343E+00  1.83737E+00  1.57584E+00  1.80914E+00  1.53055E+00  1.72683E+00
   1.43665E+00  1.59129E+00  1.28981E+00  1.38796E+00  1.07415E+00  1.09571E+00  7.74802E-01  7.13261E-01  3.94998E-01  2.50152E-01
  -4.66409E-02 -2.48771E-01 -5.09355E-01 -7.50586E-01 -9.53526E-01 -1.18328E+00 -1.30614E+00 -1.46313E+00 -1.50743E+00 -1.54815E+00
  -1.56894E+00 -1.59991E+00 -1.62474E+00 -1.65275E+00 -1.68745E+00 -1.71679E+00 -1.76442E+00 -1.80033E+00 -1.87006E+00 -1.91326E+00
  -1.98808E+00 -2.03699E+00 -2.11006E+00 -2.17714E+00 -2.24072E+00 -2.32020E+00 -2.36560E+00 -2.45204E+00 -2.48180E+00 -2.58033E+00
  -2.58634E+00 -2.68100E+00 -2.65981E+00 -2.74197E+00 -2.69551E+00 -2.76254E+00 -2.69167E+00 -2.74068E+00 -2.64107E+00 -2.66544E+00
  -2.55067E+00 -2.55836E+00 -2.43885E+00 -2.43609E+00 -2.31687E+00 -2.28689E+00 -2.16040E+00 -2.10696E+00 -1.98541E+00 -1.92419E+00
  -1.81183E+00 -1.74944E+00 -1.65041E+00 -1.59317E+00 -1.51767E+00 -1.48614E+00 -1.43425E+00 -1.43016E+00 -1.39851E+00 -1.42123E+00
  -1.39463E+00 -1.44446E+00 -1.42643E+00 -1.50409E+00 -1.48897E+00 -1.57844E+00 -1.55884E+00 -1.65558E+00 -1.62981E+00 -1.73143E+00
  -1.69138E+00 -1.78461E+00 -1.73948E+00 -1.82786E+00 -1.78048E+00 -1.85951E+00 -1.81218E+00 -1.87480E+00 -1.82991E+00 -1.87058E+00
  -1.83674E+00 -1.85786E+00 -1.82993E+00 -1.82833E+00 -1.80026E+00 -1.77483E+00 -1.74065E+00 -1.70413E+00 -1.67343E+00 -1.63238E+00
  -1.60851E+00 -1.56933E+00 -1.55329E+00 -1.52087E+00 -1.51116E+00 -1.48847E+00 -1.47524E+00 -1.44743E+00 -1.42387E+00 -1.38150E+00
  -1.32631E+00 -1.18041E+00 -7.04405E-01 -2.57971E-01  4.44175E-01  1.16513E+00  1.91400E+00  2.85655E+00  3.48715E+00  4.57814E+00
   4.96937E+00  6.13096E+00  6.20546E+00  7.36794E+00  7.11341E+00  8.22720E+00  7.66510E+00  8.69772E+00  7.90263E+00  8.85046E+00
   7.89859E+00  8.76366E+00  7.69857E+00  8.47360E+00  7.32144E+00  7.98856E+00  6.74083E+00  7.26309E+00  5.90379E+00  6.24114E+00
   4.80243E+00  4.93512E+00  3.46430E+00  3.39549E+00  2.00869E+00  1.78587E+00  5.90085E-01  2.84716E-01 -5.97199E-01 -8.84851E-01
  -1.37115E+00 -1.53593E+00 -1.58094E+00 -1.59212E+00 -1.59560E+00 -1.58479E+00 -1.57244E+00 -1.54876E+00 -1.52497E+00 -1.49044E+00
  -1.45575E+00 -1.41005E+00 -1.36375E+00 -1.30430E+00 -1.24327E+00 -1.16711E+00 -1.08752E+00 -9.90535E-01 -8.87169E-01 -7.62980E-01
  -6.28104E-01 -4.66062E-01 -2.83869E-01 -6.20761E-02  1.99254E-01  5.29198E-01  9.48615E-01  1.53388E+00  2.44791E+00  3.73051E+00
   4.30980E+00  5.81460E+00  5.61134E+00  7.05593E+00  5.75986E+00  6.80318E+00  4.22317E+00  5.65954E+00  2.49422E+00  4.43657E+00
   1.05544E+00  3.49701E+00  1.81951E-01  3.02528E+00 -9.51624E-03  3.12611E+00  4.55189E-01  3.72372E+00  1.41303E+00  4.73750E+00
   2.59415E+00  5.57859E+00  3.42433E+00  5.82956E+00  3.62945E+00  5.32636E+00  3.23042E+00  4.47673E+00  2.80507E+00  3.73546E+00
   2.78777E+00  3.55037E+00  3.44533E+00  4.07450E+00  4.79272E+00  5.38798E+00  6.73689E+00  7.29538E+00  8.88066E+00  9.36819E+00
   1.03757E+01  1.02749E+01  1.07635E+01  1.02537E+01  1.01957E+01  9.40123E+00  8.85788E+00  8.20035E+00  7.53679E+00  6.61627E+00
   5.73389E+00  4.68689E+00  3.79275E+00  2.85164E+00  2.15375E+00  1.48733E+00  1.06123E+00  6.67608E-01  4.45481E-01  2.27263E-01
   2.71904E-02 -2.74865E-01 -4.93265E-01 -8.33796E-01 -1.06557E+00 -1.37446E+00 -1.58070E+00 -1.72068E+00 -1.83113E+00 -1.91525E+00
  -1.98686E+00 -2.04114E+00 -2.08822E+00 -2.12132E+00 -2.14942E+00 -2.16500E+00 -2.17664E+00 -2.17654E+00 -2.17316E+00 -2.15866E+00
  -2.14156E+00 -2.11417E+00 -2.08525E+00 -2.04736E+00 -2.00956E+00 -1.96474E+00 -1.92229E+00 -1.87539E+00 -1.83370E+00 -1.79056E+00
  -1.75573E+00 -1.72249E+00 -1.70048E+00 -1.68269E+00 -1.67836E+00 -1.67998E+00 -1.69624E+00 -1.71897E+00 -1.75621E+00 -1.79915E+00
  -1.85526E+00 -1.91519E+00 -1.98602E+00 -2.05808E+00 -2.13829E+00 -2.21690E+00 -2.30091E+00 -2.38073E+00 -2.46360E+00 -2.54022E+00
  -2.61818E+00 -2.68852E+00 -2.75919E+00 -2.82155E+00 -2.88387E+00 -2.93774E+00 -2.99167E+00 -3.03742E+00 -3.08361E+00 -3.12210E+00
  -3.16157E+00 -3.19390E+00 -3.22778E+00 -3.25505E+00 -3.28441E+00 -3.30764E+00 -3.33341E+00 -3.35345E+00 -3.37639E+00 -3.39392E+00
  -3.41465E+00 -3.43021E+00 -3.44919E+00 -3.46318E+00 -3.48077E+00 -3.49352E+00 -3.50999E+00 -3.52173E+00 -3.53730E+00 -3.54820E+00
  -3.56303E+00 -3.57325E+00 -3.58745E+00 -3.59710E+00 -3.61078E+00 -3.61994E+00 -3.63317E+00 -3.64191E+00 -3.65477E+00 -3.66315E+00
  -3.67567E+00 -3.68374E+00 -3.69598E+00 -3.70378E+00 -3.71576E+00 -3.72331E+00 -3.73507E+00 -3.74240E+00 -3.75396E+00 -3.76110E+00
  -3.77248E+00 -3.77944E+00 -3.79065E+00 -3.79746E+00 -3.80852E+00 -3.81518E+00 -3.82611E+00 -3.83263E+00 -3.84343E+00 -3.84982E+00
  -3.86050E+00 -3.86677E+00 -3.87734E+00 -3.88349E+00 -3.89395E+00 -3.89998E+00 -3.91032E+00 -3.91624E+00 -3.92646E+00 -3.93225E+00
  -3.94235E+00 -3.94800E+00 -3.95795E+00 -3.96343E+00 -3.97319E+00 -3.97845E+00 -3.98796E+00 -3.99291E+00
 NY background values follow
    -7.124E-01   -7.192E-01   -7.259E-01   -7.327E-01   -7.394E-01   -7.462E-01   -7.530E-01   -7.597E-01   -7.665E-01   -7.732E-01
    -7.800E-01   -7.867E-01   -7.935E-01   -8.003E-01   -8.070E-01   -8.138E-01   -8.205E-01   -8.273E-01   -8.340E-01   -8.408E-01
    -8.475E-01   -8.543E-01   -8.611E-01   -8.678E-01   -8.746E-01   -8.813E-01   -8.881E-01   -8.948E-01   -9.016E-01   -9.084E-01
    -9.151E-01   -9.219E-01   -9.286E-01   -9.354E-01   -9.421E-01   -9.489E-01   -9.556E-01   -9.624E-01   -9.692E-01   -9.759E-01
    -9.827E-01   -9.894E-01   -9.962E-01   -1.003E+00   -1.010E+00   -1.016E+00   -1.023E+00   -1.030E+00   -1.037E+00   -1.043E+00
    -1.050E+00   -1.057E+00   -1.064E+00   -1.071E+00   -1.077E+00   -1.084E+00   -1.091E+00   -1.098E+00   -1.104E+00   -1.111E+00
    -1.118E+00   -1.125E+00   -1.131E+00   -1.138E+00   -1.145E+00   -1.152E+00   -1.158E+00   -1.165E+00   -1.172E+00   -1.179E+00
    -1.185E+00   -1.192E+00   -1.199E+00   -1.206E+00   -1.212E+00   -1.219E+00   -1.226E+00   -1.233E+00   -1.239E+00   -1.246E+00
    -1.253E+00   -1.260E+00   -1.266E+00   -1.273E+00   -1.280E+00   -1.287E+00   -1.293E+00   -1.300E+00   -1.307E+00   -1.314E+00
    -1.321E+00   -1.327E+00   -1.334E+00   -1.341E+00   -1.348E+00   -1.354E+00   -1.361E+00   -1.368E+00   -1.375E+00   -1.381E+00
    -1.388E+00   -1.395E+00   -1.402E+00   -1.408E+00   -1.415E+00   -1.422E+00   -1.429E+00   -1.435E+00   -1.442E+00   -1.449E+00
    -1.456E+00   -1.462E+00   -1.469E+00   -1.476E+00   -1.483E+00   -1.489E+00   -1.496E+00   -1.503E+00   -1.510E+00   -1.517E+00
    -1.523E+00   -1.530E+00   -1.537E+00   -1.544E+00   -1.550E+00   -1.557E+00   -1.564E+00   -1.571E+00   -1.577E+00   -1.584E+00
    -1.591E+00   -1.598E+00   -1.604E+00   -1.611E+00   -1.618E+00   -1.625E+00   -1.631E+00   -1.638E+00   -1.645E+00   -1.652E+00
    -1.658E+00   -1.665E+00   -1.672E+00   -1.679E+00   -1.685E+00   -1.692E+00   -1.699E+00   -1.706E+00   -1.713E+00   -1.719E+00
    -1.726E+00   -1.733E+00   -1.740E+00   -1.746E+00   -1.753E+00   -1.760E+00   -1.767E+00   -1.773E+00   -1.780E+00   -1.787E+00
    -1.794E+00   -1.800E+00   -1.807E+00   -1.814E+00   -1.821E+00   -1.827E+00   -1.834E+00   -1.841E+00   -1.848E+00   -1.855E+00
    -1.861E+00   -1.868E+00   -1.875E+00   -1.882E+00   -1.888E+00   -1.895E+00   -1.902E+00   -1.909E+00   -1.915E+00   -1.922E+00
    -1.929E+00   -1.936E+00   -1.942E+00   -1.949E+00   -1.956E+00   -1.963E+00   -1.969E+00   -1.976E+00   -1.983E+00   -1.990E+00
    -1.997E+00   -2.003E+00   -2.010E+00   -2.017E+00   -2.024E+00   -2.030E+00   -2.037E+00   -2.044E+00   -2.051E+00   -2.057E+00
    -2.064E+00   -2.071E+00   -2.078E+00   -2.084E+00   -2.091E+00   -2.098E+00   -2.105E+00   -2.112E+00   -2.118E+00   -2.125E+00
    -2.132E+00   -2.139E+00   -2.145E+00   -2.152E+00   -2.159E+00   -2.166E+00   -2.172E+00   -2.179E+00   -2.186E+00   -2.193E+00
    -2.199E+00   -2.206E+00   -2.213E+00   -2.220E+00   -2.227E+00   -2.233E+00   -2.240E+00   -2.247E+00   -2.254E+00   -2.260E+00
    -2.267E+00   -2.274E+00   -2.281E+00   -2.287E+00   -2.294E+00   -2.301E+00   -2.308E+00   -2.314E+00   -2.321E+00   -2.328E+00
    -2.335E+00   -2.342E+00   -2.348E+00   -2.355E+00   -2.362E+00   -2.369E+00   -2.375E+00   -2.382E+00   -2.389E+00   -2.396E+00
    -2.402E+00   -2.409E+00   -2.416E+00   -2.423E+00   -2.430E+00   -2.436E+00   -2.443E+00   -2.450E+00   -2.457E+00   -2.463E+00
    -2.470E+00   -2.477E+00   -2.484E+00   -2.490E+00   -2.497E+00   -2.504E+00   -2.511E+00   -2.518E+00   -2.524E+00   -2.531E+00
    -2.538E+00   -2.545E+00   -2.551E+00   -2.558E+00   -2.565E+00   -2.572E+00   -2.578E+00   -2.585E+00   -2.592E+00   -2.599E+00
    -2.605E+00   -2.612E+00   -2.619E+00   -2.626E+00   -2.633E+00   -2.639E+00   -2.646E+00   -2.653E+00   -2.660E+00   -2.666E+00
    -2.673E+00   -2.680E+00   -2.687E+00   -2.693E+00   -2.700E+00   -2.707E+00   -2.714E+00   -2.721E+00   -2.727E+00   -2.734E+00
    -2.741E+00   -2.748E+00   -2.754E+00   -2.761E+00   -2.768E+00   -2.775E+00   -2.781E+00   -2.788E+00   -2.795E+00   -2.802E+00
    -2.809E+00   -2.815E+00   -2.822E+00   -2.829E+00   -2.836E+00   -2.842E+00   -2.849E+00   -2.856E+00   -2.863E+00   -2.869E+00
    -2.876E+00   -2.883E+00   -2.890E+00   -2.897E+00   -2.903E+00   -2.910E+00   -2.917E+00   -2.924E+00   -2.930E+00   -2.937E+00
    -2.944E+00   -2.951E+00   -2.957E+00   -2.964E+00   -2.971E+00   -2.978E+00   -2.985E+00   -2.991E+00   -2.998E+00   -3.005E+00
    -3.012E+00   -3.018E+00   -3.025E+00   -3.032E+00   -3.039E+00   -3.045E+00   -3.052E+00   -3.059E+00   -3.066E+00   -3.073E+00
    -3.079E+00   -3.086E+00   -3.093E+00   -3.100E+00   -3.106E+00   -3.113E+00   -3.120E+00   -3.127E+00   -3.133E+00   -3.140E+00
    -3.147E+00   -3.154E+00   -3.161E+00   -3.167E+00   -3.174E+00   -3.181E+00   -3.188E+00   -3.194E+00   -3.201E+00   -3.208E+00
    -3.215E+00   -3.221E+00   -3.228E+00   -3.235E+00   -3.242E+00   -3.249E+00   -3.255E+00   -3.262E+00   -3.269E+00   -3.276E+00
    -3.282E+00   -3.289E+00   -3.296E+00   -3.303E+00   -3.309E+00   -3.316E+00   -3.323E+00   -3.330E+00   -3.337E+00   -3.343E+00
    -3.350E+00   -3.357E+00   -3.364E+00   -3.370E+00   -3.377E+00   -3.384E+00   -3.391E+00   -3.397E+00   -3.404E+00   -3.411E+00
    -3.418E+00   -3.425E+00   -3.431E+00   -3.438E+00   -3.445E+00   -3.452E+00   -3.458E+00   -3.465E+00   -3.472E+00   -3.479E+00
    -3.486E+00   -3.492E+00   -3.499E+00   -3.506E+00   -3.513E+00   -3.519E+00   -3.526E+00   -3.533E+00   -3.540E+00   -3.546E+00
    -3.553E+00   -3.560E+00   -3.567E+00   -3.574E+00   -3.580E+00   -3.587E+00   -3.594E+00   -3.601E+00   -3.607E+00   -3.614E+00
    -3.621E+00   -3.628E+00   -3.634E+00   -3.641E+00   -3.648E+00   -3.655E+00   -3.662E+00   -3.668E+00   -3.675E+00   -3.682E+00
    -3.689E+00   -3.695E+00   -3.702E+00   -3.709E+00   -3.716E+00   -3.722E+00   -3.729E+00   -3.736E+00   -3.743E+00   -3.750E+00
    -3.756E+00   -3.763E+00   -3.770E+00   -3.777E+00   -3.783E+00   -3.790E+00   -3.797E+00   -3.804E+00   -3.810E+00   -3.817E+00
    -3.824E+00   -3.831E+00   -3.838E+00   -3.844E+00   -3.851E+00   -3.858E+00   -3.865E+00   -3.871E+00   -3.878E+00   -3.885E+00
    -3.892E+00   -3.898E+00   -3.905E+00   -3.912E+00   -3.919E+00   -3.926E+00   -3.932E+00   -3.939E+00   -3.946E+00   -3.953E+00
    -3.959E+00   -3.966E+00   -3.973E+00   -3.980E+00   -3.987E+00   -3.993E+00   -4.000E+00   -4.007E+00   -4.014E+00   -4.020E+00
    -4.027E+00   -4.034E+00   -4.041E+00   -4.047E+00   -4.054E+00   -4.061E+00   -4.068E+00   -4.075E+00
 Ala      Conc. = 4.01E+03
