 LCModel (Version 6.3-1L) Copyright: S.W. Provencher.          Ref.: Magn. Reson. Med. 30:672-679 (1993).                
 Slice#3 Row#8 Col#3  PD_05_press_2_raw_act
 36 lines in following concentration table = NCONC+1
    Conc.  %SD /Cr+PCr  Metabolite                                         
    0.000 999%   0.000 Ala                                                 
    0.000 999%   0.000 Asp                                                 
 3.01E+03   4%   1.000 Cr                                                  
    0.000 999%   0.000 PCr                                                 
  201.344 157% 6.7E-02 GABA                                                
    0.000 999%   0.000 Glc                                                 
 1.64E+03  34%   0.546 Gln                                                 
 3.49E+03  19%   1.159 Glu                                                 
  846.445   5%   0.281 GPC                                                 
    0.000 999%   0.000 PCh                                                 
 1.12E+03  14%   0.370 GSH                                                 
 3.16E+03  16%   1.049 Ins                                                 
  289.218 109% 9.6E-02 Lac                                                 
 4.71E+03   4%   1.565 NAA                                                 
    0.000 999%   0.000 NAAG                                                
   91.745  57% 3.0E-02 Scyllo                                              
    0.000 999%   0.000 Tau                                                 
  510.487  44%   0.170 -CrCH2                                              
  846.445   5%   0.281 GPC+PCh                                             
 4.71E+03   4%   1.565 NAA+NAAG                                            
 3.01E+03   4%   1.000 Cr+PCr                                              
 5.13E+03  18%   1.705 Glu+Gln                                             
    0.000 999%   0.000 Lip13a                                              
  696.012  74%   0.231 Lip13b                                              
    0.000 999%   0.000 Lip09                                               
 2.81E+03  12%   0.932 MM09                                                
   70.280 292% 2.3E-02 Lip20                                               
 6.96E+03   9%   2.312 MM20                                                
 1.13E+03  28%   0.376 MM12                                                
 2.50E+03  14%   0.829 MM14                                                
    0.000 999%   0.000 MM17                                                
  696.012  74%   0.231 Lip13a+Lip13b                                       
 4.32E+03  10%   1.436 MM14+Lip13a+Lip13b+MM12                             
 2.81E+03  12%   0.932 MM09+Lip09                                          
 7.03E+03   9%   2.335 MM20+Lip20                                          
   6 lines in following misc. output table
  FWHM = 0.069 ppm    S/N =  12                                            
  Data shift =-0.008 ppm                                                   
  Ph:  17 deg       5.2 deg/ppm                                            
  alphaB,S = 1.8E+00,   1.9E+02                                            
   14 spline knots.   Ns = 8(1)                                            
  (15) 5 infls.   (17) 1 extrs.                                            
  498 points on ppm-axis = NY
      4.000000     3.992357     3.984714     3.977070     3.969427     3.961784     3.954141     3.946497     3.938854     3.931211
      3.923568     3.915925     3.908281     3.900638     3.892995     3.885352     3.877708     3.870065     3.862422     3.854779
      3.847136     3.839492     3.831849     3.824206     3.816563     3.808919     3.801276     3.793633     3.785990     3.778347
      3.770703     3.763060     3.755417     3.747774     3.740130     3.732487     3.724844     3.717201     3.709558     3.701914
      3.694271     3.686628     3.678985     3.671341     3.663698     3.656055     3.648412     3.640769     3.633125     3.625482
      3.617839     3.610196     3.602552     3.594909     3.587266     3.579623     3.571980     3.564336     3.556693     3.549050
      3.541407     3.533763     3.526120     3.518477     3.510834     3.503191     3.495547     3.487904     3.480261     3.472618
      3.464974     3.457331     3.449688     3.442045     3.434402     3.426758     3.419115     3.411472     3.403829     3.396185
      3.388542     3.380899     3.373256     3.365613     3.357969     3.350326     3.342683     3.335040     3.327396     3.319753
      3.312110     3.304467     3.296824     3.289180     3.281537     3.273894     3.266251     3.258607     3.250964     3.243321
      3.235678     3.228034     3.220391     3.212748     3.205105     3.197462     3.189818     3.182175     3.174532     3.166889
      3.159245     3.151602     3.143959     3.136316     3.128673     3.121029     3.113386     3.105743     3.098100     3.090456
      3.082813     3.075170     3.067527     3.059884     3.052240     3.044597     3.036954     3.029311     3.021667     3.014024
      3.006381     2.998738     2.991095     2.983451     2.975808     2.968165     2.960522     2.952878     2.945235     2.937592
      2.929949     2.922306     2.914662     2.907019     2.899376     2.891733     2.884089     2.876446     2.868803     2.861160
      2.853517     2.845873     2.838230     2.830587     2.822944     2.815300     2.807657     2.800014     2.792371     2.784728
      2.777084     2.769441     2.761798     2.754155     2.746511     2.738868     2.731225     2.723582     2.715939     2.708295
      2.700652     2.693009     2.685366     2.677722     2.670079     2.662436     2.654793     2.647150     2.639506     2.631863
      2.624220     2.616577     2.608933     2.601290     2.593647     2.586004     2.578361     2.570717     2.563074     2.555431
      2.547788     2.540144     2.532501     2.524858     2.517215     2.509572     2.501928     2.494285     2.486642     2.478999
      2.471355     2.463712     2.456069     2.448426     2.440783     2.433139     2.425496     2.417853     2.410210     2.402566
      2.394923     2.387280     2.379637     2.371994     2.364350     2.356707     2.349064     2.341421     2.333777     2.326134
      2.318491     2.310848     2.303205     2.295561     2.287918     2.280275     2.272632     2.264988     2.257345     2.249702
      2.242059     2.234416     2.226772     2.219129     2.211486     2.203843     2.196199     2.188556     2.180913     2.173270
      2.165627     2.157983     2.150340     2.142697     2.135054     2.127410     2.119767     2.112124     2.104481     2.096838
      2.089194     2.081551     2.073908     2.066265     2.058621     2.050978     2.043335     2.035692     2.028049     2.020405
      2.012762     2.005119     1.997476     1.989833     1.982190     1.974546     1.966903     1.959260     1.951617     1.943974
      1.936331     1.928688     1.921045     1.913402     1.905759     1.898115     1.890472     1.882829     1.875186     1.867543
      1.859900     1.852257     1.844614     1.836971     1.829327     1.821684     1.814041     1.806398     1.798755     1.791112
      1.783469     1.775826     1.768183     1.760540     1.752896     1.745253     1.737610     1.729967     1.722324     1.714681
      1.707038     1.699395     1.691752     1.684108     1.676465     1.668822     1.661179     1.653536     1.645893     1.638250
      1.630607     1.622964     1.615321     1.607677     1.600034     1.592391     1.584748     1.577105     1.569462     1.561819
      1.554176     1.546533     1.538890     1.531246     1.523603     1.515960     1.508317     1.500674     1.493031     1.485388
      1.477745     1.470102     1.462458     1.454815     1.447172     1.439529     1.431886     1.424243     1.416600     1.408957
      1.401314     1.393671     1.386027     1.378384     1.370741     1.363098     1.355455     1.347812     1.340169     1.332526
      1.324883     1.317240     1.309596     1.301953     1.294310     1.286667     1.279024     1.271381     1.263738     1.256095
      1.248452     1.240808     1.233165     1.225522     1.217879     1.210236     1.202593     1.194950     1.187307     1.179664
      1.172021     1.164377     1.156734     1.149091     1.141448     1.133805     1.126162     1.118519     1.110876     1.103233
      1.095590     1.087946     1.080303     1.072660     1.065017     1.057374     1.049731     1.042088     1.034445     1.026802
      1.019158     1.011515     1.003872     0.996229     0.988586     0.980943     0.973300     0.965657     0.958014     0.950371
      0.942727     0.935084     0.927441     0.919798     0.912155     0.904512     0.896869     0.889226     0.881583     0.873940
      0.866296     0.858653     0.851010     0.843367     0.835724     0.828081     0.820438     0.812795     0.805152     0.797508
      0.789865     0.782222     0.774579     0.766936     0.759293     0.751650     0.744007     0.736364     0.728721     0.721077
      0.713434     0.705791     0.698148     0.690505     0.682862     0.675219     0.667576     0.659933     0.652290     0.644646
      0.637003     0.629360     0.621717     0.614074     0.606431     0.598788     0.591145     0.583502     0.575858     0.568215
      0.560572     0.552929     0.545286     0.537643     0.530000     0.522357     0.514714     0.507071     0.499427     0.491784
      0.484141     0.476498     0.468855     0.461212     0.453569     0.445925     0.438282     0.430639     0.422996     0.415353
      0.407710     0.400067     0.392424     0.384780     0.377137     0.369494     0.361851     0.354208     0.346565     0.338922
      0.331278     0.323635     0.315992     0.308349     0.300706     0.293063     0.285420     0.277777     0.270133     0.262490
      0.254847     0.247204     0.239561     0.231918     0.224275     0.216631     0.208988     0.201345
 NY phased data points follow
  -1.60496E+01 -1.85845E+01 -1.10862E+01 -2.51525E+01 -1.91769E+00  4.24490E+00  1.56057E+01  2.87798E+01  3.65786E+01  2.84848E+01
   4.51296E+01  4.09031E+01  4.83296E+01  3.85040E+01  4.24809E+01  2.61269E+01  2.61561E+01  1.09720E+01  6.22024E+00  1.60799E+01
   1.28430E+01  5.57345E+00  9.88306E+00  1.20424E+01  1.44659E+01  1.45563E+01  1.75858E+01  6.93207E+00  1.56744E+01  1.25527E+01
   1.28670E+01  9.62377E+00  2.48582E+01  1.17315E+01  8.03980E+00  9.79300E+00  9.20317E+00  2.58660E+00  1.55756E+01  1.08647E+01
   8.54756E+00  9.88262E+00  9.93711E+00  1.13485E+01  1.56634E+01  1.40986E+01  7.73800E+00  1.55975E+01  2.18726E+01  8.63550E+00
   1.18328E+01  6.29312E+00  1.10132E+01  2.25879E+00  7.53924E+00  8.37095E+00  7.16839E+00  2.04186E+00  1.48959E+01  5.00723E+00
   2.78316E+00  4.48773E+00 -6.64874E+00 -1.03509E+01 -9.54476E+00 -1.29644E+01 -1.23381E+01 -1.51140E+01 -7.84942E+00 -7.24184E+00
  -1.69659E+01 -1.12171E+01 -8.18512E+00 -1.48407E+01 -1.28384E+01 -1.84739E+01 -3.15461E+00 -1.02633E+01 -7.42214E+00 -1.51051E+01
  -7.32340E+00 -9.28989E+00 -8.75630E+00 -1.56486E+01 -5.19618E+00 -1.53405E+01 -1.08251E+01 -1.02029E+01 -9.93391E+00 -9.78958E+00
  -1.17594E+01 -1.26713E+01 -1.06491E+01 -9.17182E+00 -1.03452E+01 -3.17320E+00  4.26937E+00  1.08496E+01  1.06885E+01  2.69109E+01
   2.40328E+01  3.23345E+01  4.53681E+01  4.78202E+01  5.52305E+01  4.56910E+01  3.73731E+01  2.47918E+01  1.98772E+01  2.29871E+01
   2.62089E+00  5.53031E+00 -1.71932E+00  3.44519E+00  4.95577E-01 -3.85936E+00 -3.21756E+00 -3.20179E+00 -1.65846E+00  3.01577E+00
   6.82658E+00  2.03660E+01  2.87859E+01  3.88915E+01  5.51627E+01  6.16800E+01  7.15016E+01  8.08442E+01  7.67501E+01  6.73402E+01
   5.39346E+01  3.55319E+01  2.96071E+01  1.40039E+01  1.48807E+01  1.51659E-01  9.39847E-01 -4.50370E+00 -4.39127E+00 -1.30854E+01
  -3.11968E+00 -4.80559E+00  3.15643E-01 -1.03932E+01 -5.89769E+00 -7.44882E+00 -1.15398E+01 -7.53566E+00 -2.34511E+00 -4.59440E+00
  -5.54618E+00 -1.58255E+01 -6.30515E+00 -1.19562E+01 -1.59299E+01 -2.07853E+01 -1.37995E+01 -1.36104E+01 -1.58370E+01 -2.18130E+01
  -1.87538E+01 -2.25581E+01 -1.61795E+01 -2.11296E+01 -8.80999E+00 -8.10692E+00 -1.50755E+01 -1.04117E+01 -1.03830E+01 -2.21579E+01
  -2.61021E+01 -2.24923E+01 -2.22483E+01 -2.97140E+01 -2.33760E+01 -2.65936E+01 -3.29185E+01 -3.27392E+01 -3.99866E+01 -3.48963E+01
  -3.10562E+01 -3.35411E+01 -2.96647E+01 -3.62424E+01 -3.62969E+01 -3.18826E+01 -2.62646E+01 -2.96444E+01 -1.76796E+01 -7.91135E+00
  -4.28465E+00 -1.41118E+00 -6.55591E+00  2.88889E+00 -7.43233E+00 -7.26280E-02 -6.19936E+00 -9.94806E+00 -1.05694E+01 -1.48312E+01
  -1.18691E+01 -9.18425E+00 -8.97139E+00 -9.72782E+00 -1.63941E+01 -1.28893E+01 -1.94299E+01 -1.76086E+01 -2.19873E+01 -2.31689E+01
  -1.96565E+01 -8.22994E+00 -9.57168E+00 -2.27162E+00  5.80434E+00 -2.13791E+00  9.13649E+00 -2.33620E+00 -1.04187E+01 -7.65514E+00
  -1.05749E+01 -1.40794E+01 -1.75954E+01 -1.65631E+01 -1.10292E+01 -8.79780E+00  1.71401E+00 -1.87955E+00  3.68971E+00 -4.89276E+00
  -6.23283E+00  4.49439E+00 -2.64153E+00 -4.48998E+00  4.91734E+00  6.36883E+00  1.43062E+00  8.17365E+00  6.51006E+00 -7.72048E-01
   7.42386E+00  5.01775E+00  2.01268E-01  7.98083E-01  4.88641E+00  1.44717E+01  1.07426E+01  2.24126E+01  3.00198E+01  2.18453E+01
   2.03810E+01  2.69730E+01  3.64910E+01  4.35763E+01  6.21044E+01  7.53824E+01  9.36969E+01  1.09738E+02  1.29528E+02  1.41672E+02
   1.51524E+02  1.39590E+02  1.19619E+02  9.08108E+01  5.88792E+01  4.15332E+01  2.61900E+01  2.34167E+01  1.88543E+01  1.34042E+01
   3.90402E+00  9.03720E+00  4.49972E+00  5.31074E+00  3.49588E+00 -5.00329E+00 -3.44395E+00 -9.77431E+00 -8.98691E+00 -9.73422E+00
  -8.04624E+00 -4.17544E+00 -8.64956E+00 -2.92208E+00 -5.98115E+00 -4.30345E+00 -8.68071E+00 -6.81539E+00 -1.06658E+01 -1.46709E+01
  -9.45735E+00 -1.44420E+01 -8.53936E+00 -1.59900E+01 -8.14794E+00 -8.10909E+00 -7.87832E+00 -1.01645E+01 -4.78166E+00 -1.24032E+01
  -2.70656E+00 -1.27532E+01 -5.96765E+00 -9.55754E+00 -7.16631E+00 -9.78220E+00 -1.57793E+00 -1.65470E+01 -7.79150E+00 -4.07487E+00
  -1.08543E+01 -1.54291E+00 -1.19144E+01 -1.46685E+01 -1.02990E+01 -1.84672E+01 -1.87266E+01 -2.77204E+01 -1.88404E+01 -2.35784E+01
  -2.36054E+01 -2.06275E+01 -1.84034E+01 -1.61957E+01 -1.85945E+01 -2.20129E+01 -1.31001E+01 -1.44754E+01 -1.42413E+01 -1.20397E+01
  -7.43980E+00 -1.85772E+00 -6.87406E-01 -1.95748E+00  9.95742E+00  1.23472E+01  6.66965E+00  1.47617E+01  8.96304E+00  1.00025E+01
   6.70719E+00  5.30864E+00  1.21710E+01  1.37401E+01  1.98533E+01  4.77338E+00  1.37870E+01  1.48776E+01  1.14606E+01  1.18268E+01
   1.04518E+01  1.04369E+01  4.31403E+00  1.43134E+01  9.02276E+00  4.74999E+00  9.56363E+00  1.25209E+01  1.51368E+01  6.84272E+00
   2.76848E+00  6.14658E+00  9.16229E+00  1.80532E+00  5.46333E+00 -5.93605E-01  1.76910E+00 -2.97071E-01  3.09090E+00 -4.67978E+00
   4.84500E+00  9.06570E+00  5.27330E+00  5.95841E+00 -1.10833E+00  5.68847E-01 -3.43269E+00 -6.32271E+00 -1.62323E+00 -1.00907E+01
   2.34790E+00 -7.75104E+00  2.89680E+00 -5.22534E+00 -8.98825E+00 -1.36086E+00  1.05829E+01  1.66620E+00  8.62895E-01  4.26497E+00
   9.42942E-01  7.23208E+00  5.83498E+00  4.70219E+00  4.20021E+00  4.83930E+00  3.62466E+00  2.53622E+00  8.87037E+00  6.69478E+00
   7.37345E+00  1.45848E+01  5.16558E+00  8.79042E+00  9.72987E+00  6.82062E+00  8.61976E+00  7.61749E+00  5.32477E+00  4.85583E+00
   1.21436E+01  4.26851E+00  5.62036E+00  6.78851E+00  9.18989E+00  7.52577E+00  1.98789E+00 -2.52291E+00  4.76189E+00 -1.11839E+00
   2.47026E+00 -5.89789E-01 -3.19763E+00 -1.14216E+01  1.01621E+00  7.72504E+00  9.19162E-01  1.97077E+00  2.55574E+00 -6.94989E+00
   1.41047E+00 -3.21962E+00 -2.75719E+00 -1.78879E-02 -4.55591E+00 -3.69303E+00  8.73024E-01 -3.06901E+00 -1.89818E+00  9.24497E-01
  -7.36756E-01 -4.28166E+00 -3.26216E-01 -7.78681E+00 -4.97124E+00 -3.94176E-02  6.76417E+00  1.04418E+00 -4.75715E+00 -6.78696E+00
   5.44465E+00 -3.25638E-03 -1.67778E+00 -2.66825E+00 -2.15744E+00 -5.28252E-01 -3.68830E-01 -4.47026E+00  4.46204E+00 -5.66062E-01
   6.73509E-01 -1.80899E+00 -3.90515E+00 -3.45764E+00  3.11577E-01 -1.43244E+00  3.53361E+00 -4.03473E+00 -8.34053E-01 -4.24816E+00
   3.83186E+00  1.94413E+00 -6.24522E+00  4.79515E-02  2.51279E+00 -2.99557E+00 -1.65156E+00 -5.94921E+00 -9.12100E+00  4.17761E-01
  -5.97498E+00 -1.15714E+01 -5.03220E+00 -4.57399E+00 -6.35769E+00 -5.86228E+00 -1.04467E+01 -6.07141E+00 -3.18633E+00  1.67341E+00
  -2.32104E+00 -1.11148E+00 -1.64468E+00 -8.05785E+00  2.73071E+00 -9.00468E-01 -4.17930E+00 -9.34298E+00
 NY points of the fit to the data follow
  -3.45013E+00 -5.05900E+00 -6.00172E+00 -4.65825E+00  1.12726E-01  6.53910E+00  1.32563E+01  1.99250E+01  2.68474E+01  3.41874E+01
   4.12418E+01  4.62506E+01  4.72926E+01  4.36118E+01  3.62889E+01  2.76506E+01  2.00145E+01  1.45855E+01  1.09088E+01  7.69943E+00
   3.96097E+00  7.47907E-01  1.97692E-01  1.40812E+00  3.40309E+00  5.84229E+00  8.76355E+00  1.22297E+01  1.59041E+01  1.92699E+01
   2.15306E+01  2.17186E+01  1.97114E+01  1.60630E+01  1.14984E+01  6.93717E+00  3.19040E+00  5.80929E-01 -9.63559E-01 -8.79658E-01
   1.24610E+00  4.27645E+00  7.13097E+00  9.62709E+00  1.18543E+01  1.37133E+01  1.46697E+01  1.42542E+01  1.22004E+01  8.56591E+00
   4.33574E+00  8.12746E-01 -1.37306E+00 -2.15476E+00 -2.03332E+00 -1.80746E+00 -1.74410E+00 -1.48393E+00 -1.00714E+00 -7.54214E-01
  -1.06883E+00 -1.91801E+00 -3.17833E+00 -4.45883E+00 -5.35123E+00 -5.66929E+00 -5.42750E+00 -4.90236E+00 -4.33919E+00 -3.82726E+00
  -3.46591E+00 -3.29930E+00 -3.38758E+00 -3.75094E+00 -4.31808E+00 -4.98402E+00 -5.61941E+00 -6.10721E+00 -6.40706E+00 -6.63194E+00
  -7.09475E+00 -7.76327E+00 -8.48479E+00 -9.21189E+00 -9.93680E+00 -1.06625E+01 -1.13764E+01 -1.20292E+01 -1.24359E+01 -1.25218E+01
  -1.22923E+01 -1.18234E+01 -1.12621E+01 -1.07662E+01 -1.02802E+01 -8.62376E+00 -3.29446E+00  4.63622E+00  1.30938E+01  2.14963E+01
   3.00231E+01  3.87055E+01  4.67769E+01  5.24596E+01  5.36209E+01  4.91375E+01  3.99435E+01  2.85026E+01  1.77206E+01  9.50306E+00
   4.09661E+00  3.29274E-01 -3.33618E+00 -6.78810E+00 -8.37698E+00 -8.72950E+00 -8.68554E+00 -8.28958E+00 -7.02526E+00 -2.35925E+00
   7.15926E+00  1.86227E+01  3.02008E+01  4.15864E+01  5.29710E+01  6.41521E+01  7.36997E+01  7.88491E+01  7.71850E+01  6.83910E+01
   5.46381E+01  3.96117E+01  2.66215E+01  1.70120E+01  1.02100E+01  4.40490E+00 -1.42186E+00 -5.50928E+00 -6.55237E+00 -6.21893E+00
  -5.45824E+00 -4.83676E+00 -4.71784E+00 -5.09131E+00 -5.74655E+00 -6.57566E+00 -7.43532E+00 -8.24683E+00 -9.02574E+00 -9.75745E+00
  -1.04316E+01 -1.10265E+01 -1.15393E+01 -1.21817E+01 -1.28831E+01 -1.35061E+01 -1.39490E+01 -1.41746E+01 -1.44462E+01 -1.48799E+01
  -1.53701E+01 -1.57279E+01 -1.58328E+01 -1.57566E+01 -1.57443E+01 -1.60666E+01 -1.68253E+01 -1.79448E+01 -1.92782E+01 -2.04408E+01
  -2.11702E+01 -2.16764E+01 -2.21764E+01 -2.28881E+01 -2.35873E+01 -2.39197E+01 -2.38710E+01 -2.36043E+01 -2.33820E+01 -2.34704E+01
  -2.36935E+01 -2.37518E+01 -2.34074E+01 -2.25302E+01 -2.11510E+01 -1.95066E+01 -1.78286E+01 -1.60320E+01 -1.40304E+01 -1.20777E+01
  -1.08277E+01 -1.05762E+01 -1.11017E+01 -1.19653E+01 -1.27482E+01 -1.30835E+01 -1.26950E+01 -1.16507E+01 -9.98596E+00 -7.94065E+00
  -6.01329E+00 -4.72474E+00 -4.55771E+00 -5.43338E+00 -7.31148E+00 -1.01631E+01 -1.33753E+01 -1.61691E+01 -1.77006E+01 -1.73700E+01
  -1.54974E+01 -1.24778E+01 -8.85635E+00 -5.25497E+00 -2.50271E+00 -1.49682E+00 -2.37885E+00 -4.73365E+00 -8.20639E+00 -1.22103E+01
  -1.58530E+01 -1.79781E+01 -1.80689E+01 -1.64061E+01 -1.35270E+01 -1.00238E+01 -6.43057E+00 -3.56344E+00 -2.00907E+00 -1.25319E+00
  -5.73608E-01  3.98215E-01  1.62192E+00  2.82871E+00  3.94048E+00  4.95668E+00  5.70289E+00  6.11097E+00  6.18586E+00  5.84110E+00
   5.22112E+00  4.62620E+00  4.48432E+00  5.25508E+00  6.97880E+00  9.28201E+00  1.17131E+01  1.39806E+01  1.58251E+01  1.71923E+01
   1.83979E+01  2.11043E+01  3.08106E+01  4.70380E+01  6.46619E+01  8.15913E+01  9.78840E+01  1.13883E+02  1.28823E+02  1.40057E+02
   1.43473E+02  1.35908E+02  1.17885E+02  9.37881E+01  6.96130E+01  4.99640E+01  3.62255E+01  2.66835E+01  1.79791E+01  9.09099E+00
   3.62839E+00  1.53829E+00  3.62749E-01 -4.76472E-01 -1.11329E+00 -1.67893E+00 -2.35745E+00 -3.15168E+00 -4.01319E+00 -4.88958E+00
  -5.72442E+00 -6.46949E+00 -7.12298E+00 -7.68598E+00 -8.14589E+00 -8.51668E+00 -8.82988E+00 -9.10726E+00 -9.36161E+00 -9.59247E+00
  -9.79826E+00 -9.99151E+00 -1.01696E+01 -1.03293E+01 -1.04727E+01 -1.05985E+01 -1.07024E+01 -1.07863E+01 -1.08551E+01 -1.09122E+01
  -1.09573E+01 -1.09924E+01 -1.10197E+01 -1.10398E+01 -1.10545E+01 -1.10648E+01 -1.10711E+01 -1.10737E+01 -1.10716E+01 -1.10636E+01
  -1.10480E+01 -1.10238E+01 -1.09899E+01 -1.09450E+01 -1.08858E+01 -1.08089E+01 -1.07101E+01 -1.05846E+01 -1.04272E+01 -1.02317E+01
  -9.99063E+00 -9.69589E+00 -9.33865E+00 -8.91053E+00 -8.40318E+00 -7.80903E+00 -7.12101E+00 -6.33402E+00 -5.44520E+00 -4.45519E+00
  -3.36769E+00 -2.19008E+00 -9.32997E-01  3.88930E-01  1.75808E+00  3.15468E+00  4.56014E+00  5.96163E+00  7.36754E+00  8.82619E+00
   1.02359E+01  1.13792E+01  1.22108E+01  1.27534E+01  1.30164E+01  1.29618E+01  1.25326E+01  1.18539E+01  1.10892E+01  1.03333E+01
   9.72846E+00  9.41103E+00  9.43572E+00  9.73703E+00  1.01430E+01  1.04229E+01  1.03996E+01  1.00395E+01  9.31750E+00  8.24855E+00
   7.01239E+00  5.77631E+00  4.62283E+00  3.53065E+00  2.45774E+00  1.49845E+00  7.17512E-01  7.69457E-02 -4.49552E-01 -8.81108E-01
  -1.23363E+00 -1.52058E+00 -1.75232E+00 -1.93666E+00 -2.07846E+00 -2.18019E+00 -2.24184E+00 -2.26197E+00 -2.23798E+00 -2.16707E+00
  -2.04602E+00 -1.87171E+00 -1.64091E+00 -1.35108E+00 -1.00033E+00 -5.88008E-01 -1.14236E-01  4.19610E-01  1.01112E+00  1.65604E+00
   2.34846E+00  3.08043E+00  3.84258E+00  4.62377E+00  5.41149E+00  6.19153E+00  6.94870E+00  7.66704E+00  8.33089E+00  8.92500E+00
   9.43534E+00  9.84920E+00  1.01562E+01  1.03484E+01  1.04215E+01  1.03741E+01  1.02082E+01  9.92866E+00  9.54329E+00  9.06253E+00
   8.49910E+00  7.86695E+00  7.18091E+00  6.45575E+00  5.70621E+00  4.94622E+00  4.18873E+00  3.44488E+00  2.72418E+00  2.03410E+00
   1.38066E+00  7.68103E-01  1.99291E-01 -3.24651E-01 -8.03689E-01 -1.23889E+00 -1.63171E+00 -1.98428E+00 -2.29900E+00 -2.57879E+00
  -2.82655E+00 -3.04521E+00 -3.23730E+00 -3.40540E+00 -3.55186E+00 -3.67915E+00 -3.78930E+00 -3.88421E+00 -3.96528E+00 -4.03403E+00
  -4.09173E+00 -4.13977E+00 -4.17911E+00 -4.21065E+00 -4.23498E+00 -4.25289E+00 -4.26503E+00 -4.27215E+00 -4.27461E+00 -4.27282E+00
  -4.26698E+00 -4.25758E+00 -4.24497E+00 -4.22956E+00 -4.21142E+00 -4.19074E+00 -4.16761E+00 -4.14239E+00 -4.11526E+00 -4.08645E+00
  -4.05589E+00 -4.02370E+00 -3.98994E+00 -3.95491E+00 -3.91868E+00 -3.88136E+00 -3.84282E+00 -3.80319E+00 -3.76252E+00 -3.72106E+00
  -3.67881E+00 -3.63577E+00 -3.59182E+00 -3.54711E+00 -3.50170E+00 -3.45578E+00 -3.40927E+00 -3.36215E+00 -3.31434E+00 -3.26600E+00
  -3.21719E+00 -3.16804E+00 -3.11839E+00 -3.06824E+00 -3.01754E+00 -2.96648E+00 -2.91508E+00 -2.86338E+00 -2.81123E+00 -2.75864E+00
  -2.70560E+00 -2.65229E+00 -2.59868E+00 -2.54476E+00 -2.49035E+00 -2.43551E+00 -2.38025E+00 -2.32469E+00
 NY background values follow
    -1.018E+01   -1.021E+01   -1.024E+01   -1.027E+01   -1.031E+01   -1.034E+01   -1.037E+01   -1.040E+01   -1.043E+01   -1.047E+01
    -1.050E+01   -1.053E+01   -1.056E+01   -1.060E+01   -1.063E+01   -1.066E+01   -1.069E+01   -1.072E+01   -1.076E+01   -1.079E+01
    -1.082E+01   -1.085E+01   -1.089E+01   -1.092E+01   -1.095E+01   -1.098E+01   -1.102E+01   -1.105E+01   -1.108E+01   -1.111E+01
    -1.115E+01   -1.118E+01   -1.121E+01   -1.124E+01   -1.128E+01   -1.131E+01   -1.134E+01   -1.137E+01   -1.141E+01   -1.144E+01
    -1.147E+01   -1.151E+01   -1.154E+01   -1.157E+01   -1.160E+01   -1.164E+01   -1.167E+01   -1.170E+01   -1.174E+01   -1.177E+01
    -1.180E+01   -1.183E+01   -1.187E+01   -1.190E+01   -1.193E+01   -1.197E+01   -1.200E+01   -1.203E+01   -1.206E+01   -1.210E+01
    -1.213E+01   -1.216E+01   -1.220E+01   -1.223E+01   -1.226E+01   -1.229E+01   -1.233E+01   -1.236E+01   -1.239E+01   -1.242E+01
    -1.246E+01   -1.249E+01   -1.252E+01   -1.255E+01   -1.259E+01   -1.262E+01   -1.265E+01   -1.268E+01   -1.271E+01   -1.275E+01
    -1.278E+01   -1.281E+01   -1.284E+01   -1.287E+01   -1.290E+01   -1.294E+01   -1.297E+01   -1.300E+01   -1.303E+01   -1.306E+01
    -1.309E+01   -1.312E+01   -1.315E+01   -1.318E+01   -1.321E+01   -1.324E+01   -1.327E+01   -1.330E+01   -1.333E+01   -1.336E+01
    -1.339E+01   -1.342E+01   -1.345E+01   -1.348E+01   -1.351E+01   -1.354E+01   -1.356E+01   -1.359E+01   -1.362E+01   -1.365E+01
    -1.368E+01   -1.371E+01   -1.373E+01   -1.376E+01   -1.379E+01   -1.382E+01   -1.384E+01   -1.387E+01   -1.390E+01   -1.392E+01
    -1.395E+01   -1.397E+01   -1.400E+01   -1.403E+01   -1.405E+01   -1.408E+01   -1.410E+01   -1.413E+01   -1.415E+01   -1.418E+01
    -1.420E+01   -1.422E+01   -1.425E+01   -1.427E+01   -1.430E+01   -1.432E+01   -1.434E+01   -1.437E+01   -1.439E+01   -1.441E+01
    -1.443E+01   -1.445E+01   -1.448E+01   -1.450E+01   -1.452E+01   -1.454E+01   -1.456E+01   -1.458E+01   -1.460E+01   -1.462E+01
    -1.464E+01   -1.466E+01   -1.468E+01   -1.470E+01   -1.472E+01   -1.473E+01   -1.475E+01   -1.477E+01   -1.479E+01   -1.480E+01
    -1.482E+01   -1.484E+01   -1.485E+01   -1.487E+01   -1.489E+01   -1.490E+01   -1.492E+01   -1.493E+01   -1.494E+01   -1.496E+01
    -1.497E+01   -1.498E+01   -1.500E+01   -1.501E+01   -1.502E+01   -1.503E+01   -1.505E+01   -1.506E+01   -1.507E+01   -1.508E+01
    -1.509E+01   -1.510E+01   -1.511E+01   -1.512E+01   -1.512E+01   -1.513E+01   -1.514E+01   -1.515E+01   -1.515E+01   -1.516E+01
    -1.517E+01   -1.517E+01   -1.518E+01   -1.518E+01   -1.519E+01   -1.519E+01   -1.520E+01   -1.520E+01   -1.520E+01   -1.520E+01
    -1.521E+01   -1.521E+01   -1.521E+01   -1.521E+01   -1.521E+01   -1.521E+01   -1.521E+01   -1.521E+01   -1.521E+01   -1.521E+01
    -1.521E+01   -1.521E+01   -1.521E+01   -1.521E+01   -1.520E+01   -1.520E+01   -1.520E+01   -1.519E+01   -1.519E+01   -1.518E+01
    -1.518E+01   -1.518E+01   -1.517E+01   -1.516E+01   -1.516E+01   -1.515E+01   -1.514E+01   -1.514E+01   -1.513E+01   -1.512E+01
    -1.511E+01   -1.511E+01   -1.510E+01   -1.509E+01   -1.508E+01   -1.507E+01   -1.506E+01   -1.505E+01   -1.504E+01   -1.502E+01
    -1.501E+01   -1.500E+01   -1.499E+01   -1.498E+01   -1.496E+01   -1.495E+01   -1.494E+01   -1.492E+01   -1.491E+01   -1.489E+01
    -1.488E+01   -1.486E+01   -1.485E+01   -1.483E+01   -1.481E+01   -1.480E+01   -1.478E+01   -1.476E+01   -1.474E+01   -1.473E+01
    -1.471E+01   -1.469E+01   -1.467E+01   -1.465E+01   -1.463E+01   -1.461E+01   -1.459E+01   -1.457E+01   -1.455E+01   -1.452E+01
    -1.450E+01   -1.448E+01   -1.446E+01   -1.443E+01   -1.441E+01   -1.439E+01   -1.436E+01   -1.434E+01   -1.431E+01   -1.429E+01
    -1.426E+01   -1.424E+01   -1.421E+01   -1.418E+01   -1.416E+01   -1.413E+01   -1.410E+01   -1.407E+01   -1.405E+01   -1.402E+01
    -1.399E+01   -1.396E+01   -1.393E+01   -1.390E+01   -1.387E+01   -1.384E+01   -1.381E+01   -1.377E+01   -1.374E+01   -1.371E+01
    -1.368E+01   -1.364E+01   -1.361E+01   -1.358E+01   -1.354E+01   -1.351E+01   -1.347E+01   -1.344E+01   -1.340E+01   -1.337E+01
    -1.333E+01   -1.329E+01   -1.326E+01   -1.322E+01   -1.318E+01   -1.314E+01   -1.310E+01   -1.306E+01   -1.302E+01   -1.299E+01
    -1.294E+01   -1.290E+01   -1.286E+01   -1.282E+01   -1.278E+01   -1.274E+01   -1.270E+01   -1.265E+01   -1.261E+01   -1.257E+01
    -1.252E+01   -1.248E+01   -1.244E+01   -1.239E+01   -1.235E+01   -1.230E+01   -1.226E+01   -1.221E+01   -1.216E+01   -1.212E+01
    -1.207E+01   -1.202E+01   -1.198E+01   -1.193E+01   -1.188E+01   -1.183E+01   -1.178E+01   -1.173E+01   -1.169E+01   -1.164E+01
    -1.159E+01   -1.154E+01   -1.149E+01   -1.144E+01   -1.139E+01   -1.133E+01   -1.128E+01   -1.123E+01   -1.118E+01   -1.113E+01
    -1.108E+01   -1.102E+01   -1.097E+01   -1.092E+01   -1.086E+01   -1.081E+01   -1.076E+01   -1.070E+01   -1.065E+01   -1.059E+01
    -1.054E+01   -1.049E+01   -1.043E+01   -1.038E+01   -1.032E+01   -1.026E+01   -1.021E+01   -1.015E+01   -1.010E+01   -1.004E+01
    -9.984E+00   -9.927E+00   -9.870E+00   -9.813E+00   -9.756E+00   -9.698E+00   -9.640E+00   -9.583E+00   -9.525E+00   -9.466E+00
    -9.408E+00   -9.350E+00   -9.291E+00   -9.232E+00   -9.173E+00   -9.114E+00   -9.055E+00   -8.996E+00   -8.936E+00   -8.876E+00
    -8.816E+00   -8.757E+00   -8.696E+00   -8.636E+00   -8.576E+00   -8.515E+00   -8.455E+00   -8.394E+00   -8.333E+00   -8.272E+00
    -8.211E+00   -8.150E+00   -8.089E+00   -8.028E+00   -7.966E+00   -7.905E+00   -7.843E+00   -7.781E+00   -7.719E+00   -7.657E+00
    -7.595E+00   -7.533E+00   -7.471E+00   -7.409E+00   -7.347E+00   -7.284E+00   -7.222E+00   -7.160E+00   -7.097E+00   -7.035E+00
    -6.972E+00   -6.909E+00   -6.847E+00   -6.784E+00   -6.721E+00   -6.658E+00   -6.596E+00   -6.533E+00   -6.470E+00   -6.407E+00
    -6.344E+00   -6.281E+00   -6.218E+00   -6.155E+00   -6.092E+00   -6.029E+00   -5.966E+00   -5.903E+00   -5.840E+00   -5.778E+00
    -5.715E+00   -5.652E+00   -5.589E+00   -5.526E+00   -5.463E+00   -5.400E+00   -5.338E+00   -5.275E+00   -5.212E+00   -5.149E+00
    -5.087E+00   -5.024E+00   -4.961E+00   -4.899E+00   -4.836E+00   -4.773E+00   -4.711E+00   -4.648E+00   -4.586E+00   -4.523E+00
    -4.460E+00   -4.398E+00   -4.335E+00   -4.273E+00   -4.210E+00   -4.148E+00   -4.085E+00   -4.023E+00   -3.960E+00   -3.898E+00
    -3.836E+00   -3.773E+00   -3.711E+00   -3.648E+00   -3.586E+00   -3.523E+00   -3.461E+00   -3.399E+00   -3.336E+00   -3.274E+00
    -3.212E+00   -3.149E+00   -3.087E+00   -3.024E+00   -2.962E+00   -2.900E+00   -2.837E+00   -2.775E+00
 Cr       Conc. = 3.01E+03
