 LCModel (Version 6.3-1L) Copyright: S.W. Provencher.          Ref.: Magn. Reson. Med. 30:672-679 (1993).                
 Slice#1 Row#1 Col#6  PD_05_press_2_raw_act
 36 lines in following concentration table = NCONC+1
    Conc.  %SD /Cr+PCr  Metabolite                                         
  188.624 103%   0.776 Ala                                                 
   48.344 110%   0.199 Asp                                                 
    0.000 999%   0.000 Cr                                                  
  242.949  45%   1.000 PCr                                                 
   27.013 117%   0.111 GABA                                                
   27.358 116%   0.113 Glc                                                 
   69.165 525%   0.285 Gln                                                 
  564.909  75%   2.325 Glu                                                 
   25.626 935%   0.105 GPC                                                 
   82.765 290%   0.341 PCh                                                 
    0.000 999%   0.000 GSH                                                 
  760.464  61%   3.130 Ins                                                 
    0.000 999%   0.000 Lac                                                 
  116.647 111%   0.480 NAA                                                 
  189.421  69%   0.780 NAAG                                                
    7.355 143% 3.0E-02 Scyllo                                              
   34.529 152%   0.142 Tau                                                 
    0.000 999%   0.000 -CrCH2                                              
  108.391  40%   0.446 GPC+PCh                                             
  306.067  55%   1.260 NAA+NAAG                                            
  242.949  45%   1.000 Cr+PCr                                              
  634.074  82%   2.610 Glu+Gln                                             
    0.000 999%   0.000 Lip13a                                              
    0.000 999%   0.000 Lip13b                                              
 2.24E-04 999% 9.2E-07 Lip09                                               
 1.82E+03  20%   7.483 MM09                                                
    0.000 999%   0.000 Lip20                                               
 2.03E+03  34%   8.347 MM20                                                
  409.705  57%   1.686 MM12                                                
  428.832 129%   1.765 MM14                                                
 1.68E+03  26%   6.905 MM17                                                
    0.000 999%   0.000 Lip13a+Lip13b                                       
  838.537  73%   3.451 MM14+Lip13a+Lip13b+MM12                             
 1.82E+03  20%   7.483 MM09+Lip09                                          
 2.03E+03  34%   8.347 MM20+Lip20                                          
   6 lines in following misc. output table
  FWHM = 0.031 ppm    S/N =   1                                            
  Data shift = 0.031 ppm                                                   
  Ph:-154 deg     -24.2 deg/ppm                                            
  alphaB,S = 8.5E+01,   1.3E+01                                            
   14 spline knots.   Ns = 5(1)                                            
   2 inflections.     1 extrema                                            
  498 points on ppm-axis = NY
      4.000000     3.992357     3.984714     3.977070     3.969427     3.961784     3.954141     3.946497     3.938854     3.931211
      3.923568     3.915925     3.908281     3.900638     3.892995     3.885352     3.877708     3.870065     3.862422     3.854779
      3.847136     3.839492     3.831849     3.824206     3.816563     3.808919     3.801276     3.793633     3.785990     3.778347
      3.770703     3.763060     3.755417     3.747774     3.740130     3.732487     3.724844     3.717201     3.709558     3.701914
      3.694271     3.686628     3.678985     3.671341     3.663698     3.656055     3.648412     3.640769     3.633125     3.625482
      3.617839     3.610196     3.602552     3.594909     3.587266     3.579623     3.571980     3.564336     3.556693     3.549050
      3.541407     3.533763     3.526120     3.518477     3.510834     3.503191     3.495547     3.487904     3.480261     3.472618
      3.464974     3.457331     3.449688     3.442045     3.434402     3.426758     3.419115     3.411472     3.403829     3.396185
      3.388542     3.380899     3.373256     3.365613     3.357969     3.350326     3.342683     3.335040     3.327396     3.319753
      3.312110     3.304467     3.296824     3.289180     3.281537     3.273894     3.266251     3.258607     3.250964     3.243321
      3.235678     3.228034     3.220391     3.212748     3.205105     3.197462     3.189818     3.182175     3.174532     3.166889
      3.159245     3.151602     3.143959     3.136316     3.128673     3.121029     3.113386     3.105743     3.098100     3.090456
      3.082813     3.075170     3.067527     3.059884     3.052240     3.044597     3.036954     3.029311     3.021667     3.014024
      3.006381     2.998738     2.991095     2.983451     2.975808     2.968165     2.960522     2.952878     2.945235     2.937592
      2.929949     2.922306     2.914662     2.907019     2.899376     2.891733     2.884089     2.876446     2.868803     2.861160
      2.853517     2.845873     2.838230     2.830587     2.822944     2.815300     2.807657     2.800014     2.792371     2.784728
      2.777084     2.769441     2.761798     2.754155     2.746511     2.738868     2.731225     2.723582     2.715939     2.708295
      2.700652     2.693009     2.685366     2.677722     2.670079     2.662436     2.654793     2.647150     2.639506     2.631863
      2.624220     2.616577     2.608933     2.601290     2.593647     2.586004     2.578361     2.570717     2.563074     2.555431
      2.547788     2.540144     2.532501     2.524858     2.517215     2.509572     2.501928     2.494285     2.486642     2.478999
      2.471355     2.463712     2.456069     2.448426     2.440783     2.433139     2.425496     2.417853     2.410210     2.402566
      2.394923     2.387280     2.379637     2.371994     2.364350     2.356707     2.349064     2.341421     2.333777     2.326134
      2.318491     2.310848     2.303205     2.295561     2.287918     2.280275     2.272632     2.264988     2.257345     2.249702
      2.242059     2.234416     2.226772     2.219129     2.211486     2.203843     2.196199     2.188556     2.180913     2.173270
      2.165627     2.157983     2.150340     2.142697     2.135054     2.127410     2.119767     2.112124     2.104481     2.096838
      2.089194     2.081551     2.073908     2.066265     2.058621     2.050978     2.043335     2.035692     2.028049     2.020405
      2.012762     2.005119     1.997476     1.989833     1.982190     1.974546     1.966903     1.959260     1.951617     1.943974
      1.936331     1.928688     1.921045     1.913402     1.905759     1.898115     1.890472     1.882829     1.875186     1.867543
      1.859900     1.852257     1.844614     1.836971     1.829327     1.821684     1.814041     1.806398     1.798755     1.791112
      1.783469     1.775826     1.768183     1.760540     1.752896     1.745253     1.737610     1.729967     1.722324     1.714681
      1.707038     1.699395     1.691752     1.684108     1.676465     1.668822     1.661179     1.653536     1.645893     1.638250
      1.630607     1.622964     1.615321     1.607677     1.600034     1.592391     1.584748     1.577105     1.569462     1.561819
      1.554176     1.546533     1.538890     1.531246     1.523603     1.515960     1.508317     1.500674     1.493031     1.485388
      1.477745     1.470102     1.462458     1.454815     1.447172     1.439529     1.431886     1.424243     1.416600     1.408957
      1.401314     1.393671     1.386027     1.378384     1.370741     1.363098     1.355455     1.347812     1.340169     1.332526
      1.324883     1.317240     1.309596     1.301953     1.294310     1.286667     1.279024     1.271381     1.263738     1.256095
      1.248452     1.240808     1.233165     1.225522     1.217879     1.210236     1.202593     1.194950     1.187307     1.179664
      1.172021     1.164377     1.156734     1.149091     1.141448     1.133805     1.126162     1.118519     1.110876     1.103233
      1.095590     1.087946     1.080303     1.072660     1.065017     1.057374     1.049731     1.042088     1.034445     1.026802
      1.019158     1.011515     1.003872     0.996229     0.988586     0.980943     0.973300     0.965657     0.958014     0.950371
      0.942727     0.935084     0.927441     0.919798     0.912155     0.904512     0.896869     0.889226     0.881583     0.873940
      0.866296     0.858653     0.851010     0.843367     0.835724     0.828081     0.820438     0.812795     0.805152     0.797508
      0.789865     0.782222     0.774579     0.766936     0.759293     0.751650     0.744007     0.736364     0.728721     0.721077
      0.713434     0.705791     0.698148     0.690505     0.682862     0.675219     0.667576     0.659933     0.652290     0.644646
      0.637003     0.629360     0.621717     0.614074     0.606431     0.598788     0.591145     0.583502     0.575858     0.568215
      0.560572     0.552929     0.545286     0.537643     0.530000     0.522357     0.514714     0.507071     0.499427     0.491784
      0.484141     0.476498     0.468855     0.461212     0.453569     0.445925     0.438282     0.430639     0.422996     0.415353
      0.407710     0.400067     0.392424     0.384780     0.377137     0.369494     0.361851     0.354208     0.346565     0.338922
      0.331278     0.323635     0.315992     0.308349     0.300706     0.293063     0.285420     0.277777     0.270133     0.262490
      0.254847     0.247204     0.239561     0.231918     0.224275     0.216631     0.208988     0.201345
 NY phased data points follow
  -1.31376E+00  1.85652E+01  2.36874E+01  8.49241E+00 -6.38648E+00 -1.18783E+01 -4.49106E-01  8.76747E+00  1.11482E+01  1.65860E+01
  -2.45235E+00  2.24904E+01 -1.87173E+01  4.41165E+00  2.02292E+01  5.28700E+00  1.47478E+01 -7.86089E+00 -5.11170E+00 -3.84086E+01
  -5.06575E+00  5.92124E+00 -1.23345E+01  7.10755E+00  1.28458E+01  1.53937E+00  2.29189E+01  1.36717E+01 -5.10372E+00 -3.58899E+00
  -1.41696E+01  2.01658E+01  8.86190E+00  1.17985E+01  2.14072E+01 -1.18528E+00  1.03836E+01  3.99742E+00 -7.37483E+00 -1.44384E+01
   2.92474E+00 -9.85805E+00 -7.92416E+00 -3.85797E+00  1.25981E+01  9.51638E+00 -1.36613E-01  3.37398E+00  1.13378E+01  2.40668E+00
  -1.27319E+01 -7.52465E+00  7.94396E+00 -6.92679E+00 -2.02734E+00 -4.68828E+00 -5.03858E+00  8.22931E+00 -8.02590E+00  2.58833E+01
  -5.25544E+00  1.31815E+01  3.08320E-01  1.60695E+01 -1.10014E+01  1.77101E+01  2.49301E+01 -4.02530E+00 -2.04265E+01  3.93053E+00
   2.26453E+00 -1.94439E+00 -1.13817E+01 -1.23146E+01  1.55140E+00 -3.81138E+00  6.07300E+00 -1.61128E+01  1.06106E+01  1.26682E+01
  -1.03456E+01 -1.20527E+01 -9.50860E+00 -5.37849E+00 -7.05671E+00  3.97210E+00 -1.59758E+01 -1.77878E+01  1.31723E+01 -5.68388E+00
   6.89292E+00  1.26071E+01 -1.58467E+01  9.20932E-01 -5.82153E+00  4.95262E+00 -1.13018E+01  1.56951E+00 -1.13995E+01 -1.58161E+01
  -1.21580E+01 -8.34660E+00  2.64382E+01  1.73968E+01  1.28224E+01  1.40630E+01 -1.50728E+01  3.96424E+00  1.00641E+01 -8.66433E+00
  -5.10271E+00 -6.11520E+00 -9.23289E+00 -4.56531E+00 -5.71403E+00 -1.23334E+01  7.96688E+00  7.17724E+00  8.80560E+00  1.33748E+01
   5.71319E+00  2.48706E+01 -2.19572E+00 -6.45195E+00 -6.30209E+00  5.48942E+00  1.39517E+01  7.49783E+00  1.27329E+01  3.10290E+00
   1.21159E+01 -4.75798E+00 -3.48076E+00  1.89782E+00  8.66523E+00 -3.99006E+00  1.49505E+01 -1.44808E+01 -1.81433E+01  4.56549E+00
  -3.11362E+00 -5.01150E+00 -1.12009E+01  1.67616E+00  9.89958E+00  2.50090E-01 -1.23927E+01 -8.77901E+00 -3.79566E+00 -6.72854E+00
   5.05865E-01  3.44506E+00  1.16465E+01  8.27981E-01  1.45506E+01 -2.32981E+00 -4.85930E+00 -1.05139E+01  1.07291E+01  4.30577E+00
  -9.53382E+00 -3.90257E+00 -6.86847E+00 -1.00703E+01 -6.52745E+00 -8.46466E+00  2.37550E+01 -1.85868E+01  4.54198E+00  3.80735E+00
  -7.08517E+00  2.83672E-01  3.88995E+00 -4.06610E-02  5.32695E+00 -1.47928E+01  8.63889E+00  6.74561E+00 -1.51131E+01  1.47041E+01
   6.39720E+00  1.06656E+01 -9.99423E-01 -1.24718E+01 -2.10945E+00  1.26433E-01 -7.69233E+00 -1.79021E+01 -3.71497E+00 -6.33224E+00
  -1.69375E+01 -7.41293E+00 -1.49846E+00 -1.61055E+01  4.51548E+00 -6.29115E-01 -1.21541E-01  1.62421E+01 -5.69283E+00 -1.35877E+00
   6.90768E-01  7.40741E+00 -1.37146E+01 -9.25600E+00 -1.32728E+01 -9.51235E+00 -4.96632E+00  1.99924E+00  1.69037E+00 -1.11283E+01
  -8.63260E+00  1.90642E+00 -1.15220E+01  3.75128E+00  6.08971E+00 -1.56229E+01 -4.21385E+00  4.38145E+00  1.97524E+01 -1.22562E+01
  -8.53623E+00  1.31509E+01 -1.58989E+01 -6.38710E+00 -6.02966E+00  6.95501E+00  4.27428E-01 -1.20003E-01 -1.78111E+01 -8.61553E+00
   7.32984E-01  3.90307E+00  5.97619E+00  6.53920E+00  7.58683E+00 -3.70026E+00  6.12171E+00 -5.11784E-01  1.27392E+01  1.33822E+01
   3.17270E+00 -9.13615E+00 -7.24517E+00  1.64938E+01 -1.16975E+00  2.36472E+01 -4.60372E+00 -6.74128E+00 -1.91398E+01  1.66309E+01
   2.31777E+00  1.12374E+00  4.19273E+00  1.35737E+01  2.80496E+01  1.61006E+01  2.25182E+01  5.42767E+00  2.88021E+00  1.35465E+01
   7.05214E+00  1.88170E+01  1.81738E+01  1.17330E+01  1.70157E+01 -8.11385E+00 -2.06790E+00  3.15680E+00  5.47859E+00  1.43516E+01
   5.66355E+00 -7.63948E+00  5.88787E+00  7.84784E+00 -7.55585E+00  6.42417E+00  7.62206E+00  3.28961E+00  6.70098E+00 -7.65067E+00
  -1.78053E+01  3.23402E+00  9.74032E+00 -2.47636E-01 -6.29204E+00 -4.72906E+00  1.19086E+01  1.47715E+00  5.94875E+00  1.79802E+01
  -1.44803E+01 -1.47325E+01  8.25719E-01  2.52452E+00  8.33385E+00  1.36481E-01 -8.34003E+00  1.42150E+00 -3.32292E-02 -1.93332E+00
   1.97070E+00  1.35533E+01  1.69520E+00  1.44544E+01  3.05298E+00 -1.30496E+00 -7.04215E+00  6.96955E+00  6.23028E+00 -9.40909E-01
   3.26803E+01  2.34808E+01  3.80638E+01  1.45350E+01  9.94474E+00  1.21509E+01  4.81172E+00  1.80965E+01 -1.11783E+01  1.52501E+01
   1.75830E+01  9.76520E+00  1.78291E+01  1.12786E+01  8.49414E+00  8.38121E+00  8.67298E+00  1.81460E+01  5.78460E+00  4.01321E+00
   2.33300E+00  9.99732E-01  9.33846E+00  3.28417E-01  2.27308E+00  1.03779E+01  1.33093E+01  1.22527E+01  1.69890E+01 -4.45803E+00
  -1.16710E+01  9.21728E+00  2.14331E+00  4.87536E+00 -1.49733E+01 -1.03691E+01 -2.41820E+00 -1.74010E+01 -3.72330E+00 -5.97791E+00
  -3.65221E+00 -6.51590E+00 -2.42304E+00 -3.64320E+01 -1.09570E+01 -9.48475E+00  1.29624E+00 -2.97391E+00 -1.54559E+01 -2.43006E+01
  -1.61774E+00  2.95764E+00 -2.36995E+01  8.81518E+00 -1.15397E+01 -1.28960E+01  5.02666E+00  1.73257E+01  3.42088E+00  1.65090E+01
   6.01156E+00 -1.80508E+01  1.95000E+00 -9.58798E+00  2.05737E+00 -1.46334E+00  6.04793E+00  1.30367E+01  2.50034E+00  9.65660E+00
   1.08246E+01  1.51332E+01 -1.31743E+00  1.59478E+01  1.87986E+00  8.76083E-01  2.39245E+01  2.39032E+01  7.13174E+00  1.51258E+01
   2.27790E+01  1.46060E+01  2.59601E+01  1.55705E+01  2.67661E+01  1.77546E+01  2.41905E+01  1.74292E+01  1.87073E+01  8.94908E+00
   4.60779E+00  4.62725E+00 -1.94732E+00 -7.18009E-01  2.54242E+01 -3.96931E+00  4.49846E+00  9.31966E+00  4.08371E+00  1.51148E+01
   1.62607E+01 -1.27848E-01 -2.51284E+00  1.41033E+01  1.46667E+01 -1.05501E+00  2.96547E+00  4.80430E+00  2.97409E+00  4.03352E+00
   1.96943E+01 -8.92380E+00  1.25097E+01  1.81672E+00  4.87437E+00  4.44257E+00 -1.95104E+00 -2.67871E+00 -9.77743E+00  2.50260E+00
  -1.32936E+00  7.76525E+00  9.60109E-01  6.71193E+00 -1.52434E+01 -6.86740E+00  6.89194E+00  5.11234E-01  5.47475E-01  2.20398E+01
  -4.61099E+00 -8.84468E+00 -3.79611E+00  4.85218E+00 -2.28571E+01  1.31318E+00  1.08722E-01 -5.72968E+00 -7.12718E-01 -8.23034E+00
   7.72126E+00  1.14592E+01 -2.99472E+01 -6.66497E-01 -1.22837E+00 -5.26913E-02 -1.43740E+01  1.03438E+01 -6.87631E+00 -1.67505E-02
  -5.83134E+00 -4.77893E+00 -9.88825E+00 -5.28933E+00  9.22052E+00 -1.27721E+01 -8.21383E+00  1.15303E+00  1.09196E+01 -1.01035E+01
   1.16065E+01 -2.83905E+00 -2.01566E+00  1.24716E+00  2.83292E+01  1.45278E+00  6.58675E+00 -8.34782E+00 -5.11237E-02 -8.86429E+00
   7.49225E+00  7.07168E+00 -8.36950E+00  9.16329E+00  1.94713E+01  7.88059E+00  1.96867E-03 -4.11052E+00  1.07590E+01  5.31191E+00
   7.95191E+00  3.88987E+00  1.57788E+01 -4.91704E+00  2.50145E+00 -1.62050E+01 -8.28934E+00  1.22809E+01
 NY points of the fit to the data follow
  -1.54723E-01 -4.12823E-01 -5.87325E-01 -6.98190E-01 -8.86043E-01 -5.47119E-01  1.14853E+00  3.95149E+00  6.59318E+00  7.70825E+00
   6.79999E+00  4.50580E+00  2.13545E+00  7.17328E-01  1.29956E-01 -3.12302E-01 -6.87994E-01 -9.11880E-01 -1.00242E+00 -9.09601E-01
  -6.41746E-01 -2.08461E-01  3.52554E-01  9.41373E-01  1.20959E+00  7.85687E-01 -3.36907E-01 -1.78090E+00 -2.94895E+00 -3.23766E+00
  -2.33973E+00 -4.97363E-01  1.52881E+00  2.95700E+00  3.42085E+00  2.81249E+00  1.48564E+00  5.00723E-02 -1.03636E+00 -1.62068E+00
  -1.73506E+00 -1.57967E+00 -1.44771E+00 -1.02645E+00  6.33159E-01  3.72223E+00  6.93460E+00  8.50801E+00  7.52790E+00  4.57562E+00
   1.26046E+00 -9.61559E-01 -1.77112E+00 -1.80399E+00 -1.64494E+00 -1.35131E+00 -7.69117E-01  1.92222E-01  1.41847E+00  2.49088E+00
   2.91939E+00  2.44427E+00  1.26117E+00 -1.21208E-02 -8.69540E-01 -1.12143E+00 -8.70797E-01 -4.16396E-01  1.02847E-01  6.57574E-01
   1.15877E+00  1.48847E+00  1.56503E+00  1.40162E+00  1.10571E+00  8.08049E-01  5.91394E-01  3.79956E-01  1.43450E-01 -2.81920E-02
  -1.06038E-01 -1.10668E-01 -4.62111E-02 -6.88818E-03 -2.38575E-01 -9.26233E-01 -1.95376E+00 -2.93730E+00 -3.46183E+00 -3.33380E+00
  -2.68004E+00 -1.87478E+00 -1.16343E+00 -6.02649E-01 -2.73594E-01 -2.74344E-01 -6.19488E-01 -1.23471E+00 -2.14057E+00 -2.35141E+00
   9.72078E-02  5.34540E+00  1.11607E+01  1.46055E+01  1.40669E+01  1.02569E+01  5.56914E+00  2.31994E+00  9.20317E-01  2.03265E-01
  -3.13376E-01 -4.63078E-01 -4.83924E-01 -4.75735E-01 -4.71254E-01 -4.70839E-01 -4.79617E-01 -4.97761E-01 -5.08469E-01 -4.97241E-01
  -4.69962E-01 -5.26972E-01 -7.66060E-01 -1.79607E-04  2.96154E+00  7.51478E+00  1.15596E+01  1.30386E+01  1.14103E+01  7.86893E+00
   4.44230E+00  2.46835E+00  1.59862E+00  9.36391E-01  5.16113E-01  3.35515E-01  2.33351E-01  1.70313E-01  1.22171E-01  5.83962E-02
  -3.42676E-02 -1.48772E-01 -2.50077E-01 -2.98612E-01 -3.06595E-01 -3.24522E-01 -3.91146E-01 -5.04766E-01 -6.28995E-01 -7.27212E-01
  -8.03297E-01 -9.04146E-01 -1.05399E+00 -1.21852E+00 -1.33310E+00 -1.33386E+00 -1.23693E+00 -1.15249E+00 -1.19370E+00 -1.37208E+00
  -1.59821E+00 -1.76295E+00 -1.81328E+00 -1.77123E+00 -1.71194E+00 -1.68889E+00 -1.72974E+00 -1.84005E+00 -1.95885E+00 -2.00160E+00
  -1.92652E+00 -1.77981E+00 -1.68405E+00 -1.74353E+00 -1.92540E+00 -2.08557E+00 -2.10862E+00 -2.01775E+00 -1.92737E+00 -1.95937E+00
  -2.10308E+00 -2.19779E+00 -2.11048E+00 -1.87481E+00 -1.62739E+00 -1.47068E+00 -1.41670E+00 -1.39492E+00 -1.31261E+00 -1.17086E+00
  -1.07485E+00 -1.09146E+00 -1.21074E+00 -1.36885E+00 -1.50674E+00 -1.58611E+00 -1.57553E+00 -1.48461E+00 -1.33031E+00 -1.11802E+00
  -8.76911E-01 -6.36932E-01 -3.74130E-01 -1.07103E-01  4.59010E-02 -1.49738E-02 -4.40723E-01 -1.26938E+00 -2.27835E+00 -3.11075E+00
  -3.44382E+00 -3.17124E+00 -2.04749E+00  6.72968E-03  2.36188E+00  4.07260E+00  4.46966E+00  3.45385E+00  1.41691E+00 -1.16730E+00
  -3.73632E+00 -5.56957E+00 -6.08234E+00 -4.95347E+00 -2.65849E+00 -2.46851E-01  1.45744E+00  2.24493E+00  2.42167E+00  2.28322E+00
   1.95204E+00  1.66885E+00  1.66600E+00  1.92822E+00  2.30967E+00  2.67411E+00  2.98592E+00  3.24673E+00  3.44337E+00  3.43941E+00
   3.20998E+00  2.97767E+00  3.07302E+00  3.60510E+00  4.42228E+00  5.26585E+00  5.89102E+00  6.11441E+00  5.94800E+00  5.60838E+00
   5.23310E+00  4.98987E+00  5.89227E+00  8.67255E+00  1.24775E+01  1.53464E+01  1.59570E+01  1.49185E+01  1.36527E+01  1.31414E+01
   1.32676E+01  1.28645E+01  1.11436E+01  8.87176E+00  7.03587E+00  5.89292E+00  5.05089E+00  4.29606E+00  3.73181E+00  3.25454E+00
   2.84681E+00  2.60444E+00  2.55306E+00  2.58218E+00  2.57276E+00  2.44196E+00  2.18906E+00  1.87059E+00  1.55742E+00  1.28687E+00
   1.07275E+00  9.20739E-01  8.30897E-01  7.87801E-01  7.57979E-01  7.19249E-01  6.76138E-01  6.39834E-01  6.22775E-01  6.50066E-01
   7.47703E-01  9.20749E-01  1.15051E+00  1.42031E+00  1.72354E+00  2.05932E+00  2.43499E+00  2.85860E+00  3.33465E+00  3.87248E+00
   4.47437E+00  5.12816E+00  5.81120E+00  6.49917E+00  7.17490E+00  7.82479E+00  8.43157E+00  8.98002E+00  9.45605E+00  9.84598E+00
   1.01389E+01  1.03273E+01  1.04074E+01  1.03796E+01  1.02488E+01  1.00238E+01  9.71750E+00  9.34567E+00  8.92638E+00  8.47950E+00
   8.02570E+00  7.58065E+00  7.18531E+00  7.17564E+00  7.70635E+00  8.21571E+00  7.90661E+00  6.41943E+00  4.12374E+00  1.81878E+00
   1.80464E-02 -1.14258E+00 -1.49385E+00 -8.62514E-01  7.90830E-01  2.84869E+00  4.35839E+00  4.81141E+00  4.35882E+00  3.64343E+00
   3.14684E+00  2.79106E+00  2.45567E+00  2.20893E+00  2.02145E+00  1.86948E+00  1.74280E+00  1.63617E+00  1.54665E+00  1.47251E+00
   1.41277E+00  1.36672E+00  1.33366E+00  1.31268E+00  1.30278E+00  1.30284E+00  1.31171E+00  1.32812E+00  1.35058E+00  1.37751E+00
   1.40739E+00  1.43885E+00  1.47076E+00  1.50221E+00  1.53250E+00  1.56128E+00  1.58871E+00  1.61550E+00  1.64292E+00  1.67271E+00
   1.70715E+00  1.74909E+00  1.80199E+00  1.86992E+00  1.95742E+00  2.06939E+00  2.21102E+00  2.38774E+00  2.60510E+00  2.86849E+00
   3.18286E+00  3.55241E+00  3.98029E+00  4.46832E+00  5.01666E+00  5.62335E+00  6.28398E+00  6.99154E+00  7.73629E+00  8.50589E+00
   9.28557E+00  1.00584E+01  1.08059E+01  1.15088E+01  1.21476E+01  1.27042E+01  1.31619E+01  1.35068E+01  1.37284E+01  1.38203E+01
   1.37801E+01  1.36101E+01  1.33168E+01  1.29102E+01  1.24037E+01  1.18129E+01  1.11554E+01  1.04490E+01  9.71154E+00  8.95994E+00
   8.20951E+00  7.47364E+00  6.76349E+00  6.08782E+00  5.45299E+00  4.86309E+00  4.32026E+00  3.82500E+00  3.37644E+00  2.97259E+00
   2.61072E+00  2.28757E+00  1.99970E+00  1.74363E+00  1.51595E+00  1.31337E+00  1.13284E+00  9.71570E-01  8.27139E-01  6.97406E-01
   5.80488E-01  4.74716E-01  3.78635E-01  2.91024E-01  2.10863E-01  1.37286E-01  6.95184E-02  6.86874E-03 -5.12529E-02 -1.05320E-01
  -1.55720E-01 -2.02802E-01 -2.46903E-01 -2.88338E-01 -3.27362E-01 -3.64168E-01 -3.98920E-01 -4.31786E-01 -4.62946E-01 -4.92563E-01
  -5.20750E-01 -5.47587E-01 -5.73153E-01 -5.97551E-01 -6.20889E-01 -6.43253E-01 -6.64691E-01 -6.85238E-01 -7.04946E-01 -7.23891E-01
  -7.42146E-01 -7.59752E-01 -7.76720E-01 -7.93067E-01 -8.08834E-01 -8.24079E-01 -8.38849E-01 -8.53161E-01 -8.67014E-01 -8.80421E-01
  -8.93420E-01 -9.06055E-01 -9.18350E-01 -9.30301E-01 -9.41904E-01 -9.53174E-01 -9.64152E-01 -9.74870E-01 -9.85340E-01 -9.95547E-01
  -1.00549E+00 -1.01519E+00 -1.02468E+00 -1.03399E+00 -1.04310E+00 -1.05201E+00 -1.06072E+00 -1.06925E+00 -1.07763E+00 -1.08588E+00
  -1.09399E+00 -1.10193E+00 -1.10974E+00 -1.11742E+00 -1.12500E+00 -1.13250E+00 -1.13989E+00 -1.14717E+00
 NY background values follow
    -1.391E+00   -1.391E+00   -1.392E+00   -1.393E+00   -1.394E+00   -1.394E+00   -1.395E+00   -1.396E+00   -1.396E+00   -1.397E+00
    -1.398E+00   -1.398E+00   -1.399E+00   -1.400E+00   -1.401E+00   -1.401E+00   -1.402E+00   -1.403E+00   -1.403E+00   -1.404E+00
    -1.405E+00   -1.405E+00   -1.406E+00   -1.407E+00   -1.408E+00   -1.408E+00   -1.409E+00   -1.410E+00   -1.410E+00   -1.411E+00
    -1.412E+00   -1.412E+00   -1.413E+00   -1.414E+00   -1.415E+00   -1.415E+00   -1.416E+00   -1.417E+00   -1.417E+00   -1.418E+00
    -1.419E+00   -1.419E+00   -1.420E+00   -1.421E+00   -1.422E+00   -1.422E+00   -1.423E+00   -1.424E+00   -1.424E+00   -1.425E+00
    -1.426E+00   -1.426E+00   -1.427E+00   -1.428E+00   -1.429E+00   -1.429E+00   -1.430E+00   -1.431E+00   -1.431E+00   -1.432E+00
    -1.433E+00   -1.433E+00   -1.434E+00   -1.435E+00   -1.435E+00   -1.436E+00   -1.437E+00   -1.438E+00   -1.438E+00   -1.439E+00
    -1.440E+00   -1.440E+00   -1.441E+00   -1.442E+00   -1.442E+00   -1.443E+00   -1.444E+00   -1.445E+00   -1.445E+00   -1.446E+00
    -1.447E+00   -1.447E+00   -1.448E+00   -1.449E+00   -1.449E+00   -1.450E+00   -1.451E+00   -1.451E+00   -1.452E+00   -1.453E+00
    -1.454E+00   -1.454E+00   -1.455E+00   -1.456E+00   -1.456E+00   -1.457E+00   -1.458E+00   -1.458E+00   -1.459E+00   -1.460E+00
    -1.461E+00   -1.461E+00   -1.462E+00   -1.463E+00   -1.463E+00   -1.464E+00   -1.465E+00   -1.465E+00   -1.466E+00   -1.467E+00
    -1.467E+00   -1.468E+00   -1.469E+00   -1.469E+00   -1.470E+00   -1.471E+00   -1.472E+00   -1.472E+00   -1.473E+00   -1.474E+00
    -1.474E+00   -1.475E+00   -1.476E+00   -1.476E+00   -1.477E+00   -1.478E+00   -1.478E+00   -1.479E+00   -1.480E+00   -1.481E+00
    -1.481E+00   -1.482E+00   -1.483E+00   -1.483E+00   -1.484E+00   -1.485E+00   -1.485E+00   -1.486E+00   -1.487E+00   -1.487E+00
    -1.488E+00   -1.489E+00   -1.489E+00   -1.490E+00   -1.491E+00   -1.492E+00   -1.492E+00   -1.493E+00   -1.494E+00   -1.494E+00
    -1.495E+00   -1.496E+00   -1.496E+00   -1.497E+00   -1.498E+00   -1.498E+00   -1.499E+00   -1.500E+00   -1.500E+00   -1.501E+00
    -1.502E+00   -1.503E+00   -1.503E+00   -1.504E+00   -1.505E+00   -1.505E+00   -1.506E+00   -1.507E+00   -1.507E+00   -1.508E+00
    -1.509E+00   -1.509E+00   -1.510E+00   -1.511E+00   -1.511E+00   -1.512E+00   -1.513E+00   -1.514E+00   -1.514E+00   -1.515E+00
    -1.516E+00   -1.516E+00   -1.517E+00   -1.518E+00   -1.518E+00   -1.519E+00   -1.520E+00   -1.520E+00   -1.521E+00   -1.522E+00
    -1.522E+00   -1.523E+00   -1.524E+00   -1.524E+00   -1.525E+00   -1.526E+00   -1.526E+00   -1.527E+00   -1.528E+00   -1.529E+00
    -1.529E+00   -1.530E+00   -1.531E+00   -1.531E+00   -1.532E+00   -1.533E+00   -1.533E+00   -1.534E+00   -1.535E+00   -1.535E+00
    -1.536E+00   -1.537E+00   -1.537E+00   -1.538E+00   -1.539E+00   -1.539E+00   -1.540E+00   -1.541E+00   -1.541E+00   -1.542E+00
    -1.543E+00   -1.543E+00   -1.544E+00   -1.545E+00   -1.546E+00   -1.546E+00   -1.547E+00   -1.548E+00   -1.548E+00   -1.549E+00
    -1.550E+00   -1.550E+00   -1.551E+00   -1.552E+00   -1.552E+00   -1.553E+00   -1.554E+00   -1.554E+00   -1.555E+00   -1.556E+00
    -1.556E+00   -1.557E+00   -1.558E+00   -1.558E+00   -1.559E+00   -1.560E+00   -1.560E+00   -1.561E+00   -1.562E+00   -1.562E+00
    -1.563E+00   -1.564E+00   -1.564E+00   -1.565E+00   -1.566E+00   -1.566E+00   -1.567E+00   -1.568E+00   -1.569E+00   -1.569E+00
    -1.570E+00   -1.571E+00   -1.571E+00   -1.572E+00   -1.573E+00   -1.573E+00   -1.574E+00   -1.575E+00   -1.575E+00   -1.576E+00
    -1.577E+00   -1.577E+00   -1.578E+00   -1.579E+00   -1.579E+00   -1.580E+00   -1.581E+00   -1.581E+00   -1.582E+00   -1.583E+00
    -1.583E+00   -1.584E+00   -1.585E+00   -1.585E+00   -1.586E+00   -1.587E+00   -1.587E+00   -1.588E+00   -1.589E+00   -1.589E+00
    -1.590E+00   -1.591E+00   -1.591E+00   -1.592E+00   -1.593E+00   -1.593E+00   -1.594E+00   -1.595E+00   -1.595E+00   -1.596E+00
    -1.597E+00   -1.597E+00   -1.598E+00   -1.599E+00   -1.599E+00   -1.600E+00   -1.601E+00   -1.601E+00   -1.602E+00   -1.603E+00
    -1.603E+00   -1.604E+00   -1.605E+00   -1.605E+00   -1.606E+00   -1.607E+00   -1.607E+00   -1.608E+00   -1.609E+00   -1.609E+00
    -1.610E+00   -1.611E+00   -1.611E+00   -1.612E+00   -1.613E+00   -1.613E+00   -1.614E+00   -1.615E+00   -1.615E+00   -1.616E+00
    -1.617E+00   -1.617E+00   -1.618E+00   -1.619E+00   -1.619E+00   -1.620E+00   -1.621E+00   -1.621E+00   -1.622E+00   -1.623E+00
    -1.623E+00   -1.624E+00   -1.625E+00   -1.625E+00   -1.626E+00   -1.627E+00   -1.627E+00   -1.628E+00   -1.629E+00   -1.629E+00
    -1.630E+00   -1.631E+00   -1.631E+00   -1.632E+00   -1.633E+00   -1.633E+00   -1.634E+00   -1.635E+00   -1.635E+00   -1.636E+00
    -1.637E+00   -1.637E+00   -1.638E+00   -1.639E+00   -1.639E+00   -1.640E+00   -1.641E+00   -1.641E+00   -1.642E+00   -1.643E+00
    -1.643E+00   -1.644E+00   -1.645E+00   -1.645E+00   -1.646E+00   -1.647E+00   -1.647E+00   -1.648E+00   -1.648E+00   -1.649E+00
    -1.650E+00   -1.650E+00   -1.651E+00   -1.652E+00   -1.652E+00   -1.653E+00   -1.654E+00   -1.654E+00   -1.655E+00   -1.656E+00
    -1.656E+00   -1.657E+00   -1.658E+00   -1.658E+00   -1.659E+00   -1.660E+00   -1.660E+00   -1.661E+00   -1.662E+00   -1.662E+00
    -1.663E+00   -1.664E+00   -1.664E+00   -1.665E+00   -1.666E+00   -1.666E+00   -1.667E+00   -1.668E+00   -1.668E+00   -1.669E+00
    -1.669E+00   -1.670E+00   -1.671E+00   -1.671E+00   -1.672E+00   -1.673E+00   -1.673E+00   -1.674E+00   -1.675E+00   -1.675E+00
    -1.676E+00   -1.677E+00   -1.677E+00   -1.678E+00   -1.679E+00   -1.679E+00   -1.680E+00   -1.681E+00   -1.681E+00   -1.682E+00
    -1.683E+00   -1.683E+00   -1.684E+00   -1.684E+00   -1.685E+00   -1.686E+00   -1.686E+00   -1.687E+00   -1.688E+00   -1.688E+00
    -1.689E+00   -1.690E+00   -1.690E+00   -1.691E+00   -1.692E+00   -1.692E+00   -1.693E+00   -1.694E+00   -1.694E+00   -1.695E+00
    -1.696E+00   -1.696E+00   -1.697E+00   -1.697E+00   -1.698E+00   -1.699E+00   -1.699E+00   -1.700E+00   -1.701E+00   -1.701E+00
    -1.702E+00   -1.703E+00   -1.703E+00   -1.704E+00   -1.705E+00   -1.705E+00   -1.706E+00   -1.707E+00   -1.707E+00   -1.708E+00
    -1.708E+00   -1.709E+00   -1.710E+00   -1.710E+00   -1.711E+00   -1.712E+00   -1.712E+00   -1.713E+00   -1.714E+00   -1.714E+00
    -1.715E+00   -1.716E+00   -1.716E+00   -1.717E+00   -1.718E+00   -1.718E+00   -1.719E+00   -1.719E+00   -1.720E+00   -1.721E+00
    -1.721E+00   -1.722E+00   -1.723E+00   -1.723E+00   -1.724E+00   -1.725E+00   -1.725E+00   -1.726E+00
 Ala      Conc. = 1.89E+02
