 LCModel (Version 6.3-1L) Copyright: S.W. Provencher.          Ref.: Magn. Reson. Med. 30:672-679 (1993).                
 Slice#3 Row#8 Col#5  PD_05_press_2_raw_act
 36 lines in following concentration table = NCONC+1
    Conc.  %SD /Cr+PCr  Metabolite                                         
  238.158 117% 5.9E-02 Ala                                                 
    0.000 999%   0.000 Asp                                                 
    0.000 999%   0.000 Cr                                                  
 4.01E+03   4%   1.000 PCr                                                 
    0.000 999%   0.000 GABA                                                
   83.718 461% 2.1E-02 Glc                                                 
 2.67E+03  23%   0.667 Gln                                                 
 3.61E+03  18%   0.901 Glu                                                 
 1.56E+03   4%   0.389 GPC                                                 
    0.000 999%   0.000 PCh                                                 
 1.36E+03  14%   0.340 GSH                                                 
 3.53E+03  18%   0.880 Ins                                                 
   34.005 999% 8.5E-03 Lac                                                 
 5.99E+03   5%   1.495 NAA                                                 
  128.247 279% 3.2E-02 NAAG                                                
  405.818  18%   0.101 Scyllo                                              
 1.38E+03  38%   0.345 Tau                                                 
 1.21E+03  21%   0.301 -CrCH2                                              
 1.56E+03   4%   0.389 GPC+PCh                                             
 6.12E+03   3%   1.527 NAA+NAAG                                            
 4.01E+03   4%   1.000 Cr+PCr                                              
 6.28E+03  16%   1.567 Glu+Gln                                             
    0.000 999%   0.000 Lip13a                                              
  635.449  33%   0.159 Lip13b                                              
   78.715 466% 2.0E-02 Lip09                                               
 2.04E+03  24%   0.508 MM09                                                
    0.000 999%   0.000 Lip20                                               
 2.89E+03  28%   0.722 MM20                                                
  917.133  37%   0.229 MM12                                                
  511.522 114%   0.128 MM14                                                
 1.33E+03  36%   0.331 MM17                                                
  635.449  33%   0.159 Lip13a+Lip13b                                       
 2.06E+03  36%   0.515 MM14+Lip13a+Lip13b+MM12                             
 2.12E+03  19%   0.528 MM09+Lip09                                          
 2.89E+03  28%   0.722 MM20+Lip20                                          
   6 lines in following misc. output table
  FWHM = 0.061 ppm    S/N =  13                                            
  Data shift =-0.008 ppm                                                   
  Ph: -39 deg     -18.6 deg/ppm                                            
  alphaB,S = 1.4E+00,   9.1E+01                                            
   14 spline knots.   Ns = 8(1)                                            
  (13) 3 infls.   (11) 1 extrs.                                            
  498 points on ppm-axis = NY
      4.000000     3.992357     3.984714     3.977070     3.969427     3.961784     3.954141     3.946497     3.938854     3.931211
      3.923568     3.915925     3.908281     3.900638     3.892995     3.885352     3.877708     3.870065     3.862422     3.854779
      3.847136     3.839492     3.831849     3.824206     3.816563     3.808919     3.801276     3.793633     3.785990     3.778347
      3.770703     3.763060     3.755417     3.747774     3.740130     3.732487     3.724844     3.717201     3.709558     3.701914
      3.694271     3.686628     3.678985     3.671341     3.663698     3.656055     3.648412     3.640769     3.633125     3.625482
      3.617839     3.610196     3.602552     3.594909     3.587266     3.579623     3.571980     3.564336     3.556693     3.549050
      3.541407     3.533763     3.526120     3.518477     3.510834     3.503191     3.495547     3.487904     3.480261     3.472618
      3.464974     3.457331     3.449688     3.442045     3.434402     3.426758     3.419115     3.411472     3.403829     3.396185
      3.388542     3.380899     3.373256     3.365613     3.357969     3.350326     3.342683     3.335040     3.327396     3.319753
      3.312110     3.304467     3.296824     3.289180     3.281537     3.273894     3.266251     3.258607     3.250964     3.243321
      3.235678     3.228034     3.220391     3.212748     3.205105     3.197462     3.189818     3.182175     3.174532     3.166889
      3.159245     3.151602     3.143959     3.136316     3.128673     3.121029     3.113386     3.105743     3.098100     3.090456
      3.082813     3.075170     3.067527     3.059884     3.052240     3.044597     3.036954     3.029311     3.021667     3.014024
      3.006381     2.998738     2.991095     2.983451     2.975808     2.968165     2.960522     2.952878     2.945235     2.937592
      2.929949     2.922306     2.914662     2.907019     2.899376     2.891733     2.884089     2.876446     2.868803     2.861160
      2.853517     2.845873     2.838230     2.830587     2.822944     2.815300     2.807657     2.800014     2.792371     2.784728
      2.777084     2.769441     2.761798     2.754155     2.746511     2.738868     2.731225     2.723582     2.715939     2.708295
      2.700652     2.693009     2.685366     2.677722     2.670079     2.662436     2.654793     2.647150     2.639506     2.631863
      2.624220     2.616577     2.608933     2.601290     2.593647     2.586004     2.578361     2.570717     2.563074     2.555431
      2.547788     2.540144     2.532501     2.524858     2.517215     2.509572     2.501928     2.494285     2.486642     2.478999
      2.471355     2.463712     2.456069     2.448426     2.440783     2.433139     2.425496     2.417853     2.410210     2.402566
      2.394923     2.387280     2.379637     2.371994     2.364350     2.356707     2.349064     2.341421     2.333777     2.326134
      2.318491     2.310848     2.303205     2.295561     2.287918     2.280275     2.272632     2.264988     2.257345     2.249702
      2.242059     2.234416     2.226772     2.219129     2.211486     2.203843     2.196199     2.188556     2.180913     2.173270
      2.165627     2.157983     2.150340     2.142697     2.135054     2.127410     2.119767     2.112124     2.104481     2.096838
      2.089194     2.081551     2.073908     2.066265     2.058621     2.050978     2.043335     2.035692     2.028049     2.020405
      2.012762     2.005119     1.997476     1.989833     1.982190     1.974546     1.966903     1.959260     1.951617     1.943974
      1.936331     1.928688     1.921045     1.913402     1.905759     1.898115     1.890472     1.882829     1.875186     1.867543
      1.859900     1.852257     1.844614     1.836971     1.829327     1.821684     1.814041     1.806398     1.798755     1.791112
      1.783469     1.775826     1.768183     1.760540     1.752896     1.745253     1.737610     1.729967     1.722324     1.714681
      1.707038     1.699395     1.691752     1.684108     1.676465     1.668822     1.661179     1.653536     1.645893     1.638250
      1.630607     1.622964     1.615321     1.607677     1.600034     1.592391     1.584748     1.577105     1.569462     1.561819
      1.554176     1.546533     1.538890     1.531246     1.523603     1.515960     1.508317     1.500674     1.493031     1.485388
      1.477745     1.470102     1.462458     1.454815     1.447172     1.439529     1.431886     1.424243     1.416600     1.408957
      1.401314     1.393671     1.386027     1.378384     1.370741     1.363098     1.355455     1.347812     1.340169     1.332526
      1.324883     1.317240     1.309596     1.301953     1.294310     1.286667     1.279024     1.271381     1.263738     1.256095
      1.248452     1.240808     1.233165     1.225522     1.217879     1.210236     1.202593     1.194950     1.187307     1.179664
      1.172021     1.164377     1.156734     1.149091     1.141448     1.133805     1.126162     1.118519     1.110876     1.103233
      1.095590     1.087946     1.080303     1.072660     1.065017     1.057374     1.049731     1.042088     1.034445     1.026802
      1.019158     1.011515     1.003872     0.996229     0.988586     0.980943     0.973300     0.965657     0.958014     0.950371
      0.942727     0.935084     0.927441     0.919798     0.912155     0.904512     0.896869     0.889226     0.881583     0.873940
      0.866296     0.858653     0.851010     0.843367     0.835724     0.828081     0.820438     0.812795     0.805152     0.797508
      0.789865     0.782222     0.774579     0.766936     0.759293     0.751650     0.744007     0.736364     0.728721     0.721077
      0.713434     0.705791     0.698148     0.690505     0.682862     0.675219     0.667576     0.659933     0.652290     0.644646
      0.637003     0.629360     0.621717     0.614074     0.606431     0.598788     0.591145     0.583502     0.575858     0.568215
      0.560572     0.552929     0.545286     0.537643     0.530000     0.522357     0.514714     0.507071     0.499427     0.491784
      0.484141     0.476498     0.468855     0.461212     0.453569     0.445925     0.438282     0.430639     0.422996     0.415353
      0.407710     0.400067     0.392424     0.384780     0.377137     0.369494     0.361851     0.354208     0.346565     0.338922
      0.331278     0.323635     0.315992     0.308349     0.300706     0.293063     0.285420     0.277777     0.270133     0.262490
      0.254847     0.247204     0.239561     0.231918     0.224275     0.216631     0.208988     0.201345
 NY phased data points follow
  -1.06004E+02 -1.11701E+02 -1.02026E+02 -9.42953E+01 -7.49949E+01 -7.58669E+01 -5.87415E+01 -4.94642E+01 -3.41322E+01 -2.49308E+01
  -2.35653E+01 -4.23218E+01 -3.64723E+01 -5.17976E+01 -6.11946E+01 -8.00915E+01 -6.89825E+01 -8.47882E+01 -8.84660E+01 -8.91628E+01
  -8.05218E+01 -7.80114E+01 -7.12782E+01 -7.75760E+01 -7.18384E+01 -8.11575E+01 -6.14498E+01 -5.44752E+01 -5.62796E+01 -5.59878E+01
  -5.39528E+01 -5.49772E+01 -5.28700E+01 -5.30992E+01 -5.56890E+01 -6.80157E+01 -6.31789E+01 -6.23046E+01 -6.19988E+01 -6.59151E+01
  -4.43351E+01 -5.67227E+01 -5.40071E+01 -5.80960E+01 -4.50682E+01 -3.82718E+01 -5.03188E+01 -4.18744E+01 -3.54752E+01 -4.94273E+01
  -4.26919E+01 -5.64088E+01 -5.20883E+01 -6.45454E+01 -5.78748E+01 -6.23775E+01 -5.83769E+01 -5.80431E+01 -5.86403E+01 -5.55104E+01
  -5.63677E+01 -7.16047E+01 -6.07218E+01 -7.51199E+01 -5.82482E+01 -5.83099E+01 -6.45557E+01 -6.58695E+01 -6.04003E+01 -6.58640E+01
  -4.06112E+01 -5.29415E+01 -5.01641E+01 -5.46185E+01 -3.65371E+01 -4.67450E+01 -4.61414E+01 -4.53814E+01 -5.24572E+01 -5.13869E+01
  -5.40473E+01 -4.26915E+01 -3.58010E+01 -4.04975E+01 -4.47259E+01 -4.01625E+01 -3.68559E+01 -4.08542E+01 -3.66005E+01 -3.34768E+01
  -3.05341E+01 -2.67688E+01 -2.73839E+01 -2.73127E+01 -1.54354E+01 -1.90034E+01 -1.54296E+01 -4.39789E+00  2.05489E+01  1.87566E+01
   4.45628E+01  6.24064E+01  8.22137E+01  7.66659E+01  7.27137E+01  6.27925E+01  4.11738E+01  2.12766E+01  4.40035E+00 -8.46781E+00
  -1.71805E+01 -1.92949E+01 -2.80513E+01 -3.16369E+01 -1.88605E+01 -1.83951E+01 -1.30033E+01 -2.38263E+01 -2.52964E+01 -1.71092E+01
  -1.33153E+01 -1.10342E+01  1.56049E+01  2.80070E+01  4.39624E+01  6.40215E+01  8.93720E+01  7.26989E+01  7.55807E+01  6.12899E+01
   4.24791E+01  2.73648E+01  8.60655E+00 -1.04269E+00 -1.59229E+01 -1.98351E+01 -2.53411E+01 -3.93097E+01 -2.38554E+01 -3.09075E+01
  -2.63317E+01 -3.50170E+01 -2.71057E+01 -3.58820E+01 -2.29443E+01 -2.62520E+01 -3.07997E+01 -3.35705E+01 -2.22686E+01 -2.59262E+01
  -1.93897E+01 -2.26955E+01 -3.06185E+01 -2.89806E+01 -3.07501E+01 -3.25483E+01 -3.44862E+01 -3.68433E+01 -2.49399E+01 -2.09565E+01
  -2.47081E+01 -3.11228E+01 -2.99840E+01 -2.82979E+01 -2.70911E+01 -2.91852E+01 -2.22565E+01 -2.91469E+01 -2.17419E+01 -3.39396E+01
  -2.96874E+01 -3.10534E+01 -3.54578E+01 -4.42264E+01 -4.30672E+01 -3.33386E+01 -4.94679E+01 -3.93013E+01 -3.03905E+01 -3.57172E+01
  -3.38953E+01 -3.99126E+01 -4.18878E+01 -3.61842E+01 -2.86901E+01 -3.55023E+01 -2.30990E+01 -2.27051E+01 -1.39794E+01 -1.64935E+01
  -3.67559E+00  4.88032E+00  6.11216E+00  1.63671E+00  6.86948E+00 -4.19102E+00 -8.14246E-01 -1.70847E+01 -1.93277E+01 -1.25613E+01
  -5.71407E+00 -3.60031E+00 -2.77082E+00 -3.35020E-01  2.77737E-01 -9.76252E+00 -8.66541E+00 -1.03174E+01 -1.42241E+01 -3.09934E+01
  -2.24259E+01 -1.28696E+01 -4.19830E+00  5.75766E+00  9.78695E+00  1.62265E+01  1.94100E+01  1.70053E+01  1.83405E+01  5.89454E+00
   6.26986E+00  5.10323E-01 -4.80295E+00 -2.52625E+00 -8.17227E+00 -4.26895E-02 -5.32029E-01  1.04123E+01  7.71241E+00  8.49936E+00
   1.91509E+01  1.83635E+01  2.64797E+00  1.50836E+01  1.54307E+01  1.09795E+01  1.53412E+01  4.17621E+00  5.48281E+00 -2.29764E+00
   2.73793E+00 -8.34147E+00 -3.23321E-02  5.88438E+00  2.49681E+00  2.39884E+00  1.31701E+01  2.44993E+01  2.95503E+01  1.31964E+01
   1.70224E+01  2.68863E+01  3.72030E+01  4.92581E+01  5.27953E+01  7.93679E+01  1.01489E+02  1.24287E+02  1.41662E+02  1.70825E+02
   1.81499E+02  1.91522E+02  1.84581E+02  1.51500E+02  1.23608E+02  8.87277E+01  7.95919E+01  5.06385E+01  4.08679E+01  2.05777E+01
   3.15434E+01  2.00345E+01  2.30481E+01  7.40442E+00  2.09781E+01  2.28296E+01  2.34136E+01  1.34548E+01  1.50463E+01  1.76611E+01
   2.33204E+01  2.51289E+01  2.10705E+01  1.83718E+01  1.69078E+01  1.58588E+01  1.90727E+01  8.82881E+00  1.61942E+01  1.23137E+01
   1.16935E+01  1.54223E+01  1.99723E+01  2.57144E+01  2.96106E+01  1.56790E+01  2.86020E+01  1.24353E+01  1.95135E+01  2.27636E+01
   1.77350E+01  2.52149E+01  1.94893E+01  1.73135E+01  3.20713E+01  1.20079E+01  2.02634E+01  1.81145E+01  3.24816E+01  2.30933E+01
   1.99937E+01  3.42933E+01  3.61257E+01  3.02378E+01  2.69644E+01  2.95031E+01  3.03740E+01  2.17537E+01  2.65383E+01  2.65971E+01
   2.79942E+01  2.18477E+01  2.51667E+01  3.07947E+01  3.18177E+01  2.71452E+01  2.99247E+01  2.01909E+01  2.83730E+01  2.62492E+01
   2.75410E+01  2.06124E+01  2.07113E+01  1.93807E+01  2.67787E+01  2.41019E+01  2.66390E+01  2.61604E+01  3.16642E+01  2.11438E+01
   2.62727E+01  2.60239E+01  2.28383E+01  2.17955E+01  1.92664E+01  3.03019E+01  1.65697E+01  2.40377E+01  2.55051E+01  2.85374E+01
   3.12386E+01  2.87346E+01  2.75745E+01  2.70644E+01  4.13788E+01  3.04410E+01  4.24252E+01  3.50170E+01  3.42738E+01  3.64249E+01
   4.28572E+01  3.88797E+01  2.66091E+01  3.56369E+01  3.86419E+01  3.48627E+01  2.73814E+01  2.92353E+01  3.18986E+01  2.78344E+01
   3.46618E+01  3.64745E+01  3.22953E+01  3.36630E+01  2.57244E+01  2.95330E+01  3.41954E+01  2.83576E+01  3.19830E+01  3.48495E+01
   2.47690E+01  3.34172E+01  2.89839E+01  3.91217E+01  2.85712E+01  2.92274E+01  3.19924E+01  2.70211E+01  2.64359E+01  3.38690E+01
   3.00786E+01  2.63235E+01  3.31985E+01  2.78090E+01  2.93391E+01  3.63068E+01  3.77443E+01  2.96050E+01  3.60571E+01  3.07569E+01
   3.57766E+01  3.13638E+01  4.14846E+01  3.28804E+01  4.12972E+01  3.36643E+01  4.32461E+01  3.57888E+01  3.83295E+01  3.70311E+01
   3.96548E+01  4.16191E+01  4.78478E+01  4.13222E+01  4.33557E+01  4.15716E+01  4.63190E+01  3.72915E+01  3.60148E+01  3.11749E+01
   4.22171E+01  3.48415E+01  2.56967E+01  2.44131E+01  2.83218E+01  2.95038E+01  2.75459E+01  3.06284E+01  2.44151E+01  2.27995E+01
   2.40903E+01  2.31530E+01  2.30354E+01  2.34053E+01  3.31491E+01  2.93115E+01  2.05229E+01  2.50795E+01  2.51771E+01  2.66975E+01
   3.16962E+01  2.65700E+01  1.55017E+01  3.02874E+01  2.43175E+01  2.96674E+01  2.38162E+01  2.48016E+01  2.37274E+01  2.49839E+01
   2.64391E+01  1.92200E+01  1.86335E+01  2.94177E+01  2.80554E+01  2.35176E+01  2.91499E+01  2.62602E+01  2.30956E+01  2.35440E+01
   1.55558E+01  2.18400E+01  2.39906E+01  2.44295E+01  1.33614E+01  2.36140E+01  2.38700E+01  2.57111E+01  1.99496E+01  2.16728E+01
   1.96622E+01  2.17139E+01  1.75459E+01  2.82412E+01  2.69157E+01  2.56656E+01  2.52499E+01  2.21388E+01  2.11518E+01  1.86963E+01
   3.04894E+01  2.71993E+01  2.10311E+01  9.52812E+00  7.32606E+00  1.96133E+01  1.82986E+01  1.68186E+01  2.08756E+01  2.77374E+01
   2.22904E+01  2.66257E+01  2.50618E+01  2.21234E+01  1.81799E+01  2.24199E+01  2.44792E+01  2.02293E+01
 NY points of the fit to the data follow
  -9.59266E+01 -9.23425E+01 -8.78718E+01 -8.27246E+01 -7.55614E+01 -6.74352E+01 -5.83995E+01 -4.81494E+01 -3.87493E+01 -3.32434E+01
  -3.26040E+01 -3.68424E+01 -4.46813E+01 -5.36758E+01 -6.12663E+01 -6.69265E+01 -7.13273E+01 -7.52531E+01 -7.86867E+01 -8.00795E+01
  -8.04768E+01 -8.01125E+01 -7.87199E+01 -7.73113E+01 -7.52631E+01 -7.23466E+01 -6.85390E+01 -6.35832E+01 -5.79329E+01 -5.26035E+01
  -4.87870E+01 -4.72938E+01 -4.82910E+01 -5.12425E+01 -5.52731E+01 -5.94063E+01 -6.33743E+01 -6.67054E+01 -6.86529E+01 -6.86444E+01
  -6.68605E+01 -6.39422E+01 -6.01631E+01 -5.60801E+01 -5.19088E+01 -4.80455E+01 -4.53950E+01 -4.46219E+01 -4.59225E+01 -4.91144E+01
  -5.32637E+01 -5.70766E+01 -5.98191E+01 -6.12303E+01 -6.17839E+01 -6.17788E+01 -6.10330E+01 -5.95610E+01 -5.78351E+01 -5.63884E+01
  -5.56231E+01 -5.55178E+01 -5.59833E+01 -5.66159E+01 -5.69157E+01 -5.66509E+01 -5.59148E+01 -5.47919E+01 -5.33185E+01 -5.19248E+01
  -5.06586E+01 -4.94739E+01 -4.85818E+01 -4.79588E+01 -4.74274E+01 -4.71830E+01 -4.74166E+01 -4.80078E+01 -4.88581E+01 -4.90734E+01
  -4.85542E+01 -4.75265E+01 -4.55810E+01 -4.30843E+01 -4.04624E+01 -3.76638E+01 -3.50319E+01 -3.32888E+01 -3.27300E+01 -3.34559E+01
  -3.50543E+01 -3.67376E+01 -3.80367E+01 -3.81141E+01 -3.44635E+01 -2.61576E+01 -1.70009E+01 -4.96832E+00  1.06835E+01  2.78551E+01
   4.65790E+01  6.51356E+01  7.84791E+01  8.24360E+01  7.62452E+01  6.11780E+01  4.10872E+01  2.09076E+01  4.14766E+00 -8.90139E+00
  -1.95059E+01 -2.83683E+01 -3.43524E+01 -3.66426E+01 -3.73096E+01 -3.74039E+01 -3.70511E+01 -3.59931E+01 -3.20323E+01 -2.30665E+01
  -1.37794E+01 -2.72164E+00  1.14923E+01  2.72698E+01  4.48960E+01  6.33514E+01  7.75204E+01  8.26112E+01  7.79322E+01  6.44197E+01
   4.56086E+01  2.65424E+01  1.05784E+01 -2.20019E+00 -1.30639E+01 -2.25680E+01 -2.92070E+01 -3.13639E+01 -3.10718E+01 -2.97222E+01
  -2.80119E+01 -2.65414E+01 -2.55810E+01 -2.50910E+01 -2.50106E+01 -2.52665E+01 -2.56615E+01 -2.60885E+01 -2.65064E+01 -2.68686E+01
  -2.71480E+01 -2.72550E+01 -2.72573E+01 -2.73559E+01 -2.74096E+01 -2.73512E+01 -2.72832E+01 -2.71233E+01 -2.71198E+01 -2.73720E+01
  -2.76390E+01 -2.77314E+01 -2.75139E+01 -2.69578E+01 -2.63273E+01 -2.60025E+01 -2.61764E+01 -2.68474E+01 -2.78658E+01 -2.88581E+01
  -2.94414E+01 -2.99473E+01 -3.05180E+01 -3.11794E+01 -3.17801E+01 -3.19720E+01 -3.17540E+01 -3.12099E+01 -3.04800E+01 -2.99288E+01
  -2.94955E+01 -2.89136E+01 -2.81830E+01 -2.70683E+01 -2.54609E+01 -2.35885E+01 -2.14623E+01 -1.89089E+01 -1.59956E+01 -1.30327E+01
  -1.06542E+01 -9.36310E+00 -9.28109E+00 -9.95473E+00 -1.08622E+01 -1.14597E+01 -1.10512E+01 -9.68846E+00 -7.42520E+00 -4.32685E+00
  -1.10740E+00  1.45810E+00  2.96091E+00  3.38180E+00  2.13496E+00 -9.30789E-01 -5.08825E+00 -9.62010E+00 -1.35235E+01 -1.53876E+01
  -1.51505E+01 -1.26766E+01 -8.34018E+00 -3.08888E+00  2.16013E+00  6.30071E+00  8.71028E+00  9.00095E+00  6.81106E+00  2.54045E+00
  -2.53818E+00 -6.99040E+00 -9.67470E+00 -1.01946E+01 -8.55967E+00 -5.12974E+00 -7.71939E-01  3.33917E+00  6.33884E+00  8.29924E+00
   9.26389E+00  9.78348E+00  1.03878E+01  1.08792E+01  1.12531E+01  1.20337E+01  1.29773E+01  1.36522E+01  1.38183E+01  1.31698E+01
   1.16077E+01  9.46527E+00  7.55123E+00  6.57151E+00  6.82421E+00  8.18867E+00  1.03596E+01  1.29950E+01  1.57167E+01  1.82223E+01
   2.07020E+01  2.42745E+01  3.33426E+01  4.77560E+01  6.19045E+01  7.93257E+01  1.00270E+02  1.22723E+02  1.47339E+02  1.71419E+02
   1.87331E+02  1.89568E+02  1.77644E+02  1.53821E+02  1.24051E+02  9.55758E+01  7.27547E+01  5.49703E+01  4.02398E+01  2.79898E+01
   2.04231E+01  1.79195E+01  1.70980E+01  1.68060E+01  1.68023E+01  1.69428E+01  1.70469E+01  1.70626E+01  1.69968E+01  1.68720E+01
   1.67369E+01  1.66300E+01  1.65579E+01  1.65276E+01  1.65645E+01  1.66708E+01  1.68211E+01  1.69976E+01  1.72019E+01  1.74418E+01
   1.77187E+01  1.80246E+01  1.83628E+01  1.87377E+01  1.91457E+01  1.95826E+01  2.00459E+01  2.05321E+01  2.10379E+01  2.15576E+01
   2.20852E+01  2.26134E+01  2.31350E+01  2.36403E+01  2.41189E+01  2.45609E+01  2.49583E+01  2.53045E+01  2.55956E+01  2.58293E+01
   2.60060E+01  2.61272E+01  2.61965E+01  2.62197E+01  2.62058E+01  2.61649E+01  2.61102E+01  2.60599E+01  2.60473E+01  2.61182E+01
   2.61698E+01  2.61627E+01  2.61742E+01  2.61491E+01  2.60462E+01  2.58379E+01  2.54179E+01  2.48058E+01  2.41158E+01  2.33754E+01
   2.27719E+01  2.24728E+01  2.25299E+01  2.29545E+01  2.36776E+01  2.45380E+01  2.53827E+01  2.61170E+01  2.66089E+01  2.68196E+01
   2.68466E+01  2.68105E+01  2.67822E+01  2.67633E+01  2.67542E+01  2.68271E+01  2.70486E+01  2.74220E+01  2.79555E+01  2.86655E+01
   2.95752E+01  3.06763E+01  3.19249E+01  3.32422E+01  3.45129E+01  3.56046E+01  3.64047E+01  3.68365E+01  3.68604E+01  3.64925E+01
   3.58099E+01  3.49145E+01  3.39100E+01  3.28894E+01  3.19302E+01  3.10938E+01  3.04076E+01  2.98682E+01  2.94589E+01  2.91549E+01
   2.89301E+01  2.87602E+01  2.86265E+01  2.85157E+01  2.84200E+01  2.83360E+01  2.82635E+01  2.82040E+01  2.81607E+01  2.81370E+01
   2.81370E+01  2.81647E+01  2.82241E+01  2.83190E+01  2.84533E+01  2.86307E+01  2.88550E+01  2.91295E+01  2.94574E+01  2.98411E+01
   3.02827E+01  3.07831E+01  3.13421E+01  3.19579E+01  3.26269E+01  3.33432E+01  3.40989E+01  3.48835E+01  3.56843E+01  3.64860E+01
   3.72720E+01  3.80237E+01  3.87222E+01  3.93484E+01  3.98845E+01  4.03137E+01  4.06226E+01  4.08004E+01  4.08408E+01  4.07413E+01
   4.05042E+01  4.01357E+01  3.96462E+01  3.90491E+01  3.83610E+01  3.75997E+01  3.67845E+01  3.59340E+01  3.50668E+01  3.41995E+01
   3.33473E+01  3.25224E+01  3.17352E+01  3.09930E+01  3.03011E+01  2.96621E+01  2.90775E+01  2.85461E+01  2.80663E+01  2.76350E+01
   2.72489E+01  2.69039E+01  2.65962E+01  2.63217E+01  2.60766E+01  2.58571E+01  2.56603E+01  2.54828E+01  2.53223E+01  2.51763E+01
   2.50429E+01  2.49202E+01  2.48070E+01  2.47017E+01  2.46035E+01  2.45112E+01  2.44243E+01  2.43418E+01  2.42634E+01  2.41884E+01
   2.41167E+01  2.40475E+01  2.39809E+01  2.39163E+01  2.38538E+01  2.37929E+01  2.37336E+01  2.36756E+01  2.36189E+01  2.35633E+01
   2.35088E+01  2.34551E+01  2.34023E+01  2.33501E+01  2.32988E+01  2.32480E+01  2.31979E+01  2.31482E+01  2.30991E+01  2.30503E+01
   2.30021E+01  2.29541E+01  2.29067E+01  2.28595E+01  2.28127E+01  2.27662E+01  2.27201E+01  2.26742E+01  2.26287E+01  2.25833E+01
   2.25384E+01  2.24936E+01  2.24492E+01  2.24050E+01  2.23612E+01  2.23175E+01  2.22743E+01  2.22312E+01  2.21887E+01  2.21463E+01
   2.21043E+01  2.20626E+01  2.20214E+01  2.19806E+01  2.19402E+01  2.19003E+01  2.18609E+01  2.18220E+01
 NY background values follow
    -1.082E+02   -1.076E+02   -1.070E+02   -1.063E+02   -1.057E+02   -1.051E+02   -1.045E+02   -1.038E+02   -1.032E+02   -1.026E+02
    -1.020E+02   -1.014E+02   -1.007E+02   -1.001E+02   -9.949E+01   -9.887E+01   -9.825E+01   -9.763E+01   -9.701E+01   -9.640E+01
    -9.578E+01   -9.516E+01   -9.455E+01   -9.393E+01   -9.331E+01   -9.270E+01   -9.209E+01   -9.147E+01   -9.086E+01   -9.025E+01
    -8.964E+01   -8.903E+01   -8.842E+01   -8.781E+01   -8.721E+01   -8.660E+01   -8.600E+01   -8.539E+01   -8.479E+01   -8.419E+01
    -8.359E+01   -8.299E+01   -8.239E+01   -8.179E+01   -8.120E+01   -8.060E+01   -8.001E+01   -7.942E+01   -7.883E+01   -7.824E+01
    -7.765E+01   -7.706E+01   -7.648E+01   -7.589E+01   -7.531E+01   -7.473E+01   -7.415E+01   -7.357E+01   -7.300E+01   -7.242E+01
    -7.185E+01   -7.128E+01   -7.071E+01   -7.014E+01   -6.957E+01   -6.901E+01   -6.845E+01   -6.789E+01   -6.733E+01   -6.677E+01
    -6.622E+01   -6.567E+01   -6.511E+01   -6.457E+01   -6.402E+01   -6.348E+01   -6.293E+01   -6.239E+01   -6.186E+01   -6.132E+01
    -6.079E+01   -6.026E+01   -5.973E+01   -5.920E+01   -5.868E+01   -5.815E+01   -5.764E+01   -5.712E+01   -5.660E+01   -5.609E+01
    -5.558E+01   -5.508E+01   -5.457E+01   -5.407E+01   -5.357E+01   -5.307E+01   -5.258E+01   -5.209E+01   -5.160E+01   -5.111E+01
    -5.063E+01   -5.015E+01   -4.967E+01   -4.919E+01   -4.872E+01   -4.824E+01   -4.777E+01   -4.731E+01   -4.684E+01   -4.638E+01
    -4.592E+01   -4.546E+01   -4.500E+01   -4.455E+01   -4.410E+01   -4.365E+01   -4.320E+01   -4.276E+01   -4.231E+01   -4.187E+01
    -4.143E+01   -4.100E+01   -4.056E+01   -4.013E+01   -3.970E+01   -3.927E+01   -3.885E+01   -3.842E+01   -3.800E+01   -3.758E+01
    -3.716E+01   -3.675E+01   -3.633E+01   -3.592E+01   -3.551E+01   -3.510E+01   -3.470E+01   -3.429E+01   -3.389E+01   -3.349E+01
    -3.309E+01   -3.269E+01   -3.230E+01   -3.190E+01   -3.151E+01   -3.112E+01   -3.073E+01   -3.034E+01   -2.996E+01   -2.957E+01
    -2.919E+01   -2.881E+01   -2.843E+01   -2.805E+01   -2.767E+01   -2.729E+01   -2.692E+01   -2.654E+01   -2.617E+01   -2.580E+01
    -2.543E+01   -2.506E+01   -2.469E+01   -2.433E+01   -2.396E+01   -2.360E+01   -2.323E+01   -2.287E+01   -2.251E+01   -2.215E+01
    -2.179E+01   -2.143E+01   -2.107E+01   -2.071E+01   -2.035E+01   -2.000E+01   -1.964E+01   -1.929E+01   -1.893E+01   -1.858E+01
    -1.822E+01   -1.787E+01   -1.752E+01   -1.717E+01   -1.681E+01   -1.646E+01   -1.611E+01   -1.576E+01   -1.541E+01   -1.507E+01
    -1.472E+01   -1.437E+01   -1.403E+01   -1.368E+01   -1.334E+01   -1.299E+01   -1.265E+01   -1.231E+01   -1.197E+01   -1.163E+01
    -1.129E+01   -1.095E+01   -1.061E+01   -1.028E+01   -9.941E+00   -9.608E+00   -9.275E+00   -8.943E+00   -8.613E+00   -8.284E+00
    -7.956E+00   -7.629E+00   -7.304E+00   -6.980E+00   -6.657E+00   -6.336E+00   -6.016E+00   -5.698E+00   -5.381E+00   -5.065E+00
    -4.751E+00   -4.439E+00   -4.128E+00   -3.819E+00   -3.511E+00   -3.205E+00   -2.901E+00   -2.598E+00   -2.297E+00   -1.998E+00
    -1.700E+00   -1.404E+00   -1.110E+00   -8.175E-01   -5.267E-01   -2.375E-01    4.993E-02    3.357E-01    6.198E-01    9.021E-01
     1.183E+00    1.462E+00    1.739E+00    2.015E+00    2.289E+00    2.561E+00    2.831E+00    3.100E+00    3.368E+00    3.633E+00
     3.897E+00    4.159E+00    4.419E+00    4.678E+00    4.935E+00    5.191E+00    5.444E+00    5.696E+00    5.947E+00    6.195E+00
     6.442E+00    6.687E+00    6.931E+00    7.173E+00    7.413E+00    7.652E+00    7.888E+00    8.124E+00    8.357E+00    8.589E+00
     8.819E+00    9.047E+00    9.274E+00    9.499E+00    9.723E+00    9.944E+00    1.016E+01    1.038E+01    1.060E+01    1.081E+01
     1.103E+01    1.124E+01    1.145E+01    1.166E+01    1.186E+01    1.207E+01    1.227E+01    1.247E+01    1.267E+01    1.287E+01
     1.307E+01    1.326E+01    1.345E+01    1.364E+01    1.383E+01    1.402E+01    1.421E+01    1.439E+01    1.457E+01    1.475E+01
     1.493E+01    1.511E+01    1.528E+01    1.546E+01    1.563E+01    1.580E+01    1.597E+01    1.613E+01    1.630E+01    1.646E+01
     1.662E+01    1.678E+01    1.694E+01    1.709E+01    1.725E+01    1.740E+01    1.755E+01    1.770E+01    1.785E+01    1.799E+01
     1.813E+01    1.828E+01    1.842E+01    1.855E+01    1.869E+01    1.882E+01    1.896E+01    1.909E+01    1.922E+01    1.934E+01
     1.947E+01    1.959E+01    1.971E+01    1.983E+01    1.995E+01    2.007E+01    2.018E+01    2.030E+01    2.041E+01    2.052E+01
     2.062E+01    2.073E+01    2.083E+01    2.094E+01    2.104E+01    2.114E+01    2.123E+01    2.133E+01    2.142E+01    2.151E+01
     2.160E+01    2.169E+01    2.178E+01    2.186E+01    2.195E+01    2.203E+01    2.211E+01    2.218E+01    2.226E+01    2.233E+01
     2.241E+01    2.248E+01    2.255E+01    2.261E+01    2.268E+01    2.274E+01    2.280E+01    2.286E+01    2.292E+01    2.298E+01
     2.304E+01    2.309E+01    2.314E+01    2.319E+01    2.324E+01    2.329E+01    2.333E+01    2.338E+01    2.342E+01    2.346E+01
     2.350E+01    2.354E+01    2.358E+01    2.361E+01    2.364E+01    2.368E+01    2.371E+01    2.374E+01    2.376E+01    2.379E+01
     2.382E+01    2.384E+01    2.386E+01    2.388E+01    2.390E+01    2.392E+01    2.394E+01    2.395E+01    2.397E+01    2.398E+01
     2.399E+01    2.400E+01    2.401E+01    2.402E+01    2.403E+01    2.403E+01    2.404E+01    2.404E+01    2.405E+01    2.405E+01
     2.405E+01    2.405E+01    2.404E+01    2.404E+01    2.404E+01    2.403E+01    2.402E+01    2.402E+01    2.401E+01    2.400E+01
     2.399E+01    2.398E+01    2.397E+01    2.395E+01    2.394E+01    2.392E+01    2.391E+01    2.389E+01    2.388E+01    2.386E+01
     2.384E+01    2.382E+01    2.380E+01    2.378E+01    2.376E+01    2.373E+01    2.371E+01    2.369E+01    2.366E+01    2.364E+01
     2.361E+01    2.359E+01    2.356E+01    2.353E+01    2.351E+01    2.348E+01    2.345E+01    2.342E+01    2.339E+01    2.336E+01
     2.333E+01    2.330E+01    2.327E+01    2.324E+01    2.320E+01    2.317E+01    2.314E+01    2.311E+01    2.307E+01    2.304E+01
     2.301E+01    2.297E+01    2.294E+01    2.290E+01    2.287E+01    2.283E+01    2.280E+01    2.276E+01    2.273E+01    2.269E+01
     2.265E+01    2.262E+01    2.258E+01    2.254E+01    2.251E+01    2.247E+01    2.243E+01    2.239E+01    2.236E+01    2.232E+01
     2.228E+01    2.224E+01    2.221E+01    2.217E+01    2.213E+01    2.209E+01    2.205E+01    2.202E+01    2.198E+01    2.194E+01
     2.190E+01    2.186E+01    2.183E+01    2.179E+01    2.175E+01    2.171E+01    2.168E+01    2.164E+01
 Ala      Conc. = 2.38E+02
