 LCModel (Version 6.3-1L) Copyright: S.W. Provencher.          Ref.: Magn. Reson. Med. 30:672-679 (1993).                
 Slice#2 Row#9 Col#10  PD_05_press_2_raw_act
 36 lines in following concentration table = NCONC+1
    Conc.  %SD /Cr+PCr  Metabolite                                         
  220.605  98% 8.9E-02 Ala                                                 
    0.000 999%   0.000 Asp                                                 
  695.114  51%   0.279 Cr                                                  
 1.80E+03  20%   0.721 PCr                                                 
    0.000 999%   0.000 GABA                                                
    0.000 999%   0.000 Glc                                                 
 2.04E+03  22%   0.817 Gln                                                 
 2.86E+03  17%   1.148 Glu                                                 
  810.293   5%   0.325 GPC                                                 
    0.000 999%   0.000 PCh                                                 
  722.687  18%   0.290 GSH                                                 
 2.32E+03  20%   0.933 Ins                                                 
  201.955 117% 8.1E-02 Lac                                                 
 4.67E+03   6%   1.873 NAA                                                 
   87.428 317% 3.5E-02 NAAG                                                
  224.507  22% 9.0E-02 Scyllo                                              
  124.485 276% 5.0E-02 Tau                                                 
 1.28E+03  14%   0.512 -CrCH2                                              
  810.293   5%   0.325 GPC+PCh                                             
 4.75E+03   4%   1.908 NAA+NAAG                                            
 2.49E+03   4%   1.000 Cr+PCr                                              
 4.90E+03  15%   1.966 Glu+Gln                                             
 1.70E+03  57%   0.684 Lip13a                                              
    0.000 999%   0.000 Lip13b                                              
  188.960 220% 7.6E-02 Lip09                                               
 3.21E+03  17%   1.287 MM09                                                
  287.990  93%   0.116 Lip20                                               
 7.43E+03  10%   2.981 MM20                                                
 1.19E+03  37%   0.479 MM12                                                
 3.75E+03  21%   1.506 MM14                                                
 1.95E+03  25%   0.782 MM17                                                
 1.70E+03  57%   0.684 Lip13a+Lip13b                                       
 6.65E+03  11%   2.669 MM14+Lip13a+Lip13b+MM12                             
 3.40E+03  11%   1.363 MM09+Lip09                                          
 7.71E+03   9%   3.096 MM20+Lip20                                          
   6 lines in following misc. output table
  FWHM = 0.046 ppm    S/N =  15                                            
  Data shift = 0.031 ppm                                                   
  Ph: -22 deg      -3.7 deg/ppm                                            
  alphaB,S = 1.3E+00,   5.0E+01                                            
   14 spline knots.   Ns = 8(1)                                            
  (14) 4 infls.   (15) 1 extrs.                                            
  498 points on ppm-axis = NY
      4.000000     3.992357     3.984714     3.977070     3.969427     3.961784     3.954141     3.946497     3.938854     3.931211
      3.923568     3.915925     3.908281     3.900638     3.892995     3.885352     3.877708     3.870065     3.862422     3.854779
      3.847136     3.839492     3.831849     3.824206     3.816563     3.808919     3.801276     3.793633     3.785990     3.778347
      3.770703     3.763060     3.755417     3.747774     3.740130     3.732487     3.724844     3.717201     3.709558     3.701914
      3.694271     3.686628     3.678985     3.671341     3.663698     3.656055     3.648412     3.640769     3.633125     3.625482
      3.617839     3.610196     3.602552     3.594909     3.587266     3.579623     3.571980     3.564336     3.556693     3.549050
      3.541407     3.533763     3.526120     3.518477     3.510834     3.503191     3.495547     3.487904     3.480261     3.472618
      3.464974     3.457331     3.449688     3.442045     3.434402     3.426758     3.419115     3.411472     3.403829     3.396185
      3.388542     3.380899     3.373256     3.365613     3.357969     3.350326     3.342683     3.335040     3.327396     3.319753
      3.312110     3.304467     3.296824     3.289180     3.281537     3.273894     3.266251     3.258607     3.250964     3.243321
      3.235678     3.228034     3.220391     3.212748     3.205105     3.197462     3.189818     3.182175     3.174532     3.166889
      3.159245     3.151602     3.143959     3.136316     3.128673     3.121029     3.113386     3.105743     3.098100     3.090456
      3.082813     3.075170     3.067527     3.059884     3.052240     3.044597     3.036954     3.029311     3.021667     3.014024
      3.006381     2.998738     2.991095     2.983451     2.975808     2.968165     2.960522     2.952878     2.945235     2.937592
      2.929949     2.922306     2.914662     2.907019     2.899376     2.891733     2.884089     2.876446     2.868803     2.861160
      2.853517     2.845873     2.838230     2.830587     2.822944     2.815300     2.807657     2.800014     2.792371     2.784728
      2.777084     2.769441     2.761798     2.754155     2.746511     2.738868     2.731225     2.723582     2.715939     2.708295
      2.700652     2.693009     2.685366     2.677722     2.670079     2.662436     2.654793     2.647150     2.639506     2.631863
      2.624220     2.616577     2.608933     2.601290     2.593647     2.586004     2.578361     2.570717     2.563074     2.555431
      2.547788     2.540144     2.532501     2.524858     2.517215     2.509572     2.501928     2.494285     2.486642     2.478999
      2.471355     2.463712     2.456069     2.448426     2.440783     2.433139     2.425496     2.417853     2.410210     2.402566
      2.394923     2.387280     2.379637     2.371994     2.364350     2.356707     2.349064     2.341421     2.333777     2.326134
      2.318491     2.310848     2.303205     2.295561     2.287918     2.280275     2.272632     2.264988     2.257345     2.249702
      2.242059     2.234416     2.226772     2.219129     2.211486     2.203843     2.196199     2.188556     2.180913     2.173270
      2.165627     2.157983     2.150340     2.142697     2.135054     2.127410     2.119767     2.112124     2.104481     2.096838
      2.089194     2.081551     2.073908     2.066265     2.058621     2.050978     2.043335     2.035692     2.028049     2.020405
      2.012762     2.005119     1.997476     1.989833     1.982190     1.974546     1.966903     1.959260     1.951617     1.943974
      1.936331     1.928688     1.921045     1.913402     1.905759     1.898115     1.890472     1.882829     1.875186     1.867543
      1.859900     1.852257     1.844614     1.836971     1.829327     1.821684     1.814041     1.806398     1.798755     1.791112
      1.783469     1.775826     1.768183     1.760540     1.752896     1.745253     1.737610     1.729967     1.722324     1.714681
      1.707038     1.699395     1.691752     1.684108     1.676465     1.668822     1.661179     1.653536     1.645893     1.638250
      1.630607     1.622964     1.615321     1.607677     1.600034     1.592391     1.584748     1.577105     1.569462     1.561819
      1.554176     1.546533     1.538890     1.531246     1.523603     1.515960     1.508317     1.500674     1.493031     1.485388
      1.477745     1.470102     1.462458     1.454815     1.447172     1.439529     1.431886     1.424243     1.416600     1.408957
      1.401314     1.393671     1.386027     1.378384     1.370741     1.363098     1.355455     1.347812     1.340169     1.332526
      1.324883     1.317240     1.309596     1.301953     1.294310     1.286667     1.279024     1.271381     1.263738     1.256095
      1.248452     1.240808     1.233165     1.225522     1.217879     1.210236     1.202593     1.194950     1.187307     1.179664
      1.172021     1.164377     1.156734     1.149091     1.141448     1.133805     1.126162     1.118519     1.110876     1.103233
      1.095590     1.087946     1.080303     1.072660     1.065017     1.057374     1.049731     1.042088     1.034445     1.026802
      1.019158     1.011515     1.003872     0.996229     0.988586     0.980943     0.973300     0.965657     0.958014     0.950371
      0.942727     0.935084     0.927441     0.919798     0.912155     0.904512     0.896869     0.889226     0.881583     0.873940
      0.866296     0.858653     0.851010     0.843367     0.835724     0.828081     0.820438     0.812795     0.805152     0.797508
      0.789865     0.782222     0.774579     0.766936     0.759293     0.751650     0.744007     0.736364     0.728721     0.721077
      0.713434     0.705791     0.698148     0.690505     0.682862     0.675219     0.667576     0.659933     0.652290     0.644646
      0.637003     0.629360     0.621717     0.614074     0.606431     0.598788     0.591145     0.583502     0.575858     0.568215
      0.560572     0.552929     0.545286     0.537643     0.530000     0.522357     0.514714     0.507071     0.499427     0.491784
      0.484141     0.476498     0.468855     0.461212     0.453569     0.445925     0.438282     0.430639     0.422996     0.415353
      0.407710     0.400067     0.392424     0.384780     0.377137     0.369494     0.361851     0.354208     0.346565     0.338922
      0.331278     0.323635     0.315992     0.308349     0.300706     0.293063     0.285420     0.277777     0.270133     0.262490
      0.254847     0.247204     0.239561     0.231918     0.224275     0.216631     0.208988     0.201345
 NY phased data points follow
   2.30901E+01  2.87854E+01  3.26091E+01  2.43463E+01  2.16713E+01  2.51778E+01  3.63268E+01  3.93179E+01  4.05025E+01  3.66978E+01
   3.42245E+01  3.33872E+01  3.21415E+01  2.95558E+01  3.53667E+01  2.91311E+01  2.85151E+01  2.38933E+01  2.37375E+01  1.85727E+01
   1.89862E+01  2.84433E+01  2.23386E+01  2.41628E+01  1.87402E+01  2.51562E+01  2.33114E+01  2.23538E+01  2.52846E+01  3.24534E+01
   2.99694E+01  2.61698E+01  2.34012E+01  2.79260E+01  2.40927E+01  2.20250E+01  1.68505E+01  2.30507E+01  2.71749E+01  1.77541E+01
   2.49998E+01  1.80382E+01  2.82778E+01  2.14180E+01  2.10165E+01  2.77247E+01  3.60013E+01  3.57814E+01  2.68504E+01  2.98026E+01
   2.02282E+01  2.18355E+01  2.23343E+01  2.61743E+01  2.11383E+01  2.26709E+01  1.72570E+01  2.47277E+01  2.03120E+01  1.63871E+01
   1.34962E+01  1.96451E+01  2.14673E+00  3.48988E+00  8.13343E+00  1.31581E+01  6.80161E+00  6.60857E+00  1.01047E+01  7.45929E+00
   5.22111E+00  7.64309E+00  1.09632E+01  1.62670E+01  1.21753E+01  9.87168E+00  3.14955E+00  1.26731E+01  1.22838E+01  1.40533E+01
   1.01486E+01  9.99506E+00  1.09094E+01  1.57631E+01  1.58208E+01  1.80039E+01  1.40107E+01  1.68400E+01  1.12603E+01  1.59464E+01
   8.52475E+00  1.56648E+01  1.17283E+01  1.79045E+01  1.91749E+01  2.72750E+01  2.97172E+01  3.14088E+01  2.65062E+01  4.49819E+01
   5.19493E+01  6.54858E+01  7.13151E+01  7.11834E+01  5.86131E+01  5.12095E+01  4.20217E+01  3.97452E+01  2.81971E+01  2.52440E+01
   2.18875E+01  2.01503E+01  1.83114E+01  1.41522E+01  1.68126E+01  1.55932E+01  7.07179E+00  9.15719E+00  1.30193E+01  1.85328E+01
   2.09040E+01  2.78370E+01  3.63907E+01  4.30901E+01  5.87301E+01  7.18410E+01  7.94283E+01  8.23782E+01  8.04911E+01  6.68430E+01
   4.95684E+01  4.89606E+01  3.19448E+01  2.74169E+01  1.76745E+01  1.47149E+01  1.83499E+01  1.98806E+01  8.76324E+00  1.04922E+01
   1.26407E+01  1.35985E+01  4.72904E+00  5.28293E+00  1.09439E+01  1.35399E+01  7.26091E+00  6.28399E+00  1.37783E+01  9.50638E+00
   7.76237E+00  8.21957E+00  8.23564E+00  2.20905E+00  3.13386E+00  5.52878E+00 -5.64582E-01  6.28251E+00 -1.12999E+00  1.15864E+01
   2.66068E+00  1.75910E-01  4.78018E+00  3.58716E+00  3.74916E+00  2.80056E+00 -2.31346E+00 -1.55594E+00 -8.04726E+00 -8.81245E+00
  -1.73872E+01 -1.53924E+01 -2.21367E+01 -1.89932E+01 -2.76066E+01 -2.58843E+01 -2.64994E+01 -2.21433E+01 -2.73618E+01 -2.57839E+01
  -1.17514E+01 -1.47047E+01 -1.03437E+01 -9.29209E+00 -6.79865E+00 -7.62326E+00 -1.47667E+01 -7.50083E+00 -7.22101E+00 -7.71164E+00
   1.47953E+00 -5.09051E-01 -8.84353E-01  9.53731E-01 -1.80123E-02 -4.87303E+00 -1.16099E+01 -7.71835E+00 -1.43100E+01 -8.16859E+00
  -6.30904E+00 -1.00874E+01 -2.98708E+00 -2.64777E-01  6.09264E+00  3.47519E+00  2.73907E-01 -5.65785E+00 -2.20494E+00 -4.17505E+00
   4.48312E+00  8.94715E+00  5.25117E+00  1.79439E+01  2.35247E+01  2.10395E+01  2.67430E+01  2.27027E+01  1.20414E+01  1.12093E+01
   8.22619E+00 -3.53491E+00 -7.36359E-01  7.99099E-01  6.95925E+00  9.98278E+00  1.19136E+01  1.99447E+01  1.74502E+01  1.72802E+01
   2.09381E+01  1.73451E+01  1.33654E+01  1.31629E+01  1.56666E+01  1.91221E+01  1.56839E+01  2.09173E+01  1.65059E+01  1.73547E+01
   1.41661E+01  1.22529E+01  1.22703E+01  1.40983E+01  1.25242E+01  1.56905E+01  2.44678E+01  2.80618E+01  2.43251E+01  2.47145E+01
   3.59590E+01  3.65017E+01  4.67176E+01  5.28780E+01  6.91397E+01  9.08157E+01  8.53754E+01  1.07955E+02  1.42048E+02  1.68074E+02
   1.73552E+02  1.57647E+02  1.29855E+02  1.03002E+02  7.81770E+01  6.41164E+01  4.42998E+01  3.62303E+01  2.69066E+01  2.84211E+01
   2.15298E+01  2.06273E+01  1.41896E+01  1.04134E+01  1.63637E+01  6.83829E+00  1.02206E+01  1.17967E+01  7.35587E+00  1.04793E+01
   1.04051E+01  8.94048E+00  6.25397E+00  8.72769E+00  6.43589E+00  4.54847E+00  1.14014E+01  5.40394E+00  8.82867E+00  1.06050E+01
   5.77452E+00  1.04059E+01  5.57457E+00  1.38528E+01  7.33886E+00  1.11952E+01  1.89613E+00  7.15347E+00  1.08052E+01  1.02277E+01
   9.08263E+00  9.88415E+00  4.77596E+00  7.60804E+00  1.00383E+01  1.30001E+01  1.16206E+01  1.83608E+01  1.56686E+01  1.82098E+01
   9.55745E+00  1.55114E+01  1.59326E+01  1.84299E+01  2.11571E+01  1.27323E+01  1.55821E+01  1.15921E+01  1.39668E+01  1.61362E+01
   1.47024E+01  2.02003E+01  1.25771E+01  1.76449E+01  1.52093E+01  1.88464E+01  1.82628E+01  1.43363E+01  1.71796E+01  2.59984E+01
   1.32860E+01  1.85977E+01  1.71864E+01  1.91534E+01  1.95021E+01  2.07479E+01  1.77483E+01  2.36965E+01  2.01519E+01  2.05618E+01
   2.38472E+01  2.81837E+01  1.86613E+01  2.29232E+01  2.92221E+01  2.64178E+01  2.20461E+01  1.80374E+01  2.54420E+01  2.36099E+01
   1.04593E+01  1.83257E+01  1.95901E+01  1.56513E+01  2.23954E+01  1.70069E+01  1.40067E+01  1.52129E+01  1.82150E+01  1.51121E+01
   2.47284E+01  1.62370E+01  2.02607E+01  1.33530E+01  1.56820E+01  1.28547E+01  2.08931E+01  2.00345E+01  1.52506E+01  1.47292E+01
   1.34374E+01  8.66448E+00  9.87171E+00  1.03281E+01  1.53360E+01  1.12423E+01  1.22020E+01  1.23260E+01  1.51779E+01  1.72834E+01
   1.22038E+01  1.09763E+01  8.96383E+00  1.36019E+01  1.36411E+01  1.37742E+01  1.55928E+01  1.04654E+01  2.11159E+01  1.73894E+01
   1.34065E+01  1.62665E+01  1.35356E+01  1.49019E+01  1.47895E+01  1.89791E+01  2.17339E+01  1.49100E+01  2.42984E+01  1.81662E+01
   1.54896E+01  2.39837E+01  1.82447E+01  1.97184E+01  1.77463E+01  2.23236E+01  2.40065E+01  2.89812E+01  2.13526E+01  2.21279E+01
   1.68075E+01  2.20064E+01  1.71774E+01  1.79119E+01  1.81261E+01  1.61217E+01  2.21184E+01  1.61509E+01  1.42556E+01  1.44763E+01
   1.07571E+01  9.04247E+00  1.01314E+01  1.06385E+01  1.31729E+01  1.44125E+01  1.09380E+01  4.29373E+00  1.03085E+01  7.56351E+00
   3.26309E+00  1.16770E+01  3.67512E+00  1.14419E+01  6.22346E+00 -1.51775E+00  2.70525E+00  6.74191E+00  9.68656E+00  2.38749E+00
   5.29326E+00  7.36278E+00  7.38121E-01  9.56532E+00  7.12949E+00  6.22957E+00  8.94122E+00  6.00883E+00  6.92155E+00  2.93266E+00
   8.21563E+00  6.56033E+00  6.51403E+00 -3.06083E+00  1.05999E+01  4.09094E+00  1.65330E+00  5.22602E+00  6.35494E+00  6.28683E+00
   2.57594E+00  6.87743E-01  1.94848E+00  4.42428E-03 -2.69772E+00  3.99773E+00  7.47233E+00  5.52132E+00  3.24672E+00  8.15306E+00
   4.83990E+00  3.18846E+00  3.48856E-01  5.91266E+00  5.93961E+00  5.68136E+00  7.75509E+00 -1.13557E+00  1.83990E+00  4.86628E+00
   1.10443E+00  3.92515E+00  1.29257E+00  9.53624E+00  1.25689E+00  3.75199E+00  6.72025E+00  1.55808E+00  4.00160E+00  5.64954E+00
   1.47312E+00  1.19644E+00  5.59480E+00  5.06014E+00 -1.30415E+00  3.65627E+00  2.35049E+00  4.30696E+00
 NY points of the fit to the data follow
   2.06499E+01  2.27073E+01  2.31122E+01  2.36370E+01  2.52649E+01  2.90238E+01  3.46419E+01  3.84860E+01  3.86054E+01  3.70108E+01
   3.59639E+01  3.56753E+01  3.50170E+01  3.32973E+01  3.05809E+01  2.81007E+01  2.67994E+01  2.49219E+01  2.18576E+01  2.11083E+01
   2.07359E+01  1.99996E+01  2.00665E+01  2.06009E+01  2.10044E+01  2.10716E+01  2.17658E+01  2.44609E+01  2.84423E+01  3.21772E+01
   3.43214E+01  3.43834E+01  3.28027E+01  2.99720E+01  2.66270E+01  2.34009E+01  2.04022E+01  1.86173E+01  1.79352E+01  1.80137E+01
   1.93983E+01  2.11672E+01  2.24604E+01  2.33227E+01  2.48630E+01  2.77197E+01  3.03142E+01  3.08274E+01  2.90555E+01  2.57004E+01
   2.19619E+01  1.89253E+01  1.67804E+01  1.55800E+01  1.51428E+01  1.49724E+01  1.48581E+01  1.49879E+01  1.55932E+01  1.63042E+01
   1.64287E+01  1.57464E+01  1.44514E+01  1.30963E+01  1.22025E+01  1.17821E+01  1.18401E+01  1.22194E+01  1.26166E+01  1.30648E+01
   1.35137E+01  1.37199E+01  1.36377E+01  1.33045E+01  1.28590E+01  1.23874E+01  1.18930E+01  1.14813E+01  1.15588E+01  1.23292E+01
   1.28457E+01  1.29158E+01  1.29398E+01  1.37734E+01  1.55862E+01  1.70968E+01  1.70822E+01  1.54425E+01  1.31776E+01  1.12694E+01
   1.00855E+01  9.51542E+00  9.24670E+00  9.73468E+00  1.28237E+01  1.94561E+01  2.51831E+01  2.96833E+01  3.33303E+01  3.99019E+01
   5.26549E+01  6.70394E+01  7.52976E+01  7.36865E+01  6.43730E+01  5.23099E+01  4.13315E+01  3.26973E+01  2.54358E+01  1.97721E+01
   1.67900E+01  1.45016E+01  1.05778E+01  8.53013E+00  8.00798E+00  7.91162E+00  8.09981E+00  8.76669E+00  1.15361E+01  1.78967E+01
   2.50939E+01  3.14535E+01  3.66023E+01  4.38438E+01  5.63546E+01  7.15620E+01  8.25001E+01  8.39327E+01  7.63799E+01  6.43427E+01
   5.23670E+01  4.25613E+01  3.41162E+01  2.68107E+01  2.14628E+01  1.70768E+01  1.23316E+01  9.45349E+00  8.59635E+00  8.95680E+00
   9.50341E+00  9.74964E+00  9.39812E+00  8.69471E+00  8.00346E+00  7.33779E+00  6.72615E+00  6.18071E+00  5.62202E+00  5.11372E+00
   4.59144E+00  4.08649E+00  3.58578E+00  2.86582E+00  2.23782E+00  1.84207E+00  1.78025E+00  1.82924E+00  1.14611E+00 -9.97323E-02
  -1.24349E+00 -1.58446E+00 -9.86082E-01 -2.15212E-01 -1.05668E-01 -8.80823E-01 -2.10775E+00 -3.39017E+00 -4.77605E+00 -5.90058E+00
  -6.35722E+00 -6.66250E+00 -7.13029E+00 -8.33906E+00 -9.79989E+00 -1.02513E+01 -9.58924E+00 -8.66110E+00 -8.41198E+00 -9.02785E+00
  -9.45546E+00 -9.09354E+00 -8.13307E+00 -7.29593E+00 -6.94816E+00 -6.46194E+00 -5.19854E+00 -3.27364E+00 -9.61156E-01  1.07430E+00
   2.18952E+00  2.27364E+00  1.67205E+00  1.04162E+00  5.65791E-01  3.59090E-01  1.06654E+00  2.32382E+00  4.20860E+00  6.31354E+00
   7.86306E+00  8.64312E+00  8.81797E+00  8.44849E+00  6.93849E+00  3.57104E+00 -1.13618E+00 -5.38970E+00 -7.16016E+00 -6.27682E+00
  -4.38022E+00 -1.78360E+00  1.46592E+00  5.62165E+00  1.02292E+01  1.30731E+01  1.30593E+01  1.09690E+01  7.96820E+00  4.29587E+00
  -2.15926E-01 -3.89667E+00 -4.78263E+00 -2.80362E+00  1.11842E+00  5.21947E+00  8.41810E+00  1.07548E+01  1.21415E+01  1.28529E+01
   1.31073E+01  1.34065E+01  1.40365E+01  1.45432E+01  1.51375E+01  1.65069E+01  1.83426E+01  2.01056E+01  2.10294E+01  2.03749E+01
   1.86182E+01  1.67236E+01  1.55269E+01  1.57628E+01  1.75352E+01  1.98828E+01  2.21210E+01  2.43632E+01  2.64736E+01  2.79324E+01
   2.90899E+01  3.22369E+01  4.45824E+01  6.12850E+01  7.41071E+01  8.23178E+01  9.04931E+01  1.10387E+02  1.40956E+02  1.65870E+02
   1.71271E+02  1.56330E+02  1.30607E+02  1.04392E+02  8.30106E+01  6.55026E+01  5.02311E+01  4.03088E+01  3.54804E+01  2.70272E+01
   1.86422E+01  1.57574E+01  1.44756E+01  1.35964E+01  1.28323E+01  1.21946E+01  1.14806E+01  1.07262E+01  9.97497E+00  9.23224E+00
   8.53417E+00  7.96938E+00  7.53513E+00  7.16252E+00  6.83948E+00  6.58657E+00  6.40679E+00  6.29292E+00  6.23513E+00  6.24406E+00
   6.34319E+00  6.51168E+00  6.74132E+00  7.03389E+00  7.38689E+00  7.79326E+00  8.24449E+00  8.73530E+00  9.26110E+00  9.81104E+00
   1.03736E+01  1.09377E+01  1.14909E+01  1.20200E+01  1.25126E+01  1.29580E+01  1.33475E+01  1.36775E+01  1.39480E+01  1.41601E+01
   1.43173E+01  1.44272E+01  1.44982E+01  1.45424E+01  1.45755E+01  1.46156E+01  1.46814E+01  1.47976E+01  1.50068E+01  1.53768E+01
   1.57564E+01  1.60100E+01  1.62412E+01  1.65595E+01  1.70731E+01  1.75583E+01  1.76256E+01  1.73263E+01  1.70331E+01  1.68999E+01
   1.69995E+01  1.72426E+01  1.77255E+01  1.86689E+01  2.00320E+01  2.14146E+01  2.23568E+01  2.28937E+01  2.32627E+01  2.35466E+01
   2.36816E+01  2.35242E+01  2.32243E+01  2.30096E+01  2.28997E+01  2.25849E+01  2.18972E+01  2.09364E+01  1.99014E+01  1.89721E+01
   1.82362E+01  1.77027E+01  1.75390E+01  1.78492E+01  1.84818E+01  1.90565E+01  1.92144E+01  1.90615E+01  1.88193E+01  1.84921E+01
   1.81037E+01  1.76448E+01  1.71955E+01  1.68194E+01  1.63541E+01  1.58261E+01  1.53454E+01  1.48862E+01  1.44358E+01  1.39930E+01
   1.35605E+01  1.31427E+01  1.27443E+01  1.23708E+01  1.20279E+01  1.17219E+01  1.14589E+01  1.12445E+01  1.10838E+01  1.09812E+01
   1.09414E+01  1.09686E+01  1.10664E+01  1.12372E+01  1.14825E+01  1.18032E+01  1.21996E+01  1.26709E+01  1.32143E+01  1.38255E+01
   1.44984E+01  1.52254E+01  1.59972E+01  1.68025E+01  1.76279E+01  1.84581E+01  1.92764E+01  2.00657E+01  2.08086E+01  2.14873E+01
   2.20847E+01  2.25848E+01  2.29739E+01  2.32413E+01  2.33793E+01  2.33832E+01  2.32516E+01  2.29869E+01  2.25955E+01  2.20866E+01
   2.14725E+01  2.07668E+01  1.99849E+01  1.91431E+01  1.82584E+01  1.73472E+01  1.64249E+01  1.55053E+01  1.46005E+01  1.37211E+01
   1.28761E+01  1.20722E+01  1.13140E+01  1.06043E+01  9.94450E+00  9.33511E+00  8.77559E+00  8.26421E+00  7.79852E+00  7.37551E+00
   6.99236E+00  6.64620E+00  6.33418E+00  6.05308E+00  5.79982E+00  5.57149E+00  5.36584E+00  5.18076E+00  5.01430E+00  4.86424E+00
   4.72879E+00  4.60633E+00  4.49590E+00  4.39637E+00  4.30672E+00  4.22562E+00  4.15222E+00  4.08579E+00  4.02606E+00  3.97240E+00
   3.92424E+00  3.88072E+00  3.84157E+00  3.80648E+00  3.77548E+00  3.74808E+00  3.72391E+00  3.70242E+00  3.68363E+00  3.66743E+00
   3.65392E+00  3.64261E+00  3.63330E+00  3.62560E+00  3.61977E+00  3.61573E+00  3.61353E+00  3.61268E+00  3.61309E+00  3.61455E+00
   3.61742E+00  3.62157E+00  3.62703E+00  3.63328E+00  3.64040E+00  3.64829E+00  3.65733E+00  3.66730E+00  3.67816E+00  3.68946E+00
   3.70142E+00  3.71399E+00  3.72755E+00  3.74175E+00  3.75655E+00  3.77159E+00  3.78721E+00  3.80339E+00  3.82041E+00  3.83782E+00
   3.85565E+00  3.87363E+00  3.89220E+00  3.91131E+00  3.93113E+00  3.95118E+00  3.97156E+00  3.99214E+00
 NY background values follow
     1.239E+01    1.230E+01    1.222E+01    1.213E+01    1.204E+01    1.195E+01    1.187E+01    1.178E+01    1.169E+01    1.160E+01
     1.152E+01    1.143E+01    1.134E+01    1.126E+01    1.117E+01    1.108E+01    1.099E+01    1.091E+01    1.082E+01    1.073E+01
     1.065E+01    1.056E+01    1.047E+01    1.038E+01    1.030E+01    1.021E+01    1.012E+01    1.004E+01    9.950E+00    9.863E+00
     9.776E+00    9.690E+00    9.603E+00    9.516E+00    9.430E+00    9.343E+00    9.257E+00    9.170E+00    9.084E+00    8.998E+00
     8.911E+00    8.825E+00    8.739E+00    8.653E+00    8.567E+00    8.481E+00    8.395E+00    8.309E+00    8.223E+00    8.137E+00
     8.052E+00    7.966E+00    7.881E+00    7.795E+00    7.710E+00    7.625E+00    7.539E+00    7.454E+00    7.369E+00    7.284E+00
     7.199E+00    7.114E+00    7.030E+00    6.945E+00    6.861E+00    6.776E+00    6.692E+00    6.607E+00    6.523E+00    6.439E+00
     6.355E+00    6.272E+00    6.188E+00    6.104E+00    6.021E+00    5.937E+00    5.854E+00    5.771E+00    5.688E+00    5.605E+00
     5.522E+00    5.439E+00    5.357E+00    5.274E+00    5.192E+00    5.110E+00    5.028E+00    4.946E+00    4.864E+00    4.782E+00
     4.701E+00    4.620E+00    4.538E+00    4.457E+00    4.376E+00    4.296E+00    4.215E+00    4.135E+00    4.054E+00    3.974E+00
     3.894E+00    3.814E+00    3.735E+00    3.655E+00    3.576E+00    3.497E+00    3.418E+00    3.340E+00    3.261E+00    3.183E+00
     3.105E+00    3.027E+00    2.950E+00    2.872E+00    2.795E+00    2.718E+00    2.642E+00    2.565E+00    2.489E+00    2.413E+00
     2.337E+00    2.262E+00    2.187E+00    2.112E+00    2.037E+00    1.962E+00    1.888E+00    1.814E+00    1.741E+00    1.667E+00
     1.594E+00    1.522E+00    1.449E+00    1.377E+00    1.305E+00    1.233E+00    1.162E+00    1.091E+00    1.021E+00    9.503E-01
     8.804E-01    8.108E-01    7.415E-01    6.727E-01    6.043E-01    5.362E-01    4.686E-01    4.014E-01    3.347E-01    2.684E-01
     2.026E-01    1.373E-01    7.244E-02    8.102E-03   -5.572E-02   -1.190E-01   -1.818E-01   -2.440E-01   -3.056E-01   -3.667E-01
    -4.271E-01   -4.870E-01   -5.463E-01   -6.049E-01   -6.629E-01   -7.203E-01   -7.770E-01   -8.330E-01   -8.883E-01   -9.430E-01
    -9.969E-01   -1.050E+00   -1.103E+00   -1.154E+00   -1.205E+00   -1.256E+00   -1.305E+00   -1.354E+00   -1.402E+00   -1.449E+00
    -1.495E+00   -1.540E+00   -1.585E+00   -1.628E+00   -1.671E+00   -1.713E+00   -1.755E+00   -1.795E+00   -1.835E+00   -1.873E+00
    -1.911E+00   -1.949E+00   -1.985E+00   -2.021E+00   -2.056E+00   -2.090E+00   -2.124E+00   -2.157E+00   -2.189E+00   -2.220E+00
    -2.251E+00   -2.281E+00   -2.310E+00   -2.339E+00   -2.367E+00   -2.394E+00   -2.421E+00   -2.447E+00   -2.472E+00   -2.497E+00
    -2.521E+00   -2.545E+00   -2.568E+00   -2.590E+00   -2.612E+00   -2.633E+00   -2.654E+00   -2.674E+00   -2.693E+00   -2.712E+00
    -2.731E+00   -2.748E+00   -2.766E+00   -2.783E+00   -2.799E+00   -2.815E+00   -2.830E+00   -2.845E+00   -2.860E+00   -2.873E+00
    -2.887E+00   -2.900E+00   -2.912E+00   -2.924E+00   -2.936E+00   -2.947E+00   -2.958E+00   -2.968E+00   -2.978E+00   -2.987E+00
    -2.996E+00   -3.004E+00   -3.012E+00   -3.019E+00   -3.026E+00   -3.033E+00   -3.039E+00   -3.044E+00   -3.049E+00   -3.054E+00
    -3.058E+00   -3.062E+00   -3.065E+00   -3.068E+00   -3.071E+00   -3.073E+00   -3.075E+00   -3.076E+00   -3.076E+00   -3.077E+00
    -3.077E+00   -3.076E+00   -3.075E+00   -3.074E+00   -3.072E+00   -3.070E+00   -3.067E+00   -3.064E+00   -3.060E+00   -3.057E+00
    -3.052E+00   -3.048E+00   -3.042E+00   -3.037E+00   -3.031E+00   -3.025E+00   -3.018E+00   -3.011E+00   -3.003E+00   -2.995E+00
    -2.987E+00   -2.978E+00   -2.969E+00   -2.960E+00   -2.950E+00   -2.940E+00   -2.929E+00   -2.918E+00   -2.907E+00   -2.896E+00
    -2.884E+00   -2.871E+00   -2.859E+00   -2.846E+00   -2.832E+00   -2.819E+00   -2.805E+00   -2.790E+00   -2.776E+00   -2.761E+00
    -2.746E+00   -2.730E+00   -2.714E+00   -2.698E+00   -2.682E+00   -2.665E+00   -2.648E+00   -2.631E+00   -2.613E+00   -2.595E+00
    -2.577E+00   -2.558E+00   -2.540E+00   -2.521E+00   -2.501E+00   -2.482E+00   -2.462E+00   -2.442E+00   -2.422E+00   -2.401E+00
    -2.380E+00   -2.359E+00   -2.338E+00   -2.316E+00   -2.295E+00   -2.273E+00   -2.250E+00   -2.228E+00   -2.205E+00   -2.182E+00
    -2.159E+00   -2.136E+00   -2.112E+00   -2.089E+00   -2.065E+00   -2.040E+00   -2.016E+00   -1.991E+00   -1.967E+00   -1.942E+00
    -1.916E+00   -1.891E+00   -1.865E+00   -1.840E+00   -1.814E+00   -1.788E+00   -1.761E+00   -1.735E+00   -1.708E+00   -1.681E+00
    -1.654E+00   -1.627E+00   -1.600E+00   -1.572E+00   -1.545E+00   -1.517E+00   -1.489E+00   -1.461E+00   -1.433E+00   -1.404E+00
    -1.376E+00   -1.347E+00   -1.318E+00   -1.289E+00   -1.260E+00   -1.231E+00   -1.202E+00   -1.172E+00   -1.143E+00   -1.113E+00
    -1.083E+00   -1.053E+00   -1.023E+00   -9.928E-01   -9.625E-01   -9.321E-01   -9.016E-01   -8.709E-01   -8.402E-01   -8.093E-01
    -7.783E-01   -7.472E-01   -7.161E-01   -6.848E-01   -6.534E-01   -6.219E-01   -5.903E-01   -5.587E-01   -5.269E-01   -4.950E-01
    -4.631E-01   -4.310E-01   -3.989E-01   -3.667E-01   -3.344E-01   -3.020E-01   -2.696E-01   -2.371E-01   -2.044E-01   -1.718E-01
    -1.390E-01   -1.062E-01   -7.325E-02   -4.028E-02   -7.242E-03    2.586E-02    5.903E-02    9.226E-02    1.256E-01    1.589E-01
     1.923E-01    2.258E-01    2.593E-01    2.929E-01    3.265E-01    3.601E-01    3.938E-01    4.276E-01    4.614E-01    4.952E-01
     5.291E-01    5.630E-01    5.969E-01    6.309E-01    6.649E-01    6.989E-01    7.329E-01    7.670E-01    8.011E-01    8.352E-01
     8.693E-01    9.035E-01    9.376E-01    9.718E-01    1.006E+00    1.040E+00    1.074E+00    1.109E+00    1.143E+00    1.177E+00
     1.211E+00    1.245E+00    1.279E+00    1.314E+00    1.348E+00    1.382E+00    1.416E+00    1.450E+00    1.484E+00    1.518E+00
     1.552E+00    1.586E+00    1.620E+00    1.654E+00    1.688E+00    1.722E+00    1.756E+00    1.790E+00    1.824E+00    1.858E+00
     1.891E+00    1.925E+00    1.959E+00    1.993E+00    2.026E+00    2.060E+00    2.094E+00    2.127E+00    2.161E+00    2.195E+00
     2.228E+00    2.262E+00    2.296E+00    2.329E+00    2.363E+00    2.396E+00    2.430E+00    2.463E+00    2.497E+00    2.530E+00
     2.564E+00    2.597E+00    2.631E+00    2.664E+00    2.697E+00    2.731E+00    2.764E+00    2.798E+00    2.831E+00    2.865E+00
     2.898E+00    2.931E+00    2.965E+00    2.998E+00    3.032E+00    3.065E+00    3.098E+00    3.132E+00
 Ala      Conc. = 2.21E+02
