 LCModel (Version 6.3-1L) Copyright: S.W. Provencher.          Ref.: Magn. Reson. Med. 30:672-679 (1993).                
 Slice#1 Row#10 Col#3  PD_05_press_2_raw_act
 36 lines in following concentration table = NCONC+1
    Conc.  %SD /Cr+PCr  Metabolite                                         
  144.268  61%   0.291 Ala                                                 
  144.161  86%   0.291 Asp                                                 
  121.093 109%   0.244 Cr                                                  
  375.153  37%   0.756 PCr                                                 
   73.065 102%   0.147 GABA                                                
   69.167 110%   0.139 Glc                                                 
  213.798  80%   0.431 Gln                                                 
 1.02E+03  20%   2.048 Glu                                                 
  138.431  65%   0.279 GPC                                                 
   23.128 390% 4.7E-02 PCh                                                 
  192.741  33%   0.388 GSH                                                 
  631.997  35%   1.274 Ins                                                 
  239.443  40%   0.483 Lac                                                 
 1.32E+03   6%   2.657 NAA                                                 
    0.000 999%   0.000 NAAG                                                
   62.391  31%   0.126 Scyllo                                              
  175.381  68%   0.353 Tau                                                 
  236.361  38%   0.476 -CrCH2                                              
  161.558  11%   0.326 GPC+PCh                                             
 1.32E+03   6%   2.657 NAA+NAAG                                            
  496.245  11%   1.000 Cr+PCr                                              
 1.23E+03  21%   2.479 Glu+Gln                                             
 2.10E+04  12%  42.353 Lip13a                                              
    0.000 999%   0.000 Lip13b                                              
 1.02E+04   9%  20.486 Lip09                                               
 1.37E+04   6%  27.637 MM09                                                
 2.06E+03  35%   4.153 Lip20                                               
 6.43E+03  12%  12.960 MM20                                                
 1.17E+04  12%  23.674 MM12                                                
 9.10E+03  13%  18.341 MM14                                                
 7.93E+03  11%  15.977 MM17                                                
 2.10E+04  12%  42.353 Lip13a+Lip13b                                       
 4.19E+04   5%  84.368 MM14+Lip13a+Lip13b+MM12                             
 2.39E+04   4%  48.123 MM09+Lip09                                          
 8.49E+03   8%  17.113 MM20+Lip20                                          
   6 lines in following misc. output table
  FWHM = 0.046 ppm    S/N =  16                                            
  Data shift = 0.031 ppm                                                   
  Ph: -41 deg      -7.6 deg/ppm                                            
  alphaB,S = 7.2E-01,   6.4E+00                                            
   14 spline knots.   Ns = 6(1)                                            
  ( 9) 2 infls.   ( 7) 1 extrs.                                            
  498 points on ppm-axis = NY
      4.000000     3.992357     3.984714     3.977070     3.969427     3.961784     3.954141     3.946497     3.938854     3.931211
      3.923568     3.915925     3.908281     3.900638     3.892995     3.885352     3.877708     3.870065     3.862422     3.854779
      3.847136     3.839492     3.831849     3.824206     3.816563     3.808919     3.801276     3.793633     3.785990     3.778347
      3.770703     3.763060     3.755417     3.747774     3.740130     3.732487     3.724844     3.717201     3.709558     3.701914
      3.694271     3.686628     3.678985     3.671341     3.663698     3.656055     3.648412     3.640769     3.633125     3.625482
      3.617839     3.610196     3.602552     3.594909     3.587266     3.579623     3.571980     3.564336     3.556693     3.549050
      3.541407     3.533763     3.526120     3.518477     3.510834     3.503191     3.495547     3.487904     3.480261     3.472618
      3.464974     3.457331     3.449688     3.442045     3.434402     3.426758     3.419115     3.411472     3.403829     3.396185
      3.388542     3.380899     3.373256     3.365613     3.357969     3.350326     3.342683     3.335040     3.327396     3.319753
      3.312110     3.304467     3.296824     3.289180     3.281537     3.273894     3.266251     3.258607     3.250964     3.243321
      3.235678     3.228034     3.220391     3.212748     3.205105     3.197462     3.189818     3.182175     3.174532     3.166889
      3.159245     3.151602     3.143959     3.136316     3.128673     3.121029     3.113386     3.105743     3.098100     3.090456
      3.082813     3.075170     3.067527     3.059884     3.052240     3.044597     3.036954     3.029311     3.021667     3.014024
      3.006381     2.998738     2.991095     2.983451     2.975808     2.968165     2.960522     2.952878     2.945235     2.937592
      2.929949     2.922306     2.914662     2.907019     2.899376     2.891733     2.884089     2.876446     2.868803     2.861160
      2.853517     2.845873     2.838230     2.830587     2.822944     2.815300     2.807657     2.800014     2.792371     2.784728
      2.777084     2.769441     2.761798     2.754155     2.746511     2.738868     2.731225     2.723582     2.715939     2.708295
      2.700652     2.693009     2.685366     2.677722     2.670079     2.662436     2.654793     2.647150     2.639506     2.631863
      2.624220     2.616577     2.608933     2.601290     2.593647     2.586004     2.578361     2.570717     2.563074     2.555431
      2.547788     2.540144     2.532501     2.524858     2.517215     2.509572     2.501928     2.494285     2.486642     2.478999
      2.471355     2.463712     2.456069     2.448426     2.440783     2.433139     2.425496     2.417853     2.410210     2.402566
      2.394923     2.387280     2.379637     2.371994     2.364350     2.356707     2.349064     2.341421     2.333777     2.326134
      2.318491     2.310848     2.303205     2.295561     2.287918     2.280275     2.272632     2.264988     2.257345     2.249702
      2.242059     2.234416     2.226772     2.219129     2.211486     2.203843     2.196199     2.188556     2.180913     2.173270
      2.165627     2.157983     2.150340     2.142697     2.135054     2.127410     2.119767     2.112124     2.104481     2.096838
      2.089194     2.081551     2.073908     2.066265     2.058621     2.050978     2.043335     2.035692     2.028049     2.020405
      2.012762     2.005119     1.997476     1.989833     1.982190     1.974546     1.966903     1.959260     1.951617     1.943974
      1.936331     1.928688     1.921045     1.913402     1.905759     1.898115     1.890472     1.882829     1.875186     1.867543
      1.859900     1.852257     1.844614     1.836971     1.829327     1.821684     1.814041     1.806398     1.798755     1.791112
      1.783469     1.775826     1.768183     1.760540     1.752896     1.745253     1.737610     1.729967     1.722324     1.714681
      1.707038     1.699395     1.691752     1.684108     1.676465     1.668822     1.661179     1.653536     1.645893     1.638250
      1.630607     1.622964     1.615321     1.607677     1.600034     1.592391     1.584748     1.577105     1.569462     1.561819
      1.554176     1.546533     1.538890     1.531246     1.523603     1.515960     1.508317     1.500674     1.493031     1.485388
      1.477745     1.470102     1.462458     1.454815     1.447172     1.439529     1.431886     1.424243     1.416600     1.408957
      1.401314     1.393671     1.386027     1.378384     1.370741     1.363098     1.355455     1.347812     1.340169     1.332526
      1.324883     1.317240     1.309596     1.301953     1.294310     1.286667     1.279024     1.271381     1.263738     1.256095
      1.248452     1.240808     1.233165     1.225522     1.217879     1.210236     1.202593     1.194950     1.187307     1.179664
      1.172021     1.164377     1.156734     1.149091     1.141448     1.133805     1.126162     1.118519     1.110876     1.103233
      1.095590     1.087946     1.080303     1.072660     1.065017     1.057374     1.049731     1.042088     1.034445     1.026802
      1.019158     1.011515     1.003872     0.996229     0.988586     0.980943     0.973300     0.965657     0.958014     0.950371
      0.942727     0.935084     0.927441     0.919798     0.912155     0.904512     0.896869     0.889226     0.881583     0.873940
      0.866296     0.858653     0.851010     0.843367     0.835724     0.828081     0.820438     0.812795     0.805152     0.797508
      0.789865     0.782222     0.774579     0.766936     0.759293     0.751650     0.744007     0.736364     0.728721     0.721077
      0.713434     0.705791     0.698148     0.690505     0.682862     0.675219     0.667576     0.659933     0.652290     0.644646
      0.637003     0.629360     0.621717     0.614074     0.606431     0.598788     0.591145     0.583502     0.575858     0.568215
      0.560572     0.552929     0.545286     0.537643     0.530000     0.522357     0.514714     0.507071     0.499427     0.491784
      0.484141     0.476498     0.468855     0.461212     0.453569     0.445925     0.438282     0.430639     0.422996     0.415353
      0.407710     0.400067     0.392424     0.384780     0.377137     0.369494     0.361851     0.354208     0.346565     0.338922
      0.331278     0.323635     0.315992     0.308349     0.300706     0.293063     0.285420     0.277777     0.270133     0.262490
      0.254847     0.247204     0.239561     0.231918     0.224275     0.216631     0.208988     0.201345
 NY phased data points follow
  -8.94065E+01 -7.99069E+01 -8.43191E+01 -8.33120E+01 -8.22572E+01 -7.75235E+01 -7.31985E+01 -6.98366E+01 -7.10125E+01 -7.17758E+01
  -6.45323E+01 -6.72696E+01 -6.74924E+01 -7.06065E+01 -7.25959E+01 -7.14670E+01 -7.65258E+01 -7.35729E+01 -6.98804E+01 -7.12282E+01
  -6.41303E+01 -6.60406E+01 -6.55168E+01 -6.72011E+01 -6.38366E+01 -6.79508E+01 -6.17768E+01 -5.59176E+01 -5.49480E+01 -5.81210E+01
  -5.50273E+01 -5.59433E+01 -4.97428E+01 -5.77987E+01 -5.12110E+01 -5.36141E+01 -5.20761E+01 -5.42208E+01 -5.31592E+01 -5.07093E+01
  -5.26769E+01 -5.09592E+01 -4.83664E+01 -4.45706E+01 -4.39305E+01 -5.05679E+01 -4.50678E+01 -4.42802E+01 -4.71900E+01 -4.74284E+01
  -4.65870E+01 -4.85299E+01 -4.66551E+01 -4.45824E+01 -4.26043E+01 -4.37692E+01 -4.00273E+01 -4.63325E+01 -4.31672E+01 -4.36616E+01
  -4.39514E+01 -4.53135E+01 -4.08875E+01 -4.07590E+01 -4.38170E+01 -3.98790E+01 -4.13417E+01 -4.35839E+01 -4.20735E+01 -3.87742E+01
  -4.02974E+01 -3.74042E+01 -3.71695E+01 -3.62486E+01 -3.45065E+01 -3.88164E+01 -3.85571E+01 -3.64433E+01 -3.50118E+01 -3.65942E+01
  -3.08226E+01 -3.17972E+01 -2.81826E+01 -3.01704E+01 -2.75010E+01 -2.93881E+01 -2.81285E+01 -3.03011E+01 -2.95792E+01 -3.23465E+01
  -2.64427E+01 -2.28352E+01 -2.52204E+01 -2.42902E+01 -2.52250E+01 -2.74065E+01 -2.48339E+01 -2.25889E+01 -2.29582E+01 -1.98874E+01
  -1.22845E+01 -1.45950E+01 -9.26303E+00 -1.08603E+01 -9.40255E+00 -1.67780E+01 -2.27874E+01 -2.00683E+01 -2.60651E+01 -2.14245E+01
  -2.34949E+01 -1.99583E+01 -2.35671E+01 -1.68236E+01 -2.12049E+01 -2.11512E+01 -1.84980E+01 -1.93063E+01 -2.58923E+01 -2.24955E+01
  -2.22008E+01 -2.12248E+01 -1.87590E+01 -1.10785E+01 -9.91756E-02 -3.72370E+00  8.51512E+00  4.21382E+00  3.02772E+00 -5.62776E+00
  -1.19722E+01 -1.38623E+01 -1.74074E+01 -1.44812E+01 -1.42583E+01 -1.57810E+01 -1.17888E+01 -1.66017E+01 -1.53948E+01 -1.58256E+01
  -1.56614E+01 -1.33254E+01 -1.48465E+01 -1.87896E+01 -1.67618E+01 -9.92619E+00 -1.40505E+01 -1.25994E+01 -1.35730E+01 -1.08436E+01
  -1.05139E+01 -1.15914E+01 -1.23207E+01 -1.28314E+01 -9.57413E+00 -1.48153E+01 -1.05289E+01 -1.34311E+01 -9.82248E+00 -1.24575E+01
  -9.32884E+00 -1.26376E+01 -9.45617E+00 -9.90174E+00 -1.15103E+01 -1.33134E+01 -8.73481E+00 -9.10035E+00 -6.72621E+00 -8.31252E+00
  -1.27382E+01 -1.38907E+01 -1.60110E+01 -1.36837E+01 -9.52849E+00 -1.39405E+01 -1.43210E+01 -1.38547E+01 -6.34054E+00 -1.27916E+01
  -8.33522E+00 -9.36231E+00 -9.62551E+00 -5.45827E+00 -8.31063E+00 -9.14169E+00 -7.13353E+00 -6.30455E+00 -1.26287E+01 -7.94543E+00
  -3.95162E+00 -6.42469E+00 -6.12916E+00 -8.59799E-01 -7.26419E+00 -4.26480E+00 -6.05089E+00 -1.00419E+01 -8.02836E+00 -7.14623E+00
  -7.36620E+00 -6.99504E-01 -2.04384E+00  6.98813E+00  3.59129E+00 -8.51051E-01  1.42426E+00 -4.20115E+00 -8.85762E-01 -3.21623E+00
  -1.03998E-01  4.86106E+00  5.44169E+00  7.75615E+00  1.58622E+01  1.04862E+01  1.26541E+01  1.12379E+01  6.22536E+00  2.65419E+00
   6.26655E-01  6.15024E+00  6.33695E+00  3.03917E+00  8.11203E+00  1.11456E+01  1.19429E+01  8.42968E+00  1.93107E+01  1.00688E+01
   2.00334E+01  1.55783E+01  1.16813E+01  1.56644E+01  2.20166E+01  1.69296E+01  2.44323E+01  2.29905E+01  2.01752E+01  2.25380E+01
   2.46562E+01  2.05328E+01  2.67979E+01  2.46065E+01  3.11928E+01  3.25359E+01  3.24757E+01  3.06861E+01  4.18080E+01  3.33605E+01
   3.91997E+01  4.00281E+01  3.62727E+01  3.82488E+01  4.01887E+01  4.48322E+01  5.63200E+01  7.02032E+01  8.00883E+01  9.10030E+01
   8.88551E+01  7.88997E+01  6.79767E+01  6.09368E+01  5.23237E+01  4.53208E+01  4.00095E+01  3.65373E+01  3.97432E+01  3.27037E+01
   3.10055E+01  2.77654E+01  3.41316E+01  3.18298E+01  3.32870E+01  3.02765E+01  2.99270E+01  3.27588E+01  3.72672E+01  3.23141E+01
   3.74414E+01  4.15100E+01  3.65213E+01  3.46582E+01  3.43069E+01  3.57364E+01  3.38189E+01  3.70660E+01  3.93329E+01  3.64576E+01
   3.92113E+01  3.68772E+01  3.73227E+01  3.75394E+01  3.99557E+01  3.57651E+01  3.93036E+01  3.70437E+01  3.59052E+01  3.99621E+01
   4.07620E+01  3.88442E+01  3.86101E+01  3.97116E+01  3.98049E+01  3.86031E+01  4.01186E+01  4.28639E+01  4.20089E+01  4.28644E+01
   3.83752E+01  4.34209E+01  4.25970E+01  4.58327E+01  3.63305E+01  3.85691E+01  4.00892E+01  4.07925E+01  4.51999E+01  3.74214E+01
   4.03434E+01  4.19158E+01  4.67594E+01  5.00886E+01  5.50350E+01  5.42121E+01  6.08199E+01  6.08528E+01  6.82359E+01  6.12844E+01
   6.51898E+01  7.15360E+01  7.24313E+01  7.43578E+01  8.22721E+01  8.40956E+01  8.69482E+01  8.98396E+01  9.52008E+01  9.94336E+01
   9.80351E+01  1.01975E+02  1.03193E+02  1.05394E+02  1.10272E+02  1.09283E+02  1.06790E+02  1.05324E+02  1.09028E+02  1.02134E+02
   1.00045E+02  1.00793E+02  1.07122E+02  1.08139E+02  1.07230E+02  1.10983E+02  1.03566E+02  1.08974E+02  1.10580E+02  1.10136E+02
   1.08085E+02  1.12163E+02  1.13831E+02  1.19073E+02  1.14465E+02  1.18647E+02  1.10116E+02  1.14543E+02  1.18135E+02  1.17936E+02
   1.15471E+02  1.14434E+02  1.16461E+02  1.15296E+02  1.12965E+02  1.14848E+02  1.14905E+02  1.17267E+02  1.10824E+02  1.10051E+02
   1.09616E+02  1.16544E+02  1.10033E+02  1.08889E+02  1.12465E+02  1.06707E+02  1.08010E+02  1.09959E+02  1.12707E+02  1.09642E+02
   1.10293E+02  1.04831E+02  1.08293E+02  1.07310E+02  1.10922E+02  1.14982E+02  1.11365E+02  1.15846E+02  1.15889E+02  1.11151E+02
   1.13663E+02  1.10757E+02  1.07059E+02  1.02496E+02  1.06488E+02  1.05358E+02  1.01692E+02  9.96935E+01  1.01704E+02  1.01732E+02
   9.56915E+01  9.37862E+01  9.16451E+01  8.78204E+01  8.88808E+01  8.02497E+01  8.41477E+01  8.40217E+01  8.08531E+01  7.98083E+01
   7.40878E+01  6.76219E+01  6.96681E+01  7.25061E+01  6.83775E+01  6.21972E+01  6.28137E+01  5.76228E+01  5.53303E+01  5.53783E+01
   5.38788E+01  4.69618E+01  4.73868E+01  4.76813E+01  4.32462E+01  4.17808E+01  3.50881E+01  3.45553E+01  3.16877E+01  3.07433E+01
   2.99443E+01  2.53246E+01  2.05000E+01  2.76206E+01  2.03721E+01  1.82862E+01  2.32557E+01  1.11257E+01  8.87977E+00  1.04247E+01
   9.64638E+00  5.89218E+00  6.07667E+00  3.72726E+00  6.99587E+00  2.56822E-01 -1.08469E+00 -4.46008E+00 -3.11448E+00 -3.18988E+00
  -3.61397E+00 -5.80737E+00 -1.01327E+01 -8.82829E+00 -8.92122E+00 -1.18814E+01 -1.17586E+01 -1.35775E+01 -1.41219E+01 -1.22919E+01
  -1.68868E+01 -1.49434E+01 -1.79913E+01 -2.05003E+01 -1.53991E+01 -1.61030E+01 -1.77436E+01 -1.89230E+01 -1.80203E+01 -2.04710E+01
  -1.61173E+01 -1.88829E+01 -2.02976E+01 -1.97759E+01 -2.30335E+01 -2.08241E+01 -1.89477E+01 -2.23571E+01 -1.52487E+01 -1.85022E+01
  -2.09195E+01 -1.64050E+01 -2.31629E+01 -1.92465E+01 -1.90503E+01 -2.17748E+01 -1.92960E+01 -2.23563E+01
 NY points of the fit to the data follow
  -8.10676E+01 -8.03416E+01 -7.94872E+01 -7.87237E+01 -7.77950E+01 -7.60787E+01 -7.38103E+01 -7.16179E+01 -6.94078E+01 -6.79756E+01
  -6.76077E+01 -6.78060E+01 -6.84849E+01 -6.90382E+01 -6.95421E+01 -6.95693E+01 -6.93768E+01 -6.91087E+01 -6.84599E+01 -6.77256E+01
  -6.67669E+01 -6.57098E+01 -6.47189E+01 -6.41434E+01 -6.40600E+01 -6.37061E+01 -6.24265E+01 -6.08684E+01 -5.90476E+01 -5.65772E+01
  -5.44879E+01 -5.33753E+01 -5.31784E+01 -5.36042E+01 -5.46520E+01 -5.60462E+01 -5.67071E+01 -5.69472E+01 -5.67946E+01 -5.59016E+01
  -5.48618E+01 -5.36936E+01 -5.21135E+01 -4.99812E+01 -4.79540E+01 -4.65246E+01 -4.56148E+01 -4.56348E+01 -4.64654E+01 -4.74635E+01
  -4.82196E+01 -4.85081E+01 -4.83332E+01 -4.78436E+01 -4.71619E+01 -4.62476E+01 -4.51725E+01 -4.40841E+01 -4.31268E+01 -4.25510E+01
  -4.23183E+01 -4.23273E+01 -4.23301E+01 -4.21849E+01 -4.18327E+01 -4.12137E+01 -4.05708E+01 -3.98772E+01 -3.90922E+01 -3.84965E+01
  -3.78601E+01 -3.70782E+01 -3.63659E+01 -3.58702E+01 -3.55393E+01 -3.53334E+01 -3.54217E+01 -3.54548E+01 -3.52840E+01 -3.49759E+01
  -3.44694E+01 -3.34325E+01 -3.18939E+01 -3.06363E+01 -3.00016E+01 -2.96315E+01 -2.98073E+01 -3.04129E+01 -3.08422E+01 -3.10126E+01
  -3.09440E+01 -3.07303E+01 -3.03315E+01 -3.00390E+01 -2.97309E+01 -2.91453E+01 -2.85908E+01 -2.75055E+01 -2.42633E+01 -1.89030E+01
  -1.41483E+01 -1.09681E+01 -8.88410E+00 -1.00167E+01 -1.31643E+01 -1.66720E+01 -1.95642E+01 -2.14723E+01 -2.26351E+01 -2.26588E+01
  -2.30339E+01 -2.32233E+01 -2.29790E+01 -2.26178E+01 -2.21982E+01 -2.18014E+01 -2.14201E+01 -2.10099E+01 -2.05643E+01 -2.00965E+01
  -1.94972E+01 -1.84132E+01 -1.50930E+01 -8.91333E+00 -3.12607E+00  6.39619E-01  3.35505E+00  2.61736E+00 -7.65817E-01 -4.53193E+00
  -7.61943E+00 -9.89003E+00 -1.17030E+01 -1.23309E+01 -1.35170E+01 -1.46002E+01 -1.47768E+01 -1.45055E+01 -1.39337E+01 -1.32573E+01
  -1.26659E+01 -1.22430E+01 -1.20046E+01 -1.18833E+01 -1.18685E+01 -1.18529E+01 -1.18542E+01 -1.19103E+01 -1.19044E+01 -1.19031E+01
  -1.18711E+01 -1.18157E+01 -1.17064E+01 -1.15656E+01 -1.14109E+01 -1.12675E+01 -1.13126E+01 -1.16143E+01 -1.19346E+01 -1.21044E+01
  -1.20354E+01 -1.15934E+01 -1.10695E+01 -1.06492E+01 -1.03515E+01 -1.03861E+01 -1.05748E+01 -1.08171E+01 -1.09557E+01 -1.10153E+01
  -1.10974E+01 -1.12397E+01 -1.16294E+01 -1.19005E+01 -1.18080E+01 -1.15875E+01 -1.13285E+01 -1.10528E+01 -1.08732E+01 -1.06882E+01
  -1.05605E+01 -1.03520E+01 -1.02189E+01 -1.01553E+01 -9.83501E+00 -9.31192E+00 -8.54883E+00 -7.46768E+00 -6.22565E+00 -5.23189E+00
  -4.61412E+00 -4.32614E+00 -4.23588E+00 -4.33551E+00 -4.53155E+00 -4.62379E+00 -4.51553E+00 -4.30878E+00 -3.74961E+00 -2.77292E+00
  -1.49416E+00 -2.20948E-01  8.05054E-01  1.44969E+00  1.40094E+00  8.36094E-01 -2.97156E-01 -1.43394E+00 -2.18108E+00 -2.69074E+00
  -2.10032E+00 -2.26249E-01  2.74593E+00  5.94478E+00  8.25324E+00  9.76608E+00  9.71292E+00  8.06381E+00  5.45419E+00  2.64442E+00
   1.18619E+00  1.20893E+00  2.57689E+00  5.19315E+00  8.30643E+00  1.11641E+01  1.32575E+01  1.44550E+01  1.49372E+01  1.52081E+01
   1.56287E+01  1.62289E+01  1.70326E+01  1.83083E+01  1.98330E+01  2.11788E+01  2.23429E+01  2.32176E+01  2.36244E+01  2.36976E+01
   2.39090E+01  2.46981E+01  2.58590E+01  2.75501E+01  2.95773E+01  3.15427E+01  3.30102E+01  3.40092E+01  3.47682E+01  3.53374E+01
   3.60535E+01  3.69104E+01  3.79403E+01  3.89030E+01  3.99811E+01  4.44242E+01  5.63496E+01  7.09202E+01  8.09558E+01  8.79972E+01
   8.91282E+01  8.09675E+01  6.96301E+01  5.87062E+01  5.02612E+01  4.36802E+01  4.02011E+01  3.80917E+01  3.47651E+01  3.31320E+01
   3.23863E+01  3.20016E+01  3.18049E+01  3.18460E+01  3.19231E+01  3.19734E+01  3.19893E+01  3.19928E+01  3.20202E+01  3.21308E+01
   3.23419E+01  3.26728E+01  3.31218E+01  3.36684E+01  3.42804E+01  3.49411E+01  3.56287E+01  3.63060E+01  3.69798E+01  3.76377E+01
   3.82573E+01  3.88349E+01  3.93655E+01  3.98333E+01  4.02344E+01  4.05631E+01  4.08157E+01  4.09851E+01  4.10710E+01  4.10791E+01
   4.10107E+01  4.08740E+01  4.06777E+01  4.04322E+01  4.01493E+01  3.98438E+01  3.95315E+01  3.92297E+01  3.89557E+01  3.87274E+01
   3.85628E+01  3.84794E+01  3.84959E+01  3.86304E+01  3.89007E+01  3.93244E+01  3.99189E+01  4.07012E+01  4.16888E+01  4.28999E+01
   4.43560E+01  4.60930E+01  4.82173E+01  5.07665E+01  5.33545E+01  5.56476E+01  5.78569E+01  5.99697E+01  6.19024E+01  6.40635E+01
   6.65346E+01  6.96270E+01  7.34203E+01  7.75054E+01  8.16293E+01  8.56488E+01  8.92503E+01  9.23089E+01  9.48898E+01  9.71578E+01
   9.91978E+01  1.01113E+02  1.03270E+02  1.05380E+02  1.06783E+02  1.07175E+02  1.06983E+02  1.06039E+02  1.04511E+02  1.03106E+02
   1.02308E+02  1.02726E+02  1.03971E+02  1.05556E+02  1.07388E+02  1.08892E+02  1.09942E+02  1.10566E+02  1.10983E+02  1.11419E+02
   1.11871E+02  1.12601E+02  1.13386E+02  1.14079E+02  1.14818E+02  1.15534E+02  1.16170E+02  1.16687E+02  1.17054E+02  1.17246E+02
   1.17250E+02  1.17060E+02  1.16678E+02  1.16117E+02  1.15399E+02  1.14553E+02  1.13615E+02  1.12626E+02  1.11630E+02  1.10673E+02
   1.09796E+02  1.09040E+02  1.08437E+02  1.08013E+02  1.07784E+02  1.07756E+02  1.07924E+02  1.08273E+02  1.08777E+02  1.09403E+02
   1.10109E+02  1.10849E+02  1.11574E+02  1.12232E+02  1.12778E+02  1.13166E+02  1.13360E+02  1.13330E+02  1.13056E+02  1.12526E+02
   1.11740E+02  1.10707E+02  1.09444E+02  1.07975E+02  1.06331E+02  1.04543E+02  1.02648E+02  1.00680E+02  9.86713E+01  9.66495E+01
   9.46382E+01  9.26546E+01  9.07094E+01  8.88069E+01  8.69454E+01  8.51175E+01  8.33113E+01  8.15119E+01  7.97018E+01  7.78630E+01
   7.59778E+01  7.40301E+01  7.20062E+01  6.98956E+01  6.76918E+01  6.53921E+01  6.29978E+01  6.05143E+01  5.79502E+01  5.53174E+01
   5.26300E+01  4.99037E+01  4.71554E+01  4.44021E+01  4.16607E+01  3.89471E+01  3.62761E+01  3.36607E+01  3.11124E+01  2.86403E+01
   2.62520E+01  2.39528E+01  2.17463E+01  1.96346E+01  1.76180E+01  1.56959E+01  1.38664E+01  1.21270E+01  1.04741E+01  8.90425E+00
   7.41313E+00  5.99658E+00  4.65025E+00  3.36983E+00  2.15107E+00  9.89862E-01 -1.17730E-01 -1.17541E+00 -2.18667E+00 -3.15479E+00
  -4.08285E+00 -4.97366E+00 -5.82985E+00 -6.65381E+00 -7.44778E+00 -8.21381E+00 -8.95380E+00 -9.66948E+00 -1.03624E+01 -1.10341E+01
  -1.16858E+01 -1.23189E+01 -1.29344E+01 -1.35334E+01 -1.41168E+01 -1.46856E+01 -1.52405E+01 -1.57824E+01 -1.63118E+01 -1.68296E+01
  -1.73362E+01 -1.78322E+01 -1.83181E+01 -1.87944E+01 -1.92617E+01 -1.97201E+01 -2.01703E+01 -2.06124E+01 -2.10469E+01 -2.14741E+01
  -2.18942E+01 -2.23075E+01 -2.27143E+01 -2.31149E+01 -2.35094E+01 -2.38980E+01 -2.42811E+01 -2.46586E+01
 NY background values follow
    -8.406E+01   -8.339E+01   -8.272E+01   -8.204E+01   -8.137E+01   -8.070E+01   -8.002E+01   -7.935E+01   -7.868E+01   -7.800E+01
    -7.733E+01   -7.666E+01   -7.599E+01   -7.532E+01   -7.465E+01   -7.398E+01   -7.332E+01   -7.265E+01   -7.199E+01   -7.133E+01
    -7.067E+01   -7.001E+01   -6.935E+01   -6.870E+01   -6.805E+01   -6.740E+01   -6.675E+01   -6.611E+01   -6.547E+01   -6.483E+01
    -6.419E+01   -6.356E+01   -6.293E+01   -6.230E+01   -6.168E+01   -6.106E+01   -6.045E+01   -5.983E+01   -5.922E+01   -5.862E+01
    -5.802E+01   -5.742E+01   -5.683E+01   -5.625E+01   -5.566E+01   -5.509E+01   -5.451E+01   -5.394E+01   -5.338E+01   -5.282E+01
    -5.227E+01   -5.172E+01   -5.118E+01   -5.064E+01   -5.010E+01   -4.957E+01   -4.905E+01   -4.853E+01   -4.802E+01   -4.751E+01
    -4.700E+01   -4.650E+01   -4.601E+01   -4.552E+01   -4.504E+01   -4.456E+01   -4.408E+01   -4.361E+01   -4.315E+01   -4.269E+01
    -4.224E+01   -4.179E+01   -4.135E+01   -4.091E+01   -4.047E+01   -4.005E+01   -3.962E+01   -3.921E+01   -3.879E+01   -3.839E+01
    -3.799E+01   -3.759E+01   -3.720E+01   -3.681E+01   -3.643E+01   -3.605E+01   -3.568E+01   -3.532E+01   -3.496E+01   -3.461E+01
    -3.426E+01   -3.391E+01   -3.357E+01   -3.324E+01   -3.291E+01   -3.259E+01   -3.227E+01   -3.196E+01   -3.165E+01   -3.135E+01
    -3.104E+01   -3.075E+01   -3.046E+01   -3.017E+01   -2.988E+01   -2.960E+01   -2.933E+01   -2.905E+01   -2.878E+01   -2.852E+01
    -2.825E+01   -2.799E+01   -2.774E+01   -2.748E+01   -2.723E+01   -2.698E+01   -2.673E+01   -2.649E+01   -2.625E+01   -2.600E+01
    -2.577E+01   -2.553E+01   -2.529E+01   -2.506E+01   -2.483E+01   -2.460E+01   -2.437E+01   -2.414E+01   -2.391E+01   -2.369E+01
    -2.346E+01   -2.323E+01   -2.301E+01   -2.278E+01   -2.256E+01   -2.234E+01   -2.211E+01   -2.189E+01   -2.166E+01   -2.144E+01
    -2.122E+01   -2.099E+01   -2.077E+01   -2.054E+01   -2.032E+01   -2.009E+01   -1.987E+01   -1.965E+01   -1.942E+01   -1.920E+01
    -1.897E+01   -1.875E+01   -1.852E+01   -1.830E+01   -1.807E+01   -1.785E+01   -1.762E+01   -1.740E+01   -1.718E+01   -1.695E+01
    -1.673E+01   -1.650E+01   -1.628E+01   -1.605E+01   -1.583E+01   -1.560E+01   -1.538E+01   -1.515E+01   -1.493E+01   -1.471E+01
    -1.448E+01   -1.426E+01   -1.403E+01   -1.381E+01   -1.358E+01   -1.336E+01   -1.314E+01   -1.291E+01   -1.269E+01   -1.246E+01
    -1.224E+01   -1.202E+01   -1.179E+01   -1.157E+01   -1.135E+01   -1.112E+01   -1.090E+01   -1.068E+01   -1.045E+01   -1.023E+01
    -1.001E+01   -9.790E+00   -9.569E+00   -9.349E+00   -9.129E+00   -8.910E+00   -8.692E+00   -8.474E+00   -8.257E+00   -8.041E+00
    -7.826E+00   -7.612E+00   -7.398E+00   -7.186E+00   -6.974E+00   -6.764E+00   -6.554E+00   -6.346E+00   -6.139E+00   -5.933E+00
    -5.728E+00   -5.525E+00   -5.323E+00   -5.122E+00   -4.923E+00   -4.725E+00   -4.529E+00   -4.334E+00   -4.141E+00   -3.950E+00
    -3.760E+00   -3.571E+00   -3.385E+00   -3.200E+00   -3.018E+00   -2.837E+00   -2.658E+00   -2.481E+00   -2.306E+00   -2.133E+00
    -1.962E+00   -1.793E+00   -1.626E+00   -1.461E+00   -1.298E+00   -1.138E+00   -9.798E-01   -8.238E-01   -6.701E-01   -5.186E-01
    -3.695E-01   -2.226E-01   -7.817E-02    6.392E-02    2.036E-01    3.408E-01    4.756E-01    6.079E-01    7.377E-01    8.649E-01
     9.896E-01    1.112E+00    1.231E+00    1.348E+00    1.462E+00    1.573E+00    1.682E+00    1.788E+00    1.891E+00    1.992E+00
     2.089E+00    2.184E+00    2.276E+00    2.364E+00    2.450E+00    2.533E+00    2.613E+00    2.690E+00    2.764E+00    2.835E+00
     2.902E+00    2.967E+00    3.029E+00    3.087E+00    3.142E+00    3.194E+00    3.243E+00    3.289E+00    3.332E+00    3.371E+00
     3.408E+00    3.442E+00    3.472E+00    3.500E+00    3.525E+00    3.546E+00    3.565E+00    3.581E+00    3.593E+00    3.603E+00
     3.610E+00    3.614E+00    3.616E+00    3.614E+00    3.609E+00    3.602E+00    3.592E+00    3.579E+00    3.563E+00    3.544E+00
     3.523E+00    3.499E+00    3.472E+00    3.443E+00    3.410E+00    3.375E+00    3.338E+00    3.297E+00    3.254E+00    3.208E+00
     3.160E+00    3.109E+00    3.056E+00    2.999E+00    2.941E+00    2.879E+00    2.816E+00    2.749E+00    2.680E+00    2.609E+00
     2.535E+00    2.459E+00    2.380E+00    2.299E+00    2.215E+00    2.129E+00    2.040E+00    1.949E+00    1.856E+00    1.761E+00
     1.663E+00    1.563E+00    1.460E+00    1.356E+00    1.249E+00    1.139E+00    1.028E+00    9.143E-01    7.985E-01    6.805E-01
     5.604E-01    4.382E-01    3.138E-01    1.873E-01    5.875E-02   -7.187E-02   -2.045E-01   -3.393E-01   -4.760E-01   -6.147E-01
    -7.554E-01   -8.981E-01   -1.043E+00   -1.189E+00   -1.338E+00   -1.488E+00   -1.640E+00   -1.794E+00   -1.950E+00   -2.108E+00
    -2.268E+00   -2.429E+00   -2.592E+00   -2.757E+00   -2.924E+00   -3.092E+00   -3.263E+00   -3.434E+00   -3.608E+00   -3.784E+00
    -3.961E+00   -4.140E+00   -4.320E+00   -4.502E+00   -4.686E+00   -4.872E+00   -5.059E+00   -5.248E+00   -5.439E+00   -5.631E+00
    -5.825E+00   -6.021E+00   -6.218E+00   -6.417E+00   -6.617E+00   -6.820E+00   -7.023E+00   -7.229E+00   -7.436E+00   -7.644E+00
    -7.855E+00   -8.066E+00   -8.280E+00   -8.495E+00   -8.711E+00   -8.929E+00   -9.149E+00   -9.370E+00   -9.592E+00   -9.817E+00
    -1.004E+01   -1.027E+01   -1.050E+01   -1.073E+01   -1.096E+01   -1.119E+01   -1.143E+01   -1.166E+01   -1.190E+01   -1.214E+01
    -1.238E+01   -1.262E+01   -1.287E+01   -1.311E+01   -1.336E+01   -1.360E+01   -1.385E+01   -1.410E+01   -1.435E+01   -1.460E+01
    -1.485E+01   -1.511E+01   -1.536E+01   -1.561E+01   -1.587E+01   -1.613E+01   -1.638E+01   -1.664E+01   -1.690E+01   -1.716E+01
    -1.742E+01   -1.768E+01   -1.794E+01   -1.820E+01   -1.846E+01   -1.872E+01   -1.899E+01   -1.925E+01   -1.951E+01   -1.978E+01
    -2.004E+01   -2.030E+01   -2.057E+01   -2.083E+01   -2.109E+01   -2.136E+01   -2.162E+01   -2.189E+01   -2.215E+01   -2.241E+01
    -2.268E+01   -2.294E+01   -2.320E+01   -2.346E+01   -2.373E+01   -2.399E+01   -2.425E+01   -2.451E+01   -2.477E+01   -2.503E+01
    -2.529E+01   -2.555E+01   -2.581E+01   -2.607E+01   -2.632E+01   -2.658E+01   -2.684E+01   -2.709E+01   -2.735E+01   -2.760E+01
    -2.786E+01   -2.811E+01   -2.836E+01   -2.862E+01   -2.887E+01   -2.912E+01   -2.937E+01   -2.962E+01   -2.987E+01   -3.011E+01
    -3.036E+01   -3.061E+01   -3.085E+01   -3.110E+01   -3.134E+01   -3.158E+01   -3.182E+01   -3.207E+01   -3.230E+01   -3.254E+01
    -3.278E+01   -3.302E+01   -3.325E+01   -3.349E+01   -3.372E+01   -3.396E+01   -3.419E+01   -3.442E+01
 Ala      Conc. = 1.44E+02
