 LCModel (Version 6.3-1L) Copyright: S.W. Provencher.          Ref.: Magn. Reson. Med. 30:672-679 (1993).                
 Slice#2 Row#3 Col#11  PD_05_press_2_raw_act
 36 lines in following concentration table = NCONC+1
    Conc.  %SD /Cr+PCr  Metabolite                                         
 3.47E+03  20%  11.090 Ala                                                 
  113.709 109%   0.364 Asp                                                 
    0.000 999%   0.000 Cr                                                  
  312.523  52%   1.000 PCr                                                 
   72.384 103%   0.232 GABA                                                
   47.838 156%   0.153 Glc                                                 
    0.000 999%   0.000 Gln                                                 
  275.158 530%   0.880 Glu                                                 
    0.000 999%   0.000 GPC                                                 
  142.238  36%   0.455 PCh                                                 
    0.000 999%   0.000 GSH                                                 
    0.000 999%   0.000 Ins                                                 
    0.000 999%   0.000 Lac                                                 
  316.597 150%   1.013 NAA                                                 
 1.24E+03  38%   3.960 NAAG                                                
   15.614 153% 5.0E-02 Scyllo                                              
   73.108 166%   0.234 Tau                                                 
  359.612  48%   1.151 -CrCH2                                              
  142.238  36%   0.455 GPC+PCh                                             
 1.55E+03  11%   4.973 NAA+NAAG                                            
  312.523  52%   1.000 Cr+PCr                                              
  275.158 530%   0.880 Glu+Gln                                             
    0.000 999%   0.000 Lip13a                                              
  150.087 132%   0.480 Lip13b                                              
    0.000 999%   0.000 Lip09                                               
    0.000 999%   0.000 MM09                                                
  131.809  92%   0.422 Lip20                                               
   26.837 570% 8.6E-02 MM20                                                
    0.000 999%   0.000 MM12                                                
    0.000 999%   0.000 MM14                                                
   26.362 234% 8.4E-02 MM17                                                
  150.087 132%   0.480 Lip13a+Lip13b                                       
  150.087 134%   0.480 MM14+Lip13a+Lip13b+MM12                             
    0.000 999%   0.000 MM09+Lip09                                          
  158.646 122%   0.508 MM20+Lip20                                          
   6 lines in following misc. output table
  FWHM = 0.122 ppm    S/N =   2                                            
  Data shift = 0.099 ppm                                                   
  Ph:  -8 deg      -8.9 deg/ppm                                            
  alphaB,S = 8.5E+01,   1.3E+02                                            
   12 spline knots.   Ns = 9(2)                                            
   4 inflections.     1 extrema                                            
  498 points on ppm-axis = NY
      4.000000     3.992357     3.984714     3.977070     3.969427     3.961784     3.954141     3.946497     3.938854     3.931211
      3.923568     3.915925     3.908281     3.900638     3.892995     3.885352     3.877708     3.870065     3.862422     3.854779
      3.847136     3.839492     3.831849     3.824206     3.816563     3.808919     3.801276     3.793633     3.785990     3.778347
      3.770703     3.763060     3.755417     3.747774     3.740130     3.732487     3.724844     3.717201     3.709558     3.701914
      3.694271     3.686628     3.678985     3.671341     3.663698     3.656055     3.648412     3.640769     3.633125     3.625482
      3.617839     3.610196     3.602552     3.594909     3.587266     3.579623     3.571980     3.564336     3.556693     3.549050
      3.541407     3.533763     3.526120     3.518477     3.510834     3.503191     3.495547     3.487904     3.480261     3.472618
      3.464974     3.457331     3.449688     3.442045     3.434402     3.426758     3.419115     3.411472     3.403829     3.396185
      3.388542     3.380899     3.373256     3.365613     3.357969     3.350326     3.342683     3.335040     3.327396     3.319753
      3.312110     3.304467     3.296824     3.289180     3.281537     3.273894     3.266251     3.258607     3.250964     3.243321
      3.235678     3.228034     3.220391     3.212748     3.205105     3.197462     3.189818     3.182175     3.174532     3.166889
      3.159245     3.151602     3.143959     3.136316     3.128673     3.121029     3.113386     3.105743     3.098100     3.090456
      3.082813     3.075170     3.067527     3.059884     3.052240     3.044597     3.036954     3.029311     3.021667     3.014024
      3.006381     2.998738     2.991095     2.983451     2.975808     2.968165     2.960522     2.952878     2.945235     2.937592
      2.929949     2.922306     2.914662     2.907019     2.899376     2.891733     2.884089     2.876446     2.868803     2.861160
      2.853517     2.845873     2.838230     2.830587     2.822944     2.815300     2.807657     2.800014     2.792371     2.784728
      2.777084     2.769441     2.761798     2.754155     2.746511     2.738868     2.731225     2.723582     2.715939     2.708295
      2.700652     2.693009     2.685366     2.677722     2.670079     2.662436     2.654793     2.647150     2.639506     2.631863
      2.624220     2.616577     2.608933     2.601290     2.593647     2.586004     2.578361     2.570717     2.563074     2.555431
      2.547788     2.540144     2.532501     2.524858     2.517215     2.509572     2.501928     2.494285     2.486642     2.478999
      2.471355     2.463712     2.456069     2.448426     2.440783     2.433139     2.425496     2.417853     2.410210     2.402566
      2.394923     2.387280     2.379637     2.371994     2.364350     2.356707     2.349064     2.341421     2.333777     2.326134
      2.318491     2.310848     2.303205     2.295561     2.287918     2.280275     2.272632     2.264988     2.257345     2.249702
      2.242059     2.234416     2.226772     2.219129     2.211486     2.203843     2.196199     2.188556     2.180913     2.173270
      2.165627     2.157983     2.150340     2.142697     2.135054     2.127410     2.119767     2.112124     2.104481     2.096838
      2.089194     2.081551     2.073908     2.066265     2.058621     2.050978     2.043335     2.035692     2.028049     2.020405
      2.012762     2.005119     1.997476     1.989833     1.982190     1.974546     1.966903     1.959260     1.951617     1.943974
      1.936331     1.928688     1.921045     1.913402     1.905759     1.898115     1.890472     1.882829     1.875186     1.867543
      1.859900     1.852257     1.844614     1.836971     1.829327     1.821684     1.814041     1.806398     1.798755     1.791112
      1.783469     1.775826     1.768183     1.760540     1.752896     1.745253     1.737610     1.729967     1.722324     1.714681
      1.707038     1.699395     1.691752     1.684108     1.676465     1.668822     1.661179     1.653536     1.645893     1.638250
      1.630607     1.622964     1.615321     1.607677     1.600034     1.592391     1.584748     1.577105     1.569462     1.561819
      1.554176     1.546533     1.538890     1.531246     1.523603     1.515960     1.508317     1.500674     1.493031     1.485388
      1.477745     1.470102     1.462458     1.454815     1.447172     1.439529     1.431886     1.424243     1.416600     1.408957
      1.401314     1.393671     1.386027     1.378384     1.370741     1.363098     1.355455     1.347812     1.340169     1.332526
      1.324883     1.317240     1.309596     1.301953     1.294310     1.286667     1.279024     1.271381     1.263738     1.256095
      1.248452     1.240808     1.233165     1.225522     1.217879     1.210236     1.202593     1.194950     1.187307     1.179664
      1.172021     1.164377     1.156734     1.149091     1.141448     1.133805     1.126162     1.118519     1.110876     1.103233
      1.095590     1.087946     1.080303     1.072660     1.065017     1.057374     1.049731     1.042088     1.034445     1.026802
      1.019158     1.011515     1.003872     0.996229     0.988586     0.980943     0.973300     0.965657     0.958014     0.950371
      0.942727     0.935084     0.927441     0.919798     0.912155     0.904512     0.896869     0.889226     0.881583     0.873940
      0.866296     0.858653     0.851010     0.843367     0.835724     0.828081     0.820438     0.812795     0.805152     0.797508
      0.789865     0.782222     0.774579     0.766936     0.759293     0.751650     0.744007     0.736364     0.728721     0.721077
      0.713434     0.705791     0.698148     0.690505     0.682862     0.675219     0.667576     0.659933     0.652290     0.644646
      0.637003     0.629360     0.621717     0.614074     0.606431     0.598788     0.591145     0.583502     0.575858     0.568215
      0.560572     0.552929     0.545286     0.537643     0.530000     0.522357     0.514714     0.507071     0.499427     0.491784
      0.484141     0.476498     0.468855     0.461212     0.453569     0.445925     0.438282     0.430639     0.422996     0.415353
      0.407710     0.400067     0.392424     0.384780     0.377137     0.369494     0.361851     0.354208     0.346565     0.338922
      0.331278     0.323635     0.315992     0.308349     0.300706     0.293063     0.285420     0.277777     0.270133     0.262490
      0.254847     0.247204     0.239561     0.231918     0.224275     0.216631     0.208988     0.201345
 NY phased data points follow
   5.12820E-01 -2.37780E+00 -8.94809E+00 -4.61049E+00 -1.07620E+01 -3.85526E-01  1.08398E+01 -4.97323E-01 -3.45616E-01 -3.89005E-01
  -5.88695E-01 -1.44049E+01 -3.12211E+00  4.52137E+00 -7.56103E+00  4.35295E+00  8.88816E+00 -1.33017E+01  1.76452E+00 -7.28998E-01
  -4.94115E+00 -4.18587E+00  5.57903E+00  9.14964E-01 -5.70504E+00  4.89543E+00  9.34401E+00 -1.44313E+01 -6.14972E+00 -4.28761E+00
  -3.17884E+00 -5.26564E+00 -1.00589E+01 -1.14102E+01  4.56711E+00  7.47047E+00  3.99248E+00  2.44530E+00  7.77092E+00  1.76091E+00
  -2.37887E+00  7.73012E+00 -2.71393E+00 -5.12128E+00 -2.74949E+00  6.70430E+00  8.65358E+00  8.13326E-01  1.27250E+00  6.49437E+00
   2.74582E+00  7.57169E-01  4.73798E+00  7.07301E+00 -1.65602E+00  1.15181E+00 -4.60651E+00 -5.67655E+00  3.75109E+00 -5.52863E+00
  -5.82191E+00 -4.18254E+00 -6.70234E-01 -1.00694E+01  7.72050E-01 -1.29113E+00 -1.16177E+00 -1.77069E+00 -2.86104E+00  4.13103E+00
  -5.90009E+00  5.36883E+00 -3.09504E+00  1.43475E+00  1.04143E+01  2.61306E-02 -6.09315E+00  3.68176E+00 -6.45451E+00 -9.22122E+00
  -6.78816E-01  1.61099E-01  4.69574E+00 -1.53764E+00  3.51797E+00 -4.14544E+00 -2.97517E+00  8.39310E+00  2.79332E+00 -1.80601E+00
   3.04258E+00 -1.59792E+00  6.68939E+00  6.47030E+00 -1.74447E+00 -3.62651E+00  9.05361E+00  7.41297E+00  9.47540E+00  8.13582E+00
   9.14015E+00  2.53137E+00  1.19195E+01  9.88542E+00  2.13451E-01 -2.42324E+00  4.71761E+00  7.93044E+00 -4.21476E-01  3.84444E+00
   2.50434E+00  4.42451E+00  5.93834E+00 -1.91859E-01  3.65250E+00  6.66490E+00 -6.18277E+00  4.74907E+00  1.29288E+01  4.33954E+00
  -1.75709E+00  1.25703E+01  1.22061E+01  8.06497E+00  5.10764E-01  5.26314E+00  9.39914E+00 -1.08565E+00  2.83343E+00 -2.44726E+00
   1.66398E+00  2.28929E+00  6.25262E+00  5.93672E+00  1.39691E+00  3.22368E+00  8.28196E+00  9.17591E+00 -4.41906E+00 -8.18868E-01
   3.30785E-01 -2.56362E+00 -5.04093E+00 -1.20028E+00 -2.20892E+00 -1.95354E-01 -1.26815E+00  7.65486E+00 -5.47138E+00 -9.12624E+00
  -1.30138E+01  2.28695E+00  1.93371E-01  3.89388E+00 -4.11932E+00  2.49627E+00 -5.59755E+00  1.43378E+00 -1.64438E+00  4.76291E-01
  -6.87787E-02  1.25815E-01 -1.87973E+00  6.23548E+00 -2.04996E+00  2.13549E+00 -1.77617E+00 -4.67350E-01  5.27291E+00  1.58744E+00
  -5.87286E+00 -2.53757E+00 -6.41634E+00 -5.92432E+00  4.38190E-01 -9.55916E+00 -1.52083E+00 -9.84219E+00  9.24073E-01 -3.18220E+00
  -4.01051E+00  1.75779E+00  7.24334E+00 -1.11478E+00  1.24552E+00 -2.71701E+00  9.33650E+00  5.32374E-01 -5.62320E+00  2.38073E+00
  -1.98935E+00  6.13375E+00 -2.82647E+00 -6.20070E+00 -6.08546E-01 -5.51997E+00 -9.84713E-02  1.95500E+00 -5.99366E+00  2.15738E+00
  -1.49229E-01  3.23740E+00  1.24064E+00 -2.05058E+00 -3.02180E+00 -6.41380E+00  3.39082E+00  6.75182E+00  1.83379E+00  7.96476E-01
   9.23016E-02 -4.13271E+00  2.98074E+00 -2.34845E+00 -5.15764E-01 -1.80057E+00 -1.86316E+00 -1.14333E+01  4.62284E+00 -2.76893E+00
  -5.06831E+00  2.20746E+00  8.66546E+00 -2.29525E+00 -6.85385E-01  6.61307E+00  1.48935E-01 -4.03520E+00  7.16693E+00 -3.01101E+00
   3.73225E+00  4.35712E+00  2.29423E+00 -5.62704E+00 -1.28692E+00  1.12168E+01  8.80522E+00  9.72508E+00  5.47644E+00  2.76627E+00
   1.62184E+01  7.35351E+00  1.58514E+01  2.09725E+01  1.06912E+01  1.63372E+01  1.96119E+01  1.28704E+01  1.12739E+01  1.23555E+01
   2.03209E+01  1.43811E+01  4.85614E+00  1.81294E+01  1.45485E+01  1.47275E+01  8.22170E+00  2.06107E+01  1.58843E+01  5.84680E+00
   3.85122E-01  1.51252E+01  1.05642E+01  9.73078E+00  7.70518E+00  2.90130E+00 -3.20044E+00  9.17723E+00  3.99119E+00  9.60440E+00
   9.96058E+00  8.09172E+00  1.24893E+01  4.00293E+00  5.17456E+00  7.45046E+00  2.60365E+00  2.98968E+00 -3.25767E+00  1.55794E-01
  -2.11055E+00  7.17964E+00 -1.08071E+00  7.26410E+00  8.35934E+00  3.46936E+00 -6.44525E-01 -6.75372E-01  9.45500E+00  4.12749E+00
   4.35760E+00  8.00573E+00  3.39132E+00  6.87996E+00  1.00568E+01  1.12246E+00  1.80865E+01  6.38653E+00  1.07912E+01  2.89689E+00
   1.52792E+01  6.90705E+00  1.03048E+01 -5.67895E+00 -5.96207E+00  1.05202E+01 -3.67987E-01  1.17719E+01  6.68009E+00  1.61173E+01
   1.21733E+01  1.18557E+01  3.39139E+00  9.52317E+00  5.41212E+00  6.96565E-02 -9.38082E+00 -1.95904E+01 -1.04335E+01 -1.97002E+01
  -4.44899E+00 -1.36613E+01 -1.60267E+01 -1.95471E+01 -9.53425E+00 -1.06497E+01 -1.31093E+01 -8.29784E+00  2.30503E+00 -5.88869E+00
   1.24205E+00  5.73461E+00 -6.04196E+00  8.94163E+00  6.89103E+00 -2.11721E+00 -6.62282E+00 -8.82655E-01 -1.07598E+01 -8.83191E+00
  -8.33772E+00 -7.42928E+00  2.62087E+00  6.32504E+00 -1.65560E+00  2.16484E+00  4.35320E-01  1.68785E+01 -4.85910E+00  4.53608E+00
  -6.43859E+00  2.63148E+00  3.19611E+00 -1.38099E+00  1.54966E+00  1.91637E+00 -2.67291E+00 -8.67519E+00  3.79215E+00 -1.02546E-01
   1.77899E+00 -1.25686E+00 -1.86011E+00  5.16596E+00  1.10538E+00 -8.01352E+00  7.51866E+00  2.80277E+00  2.02734E+00 -1.87559E+01
  -9.93501E+00 -7.16321E+00 -7.75692E+00 -1.23620E+01 -1.28337E+01 -1.72926E-01 -1.29521E+00 -4.77333E+00  4.31875E+00 -1.47720E+01
   2.90828E+00 -2.04719E+00 -4.41399E+00 -1.84802E+00 -1.14706E+01 -8.79041E+00 -1.45369E+01 -1.12405E+00 -5.78299E+00 -4.21887E+00
  -6.97712E+00 -1.18758E+01 -5.30513E+00  8.60401E-02 -2.19723E+00 -1.97128E+01  1.01367E+00 -9.80954E+00 -5.03400E+00 -6.67071E+00
  -1.43982E+01 -1.65911E+00 -1.04022E+01 -1.46752E+01 -2.46334E+00  2.57490E+00 -1.68378E+01 -9.18751E+00 -9.94018E+00 -2.51435E+00
  -1.02245E+01 -4.50846E+00 -6.44722E+00 -3.25360E+00 -4.74909E+00 -6.86955E+00 -4.75153E+00 -2.54002E+00 -9.49429E+00 -1.26212E+00
  -2.00588E+01 -1.11994E+01 -7.65067E+00 -3.84436E+00 -5.29820E+00 -1.19792E+01 -9.57285E+00 -1.94189E+00 -5.82487E+00  3.11187E+00
  -6.97486E+00  1.41944E+00 -8.18507E+00 -2.80060E+00  2.20778E-01 -2.32747E+01 -7.43039E+00 -3.46635E+00 -5.78393E+00 -7.41773E+00
  -1.01371E+01 -8.73255E+00 -6.01807E+00 -6.66263E+00 -2.24840E+00 -3.97995E+00 -6.76699E+00 -9.00506E+00 -1.01772E+01  3.65736E+00
  -9.37324E+00 -1.36860E+01 -5.91048E+00 -1.21178E+01 -4.22086E+00 -1.39105E+01 -4.08333E+00 -5.47302E+00 -4.91344E+00 -1.09787E+00
  -4.22235E-02 -3.49554E+00 -1.97478E+00 -3.61755E+00 -3.92383E+00 -6.59113E+00  2.57467E+00 -1.04176E+01 -3.72578E+00 -4.04192E+00
  -1.66090E+01 -2.68697E+00 -2.45068E+00 -8.09961E+00 -5.79461E+00 -4.30123E+00 -5.72451E+00  2.43862E+00 -7.16916E+00 -8.90925E+00
  -3.15106E+00  4.59525E+00 -9.64682E-01 -1.63819E+01 -6.95631E+00 -1.06081E+01 -1.14577E+00 -4.12779E+00  4.16788E+00 -6.58627E+00
  -4.71981E+00 -9.93634E-01 -8.58436E+00  2.34361E-01  1.77227E+00  1.17906E+00 -6.26973E-01  1.37902E+00
 NY points of the fit to the data follow
   8.60092E-01  3.22882E-01  6.21570E-01  1.31266E-01  7.31110E-01  5.37315E-01  1.60272E+00  1.20960E+00  2.36043E+00  1.51057E+00
   2.44943E+00  1.13762E+00  1.72517E+00  4.18849E-02  8.02487E-01 -7.17966E-01  3.25567E-01 -8.30454E-01  3.37876E-01 -5.06844E-01
   5.87968E-01 -1.20008E-01  7.52384E-01  2.09740E-01  8.82958E-01  5.65911E-01  1.12954E+00  9.77753E-01  1.32140E+00  1.18577E+00
   1.29766E+00  1.04358E+00  9.33528E-01  5.60614E-01  3.69431E-01  1.28414E-01 -5.46015E-03 -5.84082E-02 -6.55744E-02  8.50488E-02
   1.88700E-01  4.42716E-01  4.60038E-01  7.23804E-01  6.53736E-01  9.03546E-01  7.75130E-01  8.83854E-01  6.93882E-01  7.80006E-01
   5.61611E-01  6.13398E-01  3.83219E-01  4.07155E-01  3.09411E-01  3.90660E-01  3.38309E-01  4.51469E-01  4.31764E-01  5.43665E-01
   5.31232E-01  5.82004E-01  5.41503E-01  5.73779E-01  5.31791E-01  5.47989E-01  5.13885E-01  5.28135E-01  5.40586E-01  5.58676E-01
   5.98820E-01  6.07711E-01  6.49389E-01  6.46593E-01  6.78937E-01  6.63298E-01  6.72560E-01  6.42599E-01  6.30176E-01  5.91044E-01
   5.78732E-01  5.52764E-01  5.41000E-01  5.47886E-01  6.09494E-01  1.00986E+00  1.55423E+00  2.02068E+00  2.98267E+00  3.17431E+00
   4.35250E+00  4.13161E+00  5.35496E+00  4.72973E+00  5.87226E+00  4.92719E+00  5.91097E+00  4.77318E+00  5.57266E+00  4.31207E+00
   4.88120E+00  3.65727E+00  4.04781E+00  2.98229E+00  3.27866E+00  2.45792E+00  2.77697E+00  2.18437E+00  2.75586E+00  2.72849E+00
   3.37839E+00  3.69537E+00  4.13124E+00  4.51304E+00  4.54949E+00  4.91973E+00  4.56675E+00  4.88852E+00  4.23347E+00  4.52642E+00
   3.70769E+00  3.94306E+00  3.00993E+00  3.16800E+00  2.25191E+00  2.44376E+00  1.70413E+00  1.85169E+00  1.27303E+00  1.45796E+00
   1.00784E+00  1.24441E+00  8.80219E-01  1.17799E+00  8.18777E-01  1.08280E+00  6.35920E-01  7.50025E-01  2.85360E-01  2.79982E-01
  -1.12528E-01 -1.79980E-01 -5.00762E-01 -5.93752E-01 -8.78706E-01 -1.00642E+00 -1.24644E+00 -1.36190E+00 -1.52633E+00 -1.54335E+00
  -1.71336E+00 -1.73832E+00 -1.95958E+00 -1.95986E+00 -2.18356E+00 -2.15022E+00 -2.34843E+00 -2.33533E+00 -2.53404E+00 -2.52807E+00
  -2.70934E+00 -2.68737E+00 -2.84453E+00 -2.82561E+00 -2.98990E+00 -2.98364E+00 -3.07648E+00 -3.06400E+00 -3.06581E+00 -3.05172E+00
  -2.96408E+00 -2.92622E+00 -2.75893E+00 -2.67902E+00 -2.42661E+00 -2.34463E+00 -2.08689E+00 -2.03249E+00 -1.78966E+00 -1.75164E+00
  -1.55841E+00 -1.52394E+00 -1.37133E+00 -1.35660E+00 -1.22562E+00 -1.23184E+00 -1.08985E+00 -1.12289E+00 -9.69186E-01 -1.04586E+00
  -8.98692E-01 -1.06694E+00 -9.39645E-01 -1.16120E+00 -1.03587E+00 -1.29443E+00 -1.16678E+00 -1.41332E+00 -1.24272E+00 -1.47997E+00
  -1.28094E+00 -1.52713E+00 -1.34486E+00 -1.62679E+00 -1.50704E+00 -1.79853E+00 -1.66405E+00 -1.90619E+00 -1.74071E+00 -1.91488E+00
  -1.75965E+00 -1.86688E+00 -1.75134E+00 -1.84618E+00 -1.75721E+00 -1.85584E+00 -1.76113E+00 -1.78310E+00 -1.63664E+00 -1.59581E+00
  -1.45222E+00 -1.37238E+00 -1.26803E+00 -1.20693E+00 -1.23601E+00 -1.20748E+00 -1.29658E+00 -1.24443E+00 -1.33358E+00 -1.23610E+00
  -1.30101E+00 -1.18895E+00 -1.22468E+00 -1.11601E+00 -1.09510E+00 -9.45601E-01 -7.40643E-01  8.16251E-02  1.99680E+00  3.05913E+00
   6.22212E+00  6.90602E+00  1.07845E+01  1.09546E+01  1.47057E+01  1.42805E+01  1.73615E+01  1.63661E+01  1.85428E+01  1.71036E+01
   1.83783E+01  1.65868E+01  1.69058E+01  1.50026E+01  1.47045E+01  1.29405E+01  1.23716E+01  1.09341E+01  1.05623E+01  9.39239E+00
   9.32314E+00  8.36175E+00  8.67019E+00  7.72622E+00  8.03630E+00  6.96884E+00  6.93506E+00  5.85700E+00  5.47588E+00  4.45187E+00
   3.73715E+00  2.83863E+00  2.05181E+00  1.28101E+00  4.65557E-01 -1.15526E-01 -7.71632E-01 -1.02252E+00 -1.21482E+00 -1.38094E+00
  -1.46029E+00 -1.60848E+00 -1.55044E+00 -1.64921E+00 -1.58148E+00 -1.66883E+00 -1.59302E+00 -1.65950E+00 -1.57332E+00 -1.61381E+00
  -1.52013E+00 -1.53497E+00 -1.43480E+00 -1.42444E+00 -1.30810E+00 -1.26208E+00 -1.12351E+00 -1.03437E+00 -8.65322E-01 -7.28077E-01
  -5.11093E-01 -3.00056E-01 -9.82428E-04  3.35825E-01  8.02082E-01  1.41090E+00  2.32668E+00  3.88587E+00  6.26988E+00  6.76208E+00
   9.15836E+00  7.58425E+00  9.01544E+00  5.37081E+00  5.33549E+00 -1.37948E-01  5.91276E-01 -4.40528E+00 -2.51847E+00 -6.06787E+00
  -3.57743E+00 -5.75248E+00 -3.34170E+00 -4.14943E+00 -1.94015E+00 -1.67065E+00  2.69047E-01  1.23619E+00  2.99095E+00  4.01135E+00
   5.07824E+00  5.49775E+00  5.85037E+00  5.23648E+00  4.76103E+00  3.28719E+00  2.41605E+00  1.02708E+00  3.12234E-01 -5.46448E-01
  -7.35095E-01 -6.64662E-01 -4.38918E-01  2.29241E-01  2.21236E-01  1.09982E+00  9.52079E-01  1.95497E+00  1.83880E+00  2.30049E+00
   1.98656E+00  2.19130E+00  1.70052E+00  1.59883E+00  9.52839E-01  5.44264E-01  2.38878E-01 -4.58898E-02 -3.60798E-01 -6.92645E-01
  -1.05260E+00 -1.40763E+00 -1.76071E+00 -2.07905E+00 -2.37163E+00 -2.61459E+00 -2.82632E+00 -2.99097E+00 -3.13255E+00 -3.23826E+00
  -3.33288E+00 -3.40276E+00 -3.47094E+00 -3.52170E+00 -3.57615E+00 -3.61697E+00 -3.66407E+00 -3.69929E+00 -3.74194E+00 -3.77346E+00
  -3.81293E+00 -3.84167E+00 -3.87868E+00 -3.90521E+00 -3.94022E+00 -3.96491E+00 -3.99823E+00 -4.02136E+00 -4.05326E+00 -4.07509E+00
  -4.10578E+00 -4.12647E+00 -4.15609E+00 -4.17579E+00 -4.20451E+00 -4.22337E+00 -4.25129E+00 -4.26939E+00 -4.29660E+00 -4.31404E+00
  -4.34063E+00 -4.35749E+00 -4.38354E+00 -4.39986E+00 -4.42540E+00 -4.44127E+00 -4.46638E+00 -4.48183E+00 -4.50654E+00 -4.52159E+00
  -4.54594E+00 -4.56067E+00 -4.58471E+00 -4.59912E+00 -4.62286E+00 -4.63699E+00 -4.66046E+00 -4.67434E+00 -4.69758E+00 -4.71122E+00
  -4.73422E+00 -4.74765E+00 -4.77046E+00 -4.78370E+00 -4.80632E+00 -4.81937E+00 -4.84181E+00 -4.85469E+00 -4.87698E+00 -4.88972E+00
  -4.91185E+00 -4.92444E+00 -4.94643E+00 -4.95889E+00 -4.98077E+00 -4.99310E+00 -5.01486E+00 -5.02706E+00 -5.04871E+00 -5.06082E+00
  -5.08237E+00 -5.09438E+00 -5.11582E+00 -5.12773E+00 -5.14909E+00 -5.16092E+00 -5.18220E+00 -5.19393E+00 -5.21512E+00 -5.22678E+00
  -5.24791E+00 -5.25950E+00 -5.28055E+00 -5.29206E+00 -5.31304E+00 -5.32449E+00 -5.34542E+00 -5.35681E+00 -5.37767E+00 -5.38900E+00
  -5.40980E+00 -5.42107E+00 -5.44182E+00 -5.45304E+00 -5.47373E+00 -5.48489E+00 -5.50554E+00 -5.51665E+00 -5.53725E+00 -5.54831E+00
  -5.56885E+00 -5.57986E+00 -5.60036E+00 -5.61132E+00 -5.63178E+00 -5.64269E+00 -5.66309E+00 -5.67394E+00 -5.69430E+00 -5.70511E+00
  -5.72541E+00 -5.73615E+00 -5.75639E+00 -5.76707E+00 -5.78725E+00 -5.79787E+00 -5.81796E+00 -5.82849E+00 -5.84848E+00 -5.85890E+00
  -5.87879E+00 -5.88907E+00 -5.90878E+00 -5.91885E+00 -5.93831E+00 -5.94806E+00 -5.96713E+00 -5.97634E+00
 NY background values follow
     1.110E+00    1.096E+00    1.081E+00    1.067E+00    1.052E+00    1.038E+00    1.024E+00    1.009E+00    9.947E-01    9.802E-01
     9.658E-01    9.514E-01    9.369E-01    9.225E-01    9.080E-01    8.936E-01    8.792E-01    8.647E-01    8.503E-01    8.359E-01
     8.214E-01    8.070E-01    7.926E-01    7.781E-01    7.637E-01    7.493E-01    7.348E-01    7.204E-01    7.060E-01    6.915E-01
     6.771E-01    6.626E-01    6.482E-01    6.338E-01    6.193E-01    6.049E-01    5.905E-01    5.760E-01    5.616E-01    5.472E-01
     5.327E-01    5.183E-01    5.039E-01    4.894E-01    4.750E-01    4.605E-01    4.461E-01    4.317E-01    4.172E-01    4.028E-01
     3.884E-01    3.739E-01    3.595E-01    3.451E-01    3.306E-01    3.162E-01    3.018E-01    2.873E-01    2.729E-01    2.584E-01
     2.440E-01    2.296E-01    2.151E-01    2.007E-01    1.863E-01    1.718E-01    1.574E-01    1.430E-01    1.285E-01    1.141E-01
     9.965E-02    8.521E-02    7.077E-02    5.634E-02    4.190E-02    2.747E-02    1.303E-02   -1.406E-03   -1.584E-02   -3.028E-02
    -4.471E-02   -5.915E-02   -7.359E-02   -8.802E-02   -1.025E-01   -1.169E-01   -1.313E-01   -1.458E-01   -1.602E-01   -1.746E-01
    -1.891E-01   -2.035E-01   -2.180E-01   -2.324E-01   -2.468E-01   -2.613E-01   -2.757E-01   -2.901E-01   -3.046E-01   -3.190E-01
    -3.334E-01   -3.479E-01   -3.623E-01   -3.768E-01   -3.912E-01   -4.056E-01   -4.201E-01   -4.345E-01   -4.489E-01   -4.634E-01
    -4.778E-01   -4.922E-01   -5.067E-01   -5.211E-01   -5.356E-01   -5.500E-01   -5.644E-01   -5.789E-01   -5.933E-01   -6.077E-01
    -6.222E-01   -6.366E-01   -6.511E-01   -6.655E-01   -6.799E-01   -6.944E-01   -7.088E-01   -7.232E-01   -7.377E-01   -7.521E-01
    -7.666E-01   -7.810E-01   -7.954E-01   -8.099E-01   -8.243E-01   -8.387E-01   -8.532E-01   -8.676E-01   -8.821E-01   -8.965E-01
    -9.109E-01   -9.254E-01   -9.398E-01   -9.543E-01   -9.687E-01   -9.831E-01   -9.976E-01   -1.012E+00   -1.026E+00   -1.041E+00
    -1.055E+00   -1.070E+00   -1.084E+00   -1.099E+00   -1.113E+00   -1.128E+00   -1.142E+00   -1.156E+00   -1.171E+00   -1.185E+00
    -1.200E+00   -1.214E+00   -1.229E+00   -1.243E+00   -1.257E+00   -1.272E+00   -1.286E+00   -1.301E+00   -1.315E+00   -1.330E+00
    -1.344E+00   -1.359E+00   -1.373E+00   -1.387E+00   -1.402E+00   -1.416E+00   -1.431E+00   -1.445E+00   -1.460E+00   -1.474E+00
    -1.488E+00   -1.503E+00   -1.517E+00   -1.532E+00   -1.546E+00   -1.561E+00   -1.575E+00   -1.590E+00   -1.604E+00   -1.618E+00
    -1.633E+00   -1.647E+00   -1.662E+00   -1.676E+00   -1.691E+00   -1.705E+00   -1.720E+00   -1.734E+00   -1.748E+00   -1.763E+00
    -1.777E+00   -1.792E+00   -1.806E+00   -1.821E+00   -1.835E+00   -1.850E+00   -1.864E+00   -1.878E+00   -1.893E+00   -1.907E+00
    -1.922E+00   -1.936E+00   -1.951E+00   -1.965E+00   -1.979E+00   -1.994E+00   -2.008E+00   -2.023E+00   -2.037E+00   -2.052E+00
    -2.066E+00   -2.081E+00   -2.095E+00   -2.109E+00   -2.124E+00   -2.138E+00   -2.153E+00   -2.167E+00   -2.182E+00   -2.196E+00
    -2.211E+00   -2.225E+00   -2.239E+00   -2.254E+00   -2.268E+00   -2.283E+00   -2.297E+00   -2.312E+00   -2.326E+00   -2.341E+00
    -2.355E+00   -2.369E+00   -2.384E+00   -2.398E+00   -2.413E+00   -2.427E+00   -2.442E+00   -2.456E+00   -2.471E+00   -2.485E+00
    -2.499E+00   -2.514E+00   -2.528E+00   -2.543E+00   -2.557E+00   -2.572E+00   -2.586E+00   -2.601E+00   -2.615E+00   -2.629E+00
    -2.644E+00   -2.658E+00   -2.673E+00   -2.687E+00   -2.702E+00   -2.716E+00   -2.731E+00   -2.745E+00   -2.759E+00   -2.774E+00
    -2.788E+00   -2.803E+00   -2.817E+00   -2.832E+00   -2.846E+00   -2.861E+00   -2.875E+00   -2.889E+00   -2.904E+00   -2.918E+00
    -2.933E+00   -2.947E+00   -2.962E+00   -2.976E+00   -2.991E+00   -3.005E+00   -3.019E+00   -3.034E+00   -3.048E+00   -3.063E+00
    -3.077E+00   -3.092E+00   -3.106E+00   -3.121E+00   -3.135E+00   -3.149E+00   -3.164E+00   -3.178E+00   -3.193E+00   -3.207E+00
    -3.222E+00   -3.236E+00   -3.251E+00   -3.265E+00   -3.279E+00   -3.294E+00   -3.308E+00   -3.323E+00   -3.337E+00   -3.352E+00
    -3.366E+00   -3.381E+00   -3.395E+00   -3.409E+00   -3.424E+00   -3.438E+00   -3.453E+00   -3.467E+00   -3.482E+00   -3.496E+00
    -3.511E+00   -3.525E+00   -3.540E+00   -3.554E+00   -3.568E+00   -3.583E+00   -3.597E+00   -3.612E+00   -3.626E+00   -3.641E+00
    -3.655E+00   -3.670E+00   -3.684E+00   -3.698E+00   -3.713E+00   -3.727E+00   -3.742E+00   -3.756E+00   -3.771E+00   -3.785E+00
    -3.800E+00   -3.814E+00   -3.828E+00   -3.843E+00   -3.857E+00   -3.872E+00   -3.886E+00   -3.901E+00   -3.915E+00   -3.930E+00
    -3.944E+00   -3.958E+00   -3.973E+00   -3.987E+00   -4.002E+00   -4.016E+00   -4.031E+00   -4.045E+00   -4.060E+00   -4.074E+00
    -4.088E+00   -4.103E+00   -4.117E+00   -4.132E+00   -4.146E+00   -4.161E+00   -4.175E+00   -4.190E+00   -4.204E+00   -4.219E+00
    -4.233E+00   -4.247E+00   -4.262E+00   -4.276E+00   -4.291E+00   -4.305E+00   -4.320E+00   -4.334E+00   -4.349E+00   -4.363E+00
    -4.377E+00   -4.392E+00   -4.406E+00   -4.421E+00   -4.435E+00   -4.450E+00   -4.464E+00   -4.479E+00   -4.493E+00   -4.507E+00
    -4.522E+00   -4.536E+00   -4.551E+00   -4.565E+00   -4.580E+00   -4.594E+00   -4.609E+00   -4.623E+00   -4.637E+00   -4.652E+00
    -4.666E+00   -4.681E+00   -4.695E+00   -4.710E+00   -4.724E+00   -4.739E+00   -4.753E+00   -4.767E+00   -4.782E+00   -4.796E+00
    -4.811E+00   -4.825E+00   -4.840E+00   -4.854E+00   -4.869E+00   -4.883E+00   -4.898E+00   -4.912E+00   -4.926E+00   -4.941E+00
    -4.955E+00   -4.970E+00   -4.984E+00   -4.999E+00   -5.013E+00   -5.028E+00   -5.042E+00   -5.056E+00   -5.071E+00   -5.085E+00
    -5.100E+00   -5.114E+00   -5.129E+00   -5.143E+00   -5.158E+00   -5.172E+00   -5.186E+00   -5.201E+00   -5.215E+00   -5.230E+00
    -5.244E+00   -5.259E+00   -5.273E+00   -5.288E+00   -5.302E+00   -5.316E+00   -5.331E+00   -5.345E+00   -5.360E+00   -5.374E+00
    -5.389E+00   -5.403E+00   -5.418E+00   -5.432E+00   -5.446E+00   -5.461E+00   -5.475E+00   -5.490E+00   -5.504E+00   -5.519E+00
    -5.533E+00   -5.548E+00   -5.562E+00   -5.576E+00   -5.591E+00   -5.605E+00   -5.620E+00   -5.634E+00   -5.649E+00   -5.663E+00
    -5.678E+00   -5.692E+00   -5.706E+00   -5.721E+00   -5.735E+00   -5.750E+00   -5.764E+00   -5.779E+00   -5.793E+00   -5.808E+00
    -5.822E+00   -5.837E+00   -5.851E+00   -5.865E+00   -5.880E+00   -5.894E+00   -5.909E+00   -5.923E+00   -5.938E+00   -5.952E+00
    -5.967E+00   -5.981E+00   -5.995E+00   -6.010E+00   -6.024E+00   -6.039E+00   -6.053E+00   -6.068E+00
 Ala      Conc. = 3.47E+03
