 LCModel (Version 6.3-1L) Copyright: S.W. Provencher.          Ref.: Magn. Reson. Med. 30:672-679 (1993).                
 Slice#3 Row#11 Col#6  PD_05_press_2_raw_act
 36 lines in following concentration table = NCONC+1
    Conc.  %SD /Cr+PCr  Metabolite                                         
   55.174 131%   0.288 Ala                                                 
   43.475  94%   0.227 Asp                                                 
    0.000 999%   0.000 Cr                                                  
  191.335  20%   1.000 PCr                                                 
   15.657 157% 8.2E-02 GABA                                                
   19.119 129%   0.100 Glc                                                 
   19.609 731%   0.102 Gln                                                 
  315.210  51%   1.647 Glu                                                 
    0.000 999%   0.000 GPC                                                 
   61.539  24%   0.322 PCh                                                 
   95.063  54%   0.497 GSH                                                 
  716.556  25%   3.745 Ins                                                 
  184.606  44%   0.965 Lac                                                 
  240.765  20%   1.258 NAA                                                 
    1.413 999% 7.4E-03 NAAG                                                
   12.373  63% 6.5E-02 Scyllo                                              
   38.396 106%   0.201 Tau                                                 
  128.393  38%   0.671 -CrCH2                                              
   61.539  24%   0.322 GPC+PCh                                             
  242.178  20%   1.266 NAA+NAAG                                            
  191.335  20%   1.000 Cr+PCr                                              
  334.819  63%   1.750 Glu+Gln                                             
    0.000 999%   0.000 Lip13a                                              
 1.10E+03  11%   5.727 Lip13b                                              
  208.389  54%   1.089 Lip09                                               
    0.000 999%   0.000 MM09                                                
   73.881 131%   0.386 Lip20                                               
    0.000 999%   0.000 MM20                                                
    0.382 999% 2.0E-03 MM12                                                
    0.000 999%   0.000 MM14                                                
    2.643 999% 1.4E-02 MM17                                                
 1.10E+03  11%   5.727 Lip13a+Lip13b                                       
 1.10E+03  12%   5.729 MM14+Lip13a+Lip13b+MM12                             
  208.389  54%   1.089 MM09+Lip09                                          
   73.881 131%   0.386 MM20+Lip20                                          
   6 lines in following misc. output table
  FWHM = 0.054 ppm    S/N =   2                                            
  Data shift =-0.015 ppm                                                   
  Ph:   9 deg      -8.5 deg/ppm                                            
  alphaB,S = 1.7E+00,   2.3E+01                                            
   14 spline knots.   Ns = 5(1)                                            
  ( 7) 2 infls.   ( 8) 1 extrs.                                            
  498 points on ppm-axis = NY
      4.000000     3.992357     3.984714     3.977070     3.969427     3.961784     3.954141     3.946497     3.938854     3.931211
      3.923568     3.915925     3.908281     3.900638     3.892995     3.885352     3.877708     3.870065     3.862422     3.854779
      3.847136     3.839492     3.831849     3.824206     3.816563     3.808919     3.801276     3.793633     3.785990     3.778347
      3.770703     3.763060     3.755417     3.747774     3.740130     3.732487     3.724844     3.717201     3.709558     3.701914
      3.694271     3.686628     3.678985     3.671341     3.663698     3.656055     3.648412     3.640769     3.633125     3.625482
      3.617839     3.610196     3.602552     3.594909     3.587266     3.579623     3.571980     3.564336     3.556693     3.549050
      3.541407     3.533763     3.526120     3.518477     3.510834     3.503191     3.495547     3.487904     3.480261     3.472618
      3.464974     3.457331     3.449688     3.442045     3.434402     3.426758     3.419115     3.411472     3.403829     3.396185
      3.388542     3.380899     3.373256     3.365613     3.357969     3.350326     3.342683     3.335040     3.327396     3.319753
      3.312110     3.304467     3.296824     3.289180     3.281537     3.273894     3.266251     3.258607     3.250964     3.243321
      3.235678     3.228034     3.220391     3.212748     3.205105     3.197462     3.189818     3.182175     3.174532     3.166889
      3.159245     3.151602     3.143959     3.136316     3.128673     3.121029     3.113386     3.105743     3.098100     3.090456
      3.082813     3.075170     3.067527     3.059884     3.052240     3.044597     3.036954     3.029311     3.021667     3.014024
      3.006381     2.998738     2.991095     2.983451     2.975808     2.968165     2.960522     2.952878     2.945235     2.937592
      2.929949     2.922306     2.914662     2.907019     2.899376     2.891733     2.884089     2.876446     2.868803     2.861160
      2.853517     2.845873     2.838230     2.830587     2.822944     2.815300     2.807657     2.800014     2.792371     2.784728
      2.777084     2.769441     2.761798     2.754155     2.746511     2.738868     2.731225     2.723582     2.715939     2.708295
      2.700652     2.693009     2.685366     2.677722     2.670079     2.662436     2.654793     2.647150     2.639506     2.631863
      2.624220     2.616577     2.608933     2.601290     2.593647     2.586004     2.578361     2.570717     2.563074     2.555431
      2.547788     2.540144     2.532501     2.524858     2.517215     2.509572     2.501928     2.494285     2.486642     2.478999
      2.471355     2.463712     2.456069     2.448426     2.440783     2.433139     2.425496     2.417853     2.410210     2.402566
      2.394923     2.387280     2.379637     2.371994     2.364350     2.356707     2.349064     2.341421     2.333777     2.326134
      2.318491     2.310848     2.303205     2.295561     2.287918     2.280275     2.272632     2.264988     2.257345     2.249702
      2.242059     2.234416     2.226772     2.219129     2.211486     2.203843     2.196199     2.188556     2.180913     2.173270
      2.165627     2.157983     2.150340     2.142697     2.135054     2.127410     2.119767     2.112124     2.104481     2.096838
      2.089194     2.081551     2.073908     2.066265     2.058621     2.050978     2.043335     2.035692     2.028049     2.020405
      2.012762     2.005119     1.997476     1.989833     1.982190     1.974546     1.966903     1.959260     1.951617     1.943974
      1.936331     1.928688     1.921045     1.913402     1.905759     1.898115     1.890472     1.882829     1.875186     1.867543
      1.859900     1.852257     1.844614     1.836971     1.829327     1.821684     1.814041     1.806398     1.798755     1.791112
      1.783469     1.775826     1.768183     1.760540     1.752896     1.745253     1.737610     1.729967     1.722324     1.714681
      1.707038     1.699395     1.691752     1.684108     1.676465     1.668822     1.661179     1.653536     1.645893     1.638250
      1.630607     1.622964     1.615321     1.607677     1.600034     1.592391     1.584748     1.577105     1.569462     1.561819
      1.554176     1.546533     1.538890     1.531246     1.523603     1.515960     1.508317     1.500674     1.493031     1.485388
      1.477745     1.470102     1.462458     1.454815     1.447172     1.439529     1.431886     1.424243     1.416600     1.408957
      1.401314     1.393671     1.386027     1.378384     1.370741     1.363098     1.355455     1.347812     1.340169     1.332526
      1.324883     1.317240     1.309596     1.301953     1.294310     1.286667     1.279024     1.271381     1.263738     1.256095
      1.248452     1.240808     1.233165     1.225522     1.217879     1.210236     1.202593     1.194950     1.187307     1.179664
      1.172021     1.164377     1.156734     1.149091     1.141448     1.133805     1.126162     1.118519     1.110876     1.103233
      1.095590     1.087946     1.080303     1.072660     1.065017     1.057374     1.049731     1.042088     1.034445     1.026802
      1.019158     1.011515     1.003872     0.996229     0.988586     0.980943     0.973300     0.965657     0.958014     0.950371
      0.942727     0.935084     0.927441     0.919798     0.912155     0.904512     0.896869     0.889226     0.881583     0.873940
      0.866296     0.858653     0.851010     0.843367     0.835724     0.828081     0.820438     0.812795     0.805152     0.797508
      0.789865     0.782222     0.774579     0.766936     0.759293     0.751650     0.744007     0.736364     0.728721     0.721077
      0.713434     0.705791     0.698148     0.690505     0.682862     0.675219     0.667576     0.659933     0.652290     0.644646
      0.637003     0.629360     0.621717     0.614074     0.606431     0.598788     0.591145     0.583502     0.575858     0.568215
      0.560572     0.552929     0.545286     0.537643     0.530000     0.522357     0.514714     0.507071     0.499427     0.491784
      0.484141     0.476498     0.468855     0.461212     0.453569     0.445925     0.438282     0.430639     0.422996     0.415353
      0.407710     0.400067     0.392424     0.384780     0.377137     0.369494     0.361851     0.354208     0.346565     0.338922
      0.331278     0.323635     0.315992     0.308349     0.300706     0.293063     0.285420     0.277777     0.270133     0.262490
      0.254847     0.247204     0.239561     0.231918     0.224275     0.216631     0.208988     0.201345
 NY phased data points follow
  -3.91062E+01 -3.98924E+01 -4.19255E+01 -3.41879E+01 -3.77615E+01 -3.37007E+01 -3.18990E+01 -2.90573E+01 -2.99285E+01 -2.65541E+01
  -3.10231E+01 -3.19853E+01 -2.49418E+01 -3.07450E+01 -3.11268E+01 -2.32571E+01 -3.55039E+01 -3.22191E+01 -2.60704E+01 -2.80759E+01
  -2.48584E+01 -2.28018E+01 -2.77152E+01 -2.82493E+01 -2.55453E+01 -2.31112E+01 -2.16587E+01 -2.02852E+01 -2.01752E+01 -2.02902E+01
  -1.59307E+01 -1.92502E+01 -1.45351E+01 -1.80243E+01 -1.98687E+01 -1.64542E+01 -1.54585E+01 -1.31234E+01 -1.10121E+01 -1.37174E+01
  -1.51643E+01 -8.39675E+00 -1.19903E+01 -1.12826E+01 -1.62768E+01 -1.28784E+01 -1.23117E+01 -7.85591E+00 -7.60166E+00 -1.05526E+01
  -1.03336E+01 -1.31287E+01 -1.43010E+01 -1.34181E+01 -1.13217E+01 -8.21030E+00 -9.35664E+00 -1.20169E+01 -5.49874E+00 -8.56449E+00
  -8.55981E+00 -5.80888E+00 -1.25099E+01 -7.81090E+00 -7.19568E+00 -5.03859E+00 -1.07641E+01 -7.93126E+00 -8.87248E+00 -2.12768E+00
  -8.62985E+00 -3.33138E+00 -8.40995E+00 -3.88908E+00 -8.31737E+00 -6.51129E+00 -6.79105E+00 -4.95672E+00 -5.00885E+00 -5.08658E+00
   7.25321E-01 -3.13961E+00 -4.41463E+00 -2.52401E+00 -3.86171E+00 -1.70715E+00 -3.90562E+00 -2.02376E+00 -4.13676E+00  2.61378E+00
  -2.44110E+00 -4.45502E+00 -7.63095E-01  3.40245E-01  2.72703E+00  1.10430E+00 -4.34336E+00 -5.76017E+00 -4.00406E+00  9.35268E-01
   4.55694E+00  3.76373E+00  2.46783E+00  8.39830E+00  4.80568E+00 -9.63109E-02  1.00998E+01  6.08436E-01 -1.88437E+00  3.56043E+00
   2.90308E+00  8.73535E-02  3.38695E+00  4.38701E+00  1.83629E+00  1.65215E+00  1.19096E+00  3.48514E+00  4.00897E+00  2.33309E+00
   4.72983E+00  6.27636E+00  3.37107E+00  4.27192E+00  6.99961E+00  7.15373E+00  1.29601E+01  1.24031E+01  1.40181E+01  1.50266E+01
   9.92615E+00  8.19696E+00  2.72510E+00  4.21726E+00  9.47747E+00  7.15282E+00  6.88573E+00  5.28995E+00  3.52956E+00  7.35106E+00
   7.23156E+00  5.73417E+00  2.34829E-01  8.35034E+00  3.89631E+00  9.14076E+00  8.85445E+00  5.89608E+00  7.59614E+00  1.55492E+00
   4.00466E+00  8.45704E+00 -9.51791E-01  8.65365E+00  3.31318E+00  1.25634E+01  9.71132E-01  3.63221E+00  5.76177E+00  5.26394E+00
   7.11138E+00  1.00360E+01  1.05598E+01  6.75441E+00  5.84180E+00  1.35555E+01  8.03049E+00  1.17021E+01  1.16895E+01  6.48415E+00
   9.04928E+00  1.10316E+01  1.07386E+01  1.46845E+01  9.34614E+00  4.91697E+00  1.63469E+01  7.91656E+00  7.68617E+00  1.07795E+01
   6.79130E+00  1.12203E+01  7.05463E+00  7.68697E+00  8.07316E+00  1.30630E+01  1.32858E+01  1.13741E+01  6.13877E+00  1.03388E+01
   8.47682E+00  1.08301E+01  1.03508E+01  9.77111E+00  1.46006E+01  6.43369E+00  1.19772E+01  1.11075E+01  1.35380E+01  1.18110E+01
   1.25192E+01  1.43550E+01  1.37896E+01  1.45137E+01  1.09155E+01  1.01088E+01  1.52538E+01  1.13122E+01  5.60503E+00  1.45166E+01
   9.92812E+00  1.33595E+01  8.18007E+00  1.26790E+01  9.70895E+00  1.42636E+01  1.03470E+01  1.24266E+01  8.78661E+00  7.42025E+00
   5.93460E+00  7.89455E+00  9.68503E+00  1.21193E+01  1.23919E+01  9.51435E+00  5.14163E+00  9.00105E+00  1.25981E+01  1.46337E+01
   1.36199E+01  1.32546E+01  1.44292E+01  1.34135E+01  1.22458E+01  1.16152E+01  8.87379E+00  1.01966E+01  1.57066E+01  7.49802E+00
   1.41614E+01  7.76623E+00  1.03065E+01  7.82997E+00  1.23592E+01  1.21791E+01  7.43886E+00  1.31140E+01  1.24990E+01  1.33798E+01
   1.51943E+01  1.34206E+01  1.32360E+01  9.77105E+00  1.38678E+01  1.49902E+01  1.60484E+01  1.88738E+01  2.66217E+01  2.25966E+01
   2.14190E+01  1.89015E+01  2.01257E+01  1.74328E+01  1.57653E+01  1.12827E+01  9.06328E+00  5.43465E+00  1.09198E+01  1.15983E+01
   1.38194E+01  1.45975E+01  1.64737E+01  1.85905E+01  1.59318E+01  1.60585E+01  1.43541E+01  1.84073E+01  1.78365E+01  1.14843E+01
   1.39748E+01  1.46649E+01  1.18880E+01  2.10944E+01  1.34739E+01  1.35682E+01  1.92163E+01  1.48042E+01  1.29823E+01  1.69914E+01
   1.37994E+01  1.59929E+01  1.58528E+01  1.00914E+01  1.35225E+01  1.17524E+01  1.56625E+01  1.97192E+01  1.64986E+01  1.14909E+01
   1.64345E+01  1.56349E+01  1.48054E+01  1.15207E+01  1.48124E+01  1.38606E+01  1.06913E+01  1.70487E+01  1.43201E+01  1.65657E+01
   1.69216E+01  1.35895E+01  1.47799E+01  9.91065E+00  1.57337E+01  1.23640E+01  1.09992E+01  1.26893E+01  1.01132E+01  1.26455E+01
   1.15417E+01  1.15217E+01  1.62359E+01  1.28263E+01  1.23622E+01  1.47701E+01  1.65635E+01  1.06470E+01  1.39542E+01  1.04970E+01
   1.58386E+01  1.39152E+01  8.34427E+00  1.46196E+01  1.72211E+01  1.12821E+01  1.18858E+01  1.12261E+01  2.23419E+01  1.64500E+01
   1.82796E+01  1.87148E+01  1.84702E+01  2.41945E+01  2.46265E+01  2.01755E+01  1.52868E+01  2.16203E+01  1.80042E+01  2.21527E+01
   1.91093E+01  2.00206E+01  2.69872E+01  2.52955E+01  2.54255E+01  2.25283E+01  2.50234E+01  2.64413E+01  2.24216E+01  1.92516E+01
   2.29669E+01  2.33871E+01  1.91979E+01  2.02820E+01  1.67492E+01  2.27700E+01  1.81048E+01  1.79589E+01  1.40649E+01  1.23482E+01
   1.51268E+01  1.57906E+01  1.20687E+01  1.52050E+01  1.65305E+01  9.10054E+00  1.66916E+01  1.58091E+01  1.37406E+01  1.24729E+01
   1.75905E+01  1.78402E+01  1.59061E+01  1.47123E+01  2.26318E+01  1.93200E+01  1.84180E+01  1.60176E+01  1.69888E+01  1.87839E+01
   1.76288E+01  1.96215E+01  1.64249E+01  1.54225E+01  1.32978E+01  1.61983E+01  1.56310E+01  9.47331E+00  1.41427E+01  9.51338E+00
   1.51307E+01  1.27831E+01  1.56488E+01  1.53501E+01  1.36987E+01  1.25190E+01  1.70437E+01  1.32490E+01  1.30815E+01  1.72060E+01
   1.37819E+01  1.67617E+01  1.56126E+01  1.66066E+01  1.26925E+01  1.57748E+01  1.40548E+01  1.68362E+01  1.38230E+01  1.00377E+01
   1.18286E+01  1.56736E+01  1.69304E+01  1.31781E+01  1.92570E+01  1.46110E+01  1.12461E+01  1.60064E+01  1.14536E+01  1.45947E+01
   1.57825E+01  1.53666E+01  1.42150E+01  1.79466E+01  1.32522E+01  1.53422E+01  9.44243E+00  1.47578E+01  1.30871E+01  1.38596E+01
   9.85759E+00  1.69596E+01  1.44962E+01  1.16281E+01  1.37489E+01  1.40730E+01  1.74597E+01  1.27086E+01  1.06747E+01  1.12214E+01
   1.23038E+01  1.40877E+01  1.49974E+01  1.23743E+01  1.32975E+01  1.04299E+01  9.20077E+00  9.51099E+00  1.31558E+01  1.34124E+01
   1.04597E+01  1.35201E+01  1.62345E+01  1.44164E+01  1.46247E+01  1.19972E+01  1.56211E+01  1.10322E+01  1.57827E+01  1.09250E+01
   1.46229E+01  1.28922E+01  1.45492E+01  1.83133E+01  1.18427E+01  7.34603E+00  1.24749E+01  1.49915E+01  1.34796E+01  1.57808E+01
   1.57349E+01  1.32970E+01  1.18170E+01  1.58385E+01  1.25597E+01  1.19938E+01  8.74852E+00  9.13114E+00  1.45022E+01  1.57111E+01
   1.09274E+01  9.66728E+00  1.21310E+01  1.44106E+01  1.31824E+01  1.41576E+01  1.41693E+01  1.53462E+01
 NY points of the fit to the data follow
  -3.26145E+01 -3.24534E+01 -3.21390E+01 -3.19547E+01 -3.18879E+01 -3.13227E+01 -3.03638E+01 -2.93181E+01 -2.84750E+01 -2.79195E+01
  -2.75332E+01 -2.71051E+01 -2.67543E+01 -2.68313E+01 -2.71720E+01 -2.72348E+01 -2.69027E+01 -2.64644E+01 -2.59852E+01 -2.55054E+01
  -2.50192E+01 -2.45030E+01 -2.40158E+01 -2.36632E+01 -2.33472E+01 -2.27238E+01 -2.18045E+01 -2.07984E+01 -1.98769E+01 -1.90943E+01
  -1.84310E+01 -1.78789E+01 -1.75587E+01 -1.76139E+01 -1.79368E+01 -1.82006E+01 -1.83459E+01 -1.84798E+01 -1.85231E+01 -1.83820E+01
  -1.81227E+01 -1.76782E+01 -1.65730E+01 -1.46109E+01 -1.24171E+01 -1.08048E+01 -1.00935E+01 -1.01325E+01 -1.05868E+01 -1.13059E+01
  -1.23769E+01 -1.36404E+01 -1.44893E+01 -1.44707E+01 -1.36965E+01 -1.25765E+01 -1.13952E+01 -1.02853E+01 -9.44130E+00 -8.97285E+00
  -8.83456E+00 -8.89759E+00 -9.07326E+00 -9.30990E+00 -9.43598E+00 -9.32072E+00 -8.93452E+00 -8.26409E+00 -7.46244E+00 -6.73071E+00
  -6.17388E+00 -5.79521E+00 -5.54733E+00 -5.36869E+00 -5.25577E+00 -5.23990E+00 -5.26223E+00 -5.19376E+00 -5.02472E+00 -4.83348E+00
  -4.61360E+00 -4.31632E+00 -4.06829E+00 -4.03491E+00 -4.23460E+00 -4.52731E+00 -4.74343E+00 -4.77528E+00 -4.63131E+00 -4.34694E+00
  -3.89396E+00 -3.20718E+00 -2.43606E+00 -1.86085E+00 -1.57203E+00 -1.50124E+00 -1.52258E+00 -1.47057E+00 -8.49357E-01  7.40909E-01
   2.63942E+00  4.21713E+00  5.13194E+00  5.42011E+00  5.31111E+00  4.89497E+00  3.94291E+00  2.50736E+00  1.33655E+00  9.87559E-01
   1.15176E+00  1.33717E+00  1.50681E+00  1.67326E+00  1.83384E+00  1.97303E+00  2.09800E+00  2.22520E+00  2.36682E+00  2.53798E+00
   2.76568E+00  3.14209E+00  4.17351E+00  6.20151E+00  8.41418E+00  1.00774E+01  1.08866E+01  1.09949E+01  1.07359E+01  1.02048E+01
   9.06285E+00  7.33013E+00  5.83554E+00  5.17512E+00  5.04442E+00  4.99814E+00  5.02554E+00  5.15760E+00  5.40280E+00  5.74283E+00
   6.09465E+00  6.39286E+00  6.60816E+00  6.72192E+00  6.75716E+00  6.76210E+00  6.78112E+00  6.83136E+00  6.89701E+00  6.95613E+00
   7.01574E+00  7.09160E+00  7.18647E+00  7.29309E+00  7.40586E+00  7.50582E+00  7.56034E+00  7.58340E+00  7.61229E+00  7.67240E+00
   7.78102E+00  7.90838E+00  8.03250E+00  8.15601E+00  8.28821E+00  8.41421E+00  8.50358E+00  8.54808E+00  8.56943E+00  8.59819E+00
   8.64239E+00  8.66551E+00  8.65550E+00  8.66999E+00  8.73073E+00  8.81840E+00  8.88291E+00  8.91721E+00  8.96074E+00  9.05418E+00
   9.16824E+00  9.23015E+00  9.21514E+00  9.20938E+00  9.30828E+00  9.52136E+00  9.80532E+00  1.01064E+01  1.03848E+01  1.06191E+01
   1.07947E+01  1.08801E+01  1.08425E+01  1.06680E+01  1.04621E+01  1.03297E+01  1.03241E+01  1.04350E+01  1.06194E+01  1.08593E+01
   1.11484E+01  1.14632E+01  1.16850E+01  1.17506E+01  1.16875E+01  1.15187E+01  1.12740E+01  1.09963E+01  1.07503E+01  1.06656E+01
   1.08592E+01  1.14172E+01  1.21095E+01  1.26879E+01  1.29979E+01  1.29803E+01  1.26458E+01  1.19630E+01  1.09767E+01  9.99242E+00
   9.43605E+00  9.47487E+00  9.94631E+00  1.05643E+01  1.12503E+01  1.19830E+01  1.25690E+01  1.27691E+01  1.26225E+01  1.24009E+01
   1.22889E+01  1.22896E+01  1.23955E+01  1.26144E+01  1.28685E+01  1.30266E+01  1.29869E+01  1.27547E+01  1.24092E+01  1.20802E+01
   1.18558E+01  1.17955E+01  1.19284E+01  1.22450E+01  1.26160E+01  1.28938E+01  1.30355E+01  1.30464E+01  1.29537E+01  1.28267E+01
   1.27659E+01  1.27919E+01  1.28823E+01  1.30232E+01  1.33789E+01  1.46777E+01  1.71221E+01  1.96453E+01  2.14090E+01  2.21223E+01
   2.19979E+01  2.14116E+01  2.03870E+01  1.85477E+01  1.61533E+01  1.43480E+01  1.36871E+01  1.35655E+01  1.34631E+01  1.34256E+01
   1.34451E+01  1.34865E+01  1.35463E+01  1.36187E+01  1.36872E+01  1.37383E+01  1.37554E+01  1.37351E+01  1.36956E+01  1.36606E+01
   1.36385E+01  1.36292E+01  1.36333E+01  1.36492E+01  1.36729E+01  1.36983E+01  1.37202E+01  1.37386E+01  1.37553E+01  1.37688E+01
   1.37802E+01  1.37925E+01  1.38060E+01  1.38196E+01  1.38332E+01  1.38479E+01  1.38634E+01  1.38792E+01  1.38956E+01  1.39129E+01
   1.39304E+01  1.39481E+01  1.39658E+01  1.39833E+01  1.40009E+01  1.40185E+01  1.40361E+01  1.40538E+01  1.40720E+01  1.40909E+01
   1.41107E+01  1.41315E+01  1.41534E+01  1.41769E+01  1.42024E+01  1.42303E+01  1.42615E+01  1.42974E+01  1.43399E+01  1.43927E+01
   1.44629E+01  1.45694E+01  1.47507E+01  1.49443E+01  1.50115E+01  1.49218E+01  1.47188E+01  1.44712E+01  1.42168E+01  1.39395E+01
   1.36942E+01  1.36755E+01  1.39570E+01  1.44234E+01  1.48788E+01  1.52532E+01  1.55928E+01  1.59291E+01  1.62272E+01  1.64560E+01
   1.67314E+01  1.72909E+01  1.82621E+01  1.91786E+01  1.96838E+01  1.97778E+01  1.96554E+01  1.95093E+01  1.93639E+01  1.92216E+01
   1.95147E+01  2.05659E+01  2.22548E+01  2.39507E+01  2.51077E+01  2.57215E+01  2.59359E+01  2.56811E+01  2.47793E+01  2.34083E+01
   2.20451E+01  2.09247E+01  1.99427E+01  1.90593E+01  1.82857E+01  1.76254E+01  1.70743E+01  1.66226E+01  1.62576E+01  1.59655E+01
   1.57329E+01  1.55482E+01  1.54011E+01  1.52833E+01  1.51886E+01  1.51118E+01  1.50494E+01  1.49988E+01  1.49579E+01  1.49252E+01
   1.48996E+01  1.48802E+01  1.48667E+01  1.48587E+01  1.48557E+01  1.48576E+01  1.48641E+01  1.48752E+01  1.48908E+01  1.49106E+01
   1.49345E+01  1.49621E+01  1.49930E+01  1.50269E+01  1.50631E+01  1.51011E+01  1.51399E+01  1.51787E+01  1.52165E+01  1.52524E+01
   1.52853E+01  1.53141E+01  1.53377E+01  1.53553E+01  1.53660E+01  1.53692E+01  1.53645E+01  1.53514E+01  1.53300E+01  1.53003E+01
   1.52627E+01  1.52180E+01  1.51666E+01  1.51095E+01  1.50475E+01  1.49818E+01  1.49132E+01  1.48429E+01  1.47716E+01  1.47003E+01
   1.46297E+01  1.45605E+01  1.44932E+01  1.44283E+01  1.43660E+01  1.43064E+01  1.42498E+01  1.41961E+01  1.41454E+01  1.40976E+01
   1.40525E+01  1.40099E+01  1.39697E+01  1.39317E+01  1.38959E+01  1.38619E+01  1.38296E+01  1.37988E+01  1.37695E+01  1.37415E+01
   1.37147E+01  1.36890E+01  1.36641E+01  1.36402E+01  1.36170E+01  1.35947E+01  1.35730E+01  1.35520E+01  1.35314E+01  1.35115E+01
   1.34921E+01  1.34732E+01  1.34547E+01  1.34367E+01  1.34190E+01  1.34017E+01  1.33849E+01  1.33683E+01  1.33521E+01  1.33361E+01
   1.33204E+01  1.33050E+01  1.32899E+01  1.32750E+01  1.32603E+01  1.32457E+01  1.32314E+01  1.32174E+01  1.32035E+01  1.31897E+01
   1.31761E+01  1.31626E+01  1.31494E+01  1.31362E+01  1.31232E+01  1.31103E+01  1.30975E+01  1.30848E+01  1.30723E+01  1.30598E+01
   1.30475E+01  1.30352E+01  1.30230E+01  1.30108E+01  1.29988E+01  1.29868E+01  1.29749E+01  1.29630E+01  1.29512E+01  1.29395E+01
   1.29278E+01  1.29161E+01  1.29044E+01  1.28928E+01  1.28812E+01  1.28697E+01  1.28582E+01  1.28467E+01
 NY background values follow
    -3.353E+01   -3.314E+01   -3.276E+01   -3.237E+01   -3.198E+01   -3.160E+01   -3.121E+01   -3.082E+01   -3.044E+01   -3.005E+01
    -2.967E+01   -2.928E+01   -2.889E+01   -2.851E+01   -2.812E+01   -2.774E+01   -2.736E+01   -2.697E+01   -2.659E+01   -2.621E+01
    -2.583E+01   -2.545E+01   -2.507E+01   -2.469E+01   -2.431E+01   -2.393E+01   -2.356E+01   -2.318E+01   -2.281E+01   -2.244E+01
    -2.207E+01   -2.170E+01   -2.133E+01   -2.096E+01   -2.060E+01   -2.023E+01   -1.987E+01   -1.951E+01   -1.915E+01   -1.879E+01
    -1.843E+01   -1.808E+01   -1.773E+01   -1.738E+01   -1.703E+01   -1.668E+01   -1.634E+01   -1.600E+01   -1.566E+01   -1.532E+01
    -1.498E+01   -1.465E+01   -1.431E+01   -1.399E+01   -1.366E+01   -1.333E+01   -1.301E+01   -1.269E+01   -1.237E+01   -1.205E+01
    -1.174E+01   -1.143E+01   -1.112E+01   -1.081E+01   -1.050E+01   -1.020E+01   -9.899E+00   -9.601E+00   -9.305E+00   -9.011E+00
    -8.719E+00   -8.430E+00   -8.143E+00   -7.859E+00   -7.577E+00   -7.298E+00   -7.021E+00   -6.746E+00   -6.474E+00   -6.204E+00
    -5.937E+00   -5.672E+00   -5.410E+00   -5.150E+00   -4.893E+00   -4.638E+00   -4.386E+00   -4.136E+00   -3.889E+00   -3.645E+00
    -3.403E+00   -3.164E+00   -2.927E+00   -2.693E+00   -2.461E+00   -2.232E+00   -2.006E+00   -1.782E+00   -1.561E+00   -1.342E+00
    -1.126E+00   -9.116E-01   -7.000E-01   -4.909E-01   -2.842E-01   -7.994E-02    1.220E-01    3.215E-01    5.188E-01    7.137E-01
     9.063E-01    1.097E+00    1.285E+00    1.470E+00    1.654E+00    1.835E+00    2.014E+00    2.191E+00    2.366E+00    2.538E+00
     2.709E+00    2.877E+00    3.043E+00    3.207E+00    3.369E+00    3.529E+00    3.687E+00    3.843E+00    3.997E+00    4.148E+00
     4.298E+00    4.446E+00    4.592E+00    4.736E+00    4.878E+00    5.018E+00    5.156E+00    5.293E+00    5.427E+00    5.560E+00
     5.691E+00    5.820E+00    5.947E+00    6.073E+00    6.196E+00    6.318E+00    6.438E+00    6.557E+00    6.674E+00    6.789E+00
     6.902E+00    7.013E+00    7.123E+00    7.232E+00    7.338E+00    7.443E+00    7.547E+00    7.649E+00    7.749E+00    7.847E+00
     7.944E+00    8.040E+00    8.134E+00    8.226E+00    8.317E+00    8.407E+00    8.495E+00    8.581E+00    8.666E+00    8.750E+00
     8.832E+00    8.913E+00    8.992E+00    9.070E+00    9.147E+00    9.222E+00    9.296E+00    9.369E+00    9.440E+00    9.510E+00
     9.579E+00    9.646E+00    9.712E+00    9.777E+00    9.841E+00    9.903E+00    9.964E+00    1.002E+01    1.008E+01    1.014E+01
     1.020E+01    1.025E+01    1.031E+01    1.036E+01    1.042E+01    1.047E+01    1.052E+01    1.057E+01    1.062E+01    1.067E+01
     1.072E+01    1.076E+01    1.081E+01    1.085E+01    1.090E+01    1.094E+01    1.099E+01    1.103E+01    1.107E+01    1.111E+01
     1.115E+01    1.119E+01    1.123E+01    1.127E+01    1.131E+01    1.135E+01    1.139E+01    1.143E+01    1.146E+01    1.150E+01
     1.154E+01    1.158E+01    1.161E+01    1.165E+01    1.168E+01    1.172E+01    1.175E+01    1.179E+01    1.183E+01    1.186E+01
     1.190E+01    1.193E+01    1.197E+01    1.200E+01    1.203E+01    1.207E+01    1.210E+01    1.214E+01    1.217E+01    1.220E+01
     1.224E+01    1.227E+01    1.230E+01    1.234E+01    1.237E+01    1.240E+01    1.243E+01    1.246E+01    1.250E+01    1.253E+01
     1.256E+01    1.259E+01    1.262E+01    1.265E+01    1.268E+01    1.271E+01    1.274E+01    1.277E+01    1.280E+01    1.282E+01
     1.285E+01    1.288E+01    1.291E+01    1.293E+01    1.296E+01    1.299E+01    1.301E+01    1.304E+01    1.307E+01    1.309E+01
     1.312E+01    1.314E+01    1.316E+01    1.319E+01    1.321E+01    1.323E+01    1.326E+01    1.328E+01    1.330E+01    1.332E+01
     1.334E+01    1.336E+01    1.338E+01    1.340E+01    1.342E+01    1.344E+01    1.346E+01    1.348E+01    1.350E+01    1.352E+01
     1.354E+01    1.355E+01    1.357E+01    1.359E+01    1.360E+01    1.362E+01    1.364E+01    1.365E+01    1.367E+01    1.368E+01
     1.370E+01    1.371E+01    1.373E+01    1.374E+01    1.376E+01    1.377E+01    1.378E+01    1.380E+01    1.381E+01    1.382E+01
     1.384E+01    1.385E+01    1.386E+01    1.387E+01    1.388E+01    1.390E+01    1.391E+01    1.392E+01    1.393E+01    1.394E+01
     1.395E+01    1.396E+01    1.397E+01    1.398E+01    1.399E+01    1.400E+01    1.401E+01    1.402E+01    1.403E+01    1.404E+01
     1.405E+01    1.406E+01    1.407E+01    1.407E+01    1.408E+01    1.409E+01    1.410E+01    1.410E+01    1.411E+01    1.412E+01
     1.412E+01    1.413E+01    1.413E+01    1.414E+01    1.414E+01    1.415E+01    1.415E+01    1.416E+01    1.416E+01    1.416E+01
     1.417E+01    1.417E+01    1.417E+01    1.418E+01    1.418E+01    1.418E+01    1.418E+01    1.418E+01    1.418E+01    1.419E+01
     1.419E+01    1.419E+01    1.418E+01    1.418E+01    1.418E+01    1.418E+01    1.418E+01    1.418E+01    1.418E+01    1.417E+01
     1.417E+01    1.417E+01    1.416E+01    1.416E+01    1.416E+01    1.415E+01    1.415E+01    1.414E+01    1.414E+01    1.413E+01
     1.412E+01    1.412E+01    1.411E+01    1.411E+01    1.410E+01    1.409E+01    1.408E+01    1.408E+01    1.407E+01    1.406E+01
     1.405E+01    1.404E+01    1.403E+01    1.403E+01    1.402E+01    1.401E+01    1.400E+01    1.399E+01    1.398E+01    1.397E+01
     1.396E+01    1.395E+01    1.394E+01    1.392E+01    1.391E+01    1.390E+01    1.389E+01    1.388E+01    1.387E+01    1.385E+01
     1.384E+01    1.383E+01    1.382E+01    1.380E+01    1.379E+01    1.378E+01    1.377E+01    1.375E+01    1.374E+01    1.373E+01
     1.371E+01    1.370E+01    1.369E+01    1.367E+01    1.366E+01    1.364E+01    1.363E+01    1.362E+01    1.360E+01    1.359E+01
     1.357E+01    1.356E+01    1.355E+01    1.353E+01    1.352E+01    1.350E+01    1.349E+01    1.348E+01    1.346E+01    1.345E+01
     1.343E+01    1.342E+01    1.341E+01    1.339E+01    1.338E+01    1.337E+01    1.335E+01    1.334E+01    1.332E+01    1.331E+01
     1.330E+01    1.329E+01    1.327E+01    1.326E+01    1.325E+01    1.323E+01    1.322E+01    1.321E+01    1.320E+01    1.318E+01
     1.317E+01    1.316E+01    1.315E+01    1.314E+01    1.312E+01    1.311E+01    1.310E+01    1.309E+01    1.308E+01    1.307E+01
     1.306E+01    1.305E+01    1.303E+01    1.302E+01    1.301E+01    1.300E+01    1.299E+01    1.298E+01    1.297E+01    1.296E+01
     1.295E+01    1.294E+01    1.293E+01    1.292E+01    1.290E+01    1.289E+01    1.288E+01    1.287E+01    1.286E+01    1.285E+01
     1.284E+01    1.283E+01    1.282E+01    1.281E+01    1.280E+01    1.279E+01    1.278E+01    1.277E+01
 Ala      Conc. = 5.52E+01
