 LCModel (Version 6.3-1L) Copyright: S.W. Provencher.          Ref.: Magn. Reson. Med. 30:672-679 (1993).                
 Slice#3 Row#1 Col#11  PD_05_press_2_raw_act
 36 lines in following concentration table = NCONC+1
    Conc.  %SD /Cr+PCr  Metabolite                                         
    0.000 999%   0.000 Ala                                                 
   35.685  80% 9.5E-02 Asp                                                 
  374.571  28%   1.000 Cr                                                  
    0.000 999%   0.000 PCr                                                 
   22.065  78% 5.9E-02 GABA                                                
   22.766  76% 6.1E-02 Glc                                                 
    0.000 999%   0.000 Gln                                                 
 2.43E+03  48%   6.501 Glu                                                 
    0.000 999%   0.000 GPC                                                 
  106.813  38%   0.285 PCh                                                 
  133.810 135%   0.357 GSH                                                 
  952.984  45%   2.544 Ins                                                 
 2.21E+03  25%   5.911 Lac                                                 
   55.875 209%   0.149 NAA                                                 
    0.000 999%   0.000 NAAG                                                
    7.893  73% 2.1E-02 Scyllo                                              
   37.829  75%   0.101 Tau                                                 
    0.000 999%   0.000 -CrCH2                                              
  106.813  38%   0.285 GPC+PCh                                             
   55.875 209%   0.149 NAA+NAAG                                            
  374.571  28%   1.000 Cr+PCr                                              
 2.43E+03  48%   6.501 Glu+Gln                                             
    0.000 999%   0.000 Lip13a                                              
  318.577  79%   0.851 Lip13b                                              
   76.204 107%   0.203 Lip09                                               
    0.000 999%   0.000 MM09                                                
   45.710 112%   0.122 Lip20                                               
    0.000 999%   0.000 MM20                                                
    0.000 999%   0.000 MM12                                                
    0.000 999%   0.000 MM14                                                
    0.000 999%   0.000 MM17                                                
  318.577  79%   0.851 Lip13a+Lip13b                                       
  318.577  79%   0.851 MM14+Lip13a+Lip13b+MM12                             
   76.204 107%   0.203 MM09+Lip09                                          
   45.710 112%   0.122 MM20+Lip20                                          
   6 lines in following misc. output table
  FWHM = 0.138 ppm    S/N =   1                                            
  Data shift = 0.061 ppm                                                   
  Ph:  35 deg      -3.2 deg/ppm                                            
  alphaB,S = 8.5E+01,   1.0E+02                                            
   14 spline knots.   Ns = 6(2)                                            
   2 inflections.     1 extrema                                            
  498 points on ppm-axis = NY
      4.000000     3.992357     3.984714     3.977070     3.969427     3.961784     3.954141     3.946497     3.938854     3.931211
      3.923568     3.915925     3.908281     3.900638     3.892995     3.885352     3.877708     3.870065     3.862422     3.854779
      3.847136     3.839492     3.831849     3.824206     3.816563     3.808919     3.801276     3.793633     3.785990     3.778347
      3.770703     3.763060     3.755417     3.747774     3.740130     3.732487     3.724844     3.717201     3.709558     3.701914
      3.694271     3.686628     3.678985     3.671341     3.663698     3.656055     3.648412     3.640769     3.633125     3.625482
      3.617839     3.610196     3.602552     3.594909     3.587266     3.579623     3.571980     3.564336     3.556693     3.549050
      3.541407     3.533763     3.526120     3.518477     3.510834     3.503191     3.495547     3.487904     3.480261     3.472618
      3.464974     3.457331     3.449688     3.442045     3.434402     3.426758     3.419115     3.411472     3.403829     3.396185
      3.388542     3.380899     3.373256     3.365613     3.357969     3.350326     3.342683     3.335040     3.327396     3.319753
      3.312110     3.304467     3.296824     3.289180     3.281537     3.273894     3.266251     3.258607     3.250964     3.243321
      3.235678     3.228034     3.220391     3.212748     3.205105     3.197462     3.189818     3.182175     3.174532     3.166889
      3.159245     3.151602     3.143959     3.136316     3.128673     3.121029     3.113386     3.105743     3.098100     3.090456
      3.082813     3.075170     3.067527     3.059884     3.052240     3.044597     3.036954     3.029311     3.021667     3.014024
      3.006381     2.998738     2.991095     2.983451     2.975808     2.968165     2.960522     2.952878     2.945235     2.937592
      2.929949     2.922306     2.914662     2.907019     2.899376     2.891733     2.884089     2.876446     2.868803     2.861160
      2.853517     2.845873     2.838230     2.830587     2.822944     2.815300     2.807657     2.800014     2.792371     2.784728
      2.777084     2.769441     2.761798     2.754155     2.746511     2.738868     2.731225     2.723582     2.715939     2.708295
      2.700652     2.693009     2.685366     2.677722     2.670079     2.662436     2.654793     2.647150     2.639506     2.631863
      2.624220     2.616577     2.608933     2.601290     2.593647     2.586004     2.578361     2.570717     2.563074     2.555431
      2.547788     2.540144     2.532501     2.524858     2.517215     2.509572     2.501928     2.494285     2.486642     2.478999
      2.471355     2.463712     2.456069     2.448426     2.440783     2.433139     2.425496     2.417853     2.410210     2.402566
      2.394923     2.387280     2.379637     2.371994     2.364350     2.356707     2.349064     2.341421     2.333777     2.326134
      2.318491     2.310848     2.303205     2.295561     2.287918     2.280275     2.272632     2.264988     2.257345     2.249702
      2.242059     2.234416     2.226772     2.219129     2.211486     2.203843     2.196199     2.188556     2.180913     2.173270
      2.165627     2.157983     2.150340     2.142697     2.135054     2.127410     2.119767     2.112124     2.104481     2.096838
      2.089194     2.081551     2.073908     2.066265     2.058621     2.050978     2.043335     2.035692     2.028049     2.020405
      2.012762     2.005119     1.997476     1.989833     1.982190     1.974546     1.966903     1.959260     1.951617     1.943974
      1.936331     1.928688     1.921045     1.913402     1.905759     1.898115     1.890472     1.882829     1.875186     1.867543
      1.859900     1.852257     1.844614     1.836971     1.829327     1.821684     1.814041     1.806398     1.798755     1.791112
      1.783469     1.775826     1.768183     1.760540     1.752896     1.745253     1.737610     1.729967     1.722324     1.714681
      1.707038     1.699395     1.691752     1.684108     1.676465     1.668822     1.661179     1.653536     1.645893     1.638250
      1.630607     1.622964     1.615321     1.607677     1.600034     1.592391     1.584748     1.577105     1.569462     1.561819
      1.554176     1.546533     1.538890     1.531246     1.523603     1.515960     1.508317     1.500674     1.493031     1.485388
      1.477745     1.470102     1.462458     1.454815     1.447172     1.439529     1.431886     1.424243     1.416600     1.408957
      1.401314     1.393671     1.386027     1.378384     1.370741     1.363098     1.355455     1.347812     1.340169     1.332526
      1.324883     1.317240     1.309596     1.301953     1.294310     1.286667     1.279024     1.271381     1.263738     1.256095
      1.248452     1.240808     1.233165     1.225522     1.217879     1.210236     1.202593     1.194950     1.187307     1.179664
      1.172021     1.164377     1.156734     1.149091     1.141448     1.133805     1.126162     1.118519     1.110876     1.103233
      1.095590     1.087946     1.080303     1.072660     1.065017     1.057374     1.049731     1.042088     1.034445     1.026802
      1.019158     1.011515     1.003872     0.996229     0.988586     0.980943     0.973300     0.965657     0.958014     0.950371
      0.942727     0.935084     0.927441     0.919798     0.912155     0.904512     0.896869     0.889226     0.881583     0.873940
      0.866296     0.858653     0.851010     0.843367     0.835724     0.828081     0.820438     0.812795     0.805152     0.797508
      0.789865     0.782222     0.774579     0.766936     0.759293     0.751650     0.744007     0.736364     0.728721     0.721077
      0.713434     0.705791     0.698148     0.690505     0.682862     0.675219     0.667576     0.659933     0.652290     0.644646
      0.637003     0.629360     0.621717     0.614074     0.606431     0.598788     0.591145     0.583502     0.575858     0.568215
      0.560572     0.552929     0.545286     0.537643     0.530000     0.522357     0.514714     0.507071     0.499427     0.491784
      0.484141     0.476498     0.468855     0.461212     0.453569     0.445925     0.438282     0.430639     0.422996     0.415353
      0.407710     0.400067     0.392424     0.384780     0.377137     0.369494     0.361851     0.354208     0.346565     0.338922
      0.331278     0.323635     0.315992     0.308349     0.300706     0.293063     0.285420     0.277777     0.270133     0.262490
      0.254847     0.247204     0.239561     0.231918     0.224275     0.216631     0.208988     0.201345
 NY phased data points follow
   1.56192E+01  9.04049E+00  1.23862E+00  2.54245E+00  5.84269E+00  1.41101E+01  1.27024E+01  1.79453E+00  6.52398E+00  6.48451E+00
  -3.43709E+00  1.81462E+00  4.90177E+00  1.30519E+01  1.47900E+01  1.23851E+01  9.79226E+00  5.14104E+00  2.99492E+00  1.44260E+01
  -6.72178E+00  1.03347E+01  1.05132E+01  9.99831E+00  2.49064E+00  5.57661E+00  6.80477E+00  3.75304E-01  2.27123E+00  8.24554E+00
   6.98445E-02  1.03140E+01 -2.81681E-03  1.22746E+01  1.26181E+01  4.89219E+00 -1.83282E+00 -4.39197E-01 -1.69720E-01  6.98918E+00
   3.44113E+00  7.46001E+00 -1.84661E+00  1.41545E+01  3.24603E+00  1.15419E+01  6.20202E+00 -3.24183E+00 -2.00330E+00  1.02639E+01
  -3.61409E+00  5.74499E+00  1.28452E+00  1.11783E+01  1.35329E-01  2.50193E+00  8.54133E-01  4.92096E-02  3.04997E+00  3.46254E+00
  -2.25873E-01 -1.12531E+00 -5.01622E+00  2.14927E+00  1.85107E-01  9.11567E+00  1.07720E+01 -9.91508E-01  2.13163E+00  4.33157E+00
   3.21319E-01  1.45841E+00  3.94922E+00  2.52190E+00  3.46621E+00 -2.59576E+00  1.04254E+01  8.27295E+00 -9.71666E+00  8.76447E+00
  -3.09510E+00  5.89102E+00  5.30407E+00  5.93942E+00  2.13103E+00  2.81508E+00  5.51831E+00  4.36027E+00 -6.42788E+00  2.53014E-01
   9.32447E-01  2.35630E+00  2.61247E+00  1.14099E+01 -4.39011E+00 -1.58323E-01  3.52551E+00 -1.62697E+00  2.59053E+00 -3.87544E+00
   4.71183E+00 -2.66060E+00  8.17629E+00  2.12005E-01  1.27953E+01  4.55945E+00  5.97510E+00  2.40853E+00  2.65773E+00  8.51329E+00
   8.01808E+00  2.39803E+00  4.91743E+00  3.52430E+00  1.58908E+00 -4.56723E-01  8.28255E+00 -5.72633E-01  2.35092E+00  6.35088E+00
   1.14347E+00  7.59193E+00  2.42520E+00  7.08934E+00 -2.85289E+00  6.71367E+00 -1.45170E+00  2.88301E+00 -1.80105E+00  1.20716E+01
   9.03046E+00  2.34131E+00 -6.90900E+00 -2.89215E+00  8.30488E+00  1.05826E+01  8.82685E+00  1.09181E+01 -2.02369E+00 -5.27759E+00
   9.14929E+00  1.91801E+00  1.01217E+00 -1.03579E+01  1.02411E+00 -1.02702E+00 -1.22152E+01 -7.33766E+00  1.33166E+00  8.43281E+00
   5.67226E+00  9.51963E+00 -8.86152E+00  7.90170E+00  3.82767E+00  4.81874E+00  1.61138E+00  1.39947E+00 -3.60232E+00  3.61611E+00
  -6.60173E-01  6.59468E+00  1.02044E+01  9.11937E-01 -1.81169E-01  8.97649E+00  5.65167E+00  5.43090E-01 -4.23021E+00 -3.82759E+00
   1.10104E+01  9.23411E-01  7.26624E-01 -1.13198E+00  1.19530E+01  2.01134E+00 -3.41438E+00 -5.52587E+00 -2.88640E+00  3.96147E+00
   4.24151E+00 -3.83119E+00 -8.58912E-01  3.71010E+00  1.87785E+00  4.45645E-01 -2.29918E+00  5.13842E+00  9.80938E+00  7.65862E+00
   3.11547E+00  3.22324E+00 -4.12368E+00  3.72163E+00  1.91507E-02 -2.03958E+00 -1.23666E+01  4.55855E+00  5.04438E+00  5.13333E+00
   5.63998E+00 -6.67449E-01  2.51049E+00  3.43366E+00  8.58526E-01  2.46355E+00  9.16785E-01  2.52304E+00 -7.50267E-01 -1.57837E+00
   7.80788E+00  3.84305E+00  2.30216E+00  3.06996E+00 -5.21851E+00 -6.07690E+00 -7.17627E+00 -1.01803E+01 -4.52602E+00 -3.70111E+00
  -2.91754E-02 -4.10946E+00 -1.14600E+01 -1.16868E+01 -6.01455E-01 -7.70798E+00  3.15810E+00 -1.66296E+00 -6.43056E+00  8.85645E+00
  -2.54838E+00  5.74830E+00  9.82091E+00 -8.75169E-01  8.00629E-02  3.27137E+00 -1.42592E+00  2.37555E+00 -3.81933E+00  5.14549E+00
   5.62966E+00  2.65863E+00 -8.16187E+00 -7.74718E+00 -5.70008E+00 -9.66169E+00 -2.66585E+00 -7.60083E+00  4.17885E+00 -6.13241E+00
  -3.32467E+00 -3.69841E+00 -2.21736E+00  6.87639E+00  6.55916E+00  9.49578E-01 -3.17527E+00  1.25154E+01 -4.16184E-01  5.57009E+00
  -1.58796E+00  9.46118E+00  3.06301E-01  6.71736E+00  4.43365E+00 -6.78687E+00 -5.65518E-01 -1.99806E+00 -2.10533E+00  1.41073E+00
   1.35389E+00  7.96763E+00  1.56460E+00  4.36382E+00 -6.49862E+00 -1.10484E+01 -4.45809E-01  9.75016E+00 -2.26061E+00  9.98922E+00
   5.59826E+00  1.43011E+00 -6.03758E-01 -5.67624E+00  1.37021E+00 -4.79499E+00  1.97800E+00 -1.39742E+00 -2.18279E+00 -5.23265E+00
   6.76192E+00 -1.18866E+00  1.39656E+00 -3.26447E+00 -4.48928E+00 -4.38943E-01 -2.67333E+00  4.26092E+00  3.34145E+00 -3.51660E-02
  -3.85009E-02 -3.92201E+00  2.84971E+00 -2.53342E-01 -3.42904E-01  2.96700E+00 -3.26341E+00  4.08749E+00  7.36945E+00 -1.72877E+00
   4.66538E-02  5.19167E+00  5.94422E+00  1.31179E+00 -9.99549E+00  1.22442E+00 -1.83523E+01 -9.69037E+00 -5.89859E+00 -5.59114E+00
  -1.60760E+01 -4.25086E+00 -3.45198E+00 -2.89051E+00  5.70830E+00 -7.02635E+00 -2.47377E+00  6.05085E-01  3.70298E+00  9.47328E+00
   2.26764E+00  5.60581E-01 -1.16662E+00  4.71762E-01  6.46003E+00  8.13442E+00  1.31681E+01  2.51297E+00  1.13198E+01  1.55843E+01
   7.83804E+00  1.90787E+00  8.32129E+00  4.95242E+00  1.60279E-01  1.59929E+01  1.13128E+01  1.37560E+00  1.10178E+01  7.19199E+00
   7.36727E+00  6.28056E+00  8.49715E+00  3.06971E-01 -1.57481E+00  2.08627E+01 -1.34698E+00  9.48493E+00 -1.15457E+00  5.93015E+00
   4.55756E+00 -1.37381E+00  8.95763E+00  7.29922E+00  1.43172E+01  5.21477E+00  1.08819E+01  1.37621E+01  2.13795E+00  1.65452E+00
   3.83919E+00 -1.16627E+00 -3.28542E+00 -8.06032E+00 -6.16879E+00 -5.93405E+00  6.66466E+00  5.09661E+00 -1.77400E+00  8.74135E-01
   3.07913E+00 -4.67708E+00 -1.15956E+01 -6.55908E+00 -2.44186E-01 -6.66583E+00  3.68342E+00 -5.41483E-01 -5.90194E+00 -1.17655E+01
  -1.15230E+00 -2.54354E+00 -1.35203E+00  3.32913E+00 -3.73941E+00 -1.07445E+01 -4.59455E+00  1.67445E+00 -5.74572E+00 -3.33134E+00
   3.07457E+00  1.05432E+01  5.79657E+00 -5.70108E+00  4.10955E+00  3.51175E+00  3.78182E+00 -1.43549E+01 -7.96468E+00 -4.47027E+00
   3.61406E+00 -9.39449E+00 -1.55101E+00  6.13453E+00 -1.62647E+00  6.25390E+00 -2.00700E+00 -8.31304E+00  2.74874E+00  5.98136E+00
   4.91439E+00  7.58120E+00  6.15771E+00  5.34996E+00  9.07905E+00 -5.64397E+00  2.60437E+00  7.70466E+00 -6.13981E+00  3.72579E+00
  -2.13445E+00  1.47871E+01  5.89083E+00 -3.86593E+00  2.25290E+00  8.09051E+00 -2.26624E+00  1.34252E+00 -3.64988E+00  3.59758E+00
   9.37361E+00 -3.65936E+00  2.90884E+00 -5.58865E-02  5.17860E+00  4.53252E+00 -1.97721E+00  7.68388E+00 -8.14145E+00 -8.93528E+00
   5.92375E+00  4.34791E+00  1.08886E+00  3.14172E+00 -9.00986E+00 -1.74295E+00  7.19136E-01  1.01772E+01  6.85758E+00 -1.43662E+00
  -7.94074E-01  2.59086E+00  4.82437E-01 -1.90230E+00 -2.34764E-01  3.27721E+00  3.85764E+00  9.96630E+00 -2.33100E+00  1.28208E+01
   4.17121E+00  4.14273E+00  3.82323E-01  6.20347E+00 -3.39954E+00  1.66605E+00  1.28538E+01  4.92087E+00  4.97211E-01 -3.47958E+00
   4.00306E-01 -7.84905E+00  1.05313E+00 -1.40875E+00  3.09489E+00 -6.96639E+00 -8.75231E+00  1.19858E+00  5.31203E+00  2.65125E+00
   6.80308E+00 -6.88633E+00  1.01964E+01 -4.07238E+00  9.73517E-01  6.40143E-01 -4.25133E+00  7.13296E-01
 NY points of the fit to the data follow
   4.53359E+00  5.41173E+00  4.61308E+00  5.22445E+00  4.42384E+00  4.89163E+00  4.22808E+00  4.95023E+00  4.49395E+00  5.36215E+00
   4.96768E+00  5.79467E+00  5.40916E+00  6.04925E+00  5.59159E+00  6.03496E+00  5.38580E+00  5.64568E+00  4.93370E+00  5.10485E+00
   4.46229E+00  4.67222E+00  4.25922E+00  4.52324E+00  4.24834E+00  4.60862E+00  4.34378E+00  4.86696E+00  4.55322E+00  4.98513E+00
   4.67697E+00  5.00091E+00  4.75067E+00  4.94012E+00  4.77905E+00  4.94759E+00  4.95527E+00  5.05981E+00  5.20867E+00  5.16827E+00
   5.39144E+00  5.18605E+00  5.38510E+00  4.98140E+00  4.97166E+00  4.54433E+00  4.61457E+00  4.35450E+00  4.59032E+00  4.56296E+00
   4.81065E+00  4.74104E+00  4.72501E+00  4.51075E+00  4.28299E+00  3.96315E+00  3.76017E+00  3.42989E+00  3.22438E+00  2.91882E+00
   2.81766E+00  2.61716E+00  2.69910E+00  2.68284E+00  2.94164E+00  2.89265E+00  3.09125E+00  2.95559E+00  3.10095E+00  2.90923E+00
   3.01160E+00  2.78900E+00  2.86642E+00  2.66344E+00  2.72693E+00  2.54730E+00  2.59598E+00  2.36142E+00  2.36125E+00  2.02852E+00
   1.97997E+00  1.59628E+00  1.53700E+00  1.17251E+00  1.15223E+00  8.27745E-01  8.35927E-01  5.44458E-01  5.98534E-01  3.46989E-01
   4.56522E-01  4.90075E-01  9.25619E-01  1.05255E+00  1.78172E+00  1.82471E+00  2.76361E+00  2.62118E+00  3.68314E+00  3.34024E+00
   4.45910E+00  3.92171E+00  5.04809E+00  4.25951E+00  5.30611E+00  4.28502E+00  5.20321E+00  4.03616E+00  4.77581E+00  3.56248E+00
   4.09646E+00  2.95021E+00  3.27832E+00  2.25381E+00  2.48176E+00  2.11989E+00  2.16069E+00  2.54241E+00  2.42192E+00  3.51463E+00
   3.34992E+00  4.63275E+00  4.23561E+00  5.56393E+00  4.94376E+00  6.25798E+00  5.41291E+00  6.62723E+00  5.58426E+00  6.58596E+00
   5.42365E+00  6.11827E+00  4.92717E+00  5.26587E+00  4.15178E+00  4.15954E+00  3.15114E+00  2.78917E+00  2.00866E+00  1.42086E+00
   1.00311E+00  4.72004E-01  4.79244E-01  3.18776E-01  3.91850E-01  2.67494E-01  3.39624E-01  2.48595E-01  3.12028E-01  2.48952E-01
   2.90704E-01  2.18098E-01  2.07754E-01  1.38007E-01  9.21510E-02  4.88219E-02  4.43778E-03 -1.08899E-02 -4.08307E-02 -4.49108E-02
  -6.79651E-02 -6.42451E-02 -8.08998E-02 -7.29204E-02 -8.93874E-02 -7.79197E-02 -9.47888E-02 -8.54904E-02 -1.04104E-01 -1.02469E-01
  -1.20520E-01 -1.27150E-01 -1.38495E-01 -1.56219E-01 -1.66652E-01 -1.97741E-01 -2.05633E-01 -2.40813E-01 -2.30534E-01 -2.51781E-01
  -2.16423E-01 -2.23283E-01 -1.73033E-01 -1.71485E-01 -1.19226E-01 -1.22762E-01 -8.51062E-02 -6.91179E-02 -3.60648E-02  1.44324E-02
   4.96785E-02  1.43291E-01  1.92269E-01  3.41472E-01  4.23734E-01  5.47925E-01  6.41974E-01  7.04283E-01  6.65142E-01  6.76490E-01
   4.80404E-01  5.25285E-01  3.35085E-01  6.27090E-01  9.14479E-01  1.24107E+00  1.86761E+00  1.96845E+00  2.66807E+00  2.23814E+00
   2.53929E+00  1.50921E+00  1.67540E+00  4.31397E-01  6.67604E-01 -5.07882E-01 -1.31419E-01 -1.13724E+00 -7.49466E-01 -1.62988E+00
  -1.33678E+00 -2.05033E+00 -1.84032E+00 -2.31248E+00 -2.18422E+00 -2.29251E+00 -2.40027E+00 -2.05112E+00 -2.26385E+00 -1.46728E+00
  -1.50933E+00 -4.54913E-01  1.96690E-02  8.99109E-01  1.38124E+00  1.78982E+00  2.12359E+00  1.87998E+00  1.88149E+00  1.11748E+00
   1.27391E+00  5.01818E-01  8.30951E-01  1.60318E-01  6.49703E-01  6.51035E-02  5.13648E-01 -5.16968E-03  3.82818E-01  1.03673E-01
   4.24350E-01  4.64210E-01  7.33320E-01  1.06461E+00  1.13633E+00  1.64995E+00  1.40631E+00  1.98566E+00  1.52273E+00  2.11387E+00
   1.61642E+00  2.31147E+00  1.85727E+00  2.51549E+00  2.09429E+00  2.61279E+00  2.12204E+00  2.45441E+00  1.99678E+00  2.24196E+00
   1.85067E+00  1.98689E+00  1.64065E+00  1.67475E+00  1.34493E+00  1.36819E+00  1.20379E+00  1.27250E+00  1.20273E+00  1.25054E+00
   1.26538E+00  1.25275E+00  1.27519E+00  1.24443E+00  1.24903E+00  1.18380E+00  1.15859E+00  1.07334E+00  1.02766E+00  9.64468E-01
   9.44838E-01  9.10015E-01  9.01055E-01  8.85333E-01  8.77749E-01  8.70754E-01  8.56087E-01  8.47295E-01  8.35851E-01  8.30370E-01
   8.23397E-01  8.22308E-01  8.20283E-01  8.23028E-01  8.24228E-01  8.29270E-01  8.34627E-01  8.41878E-01  8.50289E-01  8.60555E-01
   8.72595E-01  8.86643E-01  9.03006E-01  9.21434E-01  9.42907E-01  9.66923E-01  9.94859E-01  1.02629E+00  1.06254E+00  1.10404E+00
   1.15147E+00  1.20572E+00  1.26790E+00  1.33934E+00  1.42177E+00  1.51746E+00  1.62946E+00  1.76175E+00  1.91979E+00  2.11130E+00
   2.34788E+00  2.64817E+00  3.04509E+00  3.60735E+00  4.52293E+00  5.98998E+00  6.59831E+00  8.02085E+00  7.90148E+00  8.75418E+00
   7.73679E+00  7.63823E+00  5.87183E+00  6.26763E+00  4.38518E+00  5.61607E+00  3.69444E+00  5.55548E+00  3.57036E+00  5.65009E+00
   3.63567E+00  5.72559E+00  3.77663E+00  5.88057E+00  4.13117E+00  6.18917E+00  4.57104E+00  6.19444E+00  4.96780E+00  6.33767E+00
   5.74025E+00  7.13647E+00  7.09976E+00  8.64846E+00  8.17513E+00  8.23539E+00  7.42687E+00  6.32758E+00  5.31835E+00  3.77404E+00
   2.88790E+00  2.33302E+00  1.94234E+00  1.65019E+00  1.42312E+00  1.24163E+00  1.09346E+00  9.70607E-01  8.67551E-01  7.80385E-01
   7.06152E-01  6.42645E-01  5.88192E-01  5.41589E-01  5.01893E-01  4.68344E-01  4.40270E-01  4.17133E-01  3.98513E-01  3.84097E-01
   3.73593E-01  3.66687E-01  3.63033E-01  3.62291E-01  3.64139E-01  3.68239E-01  3.74192E-01  3.81519E-01  3.89697E-01  3.98193E-01
   4.06491E-01  4.14062E-01  4.20362E-01  4.24842E-01  4.27012E-01  4.26472E-01  4.22928E-01  4.16165E-01  4.06047E-01  3.92529E-01
   3.75696E-01  3.55757E-01  3.33021E-01  3.07845E-01  2.80625E-01  2.51785E-01  2.21797E-01  1.91141E-01  1.60277E-01  1.29597E-01
   9.94419E-02  7.01013E-02  4.18393E-02  1.48585E-02 -1.06962E-02 -3.47683E-02 -5.73342E-02 -7.84077E-02 -9.79999E-02 -1.16164E-01
  -1.32973E-01 -1.48541E-01 -1.62972E-01 -1.76355E-01 -1.88770E-01 -2.00299E-01 -2.11044E-01 -2.21097E-01 -2.30542E-01 -2.39424E-01
  -2.47798E-01 -2.55706E-01 -2.63222E-01 -2.70388E-01 -2.77249E-01 -2.83806E-01 -2.90096E-01 -2.96132E-01 -3.01973E-01 -3.07620E-01
  -3.13101E-01 -3.18397E-01 -3.23542E-01 -3.28538E-01 -3.33429E-01 -3.38202E-01 -3.42873E-01 -3.47421E-01 -3.51876E-01 -3.56239E-01
  -3.60543E-01 -3.64766E-01 -3.68916E-01 -3.72980E-01 -3.76984E-01 -3.80932E-01 -3.84837E-01 -3.88683E-01 -3.92469E-01 -3.96196E-01
  -3.99881E-01 -4.03532E-01 -4.07144E-01 -4.10708E-01 -4.14219E-01 -4.17690E-01 -4.21128E-01 -4.24541E-01 -4.27915E-01 -4.31247E-01
  -4.34533E-01 -4.37791E-01 -4.41021E-01 -4.44226E-01 -4.47391E-01 -4.50515E-01 -4.53601E-01 -4.56659E-01 -4.59691E-01 -4.62687E-01
  -4.65638E-01 -4.68540E-01 -4.71399E-01 -4.74218E-01 -4.76990E-01 -4.79700E-01 -4.82336E-01 -4.84893E-01
 NY background values follow
     5.018E-01    4.997E-01    4.976E-01    4.954E-01    4.933E-01    4.912E-01    4.890E-01    4.869E-01    4.848E-01    4.826E-01
     4.805E-01    4.783E-01    4.762E-01    4.741E-01    4.719E-01    4.698E-01    4.677E-01    4.655E-01    4.634E-01    4.613E-01
     4.591E-01    4.570E-01    4.548E-01    4.527E-01    4.506E-01    4.484E-01    4.463E-01    4.442E-01    4.420E-01    4.399E-01
     4.378E-01    4.356E-01    4.335E-01    4.313E-01    4.292E-01    4.271E-01    4.249E-01    4.228E-01    4.207E-01    4.185E-01
     4.164E-01    4.143E-01    4.121E-01    4.100E-01    4.078E-01    4.057E-01    4.036E-01    4.014E-01    3.993E-01    3.972E-01
     3.950E-01    3.929E-01    3.908E-01    3.886E-01    3.865E-01    3.843E-01    3.822E-01    3.801E-01    3.779E-01    3.758E-01
     3.737E-01    3.715E-01    3.694E-01    3.673E-01    3.651E-01    3.630E-01    3.608E-01    3.587E-01    3.566E-01    3.544E-01
     3.523E-01    3.502E-01    3.480E-01    3.459E-01    3.438E-01    3.416E-01    3.395E-01    3.373E-01    3.352E-01    3.331E-01
     3.309E-01    3.288E-01    3.267E-01    3.245E-01    3.224E-01    3.203E-01    3.181E-01    3.160E-01    3.138E-01    3.117E-01
     3.096E-01    3.074E-01    3.053E-01    3.032E-01    3.010E-01    2.989E-01    2.968E-01    2.946E-01    2.925E-01    2.903E-01
     2.882E-01    2.861E-01    2.839E-01    2.818E-01    2.797E-01    2.775E-01    2.754E-01    2.733E-01    2.711E-01    2.690E-01
     2.668E-01    2.647E-01    2.626E-01    2.604E-01    2.583E-01    2.562E-01    2.540E-01    2.519E-01    2.498E-01    2.476E-01
     2.455E-01    2.433E-01    2.412E-01    2.391E-01    2.369E-01    2.348E-01    2.327E-01    2.305E-01    2.284E-01    2.263E-01
     2.241E-01    2.220E-01    2.199E-01    2.177E-01    2.156E-01    2.134E-01    2.113E-01    2.092E-01    2.070E-01    2.049E-01
     2.028E-01    2.006E-01    1.985E-01    1.964E-01    1.942E-01    1.921E-01    1.899E-01    1.878E-01    1.857E-01    1.835E-01
     1.814E-01    1.793E-01    1.771E-01    1.750E-01    1.729E-01    1.707E-01    1.686E-01    1.664E-01    1.643E-01    1.622E-01
     1.600E-01    1.579E-01    1.558E-01    1.536E-01    1.515E-01    1.494E-01    1.472E-01    1.451E-01    1.430E-01    1.408E-01
     1.387E-01    1.365E-01    1.344E-01    1.323E-01    1.301E-01    1.280E-01    1.259E-01    1.237E-01    1.216E-01    1.195E-01
     1.173E-01    1.152E-01    1.131E-01    1.109E-01    1.088E-01    1.066E-01    1.045E-01    1.024E-01    1.002E-01    9.810E-02
     9.597E-02    9.383E-02    9.170E-02    8.956E-02    8.742E-02    8.529E-02    8.315E-02    8.102E-02    7.888E-02    7.675E-02
     7.461E-02    7.247E-02    7.034E-02    6.820E-02    6.607E-02    6.393E-02    6.180E-02    5.966E-02    5.752E-02    5.539E-02
     5.325E-02    5.112E-02    4.898E-02    4.685E-02    4.471E-02    4.258E-02    4.044E-02    3.830E-02    3.617E-02    3.403E-02
     3.190E-02    2.976E-02    2.763E-02    2.549E-02    2.336E-02    2.122E-02    1.909E-02    1.695E-02    1.481E-02    1.268E-02
     1.054E-02    8.409E-03    6.273E-03    4.138E-03    2.003E-03   -1.326E-04   -2.268E-03   -4.403E-03   -6.538E-03   -8.674E-03
    -1.081E-02   -1.294E-02   -1.508E-02   -1.721E-02   -1.935E-02   -2.148E-02   -2.362E-02   -2.575E-02   -2.789E-02   -3.003E-02
    -3.216E-02   -3.430E-02   -3.643E-02   -3.857E-02   -4.070E-02   -4.284E-02   -4.497E-02   -4.711E-02   -4.924E-02   -5.138E-02
    -5.351E-02   -5.564E-02   -5.778E-02   -5.991E-02   -6.205E-02   -6.418E-02   -6.632E-02   -6.845E-02   -7.059E-02   -7.272E-02
    -7.486E-02   -7.699E-02   -7.913E-02   -8.126E-02   -8.340E-02   -8.553E-02   -8.767E-02   -8.980E-02   -9.194E-02   -9.407E-02
    -9.621E-02   -9.834E-02   -1.005E-01   -1.026E-01   -1.047E-01   -1.069E-01   -1.090E-01   -1.111E-01   -1.133E-01   -1.154E-01
    -1.176E-01   -1.197E-01   -1.218E-01   -1.240E-01   -1.261E-01   -1.282E-01   -1.304E-01   -1.325E-01   -1.346E-01   -1.368E-01
    -1.389E-01   -1.410E-01   -1.432E-01   -1.453E-01   -1.474E-01   -1.496E-01   -1.517E-01   -1.538E-01   -1.560E-01   -1.581E-01
    -1.602E-01   -1.624E-01   -1.645E-01   -1.666E-01   -1.688E-01   -1.709E-01   -1.730E-01   -1.752E-01   -1.773E-01   -1.794E-01
    -1.816E-01   -1.837E-01   -1.858E-01   -1.880E-01   -1.901E-01   -1.922E-01   -1.944E-01   -1.965E-01   -1.986E-01   -2.008E-01
    -2.029E-01   -2.051E-01   -2.072E-01   -2.093E-01   -2.115E-01   -2.136E-01   -2.157E-01   -2.179E-01   -2.200E-01   -2.221E-01
    -2.243E-01   -2.264E-01   -2.285E-01   -2.307E-01   -2.328E-01   -2.349E-01   -2.371E-01   -2.392E-01   -2.413E-01   -2.435E-01
    -2.456E-01   -2.477E-01   -2.499E-01   -2.520E-01   -2.541E-01   -2.563E-01   -2.584E-01   -2.605E-01   -2.627E-01   -2.648E-01
    -2.669E-01   -2.691E-01   -2.712E-01   -2.733E-01   -2.755E-01   -2.776E-01   -2.797E-01   -2.819E-01   -2.840E-01   -2.861E-01
    -2.883E-01   -2.904E-01   -2.925E-01   -2.947E-01   -2.968E-01   -2.989E-01   -3.011E-01   -3.032E-01   -3.053E-01   -3.075E-01
    -3.096E-01   -3.117E-01   -3.139E-01   -3.160E-01   -3.181E-01   -3.203E-01   -3.224E-01   -3.245E-01   -3.267E-01   -3.288E-01
    -3.309E-01   -3.331E-01   -3.352E-01   -3.373E-01   -3.395E-01   -3.416E-01   -3.437E-01   -3.459E-01   -3.480E-01   -3.501E-01
    -3.523E-01   -3.544E-01   -3.565E-01   -3.586E-01   -3.608E-01   -3.629E-01   -3.650E-01   -3.672E-01   -3.693E-01   -3.714E-01
    -3.736E-01   -3.757E-01   -3.778E-01   -3.800E-01   -3.821E-01   -3.842E-01   -3.864E-01   -3.885E-01   -3.906E-01   -3.928E-01
    -3.949E-01   -3.970E-01   -3.992E-01   -4.013E-01   -4.034E-01   -4.056E-01   -4.077E-01   -4.098E-01   -4.120E-01   -4.141E-01
    -4.162E-01   -4.184E-01   -4.205E-01   -4.226E-01   -4.248E-01   -4.269E-01   -4.290E-01   -4.312E-01   -4.333E-01   -4.354E-01
    -4.376E-01   -4.397E-01   -4.418E-01   -4.440E-01   -4.461E-01   -4.482E-01   -4.504E-01   -4.525E-01   -4.546E-01   -4.568E-01
    -4.589E-01   -4.610E-01   -4.632E-01   -4.653E-01   -4.674E-01   -4.696E-01   -4.717E-01   -4.738E-01   -4.760E-01   -4.781E-01
    -4.802E-01   -4.823E-01   -4.845E-01   -4.866E-01   -4.887E-01   -4.909E-01   -4.930E-01   -4.951E-01   -4.973E-01   -4.994E-01
    -5.015E-01   -5.037E-01   -5.058E-01   -5.079E-01   -5.101E-01   -5.122E-01   -5.143E-01   -5.165E-01   -5.186E-01   -5.207E-01
    -5.229E-01   -5.250E-01   -5.271E-01   -5.293E-01   -5.314E-01   -5.335E-01   -5.357E-01   -5.378E-01   -5.399E-01   -5.421E-01
    -5.442E-01   -5.463E-01   -5.485E-01   -5.506E-01   -5.527E-01   -5.549E-01   -5.570E-01   -5.591E-01
 Asp      Conc. = 3.57E+01
