 LCModel (Version 6.3-1L) Copyright: S.W. Provencher.          Ref.: Magn. Reson. Med. 30:672-679 (1993).                
 Slice#3 Row#7 Col#7  PD_05_press_2_raw_act
 Data of: Institute of Biomedical Engineering, Bogazici University, Istanbul
 05-January-2018  19:37
 36 lines in following concentration table = NCONC+1
    Conc.  %SD /Cr+PCr  Metabolite                                         
    0.000 999%   0.000 Ala                                                 
  420.764 116%   0.119 Asp                                                 
    0.000 999%   0.000 Cr                                                  
 3.54E+03   5%   1.000 PCr                                                 
  106.128 300% 3.0E-02 GABA                                                
   16.489 999% 4.7E-03 Glc                                                 
 2.14E+03  29%   0.605 Gln                                                 
 3.88E+03  19%   1.096 Glu                                                 
  920.231   6%   0.260 GPC                                                 
    0.000 999%   0.000 PCh                                                 
  743.409  27%   0.210 GSH                                                 
  826.269  74%   0.233 Ins                                                 
  321.243 104% 9.1E-02 Lac                                                 
 4.50E+03   4%   1.271 NAA                                                 
    0.000 999%   0.000 NAAG                                                
  168.353  39% 4.8E-02 Scyllo                                              
    8.168 999% 2.3E-03 Tau                                                 
  181.275 145% 5.1E-02 -CrCH2                                              
  920.231   6%   0.260 GPC+PCh                                             
 4.50E+03   4%   1.271 NAA+NAAG                                            
 3.54E+03   5%   1.000 Cr+PCr                                              
 6.03E+03  17%   1.701 Glu+Gln                                             
  897.296 105%   0.253 Lip13a                                              
   15.777 999% 4.5E-03 Lip13b                                              
    0.000 999%   0.000 Lip09                                               
 3.09E+03  13%   0.872 MM09                                                
  165.291  99% 4.7E-02 Lip20                                               
 6.15E+03  12%   1.735 MM20                                                
  970.245  24%   0.274 MM12                                                
 4.51E+03  14%   1.273 MM14                                                
 2.61E+03  18%   0.737 MM17                                                
  913.073  63%   0.258 Lip13a+Lip13b                                       
 6.40E+03  12%   1.805 MM14+Lip13a+Lip13b+MM12                             
 3.09E+03  13%   0.872 MM09+Lip09                                          
 6.31E+03  12%   1.781 MM20+Lip20                                          
   6 lines in following misc. output table
  FWHM = 0.054 ppm    S/N =   8                                            
  Data shift = 0.008 ppm                                                   
  Ph: -55 deg     -18.1 deg/ppm                                            
  alphaB,S = 8.5E+01,   1.2E+02                                            
   14 spline knots.   Ns = 7(1)                                            
  ( 6) 2 infls.   ( 1) 1 extrs.                                            
  498 points on ppm-axis = NY
      4.000000     3.992357     3.984714     3.977070     3.969427     3.961784     3.954141     3.946497     3.938854     3.931211
      3.923568     3.915925     3.908281     3.900638     3.892995     3.885352     3.877708     3.870065     3.862422     3.854779
      3.847136     3.839492     3.831849     3.824206     3.816563     3.808919     3.801276     3.793633     3.785990     3.778347
      3.770703     3.763060     3.755417     3.747774     3.740130     3.732487     3.724844     3.717201     3.709558     3.701914
      3.694271     3.686628     3.678985     3.671341     3.663698     3.656055     3.648412     3.640769     3.633125     3.625482
      3.617839     3.610196     3.602552     3.594909     3.587266     3.579623     3.571980     3.564336     3.556693     3.549050
      3.541407     3.533763     3.526120     3.518477     3.510834     3.503191     3.495547     3.487904     3.480261     3.472618
      3.464974     3.457331     3.449688     3.442045     3.434402     3.426758     3.419115     3.411472     3.403829     3.396185
      3.388542     3.380899     3.373256     3.365613     3.357969     3.350326     3.342683     3.335040     3.327396     3.319753
      3.312110     3.304467     3.296824     3.289180     3.281537     3.273894     3.266251     3.258607     3.250964     3.243321
      3.235678     3.228034     3.220391     3.212748     3.205105     3.197462     3.189818     3.182175     3.174532     3.166889
      3.159245     3.151602     3.143959     3.136316     3.128673     3.121029     3.113386     3.105743     3.098100     3.090456
      3.082813     3.075170     3.067527     3.059884     3.052240     3.044597     3.036954     3.029311     3.021667     3.014024
      3.006381     2.998738     2.991095     2.983451     2.975808     2.968165     2.960522     2.952878     2.945235     2.937592
      2.929949     2.922306     2.914662     2.907019     2.899376     2.891733     2.884089     2.876446     2.868803     2.861160
      2.853517     2.845873     2.838230     2.830587     2.822944     2.815300     2.807657     2.800014     2.792371     2.784728
      2.777084     2.769441     2.761798     2.754155     2.746511     2.738868     2.731225     2.723582     2.715939     2.708295
      2.700652     2.693009     2.685366     2.677722     2.670079     2.662436     2.654793     2.647150     2.639506     2.631863
      2.624220     2.616577     2.608933     2.601290     2.593647     2.586004     2.578361     2.570717     2.563074     2.555431
      2.547788     2.540144     2.532501     2.524858     2.517215     2.509572     2.501928     2.494285     2.486642     2.478999
      2.471355     2.463712     2.456069     2.448426     2.440783     2.433139     2.425496     2.417853     2.410210     2.402566
      2.394923     2.387280     2.379637     2.371994     2.364350     2.356707     2.349064     2.341421     2.333777     2.326134
      2.318491     2.310848     2.303205     2.295561     2.287918     2.280275     2.272632     2.264988     2.257345     2.249702
      2.242059     2.234416     2.226772     2.219129     2.211486     2.203843     2.196199     2.188556     2.180913     2.173270
      2.165627     2.157983     2.150340     2.142697     2.135054     2.127410     2.119767     2.112124     2.104481     2.096838
      2.089194     2.081551     2.073908     2.066265     2.058621     2.050978     2.043335     2.035692     2.028049     2.020405
      2.012762     2.005119     1.997476     1.989833     1.982190     1.974546     1.966903     1.959260     1.951617     1.943974
      1.936331     1.928688     1.921045     1.913402     1.905759     1.898115     1.890472     1.882829     1.875186     1.867543
      1.859900     1.852257     1.844614     1.836971     1.829327     1.821684     1.814041     1.806398     1.798755     1.791112
      1.783469     1.775826     1.768183     1.760540     1.752896     1.745253     1.737610     1.729967     1.722324     1.714681
      1.707038     1.699395     1.691752     1.684108     1.676465     1.668822     1.661179     1.653536     1.645893     1.638250
      1.630607     1.622964     1.615321     1.607677     1.600034     1.592391     1.584748     1.577105     1.569462     1.561819
      1.554176     1.546533     1.538890     1.531246     1.523603     1.515960     1.508317     1.500674     1.493031     1.485388
      1.477745     1.470102     1.462458     1.454815     1.447172     1.439529     1.431886     1.424243     1.416600     1.408957
      1.401314     1.393671     1.386027     1.378384     1.370741     1.363098     1.355455     1.347812     1.340169     1.332526
      1.324883     1.317240     1.309596     1.301953     1.294310     1.286667     1.279024     1.271381     1.263738     1.256095
      1.248452     1.240808     1.233165     1.225522     1.217879     1.210236     1.202593     1.194950     1.187307     1.179664
      1.172021     1.164377     1.156734     1.149091     1.141448     1.133805     1.126162     1.118519     1.110876     1.103233
      1.095590     1.087946     1.080303     1.072660     1.065017     1.057374     1.049731     1.042088     1.034445     1.026802
      1.019158     1.011515     1.003872     0.996229     0.988586     0.980943     0.973300     0.965657     0.958014     0.950371
      0.942727     0.935084     0.927441     0.919798     0.912155     0.904512     0.896869     0.889226     0.881583     0.873940
      0.866296     0.858653     0.851010     0.843367     0.835724     0.828081     0.820438     0.812795     0.805152     0.797508
      0.789865     0.782222     0.774579     0.766936     0.759293     0.751650     0.744007     0.736364     0.728721     0.721077
      0.713434     0.705791     0.698148     0.690505     0.682862     0.675219     0.667576     0.659933     0.652290     0.644646
      0.637003     0.629360     0.621717     0.614074     0.606431     0.598788     0.591145     0.583502     0.575858     0.568215
      0.560572     0.552929     0.545286     0.537643     0.530000     0.522357     0.514714     0.507071     0.499427     0.491784
      0.484141     0.476498     0.468855     0.461212     0.453569     0.445925     0.438282     0.430639     0.422996     0.415353
      0.407710     0.400067     0.392424     0.384780     0.377137     0.369494     0.361851     0.354208     0.346565     0.338922
      0.331278     0.323635     0.315992     0.308349     0.300706     0.293063     0.285420     0.277777     0.270133     0.262490
      0.254847     0.247204     0.239561     0.231918     0.224275     0.216631     0.208988     0.201345
 NY phased data points follow
  -9.45257E+00 -1.07770E+01 -1.84076E+01  1.26932E+00  2.17950E+00  3.20828E+01  2.64058E+01  4.77979E+01  5.42131E+01  7.89403E+01
   6.75038E+01  5.46382E+01  6.85771E+01  5.02249E+01  2.19307E+01  1.62777E+01  1.91221E+01 -4.85808E+00 -9.34342E+00  9.83661E+00
  -2.59304E-02 -1.06707E+01  1.43756E+00 -9.24821E+00 -1.89089E+00 -1.32205E+01 -1.06794E+01  1.30939E+01  1.59233E+01  2.03273E+01
   1.83384E+01  1.32827E+01  1.41314E+01  9.31047E+00  4.96888E+00  9.62132E+00  6.48025E+00  1.24074E+01  1.19638E+00 -1.76171E+00
   1.11442E+00  8.22628E+00 -6.67702E+00  9.73993E+00  2.01507E+01  4.47361E+00  2.34491E+01  1.72664E+01  1.46185E+01  2.26007E+01
   2.79912E+00 -2.56148E+00  1.26055E+00  7.46241E+00  1.79257E+01  4.10632E+00 -1.56982E+01  6.29211E+00  1.24891E+01 -4.11369E+00
  -2.57475E+00  8.03668E+00 -1.00171E+01 -2.46158E+01  5.44070E+00 -1.99791E+01 -1.39356E+01 -6.75959E-01 -1.04949E+01 -5.50313E+00
  -1.18906E+00 -1.38257E+01 -3.72713E+00 -3.02538E+00 -2.15076E+01  1.98323E+00 -3.01243E+00  3.40386E+00 -2.18883E+01 -3.81500E+00
   1.82839E+01 -3.84230E+00  2.64876E+00  8.50029E-01  8.04574E+00  6.02698E+00  2.31841E+00  2.72600E+00  1.36054E+01  3.97031E-01
   8.80799E+00  6.02638E-01  1.19630E+01  5.93606E+00  2.03144E+00 -7.59296E-01  1.23187E+01  1.70291E+01  1.99822E+01  3.77553E+01
   5.75355E+01  7.12883E+01  8.06289E+01  9.20380E+01  7.70038E+01  7.49672E+01  5.60104E+01  2.94044E+01  2.75181E+01  3.37412E+01
   1.68554E+01  4.99332E+00  2.36375E+01  5.61353E+00  3.05459E+00  4.78391E+00  6.47975E+00  9.03432E+00  2.04371E+01  3.25363E-01
   1.84184E+01  2.08319E+01  2.80985E+01  5.53154E+01  6.28833E+01  8.66641E+01  1.15186E+02  1.30528E+02  1.07597E+02  1.16777E+02
   9.38737E+01  7.16196E+01  5.35668E+01  3.84233E+01  2.31201E+01  1.07506E+01  1.15134E+01  8.80300E+00 -4.24868E+00  8.72609E+00
   2.11026E+01 -4.75290E+00  6.06043E+00 -2.84860E+00  1.34830E+01  2.57626E+00  3.22715E+00 -7.80660E+00  2.56212E+00 -3.14936E+00
   2.97232E-01 -2.32644E+00  1.38032E+01 -2.43906E+00  2.33685E+00  4.98116E+00 -8.18537E+00  1.34694E+01  3.77622E+00  8.12196E+00
   8.32501E+00 -1.43333E+01  4.01500E+00 -3.57834E+00 -1.46805E+01  2.34441E+00  3.62306E+00  4.86344E+00  6.02906E+00  4.83942E+00
  -1.06200E+01 -4.98288E+00 -8.32047E+00 -1.53433E+01 -7.77932E+00 -1.86368E+00 -1.08031E+01 -2.31995E+01 -5.85971E+00  1.02056E-01
  -1.13241E+01 -5.74122E+00 -1.25722E+01 -1.32696E+01 -2.11357E-01 -1.78146E+01 -5.14815E+00 -2.32873E+00  2.22433E+01 -4.87424E+00
   3.60926E+01  2.27854E+01  2.63847E+01  1.06403E+01  7.50472E-01  7.21540E+00  8.22295E+00  1.37500E+01  1.17691E+01  1.04768E+01
   1.67760E+01  1.96741E+01  2.18849E+01  3.03982E+01  1.03942E+01  9.23638E-01  1.62727E+01 -2.94179E+00  3.48868E+00  3.10245E+00
  -3.14556E+00 -9.03880E+00  1.17411E+01  2.04731E+01  3.20159E+01  4.94460E+01  4.07664E+01  4.89516E+01  2.50504E+01  2.89421E+01
   1.00530E+01 -3.30908E+00  7.03764E+00  1.13904E+01  2.36374E+01  9.53282E+00  2.36186E+01  3.53530E+01  3.39590E+01  2.79576E+01
   2.35020E+01  1.21312E+01  2.54361E+01  4.02435E+01  3.52539E+01  2.34032E+01  1.85303E+01  2.58039E+01  2.43240E+01  3.17068E+01
   1.53346E+01  1.81187E+01  2.26629E+01  3.66006E+01  2.01527E+01  3.67279E+01  3.78985E+01  4.56461E+01  5.39770E+01  2.99038E+01
   3.30627E+01  3.11497E+01  4.56766E+01  4.74642E+01  6.67560E+01  5.91352E+01  8.63098E+01  1.09525E+02  1.51507E+02  1.63746E+02
   1.93870E+02  1.71159E+02  1.61513E+02  1.29286E+02  1.05102E+02  7.72804E+01  5.42100E+01  3.95697E+01  5.59224E+01  4.14716E+01
   4.17556E+01  4.61377E+01  3.11380E+01  3.60991E+01  3.24305E+01  3.40822E+01  3.04682E+01  3.71146E+01  2.84583E+01  1.28908E+01
   2.41400E+01  4.63857E+01  3.63577E+01  2.80880E+01  2.05406E+01  2.86022E+01  3.75229E+01  1.16261E+01  2.53234E+01  3.11385E+01
   3.27284E+01  3.48778E+01  2.16988E+01  4.49270E+01  2.88516E+01  3.21211E+01  3.04621E+01  1.41460E+01  3.40097E+01  3.66185E+01
   4.21196E+01  2.51538E+01  3.36500E+01  2.22076E+01  3.52672E+01  2.46235E+01  4.31649E+01  1.67083E+01  4.92413E+01  3.97014E+01
   3.40955E+01  4.57959E+01  2.75961E+01  4.77517E+01  4.33955E+01  3.59805E+01  2.99645E+01  4.40534E+01  2.90492E+01  4.66008E+01
   2.43894E+01  3.59935E+01  4.27691E+01  4.56085E+01  3.63199E+01  5.16496E+01  4.59108E+01  4.65206E+01  5.69108E+01  4.69219E+01
   4.22690E+01  4.57258E+01  3.15199E+01  2.78622E+01  4.44973E+01  4.22198E+01  3.21388E+01  3.48107E+01  3.88387E+01  3.60662E+01
   2.42184E+01  2.38870E+01  2.61988E+01  3.70928E+01  3.35807E+01  6.18990E+01  3.30217E+01  3.65062E+01  4.64707E+01  2.78018E+01
   2.99816E+01  2.50116E+01  2.30970E+01  3.32277E+01  2.87643E+01  3.83226E+01  2.47198E+01  2.56037E+01  3.93865E+01  1.95955E+01
   2.91326E+01  3.19836E+01  3.21101E+01  2.95550E+01  3.74011E+01  3.01730E+01  2.64574E+01  2.72486E+01  3.21746E+01  3.42872E+01
   3.38493E+01  3.65244E+01  1.31966E+01  3.62497E+01  3.26628E+01  2.38753E+01  4.09034E+01  2.10132E+01  8.48808E-03  3.28426E+01
   1.83151E+01  1.81617E+01  2.47939E+01  2.37270E+01  2.54428E+01  3.22132E+01  1.44588E+01  2.69262E+01  2.43331E+01  2.83496E+01
   3.35238E+01  1.81891E+01  2.47156E+01  2.95413E+01  2.56102E+01  2.72764E+01  3.26444E+01  4.44124E+01  2.56926E+01  3.18765E+01
   2.28867E+01  3.21746E+01  2.62976E+01  2.30622E+01  2.83047E+01  3.59793E+01  3.33453E+01  3.26820E+01  4.69489E+01  5.11481E+01
   3.16854E+01  3.67827E+01  2.27376E+01  3.84533E+01  2.22711E+01  2.08325E+01  3.33421E+01  3.75885E+01  3.04349E+01  4.09431E+01
   3.59727E+01  3.32410E+01  2.78874E+01  3.38801E+01  3.08553E+01  2.51938E+01  3.24007E+01  2.77877E+01  2.13137E+01  2.01628E+01
   1.50216E+01  2.17598E+01  3.32078E+01  2.74188E+01  3.31616E+01  2.04136E+01  2.21300E+01  2.46646E+01  2.52335E+01  1.12495E+01
   2.47930E+01  4.14091E+01  3.74619E+01  1.67588E+01  3.21782E+01  2.39996E+01  3.65906E+01  2.56379E+01  1.47246E+01  2.67125E+01
   1.35804E+01  2.85373E+01  2.71490E+01  1.91926E+01  3.39114E+01  3.05539E+01  2.86336E+01  2.12026E+01  1.46655E+01  3.04016E+01
   2.89876E+01  3.02608E+01  2.18907E+01  2.29993E+01  1.63740E+01  2.12297E+01  3.25123E+01  3.02799E+01  2.49114E+01  3.09384E+01
   1.88645E+01  2.14726E+01  1.65850E+01  2.60900E+01  2.87776E+01  3.22503E+01  1.71524E+01  4.66436E+01  6.74492E+00  1.48756E+01
   1.41761E+01  3.52409E+01  3.06211E+01  2.55428E+01  3.35687E+01  2.70620E+01  1.45135E+01  2.24178E+01  1.39448E+01  1.60188E+01
   1.87214E+01  1.34694E+01  1.56852E+01  2.39279E+01  3.45627E+01  1.52448E+01  3.84502E+01  1.99227E+01
 NY points of the fit to the data follow
  -8.55873E+00 -8.13348E+00 -6.14480E+00 -1.40491E+00  6.20779E+00  1.71815E+01  3.13373E+01  4.69183E+01  6.06728E+01  6.91101E+01
   7.03428E+01  6.50256E+01  5.50662E+01  4.27848E+01  3.09948E+01  2.16768E+01  1.47354E+01  9.19750E+00  5.45412E+00  3.91805E+00
   3.18317E+00  2.57793E+00  1.94485E+00  1.42208E+00  1.04027E+00  1.21664E+00  2.51680E+00  5.30018E+00  9.45319E+00  1.41525E+01
   1.82695E+01  2.08466E+01  2.11581E+01  1.89295E+01  1.47051E+01  9.61824E+00  4.95268E+00  1.36065E+00 -6.66131E-01 -8.01594E-01
   3.51684E-01  2.17517E+00  4.10257E+00  5.85956E+00  7.37996E+00  8.50552E+00  9.09468E+00  9.05087E+00  8.41711E+00  7.31598E+00
   5.83936E+00  4.21066E+00  2.76516E+00  1.59750E+00  6.88779E-01  1.10813E-01 -1.17838E-01 -1.01256E-01 -6.92792E-03  3.78223E-02
  -8.37208E-02 -4.10643E-01 -9.16531E-01 -1.50926E+00 -2.04129E+00 -2.38328E+00 -2.49885E+00 -2.42376E+00 -2.20049E+00 -1.89135E+00
  -1.58102E+00 -1.33904E+00 -1.21790E+00 -1.21567E+00 -1.30229E+00 -1.44467E+00 -1.59623E+00 -1.71005E+00 -1.72680E+00 -1.48388E+00
  -8.64268E-01  1.53103E-01  1.59695E+00  3.37431E+00  5.16344E+00  6.48407E+00  6.92561E+00  6.40847E+00  5.18994E+00  3.62291E+00
   2.06651E+00  8.70961E-01  1.83121E-01 -1.25660E-01 -1.15606E-01  1.00714E+00  4.98546E+00  1.21797E+01  2.30700E+01  3.79619E+01
   5.55320E+01  7.23471E+01  8.40302E+01  8.73907E+01  8.23123E+01  7.08896E+01  5.58170E+01  4.04099E+01  2.76808E+01  1.84066E+01
   1.14836E+01  6.51615E+00  4.43577E+00  3.91001E+00  3.78938E+00  3.83112E+00  3.96598E+00  4.20394E+00  4.65160E+00  5.78354E+00
   9.57629E+00  1.76358E+01  3.02638E+01  4.81439E+01  7.05404E+01  9.40348E+01  1.13152E+02  1.22703E+02  1.20705E+02  1.09017E+02
   9.08811E+01  7.00844E+01  5.08980E+01  3.57460E+01  2.40770E+01  1.48381E+01  9.29408E+00  7.49971E+00  7.28555E+00  7.81872E+00
   8.57761E+00  9.18915E+00  9.53086E+00  9.56854E+00  9.27940E+00  8.76128E+00  8.11961E+00  7.40969E+00  6.70288E+00  6.03725E+00
   5.47867E+00  5.05476E+00  4.74047E+00  4.51200E+00  4.28027E+00  3.97714E+00  3.53060E+00  2.88512E+00  2.12468E+00  1.37960E+00
   8.66333E-01  7.97575E-01  1.17560E+00  1.77838E+00  2.31871E+00  2.56765E+00  2.42158E+00  1.93664E+00  1.25954E+00  4.95415E-01
  -3.46486E-01 -1.19511E+00 -2.04258E+00 -2.83752E+00 -3.42401E+00 -3.70284E+00 -3.62926E+00 -3.29641E+00 -2.91877E+00 -2.61878E+00
  -2.42924E+00 -2.30180E+00 -2.12839E+00 -1.78777E+00 -1.10808E+00  1.55015E-02  1.61883E+00  3.74585E+00  6.16059E+00  8.36027E+00
   9.83386E+00  1.02723E+01  9.74716E+00  8.60149E+00  7.38383E+00  6.58587E+00  6.54389E+00  7.59184E+00  9.84221E+00  1.30122E+01
   1.65971E+01  1.99173E+01  2.21632E+01  2.25045E+01  2.06782E+01  1.67393E+01  1.12290E+01  5.22361E+00  2.16990E-01 -2.28034E+00
  -1.40045E+00  2.65142E+00  9.16658E+00  1.70297E+01  2.44059E+01  2.91880E+01  3.00608E+01  2.70139E+01  2.08910E+01  1.28415E+01
   5.07485E+00 -2.03507E-01 -1.79925E+00  2.97293E-01  5.09097E+00  1.13729E+01  1.77606E+01  2.27594E+01  2.56299E+01  2.65828E+01
   2.65106E+01  2.60031E+01  2.54093E+01  2.53240E+01  2.62280E+01  2.79193E+01  2.97964E+01  3.12408E+01  3.18505E+01  3.14759E+01
   3.00990E+01  2.82158E+01  2.67769E+01  2.64459E+01  2.71807E+01  2.86535E+01  3.07125E+01  3.29501E+01  3.49337E+01  3.66359E+01
   3.83580E+01  4.02590E+01  4.26481E+01  4.76129E+01  5.73835E+01  7.21619E+01  9.26960E+01  1.18495E+02  1.45909E+02  1.68352E+02
   1.79201E+02  1.75491E+02  1.59321E+02  1.34872E+02  1.07014E+02  8.13599E+01  6.15268E+01  4.69153E+01  3.55930E+01  2.84099E+01
   2.57565E+01  2.47345E+01  2.43211E+01  2.42906E+01  2.44265E+01  2.44953E+01  2.44382E+01  2.42191E+01  2.38559E+01  2.34367E+01
   2.30619E+01  2.27824E+01  2.26369E+01  2.26589E+01  2.28408E+01  2.31450E+01  2.35343E+01  2.39848E+01  2.44890E+01  2.50391E+01
   2.56194E+01  2.62312E+01  2.68736E+01  2.75362E+01  2.82081E+01  2.88785E+01  2.95347E+01  3.01612E+01  3.07443E+01  3.12746E+01
   3.17434E+01  3.21441E+01  3.24745E+01  3.27342E+01  3.29265E+01  3.30584E+01  3.31405E+01  3.31860E+01  3.32109E+01  3.32319E+01
   3.32656E+01  3.33271E+01  3.34304E+01  3.35876E+01  3.38074E+01  3.40952E+01  3.44527E+01  3.48777E+01  3.53645E+01  3.59041E+01
   3.64841E+01  3.70896E+01  3.77035E+01  3.83074E+01  3.88826E+01  3.94108E+01  3.98746E+01  4.02583E+01  4.05489E+01  4.07364E+01
   4.08144E+01  4.07804E+01  4.06360E+01  4.03864E+01  4.00413E+01  3.96139E+01  3.91219E+01  3.85873E+01  3.80390E+01  3.75196E+01
   3.70990E+01  3.67886E+01  3.65242E+01  3.62588E+01  3.58752E+01  3.51908E+01  3.40449E+01  3.24177E+01  3.05561E+01  2.88187E+01
   2.74830E+01  2.67932E+01  2.69067E+01  2.77358E+01  2.89431E+01  3.01476E+01  3.11270E+01  3.17333E+01  3.18525E+01  3.15716E+01
   3.10810E+01  3.05531E+01  3.00345E+01  2.95026E+01  2.90329E+01  2.86674E+01  2.83504E+01  2.80567E+01  2.77779E+01  2.75117E+01
   2.72587E+01  2.70213E+01  2.68024E+01  2.66058E+01  2.64354E+01  2.62950E+01  2.61887E+01  2.61200E+01  2.60922E+01  2.61084E+01
   2.61712E+01  2.62832E+01  2.64466E+01  2.66632E+01  2.69344E+01  2.72613E+01  2.76449E+01  2.80852E+01  2.85821E+01  2.91342E+01
   2.97394E+01  3.03944E+01  3.10950E+01  3.18350E+01  3.26071E+01  3.34020E+01  3.42090E+01  3.50158E+01  3.58090E+01  3.65739E+01
   3.72952E+01  3.79574E+01  3.85454E+01  3.90450E+01  3.94436E+01  3.97306E+01  3.98980E+01  3.99406E+01  3.98565E+01  3.96474E+01
   3.93179E+01  3.88758E+01  3.83316E+01  3.76980E+01  3.69897E+01  3.62222E+01  3.54116E+01  3.45737E+01  3.37238E+01  3.28759E+01
   3.20427E+01  3.12351E+01  3.04619E+01  2.97302E+01  2.90450E+01  2.84096E+01  2.78258E+01  2.72939E+01  2.68132E+01  2.63818E+01
   2.59973E+01  2.56570E+01  2.53577E+01  2.50960E+01  2.48686E+01  2.46722E+01  2.45037E+01  2.43602E+01  2.42390E+01  2.41377E+01
   2.40540E+01  2.39859E+01  2.39318E+01  2.38899E+01  2.38589E+01  2.38377E+01  2.38250E+01  2.38199E+01  2.38217E+01  2.38296E+01
   2.38430E+01  2.38613E+01  2.38840E+01  2.39107E+01  2.39411E+01  2.39748E+01  2.40114E+01  2.40507E+01  2.40924E+01  2.41364E+01
   2.41825E+01  2.42304E+01  2.42801E+01  2.43314E+01  2.43842E+01  2.44383E+01  2.44937E+01  2.45503E+01  2.46080E+01  2.46666E+01
   2.47262E+01  2.47868E+01  2.48482E+01  2.49103E+01  2.49732E+01  2.50368E+01  2.51012E+01  2.51661E+01  2.52317E+01  2.52979E+01
   2.53646E+01  2.54318E+01  2.54997E+01  2.55680E+01  2.56369E+01  2.57063E+01  2.57762E+01  2.58466E+01  2.59176E+01  2.59891E+01
   2.60612E+01  2.61338E+01  2.62070E+01  2.62809E+01  2.63555E+01  2.64308E+01  2.65068E+01  2.65837E+01
 NY background values follow
    -8.994E+00   -8.919E+00   -8.845E+00   -8.770E+00   -8.696E+00   -8.621E+00   -8.547E+00   -8.472E+00   -8.397E+00   -8.323E+00
    -8.248E+00   -8.173E+00   -8.099E+00   -8.024E+00   -7.949E+00   -7.874E+00   -7.800E+00   -7.725E+00   -7.650E+00   -7.575E+00
    -7.501E+00   -7.426E+00   -7.351E+00   -7.276E+00   -7.201E+00   -7.126E+00   -7.052E+00   -6.977E+00   -6.902E+00   -6.827E+00
    -6.752E+00   -6.677E+00   -6.602E+00   -6.527E+00   -6.452E+00   -6.377E+00   -6.302E+00   -6.227E+00   -6.152E+00   -6.077E+00
    -6.002E+00   -5.927E+00   -5.852E+00   -5.777E+00   -5.702E+00   -5.627E+00   -5.552E+00   -5.477E+00   -5.402E+00   -5.326E+00
    -5.251E+00   -5.176E+00   -5.101E+00   -5.026E+00   -4.951E+00   -4.876E+00   -4.800E+00   -4.725E+00   -4.650E+00   -4.575E+00
    -4.500E+00   -4.424E+00   -4.349E+00   -4.274E+00   -4.199E+00   -4.123E+00   -4.048E+00   -3.973E+00   -3.897E+00   -3.822E+00
    -3.747E+00   -3.672E+00   -3.596E+00   -3.521E+00   -3.446E+00   -3.370E+00   -3.295E+00   -3.220E+00   -3.144E+00   -3.069E+00
    -2.993E+00   -2.918E+00   -2.843E+00   -2.767E+00   -2.692E+00   -2.617E+00   -2.541E+00   -2.466E+00   -2.390E+00   -2.315E+00
    -2.239E+00   -2.164E+00   -2.089E+00   -2.013E+00   -1.938E+00   -1.862E+00   -1.787E+00   -1.711E+00   -1.636E+00   -1.560E+00
    -1.485E+00   -1.409E+00   -1.334E+00   -1.258E+00   -1.183E+00   -1.107E+00   -1.032E+00   -9.562E-01   -8.807E-01   -8.052E-01
    -7.297E-01   -6.542E-01   -5.786E-01   -5.031E-01   -4.275E-01   -3.520E-01   -2.765E-01   -2.009E-01   -1.253E-01   -4.979E-02
     2.576E-02    1.013E-01    1.769E-01    2.525E-01    3.280E-01    4.036E-01    4.792E-01    5.547E-01    6.303E-01    7.059E-01
     7.815E-01    8.570E-01    9.326E-01    1.008E+00    1.084E+00    1.159E+00    1.235E+00    1.311E+00    1.386E+00    1.462E+00
     1.537E+00    1.613E+00    1.688E+00    1.764E+00    1.840E+00    1.915E+00    1.991E+00    2.066E+00    2.142E+00    2.218E+00
     2.293E+00    2.369E+00    2.444E+00    2.520E+00    2.596E+00    2.671E+00    2.747E+00    2.822E+00    2.898E+00    2.974E+00
     3.049E+00    3.125E+00    3.200E+00    3.276E+00    3.351E+00    3.427E+00    3.503E+00    3.578E+00    3.654E+00    3.729E+00
     3.805E+00    3.880E+00    3.956E+00    4.031E+00    4.107E+00    4.183E+00    4.258E+00    4.334E+00    4.409E+00    4.485E+00
     4.560E+00    4.636E+00    4.711E+00    4.787E+00    4.862E+00    4.938E+00    5.013E+00    5.089E+00    5.164E+00    5.240E+00
     5.315E+00    5.391E+00    5.466E+00    5.542E+00    5.617E+00    5.693E+00    5.768E+00    5.844E+00    5.919E+00    5.995E+00
     6.070E+00    6.146E+00    6.221E+00    6.296E+00    6.372E+00    6.447E+00    6.523E+00    6.598E+00    6.673E+00    6.749E+00
     6.824E+00    6.900E+00    6.975E+00    7.050E+00    7.126E+00    7.201E+00    7.276E+00    7.352E+00    7.427E+00    7.502E+00
     7.578E+00    7.653E+00    7.728E+00    7.803E+00    7.879E+00    7.954E+00    8.029E+00    8.105E+00    8.180E+00    8.255E+00
     8.330E+00    8.405E+00    8.481E+00    8.556E+00    8.631E+00    8.706E+00    8.781E+00    8.857E+00    8.932E+00    9.007E+00
     9.082E+00    9.157E+00    9.232E+00    9.307E+00    9.382E+00    9.457E+00    9.533E+00    9.608E+00    9.683E+00    9.758E+00
     9.833E+00    9.908E+00    9.983E+00    1.006E+01    1.013E+01    1.021E+01    1.028E+01    1.036E+01    1.043E+01    1.051E+01
     1.058E+01    1.066E+01    1.073E+01    1.081E+01    1.088E+01    1.096E+01    1.103E+01    1.111E+01    1.118E+01    1.126E+01
     1.133E+01    1.141E+01    1.148E+01    1.156E+01    1.163E+01    1.170E+01    1.178E+01    1.185E+01    1.193E+01    1.200E+01
     1.208E+01    1.215E+01    1.223E+01    1.230E+01    1.238E+01    1.245E+01    1.253E+01    1.260E+01    1.267E+01    1.275E+01
     1.282E+01    1.290E+01    1.297E+01    1.305E+01    1.312E+01    1.320E+01    1.327E+01    1.335E+01    1.342E+01    1.349E+01
     1.357E+01    1.364E+01    1.372E+01    1.379E+01    1.387E+01    1.394E+01    1.401E+01    1.409E+01    1.416E+01    1.424E+01
     1.431E+01    1.439E+01    1.446E+01    1.453E+01    1.461E+01    1.468E+01    1.476E+01    1.483E+01    1.490E+01    1.498E+01
     1.505E+01    1.513E+01    1.520E+01    1.527E+01    1.535E+01    1.542E+01    1.550E+01    1.557E+01    1.564E+01    1.572E+01
     1.579E+01    1.587E+01    1.594E+01    1.601E+01    1.609E+01    1.616E+01    1.623E+01    1.631E+01    1.638E+01    1.646E+01
     1.653E+01    1.660E+01    1.668E+01    1.675E+01    1.682E+01    1.690E+01    1.697E+01    1.704E+01    1.712E+01    1.719E+01
     1.726E+01    1.734E+01    1.741E+01    1.749E+01    1.756E+01    1.763E+01    1.771E+01    1.778E+01    1.785E+01    1.793E+01
     1.800E+01    1.807E+01    1.815E+01    1.822E+01    1.829E+01    1.836E+01    1.844E+01    1.851E+01    1.858E+01    1.866E+01
     1.873E+01    1.880E+01    1.888E+01    1.895E+01    1.902E+01    1.910E+01    1.917E+01    1.924E+01    1.931E+01    1.939E+01
     1.946E+01    1.953E+01    1.961E+01    1.968E+01    1.975E+01    1.982E+01    1.990E+01    1.997E+01    2.004E+01    2.011E+01
     2.019E+01    2.026E+01    2.033E+01    2.040E+01    2.048E+01    2.055E+01    2.062E+01    2.069E+01    2.077E+01    2.084E+01
     2.091E+01    2.098E+01    2.106E+01    2.113E+01    2.120E+01    2.127E+01    2.135E+01    2.142E+01    2.149E+01    2.156E+01
     2.163E+01    2.171E+01    2.178E+01    2.185E+01    2.192E+01    2.200E+01    2.207E+01    2.214E+01    2.221E+01    2.228E+01
     2.235E+01    2.243E+01    2.250E+01    2.257E+01    2.264E+01    2.271E+01    2.279E+01    2.286E+01    2.293E+01    2.300E+01
     2.307E+01    2.314E+01    2.322E+01    2.329E+01    2.336E+01    2.343E+01    2.350E+01    2.357E+01    2.364E+01    2.372E+01
     2.379E+01    2.386E+01    2.393E+01    2.400E+01    2.407E+01    2.414E+01    2.421E+01    2.429E+01    2.436E+01    2.443E+01
     2.450E+01    2.457E+01    2.464E+01    2.471E+01    2.478E+01    2.485E+01    2.493E+01    2.500E+01    2.507E+01    2.514E+01
     2.521E+01    2.528E+01    2.535E+01    2.542E+01    2.549E+01    2.556E+01    2.563E+01    2.570E+01    2.577E+01    2.584E+01
     2.592E+01    2.599E+01    2.606E+01    2.613E+01    2.620E+01    2.627E+01    2.634E+01    2.641E+01    2.648E+01    2.655E+01
     2.662E+01    2.669E+01    2.676E+01    2.683E+01    2.690E+01    2.697E+01    2.704E+01    2.711E+01    2.718E+01    2.725E+01
     2.732E+01    2.739E+01    2.746E+01    2.753E+01    2.760E+01    2.767E+01    2.774E+01    2.781E+01
