 LCModel (Version 6.3-1L) Copyright: S.W. Provencher.          Ref.: Magn. Reson. Med. 30:672-679 (1993).                
 Slice#3 Row#12 Col#7  PD_05_press_2_raw_act
 36 lines in following concentration table = NCONC+1
    Conc.  %SD /Cr+PCr  Metabolite                                         
   24.187 294%   0.735 Ala                                                 
    4.339  88%   0.132 Asp                                                 
    0.000 999%   0.000 Cr                                                  
   32.924 111%   1.000 PCr                                                 
    2.608  87% 7.9E-02 GABA                                                
    2.610  87% 7.9E-02 Glc                                                 
    0.000 999%   0.000 Gln                                                 
  195.970  82%   5.952 Glu                                                 
    0.204 999% 6.2E-03 GPC                                                 
    0.000 999%   0.000 PCh                                                 
   57.360  91%   1.742 GSH                                                 
  117.981 133%   3.583 Ins                                                 
  306.284  36%   9.303 Lac                                                 
   53.403  79%   1.622 NAA                                                 
    0.000 999%   0.000 NAAG                                                
    0.871  87% 2.6E-02 Scyllo                                              
    4.354  87%   0.132 Tau                                                 
    3.270 118% 9.9E-02 -CrCH2                                              
    0.204 999% 6.2E-03 GPC+PCh                                             
   53.403  79%   1.622 NAA+NAAG                                            
   32.924 111%   1.000 Cr+PCr                                              
  195.970  82%   5.952 Glu+Gln                                             
    0.000 999%   0.000 Lip13a                                              
    0.000 999%   0.000 Lip13b                                              
    0.000 999%   0.000 Lip09                                               
  341.555  29%  10.374 MM09                                                
    0.000 999%   0.000 Lip20                                               
  510.378  30%  15.502 MM20                                                
  102.243  30%   3.105 MM12                                                
  272.318  28%   8.271 MM14                                                
  131.966  30%   4.008 MM17                                                
    0.000 999%   0.000 Lip13a+Lip13b                                       
  374.561  28%  11.377 MM14+Lip13a+Lip13b+MM12                             
  341.555  29%  10.374 MM09+Lip09                                          
  510.378  30%  15.502 MM20+Lip20                                          
   6 lines in following misc. output table
  FWHM = 0.046 ppm    S/N =   1                                            
  Data shift = 0.023 ppm                                                   
  Ph: 167 deg     -50.4 deg/ppm                                            
  alphaB,S = 8.5E+01,   1.3E+01                                            
   14 spline knots.   Ns = 5(1)                                            
   2 inflections.     1 extrema                                            
  498 points on ppm-axis = NY
      4.000000     3.992357     3.984714     3.977070     3.969427     3.961784     3.954141     3.946497     3.938854     3.931211
      3.923568     3.915925     3.908281     3.900638     3.892995     3.885352     3.877708     3.870065     3.862422     3.854779
      3.847136     3.839492     3.831849     3.824206     3.816563     3.808919     3.801276     3.793633     3.785990     3.778347
      3.770703     3.763060     3.755417     3.747774     3.740130     3.732487     3.724844     3.717201     3.709558     3.701914
      3.694271     3.686628     3.678985     3.671341     3.663698     3.656055     3.648412     3.640769     3.633125     3.625482
      3.617839     3.610196     3.602552     3.594909     3.587266     3.579623     3.571980     3.564336     3.556693     3.549050
      3.541407     3.533763     3.526120     3.518477     3.510834     3.503191     3.495547     3.487904     3.480261     3.472618
      3.464974     3.457331     3.449688     3.442045     3.434402     3.426758     3.419115     3.411472     3.403829     3.396185
      3.388542     3.380899     3.373256     3.365613     3.357969     3.350326     3.342683     3.335040     3.327396     3.319753
      3.312110     3.304467     3.296824     3.289180     3.281537     3.273894     3.266251     3.258607     3.250964     3.243321
      3.235678     3.228034     3.220391     3.212748     3.205105     3.197462     3.189818     3.182175     3.174532     3.166889
      3.159245     3.151602     3.143959     3.136316     3.128673     3.121029     3.113386     3.105743     3.098100     3.090456
      3.082813     3.075170     3.067527     3.059884     3.052240     3.044597     3.036954     3.029311     3.021667     3.014024
      3.006381     2.998738     2.991095     2.983451     2.975808     2.968165     2.960522     2.952878     2.945235     2.937592
      2.929949     2.922306     2.914662     2.907019     2.899376     2.891733     2.884089     2.876446     2.868803     2.861160
      2.853517     2.845873     2.838230     2.830587     2.822944     2.815300     2.807657     2.800014     2.792371     2.784728
      2.777084     2.769441     2.761798     2.754155     2.746511     2.738868     2.731225     2.723582     2.715939     2.708295
      2.700652     2.693009     2.685366     2.677722     2.670079     2.662436     2.654793     2.647150     2.639506     2.631863
      2.624220     2.616577     2.608933     2.601290     2.593647     2.586004     2.578361     2.570717     2.563074     2.555431
      2.547788     2.540144     2.532501     2.524858     2.517215     2.509572     2.501928     2.494285     2.486642     2.478999
      2.471355     2.463712     2.456069     2.448426     2.440783     2.433139     2.425496     2.417853     2.410210     2.402566
      2.394923     2.387280     2.379637     2.371994     2.364350     2.356707     2.349064     2.341421     2.333777     2.326134
      2.318491     2.310848     2.303205     2.295561     2.287918     2.280275     2.272632     2.264988     2.257345     2.249702
      2.242059     2.234416     2.226772     2.219129     2.211486     2.203843     2.196199     2.188556     2.180913     2.173270
      2.165627     2.157983     2.150340     2.142697     2.135054     2.127410     2.119767     2.112124     2.104481     2.096838
      2.089194     2.081551     2.073908     2.066265     2.058621     2.050978     2.043335     2.035692     2.028049     2.020405
      2.012762     2.005119     1.997476     1.989833     1.982190     1.974546     1.966903     1.959260     1.951617     1.943974
      1.936331     1.928688     1.921045     1.913402     1.905759     1.898115     1.890472     1.882829     1.875186     1.867543
      1.859900     1.852257     1.844614     1.836971     1.829327     1.821684     1.814041     1.806398     1.798755     1.791112
      1.783469     1.775826     1.768183     1.760540     1.752896     1.745253     1.737610     1.729967     1.722324     1.714681
      1.707038     1.699395     1.691752     1.684108     1.676465     1.668822     1.661179     1.653536     1.645893     1.638250
      1.630607     1.622964     1.615321     1.607677     1.600034     1.592391     1.584748     1.577105     1.569462     1.561819
      1.554176     1.546533     1.538890     1.531246     1.523603     1.515960     1.508317     1.500674     1.493031     1.485388
      1.477745     1.470102     1.462458     1.454815     1.447172     1.439529     1.431886     1.424243     1.416600     1.408957
      1.401314     1.393671     1.386027     1.378384     1.370741     1.363098     1.355455     1.347812     1.340169     1.332526
      1.324883     1.317240     1.309596     1.301953     1.294310     1.286667     1.279024     1.271381     1.263738     1.256095
      1.248452     1.240808     1.233165     1.225522     1.217879     1.210236     1.202593     1.194950     1.187307     1.179664
      1.172021     1.164377     1.156734     1.149091     1.141448     1.133805     1.126162     1.118519     1.110876     1.103233
      1.095590     1.087946     1.080303     1.072660     1.065017     1.057374     1.049731     1.042088     1.034445     1.026802
      1.019158     1.011515     1.003872     0.996229     0.988586     0.980943     0.973300     0.965657     0.958014     0.950371
      0.942727     0.935084     0.927441     0.919798     0.912155     0.904512     0.896869     0.889226     0.881583     0.873940
      0.866296     0.858653     0.851010     0.843367     0.835724     0.828081     0.820438     0.812795     0.805152     0.797508
      0.789865     0.782222     0.774579     0.766936     0.759293     0.751650     0.744007     0.736364     0.728721     0.721077
      0.713434     0.705791     0.698148     0.690505     0.682862     0.675219     0.667576     0.659933     0.652290     0.644646
      0.637003     0.629360     0.621717     0.614074     0.606431     0.598788     0.591145     0.583502     0.575858     0.568215
      0.560572     0.552929     0.545286     0.537643     0.530000     0.522357     0.514714     0.507071     0.499427     0.491784
      0.484141     0.476498     0.468855     0.461212     0.453569     0.445925     0.438282     0.430639     0.422996     0.415353
      0.407710     0.400067     0.392424     0.384780     0.377137     0.369494     0.361851     0.354208     0.346565     0.338922
      0.331278     0.323635     0.315992     0.308349     0.300706     0.293063     0.285420     0.277777     0.270133     0.262490
      0.254847     0.247204     0.239561     0.231918     0.224275     0.216631     0.208988     0.201345
 NY phased data points follow
  -7.25905E-02 -6.12204E-01  3.67294E+00  2.57166E+00  4.71031E+00  4.52869E+00  9.93742E-01  2.67597E+00  6.29443E+00  4.67153E+00
   2.07684E+00  3.83571E+00  9.81019E+00  7.65173E-01  4.41589E+00  1.90854E+00  2.49067E+00  2.65210E+00  2.26667E+00  2.26521E+00
   1.41387E-01  2.88406E+00  3.31661E+00 -2.85409E-01  4.81757E+00  2.74160E+00  2.14391E+00  3.48292E-01  6.07265E+00  3.59939E+00
   2.63677E+00  4.45881E+00  5.54136E+00  9.02237E-01  1.94160E+00  3.85742E+00  3.77134E+00 -3.66571E-01  1.20511E-01  1.61989E+00
   5.95134E-01  1.35393E+00  5.46672E+00  3.21671E+00  2.85908E+00  3.07928E-02 -8.15356E-01  2.61036E+00  4.12233E+00  3.58369E+00
   6.14435E+00 -4.18045E-01  2.01466E+00  1.32871E+00  2.21293E+00  1.34052E+00  1.62540E+00  4.99668E+00  4.19556E+00 -1.25533E-01
   3.82662E+00  1.88847E+00  3.16821E+00  4.60308E+00  4.30201E+00  4.13641E+00  6.32093E+00 -8.59377E-02  3.83917E+00 -4.48536E-01
   5.00570E+00  3.88475E+00  2.59788E+00  1.52803E+00  1.79862E+00  4.67852E+00  5.98195E+00  3.12985E-01  4.09072E+00  7.14092E-01
   3.17333E+00  5.85953E+00 -1.16512E-01  2.52369E+00  1.26621E+00  5.03838E+00  3.60600E+00  4.46416E+00  1.74392E+00  3.25448E+00
  -7.39640E-01 -1.51439E+00  2.55018E+00  4.30738E+00  4.35661E+00  2.90329E+00  1.33504E+00 -3.01157E+00  3.79557E+00  2.32649E+00
   2.46619E+00 -3.85159E-01  3.97104E-01  4.82236E+00  2.26368E+00 -1.21090E+00  4.06239E+00  8.03455E-01  2.02887E-01  1.25935E+00
   3.83472E+00  1.65045E+00  3.56455E+00  2.35526E+00 -3.20486E-01  3.16490E+00 -1.51701E-01  4.56012E-02  8.68757E-01 -2.27293E+00
  -2.01913E+00  1.77185E-01  1.84134E+00  2.34322E+00  1.14397E+00  2.12329E+00  2.30274E-01  5.94100E+00  2.41923E+00  6.01144E+00
  -1.40647E+00  5.89825E-01  6.22546E-01  2.80062E+00  3.56474E+00  1.74640E+00 -2.79800E+00  6.84429E+00  1.22449E+00 -1.92460E+00
   3.80263E+00  1.60934E+00  1.15612E+00  4.41630E+00  2.99069E+00  1.36930E+00  8.07780E+00  6.20470E+00  1.37202E+00 -2.31300E+00
   5.27453E+00  1.66626E+00  2.23569E+00  5.22295E+00  3.25395E+00  7.13997E-01  3.84848E+00  8.93187E-02  5.06293E+00  1.15926E+00
   6.74713E-01  1.62266E+00  5.54739E+00  1.23229E+00  9.10531E+00  5.42780E+00  1.11393E+00  2.73021E+00  1.84063E+00  3.23245E+00
   4.44758E+00  1.12480E+00 -1.07358E+00  3.90498E+00  2.09743E+00  4.27208E+00  3.01594E+00  1.86550E-01 -2.36696E+00  2.51469E+00
   1.76490E-01  4.91921E+00  9.01351E-01  2.34525E-01  4.43470E+00  1.58939E+00  1.21992E+00  2.43141E+00  7.36046E-01 -2.24443E-01
   4.07771E-01  1.36509E+00  2.45393E+00 -1.50861E+00  1.82198E+00  4.98793E-01  4.40511E+00  9.45528E-01 -3.80450E-01 -1.10166E+00
  -2.67291E+00  3.81011E-01 -7.08439E-01  2.04555E+00  1.30030E+00  3.24181E+00  2.74638E+00  3.22824E+00 -3.99165E-02  1.49004E+00
   9.43213E-01 -1.00516E+00  4.82128E-01 -5.58622E-02  4.95728E+00  2.95568E+00  4.57874E-01  1.42002E+00 -8.40898E-01  1.81095E+00
   2.43629E+00 -2.06246E-01 -1.31281E+00 -1.26254E+00 -8.26078E-01  1.55237E+00  2.22234E-01 -3.85887E-01 -3.02545E+00  1.68417E+00
   3.16075E+00 -2.42654E+00 -5.64366E-01  2.50028E+00 -2.96280E+00 -9.74309E-01  2.01263E+00 -5.19190E-02  1.80416E+00  2.39160E+00
  -3.69677E+00 -8.49612E-01  3.64888E+00  1.73651E+00 -1.73336E+00  1.22514E+00  9.52195E-01 -2.71729E-02  4.32368E+00  4.96465E+00
   3.45983E+00  3.81571E+00  2.26139E+00  2.78416E+00 -2.68792E+00 -2.12752E+00 -3.93499E+00 -4.49682E+00 -9.52614E-01 -1.71293E+00
   1.66023E+00  9.06291E+00  8.64513E+00  3.87712E+00  1.47363E+00  5.58334E+00  1.83954E+00  3.05335E-01  1.06886E+00  2.59464E+00
   2.48256E+00  1.26824E+00  1.99396E-01  4.08149E-01  5.43485E+00  3.80946E+00  5.36330E+00  5.11309E+00  3.80740E+00  1.78193E+00
   8.09861E+00  5.12441E+00  4.37901E+00  7.24183E+00  2.97420E+00  2.49446E+00  2.46678E+00  4.46696E+00  8.46652E+00  5.29292E+00
   1.71671E+00  3.52547E+00  3.82265E+00 -1.05202E+00  1.18229E+00  5.30659E+00  3.12678E+00  2.88379E+00  4.05088E+00  6.14637E+00
   4.72581E+00  2.57145E+00  3.03934E+00  4.75311E+00  6.26781E+00  7.57034E-01 -1.58795E-01  1.11726E+00  4.10791E+00  3.27577E+00
   1.81422E+00  5.98427E+00  3.97075E+00  4.05253E+00  4.86781E+00  4.87427E+00  3.40227E+00  2.72216E+00  6.58414E+00  2.42903E+00
   5.63255E+00  3.08217E+00  5.25852E+00  5.70860E+00  6.38684E+00  6.24761E+00  7.98861E+00  1.23881E+01  1.40928E+01  1.03339E+01
   1.09618E+01  8.09071E+00  1.01408E+01  5.04254E+00  9.53036E+00  9.35997E+00  9.35258E+00  5.81560E+00  6.20669E+00  9.08145E+00
   1.41881E+00  7.24424E+00  1.94989E+00  5.73175E+00  6.68808E+00  6.12010E+00  3.09832E+00  2.13116E+00 -4.66972E+00 -3.90583E+00
  -7.14117E+00 -8.79038E+00 -8.26724E+00 -1.39600E+01 -8.70127E+00 -6.35293E+00 -5.13080E+00 -8.29559E+00 -5.00366E+00 -2.76529E+00
  -8.70436E+00 -2.88224E+00 -2.99278E+00 -3.81409E+00 -9.19621E-01  9.11212E-01  2.11879E+00  7.70221E-01  4.31122E+00  5.01768E+00
   7.07779E+00  1.03827E+01  9.09404E+00  7.71613E+00  7.83105E+00  5.39370E+00  3.62825E+00  1.78901E+00  1.92699E+00  2.54459E+00
  -1.11718E+00 -3.64052E+00 -5.92446E+00 -6.33599E+00 -5.71392E+00 -6.69540E+00 -7.10631E+00 -4.58621E+00 -7.67358E+00 -4.15345E+00
  -5.67647E+00 -6.33614E+00 -2.47479E+00 -5.13955E+00 -2.86539E+00 -8.15010E-01 -9.93975E-01  1.39438E+00  2.09630E-01  6.62721E+00
   2.86212E+00  2.38494E+00 -1.01709E+00 -1.21918E+00  1.77310E+00  3.59368E+00  3.95560E-01 -1.23286E+00 -1.50361E-01  7.05661E-01
  -2.77336E+00  2.48829E+00 -2.33459E-01 -1.66670E+00 -4.89712E-02 -8.71863E-01 -3.06835E+00 -3.55742E+00 -3.83487E+00  2.18047E+00
  -3.51349E+00 -6.04459E-01 -4.83167E+00 -1.67192E+00  5.00957E-01  3.53423E+00 -7.92930E-01  5.85557E-01  9.71806E-01  1.46871E+00
  -4.50637E+00  2.11883E+00  9.44700E-01  8.98564E-01 -9.14333E-01 -1.82290E+00  6.03363E-02  6.68745E+00  2.42677E+00  1.41480E+00
   3.34197E+00 -8.67149E-01 -4.57678E-01  2.79927E+00 -1.05425E+00  4.51139E+00 -6.51160E-01 -8.96425E-01  1.25409E+00  1.66685E+00
  -4.40182E+00  5.89835E-01  6.38494E-01 -3.18196E+00 -9.66330E-01 -1.59837E+00 -1.88153E+00  1.12050E+00  1.36761E+00  1.48146E+00
  -6.31032E-01 -1.09545E+00  2.96327E+00 -1.12048E+00 -2.40000E+00 -4.26506E-01 -2.13966E+00  4.15503E+00 -2.55097E+00  1.84483E+00
   1.19585E+00  4.03471E+00  2.14004E+00  3.70833E-01  6.16207E+00  1.81328E+00 -3.36302E+00  1.61838E+00 -1.33599E+00  3.42622E+00
   1.67523E+00 -1.17314E+00 -3.05539E-01 -1.69414E+00 -4.90166E+00 -5.30731E+00 -1.82845E+00 -1.36214E+00  1.62695E+00 -1.86032E+00
   7.05426E-01  1.39485E+00 -2.67929E+00 -8.91736E-01 -1.48273E-01  1.41352E+00  1.44650E+00 -1.79819E+00
 NY points of the fit to the data follow
   2.47521E+00  2.42185E+00  2.41204E+00  2.46774E+00  2.50797E+00  2.54018E+00  2.66195E+00  2.87517E+00  3.11697E+00  3.29248E+00
   3.33099E+00  3.25067E+00  3.12177E+00  2.97665E+00  2.79907E+00  2.61491E+00  2.51605E+00  2.48384E+00  2.47635E+00  2.49921E+00
   2.54135E+00  2.58391E+00  2.62993E+00  2.69179E+00  2.71591E+00  2.61976E+00  2.50338E+00  2.53794E+00  2.79126E+00  3.23773E+00
   3.73253E+00  4.07551E+00  4.21754E+00  4.23486E+00  4.10246E+00  3.68697E+00  3.10441E+00  2.67131E+00  2.41220E+00  2.23235E+00
   2.15569E+00  2.18180E+00  2.23058E+00  2.26524E+00  2.38145E+00  2.63568E+00  2.96402E+00  3.26915E+00  3.41973E+00  3.35209E+00
   3.12617E+00  2.84465E+00  2.55444E+00  2.26931E+00  2.05197E+00  1.97275E+00  2.01412E+00  2.11589E+00  2.25642E+00  2.41658E+00
   2.54818E+00  2.60425E+00  2.57172E+00  2.47830E+00  2.35819E+00  2.23440E+00  2.14383E+00  2.10405E+00  2.11353E+00  2.17110E+00
   2.24981E+00  2.32681E+00  2.38149E+00  2.39693E+00  2.37944E+00  2.34635E+00  2.30777E+00  2.25866E+00  2.20122E+00  2.16093E+00
   2.13596E+00  2.11668E+00  2.10962E+00  2.11095E+00  2.09819E+00  2.04494E+00  1.94343E+00  1.81253E+00  1.69328E+00  1.62127E+00
   1.60585E+00  1.63420E+00  1.69880E+00  1.80014E+00  1.90407E+00  1.97486E+00  1.99188E+00  1.95951E+00  1.89491E+00  1.82173E+00
   1.75558E+00  1.70262E+00  1.66590E+00  1.65455E+00  1.67144E+00  1.70199E+00  1.73638E+00  1.76604E+00  1.79078E+00  1.81367E+00
   1.83496E+00  1.85164E+00  1.86539E+00  1.88052E+00  1.89516E+00  1.91162E+00  1.92614E+00  1.93435E+00  1.93489E+00  1.92899E+00
   1.91952E+00  1.90274E+00  1.87683E+00  1.95736E+00  2.22844E+00  2.64834E+00  3.08768E+00  3.37700E+00  3.42044E+00  3.28882E+00
   3.13183E+00  2.98945E+00  2.79659E+00  2.56056E+00  2.37010E+00  2.15435E+00  1.91735E+00  1.72607E+00  1.62681E+00  1.62635E+00
   1.72086E+00  1.88146E+00  2.02315E+00  2.09601E+00  2.10198E+00  2.05147E+00  1.96821E+00  1.87842E+00  1.79384E+00  1.73715E+00
   1.69114E+00  1.64462E+00  1.59718E+00  1.55394E+00  1.51811E+00  1.49370E+00  1.48542E+00  1.48221E+00  1.46940E+00  1.44415E+00
   1.41173E+00  1.38395E+00  1.36842E+00  1.36520E+00  1.36704E+00  1.36432E+00  1.35562E+00  1.34428E+00  1.32848E+00  1.30919E+00
   1.29080E+00  1.27745E+00  1.26994E+00  1.25302E+00  1.22198E+00  1.18789E+00  1.16442E+00  1.15508E+00  1.14947E+00  1.13597E+00
   1.12055E+00  1.11316E+00  1.11014E+00  1.09240E+00  1.04730E+00  9.92735E-01  9.60391E-01  9.81972E-01  1.06854E+00  1.20929E+00
   1.37106E+00  1.51121E+00  1.58919E+00  1.59089E+00  1.50157E+00  1.33653E+00  1.14991E+00  1.00444E+00  9.51690E-01  9.99946E-01
   1.10703E+00  1.22660E+00  1.36115E+00  1.50677E+00  1.61672E+00  1.64971E+00  1.61464E+00  1.52615E+00  1.39424E+00  1.22631E+00
   1.05831E+00  9.48310E-01  1.03122E+00  1.36916E+00  1.85653E+00  2.33724E+00  2.64594E+00  2.65852E+00  2.38022E+00  1.83952E+00
   1.10194E+00  3.41318E-01 -1.92095E-01 -2.42843E-01  9.71218E-02  5.99422E-01  1.13168E+00  1.64536E+00  2.05271E+00  2.21500E+00
   2.12690E+00  1.95717E+00  1.85119E+00  1.84347E+00  1.95449E+00  2.15868E+00  2.39201E+00  2.56680E+00  2.59355E+00  2.43681E+00
   2.17895E+00  1.93341E+00  1.78869E+00  1.78561E+00  1.95237E+00  2.26655E+00  2.60761E+00  2.85277E+00  2.95720E+00  2.93509E+00
   2.80312E+00  2.64705E+00  2.55064E+00  2.53847E+00  2.54416E+00  2.49748E+00  2.44156E+00  2.59085E+00  3.02759E+00  3.65785E+00
   4.27221E+00  4.59974E+00  4.53695E+00  4.23539E+00  3.84556E+00  3.33482E+00  2.70883E+00  2.20194E+00  1.95884E+00  1.79353E+00
   1.65621E+00  1.56696E+00  1.51532E+00  1.48439E+00  1.47281E+00  1.46361E+00  1.44733E+00  1.42087E+00  1.37996E+00  1.31973E+00
   1.25147E+00  1.19187E+00  1.14589E+00  1.11153E+00  1.08641E+00  1.06953E+00  1.06031E+00  1.05522E+00  1.05120E+00  1.05042E+00
   1.05385E+00  1.06124E+00  1.07269E+00  1.08870E+00  1.10903E+00  1.13228E+00  1.15747E+00  1.18424E+00  1.21158E+00  1.23839E+00
   1.26412E+00  1.28813E+00  1.30974E+00  1.32826E+00  1.34316E+00  1.35427E+00  1.36184E+00  1.36647E+00  1.36896E+00  1.37042E+00
   1.37254E+00  1.37702E+00  1.38552E+00  1.39974E+00  1.42142E+00  1.45226E+00  1.49372E+00  1.54684E+00  1.61225E+00  1.69008E+00
   1.77999E+00  1.88043E+00  1.99073E+00  2.13635E+00  2.32996E+00  2.53047E+00  2.68156E+00  2.74025E+00  2.70116E+00  2.60741E+00
   2.49284E+00  2.36362E+00  2.25463E+00  2.22626E+00  2.33022E+00  2.51403E+00  2.67480E+00  2.76811E+00  2.80343E+00  2.81098E+00
   2.79246E+00  2.72048E+00  2.71939E+00  3.29475E+00  4.40526E+00  5.43427E+00  5.70854E+00  4.80306E+00  2.87809E+00  5.36138E-01
  -1.86828E+00 -3.89515E+00 -5.01740E+00 -4.57928E+00 -2.40670E+00  1.72349E-01  2.07642E+00  3.16828E+00  3.74568E+00  3.91536E+00
   3.44212E+00  2.49407E+00  1.85153E+00  1.51224E+00  1.30249E+00  1.15802E+00  1.05147E+00  9.68862E-01  9.02251E-01  8.46728E-01
   7.99126E-01  7.57438E-01  7.20523E-01  6.87806E-01  6.59015E-01  6.34001E-01  6.12743E-01  5.95408E-01  5.82363E-01  5.74074E-01
   5.70989E-01  5.73499E-01  5.82013E-01  5.97030E-01  6.19121E-01  6.48826E-01  6.86569E-01  7.32646E-01  7.87283E-01  8.50644E-01
   9.22762E-01  1.00341E+00  1.09203E+00  1.18776E+00  1.28945E+00  1.39569E+00  1.50476E+00  1.61456E+00  1.72267E+00  1.82650E+00
   1.92338E+00  2.01068E+00  2.08586E+00  2.14651E+00  2.19057E+00  2.21639E+00  2.22293E+00  2.20972E+00  2.17685E+00  2.12495E+00
   2.05521E+00  1.96935E+00  1.86953E+00  1.75819E+00  1.63790E+00  1.51124E+00  1.38077E+00  1.24896E+00  1.11806E+00  9.89977E-01
   8.66298E-01  7.48236E-01  6.36710E-01  5.32361E-01  4.35547E-01  3.46340E-01  2.64586E-01  1.89978E-01  1.22138E-01  6.06312E-02
   4.96024E-03 -4.54278E-02 -9.10935E-02 -1.32554E-01 -1.70260E-01 -2.04621E-01 -2.36034E-01 -2.64885E-01 -2.91517E-01 -3.16201E-01
  -3.39147E-01 -3.60548E-01 -3.80599E-01 -3.99490E-01 -4.17372E-01 -4.34342E-01 -4.50475E-01 -4.65853E-01 -4.80578E-01 -4.94744E-01
  -5.08406E-01 -5.21589E-01 -5.34319E-01 -5.46644E-01 -5.58624E-01 -5.70308E-01 -5.81706E-01 -5.92817E-01 -6.03656E-01 -6.14262E-01
  -6.24676E-01 -6.34919E-01 -6.44981E-01 -6.54856E-01 -6.64559E-01 -6.74124E-01 -6.83577E-01 -6.92920E-01 -7.02135E-01 -7.11220E-01
  -7.20195E-01 -7.29090E-01 -7.37915E-01 -7.46660E-01 -7.55306E-01 -7.63858E-01 -7.72341E-01 -7.80778E-01 -7.89166E-01 -7.97488E-01
  -8.05733E-01 -8.13915E-01 -8.22057E-01 -8.30172E-01 -8.38245E-01 -8.46261E-01 -8.54217E-01 -8.62131E-01 -8.70024E-01 -8.77897E-01
  -8.85730E-01 -8.93513E-01 -9.01250E-01 -9.08963E-01 -9.16664E-01 -9.24344E-01 -9.31984E-01 -9.39578E-01
 NY background values follow
     2.427E+00    2.420E+00    2.413E+00    2.406E+00    2.400E+00    2.393E+00    2.386E+00    2.379E+00    2.372E+00    2.365E+00
     2.358E+00    2.352E+00    2.345E+00    2.338E+00    2.331E+00    2.324E+00    2.317E+00    2.310E+00    2.303E+00    2.297E+00
     2.290E+00    2.283E+00    2.276E+00    2.269E+00    2.262E+00    2.255E+00    2.249E+00    2.242E+00    2.235E+00    2.228E+00
     2.221E+00    2.214E+00    2.207E+00    2.201E+00    2.194E+00    2.187E+00    2.180E+00    2.173E+00    2.166E+00    2.159E+00
     2.153E+00    2.146E+00    2.139E+00    2.132E+00    2.125E+00    2.118E+00    2.111E+00    2.105E+00    2.098E+00    2.091E+00
     2.084E+00    2.077E+00    2.070E+00    2.063E+00    2.057E+00    2.050E+00    2.043E+00    2.036E+00    2.029E+00    2.022E+00
     2.015E+00    2.009E+00    2.002E+00    1.995E+00    1.988E+00    1.981E+00    1.974E+00    1.967E+00    1.961E+00    1.954E+00
     1.947E+00    1.940E+00    1.933E+00    1.926E+00    1.919E+00    1.913E+00    1.906E+00    1.899E+00    1.892E+00    1.885E+00
     1.878E+00    1.871E+00    1.865E+00    1.858E+00    1.851E+00    1.844E+00    1.837E+00    1.830E+00    1.823E+00    1.817E+00
     1.810E+00    1.803E+00    1.796E+00    1.789E+00    1.782E+00    1.775E+00    1.769E+00    1.762E+00    1.755E+00    1.748E+00
     1.741E+00    1.734E+00    1.727E+00    1.721E+00    1.714E+00    1.707E+00    1.700E+00    1.693E+00    1.686E+00    1.679E+00
     1.673E+00    1.666E+00    1.659E+00    1.652E+00    1.645E+00    1.638E+00    1.631E+00    1.625E+00    1.618E+00    1.611E+00
     1.604E+00    1.597E+00    1.590E+00    1.583E+00    1.577E+00    1.570E+00    1.563E+00    1.556E+00    1.549E+00    1.542E+00
     1.535E+00    1.528E+00    1.522E+00    1.515E+00    1.508E+00    1.501E+00    1.494E+00    1.487E+00    1.480E+00    1.474E+00
     1.467E+00    1.460E+00    1.453E+00    1.446E+00    1.439E+00    1.432E+00    1.426E+00    1.419E+00    1.412E+00    1.405E+00
     1.398E+00    1.391E+00    1.384E+00    1.378E+00    1.371E+00    1.364E+00    1.357E+00    1.350E+00    1.343E+00    1.336E+00
     1.330E+00    1.323E+00    1.316E+00    1.309E+00    1.302E+00    1.295E+00    1.288E+00    1.282E+00    1.275E+00    1.268E+00
     1.261E+00    1.254E+00    1.247E+00    1.240E+00    1.234E+00    1.227E+00    1.220E+00    1.213E+00    1.206E+00    1.199E+00
     1.192E+00    1.186E+00    1.179E+00    1.172E+00    1.165E+00    1.158E+00    1.151E+00    1.144E+00    1.138E+00    1.131E+00
     1.124E+00    1.117E+00    1.110E+00    1.103E+00    1.096E+00    1.090E+00    1.083E+00    1.076E+00    1.069E+00    1.062E+00
     1.055E+00    1.048E+00    1.042E+00    1.035E+00    1.028E+00    1.021E+00    1.014E+00    1.007E+00    1.000E+00    9.935E-01
     9.867E-01    9.798E-01    9.729E-01    9.661E-01    9.592E-01    9.524E-01    9.455E-01    9.387E-01    9.318E-01    9.249E-01
     9.181E-01    9.112E-01    9.044E-01    8.975E-01    8.906E-01    8.838E-01    8.769E-01    8.701E-01    8.632E-01    8.563E-01
     8.495E-01    8.426E-01    8.358E-01    8.289E-01    8.221E-01    8.152E-01    8.083E-01    8.015E-01    7.946E-01    7.878E-01
     7.809E-01    7.740E-01    7.672E-01    7.603E-01    7.535E-01    7.466E-01    7.397E-01    7.329E-01    7.260E-01    7.192E-01
     7.123E-01    7.055E-01    6.986E-01    6.917E-01    6.849E-01    6.780E-01    6.712E-01    6.643E-01    6.574E-01    6.506E-01
     6.437E-01    6.369E-01    6.300E-01    6.231E-01    6.163E-01    6.094E-01    6.026E-01    5.957E-01    5.889E-01    5.820E-01
     5.751E-01    5.683E-01    5.614E-01    5.546E-01    5.477E-01    5.408E-01    5.340E-01    5.271E-01    5.203E-01    5.134E-01
     5.065E-01    4.997E-01    4.928E-01    4.860E-01    4.791E-01    4.723E-01    4.654E-01    4.585E-01    4.517E-01    4.448E-01
     4.380E-01    4.311E-01    4.242E-01    4.174E-01    4.105E-01    4.037E-01    3.968E-01    3.899E-01    3.831E-01    3.762E-01
     3.694E-01    3.625E-01    3.556E-01    3.488E-01    3.419E-01    3.351E-01    3.282E-01    3.214E-01    3.145E-01    3.076E-01
     3.008E-01    2.939E-01    2.871E-01    2.802E-01    2.733E-01    2.665E-01    2.596E-01    2.528E-01    2.459E-01    2.390E-01
     2.322E-01    2.253E-01    2.185E-01    2.116E-01    2.048E-01    1.979E-01    1.910E-01    1.842E-01    1.773E-01    1.705E-01
     1.636E-01    1.567E-01    1.499E-01    1.430E-01    1.362E-01    1.293E-01    1.224E-01    1.156E-01    1.087E-01    1.019E-01
     9.500E-02    8.815E-02    8.129E-02    7.443E-02    6.757E-02    6.071E-02    5.385E-02    4.699E-02    4.013E-02    3.327E-02
     2.641E-02    1.955E-02    1.269E-02    5.835E-03   -1.024E-03   -7.883E-03   -1.474E-02   -2.160E-02   -2.846E-02   -3.532E-02
    -4.218E-02   -4.904E-02   -5.590E-02   -6.276E-02   -6.962E-02   -7.647E-02   -8.333E-02   -9.019E-02   -9.705E-02   -1.039E-01
    -1.108E-01   -1.176E-01   -1.245E-01   -1.313E-01   -1.382E-01   -1.451E-01   -1.519E-01   -1.588E-01   -1.656E-01   -1.725E-01
    -1.794E-01   -1.862E-01   -1.931E-01   -1.999E-01   -2.068E-01   -2.137E-01   -2.205E-01   -2.274E-01   -2.342E-01   -2.411E-01
    -2.480E-01   -2.548E-01   -2.617E-01   -2.685E-01   -2.754E-01   -2.822E-01   -2.891E-01   -2.960E-01   -3.028E-01   -3.097E-01
    -3.165E-01   -3.234E-01   -3.303E-01   -3.371E-01   -3.440E-01   -3.508E-01   -3.577E-01   -3.646E-01   -3.714E-01   -3.783E-01
    -3.851E-01   -3.920E-01   -3.989E-01   -4.057E-01   -4.126E-01   -4.194E-01   -4.263E-01   -4.331E-01   -4.400E-01   -4.469E-01
    -4.537E-01   -4.606E-01   -4.674E-01   -4.743E-01   -4.812E-01   -4.880E-01   -4.949E-01   -5.017E-01   -5.086E-01   -5.155E-01
    -5.223E-01   -5.292E-01   -5.360E-01   -5.429E-01   -5.498E-01   -5.566E-01   -5.635E-01   -5.703E-01   -5.772E-01   -5.840E-01
    -5.909E-01   -5.978E-01   -6.046E-01   -6.115E-01   -6.183E-01   -6.252E-01   -6.321E-01   -6.389E-01   -6.458E-01   -6.526E-01
    -6.595E-01   -6.664E-01   -6.732E-01   -6.801E-01   -6.869E-01   -6.938E-01   -7.006E-01   -7.075E-01   -7.144E-01   -7.212E-01
    -7.281E-01   -7.349E-01   -7.418E-01   -7.487E-01   -7.555E-01   -7.624E-01   -7.692E-01   -7.761E-01   -7.830E-01   -7.898E-01
    -7.967E-01   -8.035E-01   -8.104E-01   -8.173E-01   -8.241E-01   -8.310E-01   -8.378E-01   -8.447E-01   -8.515E-01   -8.584E-01
    -8.653E-01   -8.721E-01   -8.790E-01   -8.858E-01   -8.927E-01   -8.996E-01   -9.064E-01   -9.133E-01   -9.201E-01   -9.270E-01
    -9.339E-01   -9.407E-01   -9.476E-01   -9.544E-01   -9.613E-01   -9.682E-01   -9.750E-01   -9.819E-01
 Ala      Conc. = 2.42E+01
