 LCModel (Version 6.3-1L) Copyright: S.W. Provencher.          Ref.: Magn. Reson. Med. 30:672-679 (1993).                
 Slice#2 Row#3 Col#5  PD_05_press_2_raw_act
 36 lines in following concentration table = NCONC+1
    Conc.  %SD /Cr+PCr  Metabolite                                         
    0.000 999%   0.000 Ala                                                 
  358.725 142%   0.153 Asp                                                 
    0.000 999%   0.000 Cr                                                  
 2.35E+03   7%   1.000 PCr                                                 
  157.705 213% 6.7E-02 GABA                                                
  390.724  83%   0.166 Glc                                                 
 1.16E+03  60%   0.494 Gln                                                 
 2.31E+03  35%   0.984 Glu                                                 
    0.000 999%   0.000 GPC                                                 
 1.15E+03   6%   0.491 PCh                                                 
  860.470  25%   0.366 GSH                                                 
 4.50E+03  18%   1.912 Ins                                                 
   74.129 512% 3.2E-02 Lac                                                 
 4.36E+03   7%   1.855 NAA                                                 
  866.029  39%   0.368 NAAG                                                
  451.631  16%   0.192 Scyllo                                              
 1.33E+03  37%   0.565 Tau                                                 
 1.25E+03  23%   0.532 -CrCH2                                              
 1.15E+03   6%   0.491 GPC+PCh                                             
 5.23E+03   4%   2.223 NAA+NAAG                                            
 2.35E+03   7%   1.000 Cr+PCr                                              
 3.47E+03  33%   1.477 Glu+Gln                                             
    0.000 999%   0.000 Lip13a                                              
 1.00E+03  28%   0.426 Lip13b                                              
  105.776 278% 4.5E-02 Lip09                                               
 2.26E+03  25%   0.959 MM09                                                
  168.872 122% 7.2E-02 Lip20                                               
 5.55E+03  18%   2.361 MM20                                                
  604.313  66%   0.257 MM12                                                
 1.94E+03  39%   0.826 MM14                                                
 2.04E+03  29%   0.869 MM17                                                
 1.00E+03  28%   0.426 Lip13a+Lip13b                                       
 3.55E+03  27%   1.509 MM14+Lip13a+Lip13b+MM12                             
 2.36E+03  22%   1.004 MM09+Lip09                                          
 5.72E+03  18%   2.433 MM20+Lip20                                          
   6 lines in following misc. output table
  FWHM = 0.054 ppm    S/N =   9                                            
  Data shift = 0.038 ppm                                                   
  Ph: -56 deg     -17.4 deg/ppm                                            
  alphaB,S = 8.3E-01,   5.0E+01                                            
   14 spline knots.   Ns = 7(1)                                            
  (13) 3 infls.   (11) 3 extrs.                                            
  498 points on ppm-axis = NY
      4.000000     3.992357     3.984714     3.977070     3.969427     3.961784     3.954141     3.946497     3.938854     3.931211
      3.923568     3.915925     3.908281     3.900638     3.892995     3.885352     3.877708     3.870065     3.862422     3.854779
      3.847136     3.839492     3.831849     3.824206     3.816563     3.808919     3.801276     3.793633     3.785990     3.778347
      3.770703     3.763060     3.755417     3.747774     3.740130     3.732487     3.724844     3.717201     3.709558     3.701914
      3.694271     3.686628     3.678985     3.671341     3.663698     3.656055     3.648412     3.640769     3.633125     3.625482
      3.617839     3.610196     3.602552     3.594909     3.587266     3.579623     3.571980     3.564336     3.556693     3.549050
      3.541407     3.533763     3.526120     3.518477     3.510834     3.503191     3.495547     3.487904     3.480261     3.472618
      3.464974     3.457331     3.449688     3.442045     3.434402     3.426758     3.419115     3.411472     3.403829     3.396185
      3.388542     3.380899     3.373256     3.365613     3.357969     3.350326     3.342683     3.335040     3.327396     3.319753
      3.312110     3.304467     3.296824     3.289180     3.281537     3.273894     3.266251     3.258607     3.250964     3.243321
      3.235678     3.228034     3.220391     3.212748     3.205105     3.197462     3.189818     3.182175     3.174532     3.166889
      3.159245     3.151602     3.143959     3.136316     3.128673     3.121029     3.113386     3.105743     3.098100     3.090456
      3.082813     3.075170     3.067527     3.059884     3.052240     3.044597     3.036954     3.029311     3.021667     3.014024
      3.006381     2.998738     2.991095     2.983451     2.975808     2.968165     2.960522     2.952878     2.945235     2.937592
      2.929949     2.922306     2.914662     2.907019     2.899376     2.891733     2.884089     2.876446     2.868803     2.861160
      2.853517     2.845873     2.838230     2.830587     2.822944     2.815300     2.807657     2.800014     2.792371     2.784728
      2.777084     2.769441     2.761798     2.754155     2.746511     2.738868     2.731225     2.723582     2.715939     2.708295
      2.700652     2.693009     2.685366     2.677722     2.670079     2.662436     2.654793     2.647150     2.639506     2.631863
      2.624220     2.616577     2.608933     2.601290     2.593647     2.586004     2.578361     2.570717     2.563074     2.555431
      2.547788     2.540144     2.532501     2.524858     2.517215     2.509572     2.501928     2.494285     2.486642     2.478999
      2.471355     2.463712     2.456069     2.448426     2.440783     2.433139     2.425496     2.417853     2.410210     2.402566
      2.394923     2.387280     2.379637     2.371994     2.364350     2.356707     2.349064     2.341421     2.333777     2.326134
      2.318491     2.310848     2.303205     2.295561     2.287918     2.280275     2.272632     2.264988     2.257345     2.249702
      2.242059     2.234416     2.226772     2.219129     2.211486     2.203843     2.196199     2.188556     2.180913     2.173270
      2.165627     2.157983     2.150340     2.142697     2.135054     2.127410     2.119767     2.112124     2.104481     2.096838
      2.089194     2.081551     2.073908     2.066265     2.058621     2.050978     2.043335     2.035692     2.028049     2.020405
      2.012762     2.005119     1.997476     1.989833     1.982190     1.974546     1.966903     1.959260     1.951617     1.943974
      1.936331     1.928688     1.921045     1.913402     1.905759     1.898115     1.890472     1.882829     1.875186     1.867543
      1.859900     1.852257     1.844614     1.836971     1.829327     1.821684     1.814041     1.806398     1.798755     1.791112
      1.783469     1.775826     1.768183     1.760540     1.752896     1.745253     1.737610     1.729967     1.722324     1.714681
      1.707038     1.699395     1.691752     1.684108     1.676465     1.668822     1.661179     1.653536     1.645893     1.638250
      1.630607     1.622964     1.615321     1.607677     1.600034     1.592391     1.584748     1.577105     1.569462     1.561819
      1.554176     1.546533     1.538890     1.531246     1.523603     1.515960     1.508317     1.500674     1.493031     1.485388
      1.477745     1.470102     1.462458     1.454815     1.447172     1.439529     1.431886     1.424243     1.416600     1.408957
      1.401314     1.393671     1.386027     1.378384     1.370741     1.363098     1.355455     1.347812     1.340169     1.332526
      1.324883     1.317240     1.309596     1.301953     1.294310     1.286667     1.279024     1.271381     1.263738     1.256095
      1.248452     1.240808     1.233165     1.225522     1.217879     1.210236     1.202593     1.194950     1.187307     1.179664
      1.172021     1.164377     1.156734     1.149091     1.141448     1.133805     1.126162     1.118519     1.110876     1.103233
      1.095590     1.087946     1.080303     1.072660     1.065017     1.057374     1.049731     1.042088     1.034445     1.026802
      1.019158     1.011515     1.003872     0.996229     0.988586     0.980943     0.973300     0.965657     0.958014     0.950371
      0.942727     0.935084     0.927441     0.919798     0.912155     0.904512     0.896869     0.889226     0.881583     0.873940
      0.866296     0.858653     0.851010     0.843367     0.835724     0.828081     0.820438     0.812795     0.805152     0.797508
      0.789865     0.782222     0.774579     0.766936     0.759293     0.751650     0.744007     0.736364     0.728721     0.721077
      0.713434     0.705791     0.698148     0.690505     0.682862     0.675219     0.667576     0.659933     0.652290     0.644646
      0.637003     0.629360     0.621717     0.614074     0.606431     0.598788     0.591145     0.583502     0.575858     0.568215
      0.560572     0.552929     0.545286     0.537643     0.530000     0.522357     0.514714     0.507071     0.499427     0.491784
      0.484141     0.476498     0.468855     0.461212     0.453569     0.445925     0.438282     0.430639     0.422996     0.415353
      0.407710     0.400067     0.392424     0.384780     0.377137     0.369494     0.361851     0.354208     0.346565     0.338922
      0.331278     0.323635     0.315992     0.308349     0.300706     0.293063     0.285420     0.277777     0.270133     0.262490
      0.254847     0.247204     0.239561     0.231918     0.224275     0.216631     0.208988     0.201345
 NY phased data points follow
  -2.01953E+02 -1.89845E+02 -1.67114E+02 -1.76020E+02 -1.71772E+02 -1.65685E+02 -1.58502E+02 -1.38104E+02 -1.34386E+02 -1.49142E+02
  -1.35486E+02 -1.44885E+02 -1.34296E+02 -1.58212E+02 -1.67570E+02 -1.51905E+02 -1.60694E+02 -1.64701E+02 -1.62752E+02 -1.69974E+02
  -1.47416E+02 -1.53390E+02 -1.31767E+02 -1.52584E+02 -1.27667E+02 -1.26724E+02 -1.45649E+02 -1.31086E+02 -1.33784E+02 -1.11330E+02
  -9.92508E+01 -1.09741E+02 -1.12134E+02 -1.25268E+02 -1.39218E+02 -1.23911E+02 -1.16822E+02 -1.22805E+02 -1.18393E+02 -1.21604E+02
  -1.10478E+02 -1.06841E+02 -1.08599E+02 -1.02742E+02 -1.06744E+02 -9.48403E+01 -9.60402E+01 -9.11274E+01 -9.53127E+01 -9.94880E+01
  -9.66221E+01 -1.20907E+02 -1.02453E+02 -1.05209E+02 -9.48093E+01 -1.07063E+02 -8.71590E+01 -9.18182E+01 -8.91013E+01 -1.00793E+02
  -9.80566E+01 -9.42108E+01 -9.57803E+01 -1.13643E+02 -9.85210E+01 -1.02783E+02 -8.99865E+01 -9.90991E+01 -1.01133E+02 -9.79642E+01
  -8.67401E+01 -8.07056E+01 -7.73202E+01 -7.65920E+01 -8.62165E+01 -6.50950E+01 -7.29724E+01 -7.80741E+01 -8.68550E+01 -8.44390E+01
  -7.05449E+01 -8.03613E+01 -8.11829E+01 -6.31090E+01 -6.22869E+01 -7.20501E+01 -6.11654E+01 -4.89425E+01 -5.69657E+01 -6.65921E+01
  -6.32600E+01 -5.62077E+01 -4.81033E+01 -5.86594E+01 -5.23859E+01 -4.68327E+01 -3.16233E+01 -3.84907E+01 -3.39840E+01 -2.65658E+01
   4.27615E+00  1.44496E+01  3.45887E+01  2.78812E+01  1.18680E+01  1.85245E+00 -1.57180E+01 -4.01728E+01 -4.01952E+01 -6.73085E+01
  -5.29202E+01 -5.87078E+01 -4.17630E+01 -5.74739E+01 -5.17605E+01 -5.92666E+01 -4.22113E+01 -6.34353E+01 -5.87919E+01 -4.61544E+01
  -2.98480E+01 -2.72072E+01 -4.82565E+01 -1.44724E+01 -2.16047E+01 -2.98653E+00  1.80879E+01  2.70930E+01  1.64129E+01  2.89061E+00
  -1.50277E+01 -1.40121E+01 -3.00648E+01 -3.48969E+01 -3.84830E+01 -5.33369E+01 -5.24516E+01 -4.35527E+01 -5.09085E+01 -5.12872E+01
  -4.52035E+01 -4.22097E+01 -4.91491E+01 -4.77943E+01 -3.49445E+01 -5.78220E+01 -4.99865E+01 -4.53747E+01 -6.08804E+01 -5.28139E+01
  -3.35849E+01 -4.83563E+01 -5.72228E+01 -4.79623E+01 -6.35214E+01 -5.25378E+01 -3.79011E+01 -3.59002E+01 -3.52567E+01 -5.00297E+01
  -4.12643E+01 -5.52222E+01 -4.53606E+01 -3.18552E+01 -4.11914E+01 -4.89830E+01 -4.00276E+01 -4.47576E+01 -3.96641E+01 -4.93030E+01
  -4.97065E+01 -5.84180E+01 -6.16944E+01 -4.48647E+01 -4.28502E+01 -5.05464E+01 -3.30924E+01 -4.45790E+01 -5.99290E+01 -3.37821E+01
  -4.05764E+01 -4.93631E+01 -5.13821E+01 -2.60673E+01 -2.67562E+01 -3.40684E+01 -4.07936E+01 -3.33081E+01 -2.88934E+01 -2.63257E+01
  -3.04340E+01 -3.35979E+01 -3.52006E+01 -2.40977E+01 -2.36109E+01 -2.85676E+01 -1.40313E+01 -3.41559E+01 -2.36200E+01 -3.88469E+01
  -3.48217E+01 -3.27027E+01 -2.61347E+01 -2.04735E+01 -1.56604E+01 -2.31569E+01 -1.60604E+01 -3.38466E+01 -3.44771E+01 -3.18333E+01
  -2.24012E+01 -9.33529E+00 -1.72522E+01 -1.12180E+01 -2.17094E+01 -1.89447E+01 -1.19993E+00  6.93174E+00 -6.95660E+00 -1.63602E+01
   3.73570E+00 -2.57867E+01 -1.38517E+01 -1.99994E+01 -2.66238E+01 -1.12516E+01  1.39449E+00  1.20586E+00  1.35607E+01  1.01254E+01
   1.18626E+00  2.56277E+00  8.61729E+00  8.20977E+00  5.27236E+00  4.91573E+00  2.03018E+01  9.02699E+00  5.53990E+00  8.75973E+00
   6.44459E+00 -4.80169E+00  1.85900E+00 -2.09611E+01  1.92613E+01  1.28625E+00  6.16215E+00  3.13253E+01  1.61212E+01  2.72839E+01
   3.91120E+01  4.34952E+01  2.89530E+01  8.07916E+01  7.17488E+01  8.55506E+01  9.57502E+01  1.12924E+02  1.34239E+02  1.65239E+02
   1.71714E+02  1.53818E+02  1.34122E+02  1.15222E+02  8.72087E+01  6.85523E+01  4.73989E+01  3.73601E+01  1.25366E+01  8.75149E+00
   1.28802E+01  9.11274E+00  1.67835E+01  6.63366E+00  2.27258E+01  3.35896E+01  1.86556E+01  6.04753E+00  1.37631E+01  3.84269E+00
   2.90036E+01  8.44573E+00  1.18745E+01  1.16396E+01  1.28050E+01  1.62701E+01  1.89967E+01  8.02686E+00  5.82636E+00  1.50517E+01
   1.09334E+01  8.67697E+00  1.78734E+01  2.91471E+01  2.51215E+01  3.37687E+01  2.31287E+01  2.31702E+01  1.18422E+01 -5.62366E+00
   1.94837E+01  1.25205E+01  2.01997E+01  3.68736E+01  3.12095E+01  3.75760E+01  2.75626E+01  2.25948E+01  1.63361E+01  2.65156E+01
   5.73907E+00  3.13737E+01  3.57472E+01  1.35952E+01  1.56439E+01  1.21064E+01  1.33220E+01  1.99164E+01  2.52751E+01  1.95383E+01
   1.75394E+01  1.85187E+01  1.46551E+01  3.28724E+01  2.37582E+01  1.92322E+01  2.09796E+01  1.29325E+01  1.97514E+01  2.38597E+01
   1.97869E+01  2.63911E+01  1.48591E+01  3.59738E+01  1.96602E+01  3.95392E+01  3.38522E+01  1.15576E+01  2.63418E+01  2.24799E+01
   2.01561E+01  3.01289E+01  1.95463E+01  1.22667E+01  2.64637E+01  3.91248E+01  1.56596E+01  3.36962E+01  2.99047E+01  4.63763E+01
   4.21980E+01  2.94737E+01  3.61734E+01  3.09135E+01  2.11738E+01  4.07327E+01  3.45565E+01  4.76825E+01  4.14708E+01  2.77874E+01
   3.51931E+01  1.76582E+01  3.50234E+01  2.26870E+01  2.00282E+01  2.84494E+01  1.38561E+01  9.29915E+00  4.06704E+01  1.38490E+01
   1.99772E+01  1.91340E+01  3.87896E+01  3.31921E+01  3.36294E+01  2.24081E+01  7.80097E+00  1.72990E+01  1.37188E+01  3.02159E+01
   2.21733E+01  3.42760E+01  2.66808E+01  1.32328E+01  9.82917E+00  3.06597E+01  1.72419E+01  2.92830E+01  1.92244E+01  2.86394E+01
   3.27715E+01  3.43515E+01  3.44405E+01  4.33813E+01  2.42255E+01  2.29394E+01  1.63851E+01  3.45719E+01  3.52053E+01  2.91257E+01
   2.21107E+01  3.89916E+01  3.59661E+01  4.12570E+01  2.90739E+01  2.90978E+01  3.62520E+01  4.10098E+01  2.96022E+01  3.88698E+01
   4.31115E+01  3.46258E+01  2.34186E+01  4.04763E+01  3.57143E+01  3.58251E+01  2.24009E+01  3.26658E+01  2.43975E+01  3.45728E+01
   4.38685E+01  4.56861E+01  3.59169E+01  3.65944E+01  4.46321E+01  2.29795E+01  3.59450E+01  2.82134E+01  3.88170E+01  4.16921E+01
   3.88395E+01  3.37972E+01  2.85457E+01  2.54209E+01  2.73609E+01  3.12045E+01  2.64253E+01  3.53924E+01  1.98390E+01  1.34879E+01
   2.16888E+01  2.04768E+01  2.28488E+01  2.18452E+01  2.17741E+01  3.70506E+01  1.74106E+01  2.09093E+01  1.15552E+01  2.83435E+01
   2.75873E+01  2.72088E+01  2.26933E+01  2.43126E+01  3.33106E+01  3.38027E+01  2.47006E+01  2.31752E+01  3.25615E+01  3.43380E+01
   2.11984E+01  3.00448E+01  1.78093E+01  1.89849E+01  2.15329E+01  1.79760E+01  2.20164E+01  3.33233E+01  2.10703E+01  3.62867E+01
   2.24497E+01  2.85821E+01  3.22668E+01  2.64481E+01  1.77424E+01  2.49119E+01  2.48163E+01  3.33937E+01  2.11194E+01  3.31809E+01
   2.78391E+01  2.29134E+01  2.18317E+01  3.57695E+01  2.36348E+01  3.00373E+01  3.28736E+01  2.73634E+01  3.63090E+01  1.81485E+01
   2.34786E+01  2.04943E+01  2.95932E+01  2.76329E+01  3.46764E+01  1.47167E+01  3.41572E+01  2.88293E+01
 NY points of the fit to the data follow
  -1.68996E+02 -1.68479E+02 -1.64984E+02 -1.61883E+02 -1.60646E+02 -1.58712E+02 -1.54688E+02 -1.49067E+02 -1.43674E+02 -1.40791E+02
  -1.41316E+02 -1.43918E+02 -1.46999E+02 -1.49782E+02 -1.51717E+02 -1.52789E+02 -1.53425E+02 -1.53573E+02 -1.52761E+02 -1.51264E+02
  -1.49254E+02 -1.47459E+02 -1.45215E+02 -1.40921E+02 -1.37248E+02 -1.35276E+02 -1.33203E+02 -1.29454E+02 -1.23926E+02 -1.18034E+02
  -1.13355E+02 -1.11524E+02 -1.12467E+02 -1.14313E+02 -1.16685E+02 -1.19838E+02 -1.23216E+02 -1.26380E+02 -1.28033E+02 -1.26023E+02
  -1.21428E+02 -1.18046E+02 -1.16385E+02 -1.13503E+02 -1.07378E+02 -9.94353E+01 -9.34158E+01 -9.23099E+01 -9.58306E+01 -1.01399E+02
  -1.06833E+02 -1.10386E+02 -1.11629E+02 -1.11690E+02 -1.10856E+02 -1.09164E+02 -1.06297E+02 -1.02428E+02 -9.84766E+01 -9.53054E+01
  -9.36029E+01 -9.37794E+01 -9.48711E+01 -9.59875E+01 -9.59714E+01 -9.48714E+01 -9.32918E+01 -9.16091E+01 -8.92012E+01 -8.60346E+01
  -8.37059E+01 -8.24960E+01 -8.16885E+01 -8.08485E+01 -7.97551E+01 -7.85583E+01 -7.81823E+01 -7.90396E+01 -8.03878E+01 -8.07343E+01
  -7.80669E+01 -7.60947E+01 -7.54250E+01 -7.38545E+01 -7.03562E+01 -6.56089E+01 -6.17519E+01 -6.09997E+01 -6.27825E+01 -6.50944E+01
  -6.72314E+01 -6.85830E+01 -6.87095E+01 -6.86662E+01 -6.66631E+01 -5.51862E+01 -4.14118E+01 -3.65163E+01 -3.21799E+01 -2.00418E+01
  -3.56159E-01  2.05340E+01  3.23814E+01  2.94896E+01  1.60068E+01 -9.73820E-01 -1.77397E+01 -3.23652E+01 -4.41481E+01 -5.37128E+01
  -6.04753E+01 -6.33549E+01 -6.37562E+01 -6.36017E+01 -6.31905E+01 -6.25770E+01 -6.18255E+01 -6.07828E+01 -5.89365E+01 -5.33691E+01
  -4.11889E+01 -3.38893E+01 -3.17907E+01 -2.64160E+01 -1.40198E+01  2.67820E+00  1.69963E+01  2.18317E+01  1.57191E+01  3.96849E+00
  -8.49968E+00 -1.99135E+01 -2.93547E+01 -3.72915E+01 -4.43751E+01 -4.93711E+01 -5.17350E+01 -5.24489E+01 -5.19631E+01 -5.05368E+01
  -4.88211E+01 -4.73300E+01 -4.61736E+01 -4.54281E+01 -4.50836E+01 -4.50233E+01 -4.51879E+01 -4.55491E+01 -4.59485E+01 -4.61409E+01
  -4.61472E+01 -4.60844E+01 -4.60445E+01 -4.62974E+01 -4.68115E+01 -4.67469E+01 -4.60882E+01 -4.53616E+01 -4.49925E+01 -4.56206E+01
  -4.64995E+01 -4.66199E+01 -4.58856E+01 -4.48745E+01 -4.40367E+01 -4.36414E+01 -4.37436E+01 -4.40887E+01 -4.46084E+01 -4.53646E+01
  -4.55389E+01 -4.49493E+01 -4.45817E+01 -4.49255E+01 -4.58275E+01 -4.61782E+01 -4.54390E+01 -4.39740E+01 -4.28737E+01 -4.26638E+01
  -4.28426E+01 -4.20732E+01 -4.03483E+01 -3.84793E+01 -3.69294E+01 -3.56000E+01 -3.41579E+01 -3.20595E+01 -2.91637E+01 -2.61430E+01
  -2.38057E+01 -2.29892E+01 -2.28730E+01 -2.28708E+01 -2.31138E+01 -2.37556E+01 -2.42942E+01 -2.39740E+01 -2.27902E+01 -2.08804E+01
  -1.86277E+01 -1.65436E+01 -1.50526E+01 -1.45035E+01 -1.42670E+01 -1.51266E+01 -1.78181E+01 -2.09789E+01 -2.33646E+01 -2.39148E+01
  -2.32105E+01 -2.23233E+01 -2.04069E+01 -1.67690E+01 -1.21879E+01 -8.61466E+00 -7.19135E+00 -7.27980E+00 -8.32304E+00 -1.07730E+01
  -1.41431E+01 -1.72003E+01 -1.85874E+01 -1.75540E+01 -1.47701E+01 -1.11648E+01 -7.17278E+00 -3.64941E+00 -1.48099E+00 -5.10253E-01
   2.17593E-01  8.15175E-01  1.13089E+00  1.68455E+00  2.82598E+00  4.25085E+00  5.77627E+00  7.35497E+00  8.54990E+00  8.91367E+00
   8.08591E+00  6.69211E+00  5.82131E+00  6.20193E+00  7.77190E+00  1.01076E+01  1.29811E+01  1.59906E+01  1.95071E+01  2.49364E+01
   2.92273E+01  3.16675E+01  3.84392E+01  6.04676E+01  8.31298E+01  9.27195E+01  9.93657E+01  1.13573E+02  1.36148E+02  1.58693E+02
   1.68438E+02  1.59296E+02  1.37248E+02  1.11165E+02  8.59684E+01  6.43057E+01  4.66157E+01  3.20646E+01  2.16212E+01  1.64457E+01
   1.44283E+01  1.34008E+01  1.29260E+01  1.28060E+01  1.27517E+01  1.26154E+01  1.24150E+01  1.21619E+01  1.18553E+01  1.15639E+01
   1.13368E+01  1.12128E+01  1.12348E+01  1.13981E+01  1.16662E+01  1.20438E+01  1.24849E+01  1.29408E+01  1.34277E+01  1.39773E+01
   1.46056E+01  1.53120E+01  1.60597E+01  1.68306E+01  1.76095E+01  1.83673E+01  1.90776E+01  1.97267E+01  2.03146E+01  2.08478E+01
   2.13301E+01  2.17535E+01  2.21017E+01  2.23603E+01  2.25211E+01  2.25838E+01  2.25544E+01  2.24385E+01  2.22469E+01  2.19984E+01
   2.17122E+01  2.14049E+01  2.10930E+01  2.07908E+01  2.05128E+01  2.02720E+01  2.00796E+01  1.99426E+01  1.98665E+01  1.98535E+01
   1.99049E+01  2.00195E+01  2.01945E+01  2.04238E+01  2.07007E+01  2.10172E+01  2.13656E+01  2.17367E+01  2.21214E+01  2.25091E+01
   2.28908E+01  2.32573E+01  2.36016E+01  2.39166E+01  2.41969E+01  2.44380E+01  2.46394E+01  2.48040E+01  2.49424E+01  2.50786E+01
   2.52562E+01  2.53874E+01  2.54282E+01  2.55683E+01  2.59179E+01  2.64546E+01  2.71094E+01  2.78444E+01  2.88016E+01  3.00171E+01
   3.13623E+01  3.27612E+01  3.41622E+01  3.54646E+01  3.65044E+01  3.70851E+01  3.70527E+01  3.63754E+01  3.51557E+01  3.35642E+01
   3.17884E+01  2.99991E+01  2.83229E+01  2.68548E+01  2.56612E+01  2.47484E+01  2.40817E+01  2.36165E+01  2.33069E+01  2.31103E+01
   2.29924E+01  2.29272E+01  2.28977E+01  2.28922E+01  2.29051E+01  2.29337E+01  2.29786E+01  2.30412E+01  2.31243E+01  2.32300E+01
   2.33615E+01  2.35216E+01  2.37144E+01  2.39431E+01  2.42113E+01  2.45216E+01  2.48775E+01  2.52816E+01  2.57372E+01  2.62459E+01
   2.68089E+01  2.74255E+01  2.80950E+01  2.88143E+01  2.95795E+01  3.03835E+01  3.12177E+01  3.20709E+01  3.29311E+01  3.37835E+01
   3.46132E+01  3.54028E+01  3.61357E+01  3.67949E+01  3.73658E+01  3.78348E+01  3.81911E+01  3.84261E+01  3.85356E+01  3.85180E+01
   3.83770E+01  3.81183E+01  3.77519E+01  3.72888E+01  3.67439E+01  3.61324E+01  3.54712E+01  3.47761E+01  3.40630E+01  3.33455E+01
   3.26373E+01  3.19489E+01  3.12901E+01  3.06673E+01  3.00857E+01  2.95478E+01  2.90560E+01  2.86101E+01  2.82097E+01  2.78522E+01
   2.75357E+01  2.72567E+01  2.70130E+01  2.68010E+01  2.66181E+01  2.64605E+01  2.63259E+01  2.62113E+01  2.61151E+01  2.60347E+01
   2.59685E+01  2.59143E+01  2.58710E+01  2.58371E+01  2.58121E+01  2.57944E+01  2.57836E+01  2.57781E+01  2.57782E+01  2.57826E+01
   2.57918E+01  2.58045E+01  2.58206E+01  2.58394E+01  2.58611E+01  2.58852E+01  2.59120E+01  2.59405E+01  2.59710E+01  2.60028E+01
   2.60366E+01  2.60716E+01  2.61083E+01  2.61458E+01  2.61846E+01  2.62241E+01  2.62650E+01  2.63066E+01  2.63493E+01  2.63923E+01
   2.64362E+01  2.64805E+01  2.65259E+01  2.65717E+01  2.66183E+01  2.66649E+01  2.67122E+01  2.67599E+01  2.68084E+01  2.68571E+01
   2.69063E+01  2.69554E+01  2.70053E+01  2.70553E+01  2.71061E+01  2.71567E+01  2.72079E+01  2.72590E+01  2.73108E+01  2.73626E+01
   2.74151E+01  2.74673E+01  2.75200E+01  2.75727E+01  2.76260E+01  2.76793E+01  2.77331E+01  2.77866E+01
 NY background values follow
    -1.798E+02   -1.786E+02   -1.775E+02   -1.763E+02   -1.752E+02   -1.740E+02   -1.729E+02   -1.717E+02   -1.706E+02   -1.695E+02
    -1.683E+02   -1.672E+02   -1.660E+02   -1.649E+02   -1.637E+02   -1.626E+02   -1.615E+02   -1.603E+02   -1.592E+02   -1.580E+02
    -1.569E+02   -1.558E+02   -1.546E+02   -1.535E+02   -1.524E+02   -1.513E+02   -1.501E+02   -1.490E+02   -1.479E+02   -1.468E+02
    -1.457E+02   -1.445E+02   -1.434E+02   -1.423E+02   -1.412E+02   -1.401E+02   -1.390E+02   -1.379E+02   -1.368E+02   -1.358E+02
    -1.347E+02   -1.336E+02   -1.325E+02   -1.314E+02   -1.304E+02   -1.293E+02   -1.282E+02   -1.272E+02   -1.261E+02   -1.251E+02
    -1.240E+02   -1.230E+02   -1.220E+02   -1.209E+02   -1.199E+02   -1.189E+02   -1.179E+02   -1.169E+02   -1.158E+02   -1.148E+02
    -1.138E+02   -1.129E+02   -1.119E+02   -1.109E+02   -1.099E+02   -1.089E+02   -1.080E+02   -1.070E+02   -1.061E+02   -1.051E+02
    -1.042E+02   -1.032E+02   -1.023E+02   -1.014E+02   -1.004E+02   -9.952E+01   -9.861E+01   -9.771E+01   -9.681E+01   -9.592E+01
    -9.503E+01   -9.415E+01   -9.328E+01   -9.241E+01   -9.155E+01   -9.070E+01   -8.985E+01   -8.901E+01   -8.818E+01   -8.735E+01
    -8.653E+01   -8.572E+01   -8.491E+01   -8.411E+01   -8.332E+01   -8.254E+01   -8.176E+01   -8.098E+01   -8.022E+01   -7.946E+01
    -7.870E+01   -7.796E+01   -7.722E+01   -7.648E+01   -7.576E+01   -7.503E+01   -7.432E+01   -7.361E+01   -7.291E+01   -7.221E+01
    -7.152E+01   -7.083E+01   -7.015E+01   -6.948E+01   -6.881E+01   -6.815E+01   -6.750E+01   -6.685E+01   -6.620E+01   -6.556E+01
    -6.493E+01   -6.430E+01   -6.368E+01   -6.306E+01   -6.245E+01   -6.184E+01   -6.124E+01   -6.064E+01   -6.005E+01   -5.947E+01
    -5.888E+01   -5.831E+01   -5.774E+01   -5.717E+01   -5.661E+01   -5.605E+01   -5.550E+01   -5.495E+01   -5.441E+01   -5.387E+01
    -5.334E+01   -5.281E+01   -5.229E+01   -5.177E+01   -5.125E+01   -5.074E+01   -5.023E+01   -4.972E+01   -4.922E+01   -4.872E+01
    -4.823E+01   -4.774E+01   -4.725E+01   -4.676E+01   -4.628E+01   -4.580E+01   -4.533E+01   -4.485E+01   -4.438E+01   -4.392E+01
    -4.345E+01   -4.299E+01   -4.253E+01   -4.207E+01   -4.162E+01   -4.116E+01   -4.071E+01   -4.026E+01   -3.981E+01   -3.937E+01
    -3.892E+01   -3.848E+01   -3.804E+01   -3.760E+01   -3.716E+01   -3.672E+01   -3.629E+01   -3.585E+01   -3.542E+01   -3.498E+01
    -3.455E+01   -3.412E+01   -3.369E+01   -3.326E+01   -3.283E+01   -3.240E+01   -3.197E+01   -3.154E+01   -3.111E+01   -3.068E+01
    -3.026E+01   -2.983E+01   -2.941E+01   -2.898E+01   -2.856E+01   -2.814E+01   -2.771E+01   -2.729E+01   -2.687E+01   -2.646E+01
    -2.604E+01   -2.562E+01   -2.520E+01   -2.479E+01   -2.438E+01   -2.396E+01   -2.355E+01   -2.314E+01   -2.273E+01   -2.232E+01
    -2.192E+01   -2.151E+01   -2.111E+01   -2.070E+01   -2.030E+01   -1.990E+01   -1.950E+01   -1.910E+01   -1.871E+01   -1.831E+01
    -1.792E+01   -1.753E+01   -1.714E+01   -1.675E+01   -1.636E+01   -1.597E+01   -1.559E+01   -1.520E+01   -1.482E+01   -1.444E+01
    -1.406E+01   -1.369E+01   -1.331E+01   -1.294E+01   -1.257E+01   -1.220E+01   -1.183E+01   -1.147E+01   -1.110E+01   -1.074E+01
    -1.038E+01   -1.002E+01   -9.664E+00   -9.310E+00   -8.958E+00   -8.608E+00   -8.260E+00   -7.914E+00   -7.570E+00   -7.228E+00
    -6.889E+00   -6.552E+00   -6.217E+00   -5.884E+00   -5.554E+00   -5.226E+00   -4.900E+00   -4.577E+00   -4.256E+00   -3.938E+00
    -3.622E+00   -3.309E+00   -2.998E+00   -2.690E+00   -2.384E+00   -2.081E+00   -1.781E+00   -1.483E+00   -1.188E+00   -8.953E-01
    -6.056E-01   -3.188E-01   -3.472E-02    2.465E-01    5.250E-01    8.008E-01    1.074E+00    1.344E+00    1.612E+00    1.876E+00
     2.139E+00    2.398E+00    2.655E+00    2.909E+00    3.161E+00    3.410E+00    3.656E+00    3.900E+00    4.142E+00    4.380E+00
     4.617E+00    4.850E+00    5.082E+00    5.310E+00    5.537E+00    5.761E+00    5.982E+00    6.201E+00    6.418E+00    6.632E+00
     6.844E+00    7.054E+00    7.261E+00    7.466E+00    7.668E+00    7.869E+00    8.067E+00    8.262E+00    8.456E+00    8.647E+00
     8.836E+00    9.023E+00    9.208E+00    9.391E+00    9.571E+00    9.749E+00    9.926E+00    1.010E+01    1.027E+01    1.044E+01
     1.061E+01    1.078E+01    1.094E+01    1.110E+01    1.126E+01    1.142E+01    1.158E+01    1.173E+01    1.188E+01    1.204E+01
     1.218E+01    1.233E+01    1.248E+01    1.262E+01    1.277E+01    1.291E+01    1.305E+01    1.318E+01    1.332E+01    1.346E+01
     1.359E+01    1.372E+01    1.385E+01    1.398E+01    1.411E+01    1.424E+01    1.436E+01    1.449E+01    1.461E+01    1.473E+01
     1.485E+01    1.497E+01    1.509E+01    1.521E+01    1.532E+01    1.544E+01    1.555E+01    1.566E+01    1.578E+01    1.589E+01
     1.600E+01    1.611E+01    1.622E+01    1.632E+01    1.643E+01    1.654E+01    1.664E+01    1.675E+01    1.685E+01    1.695E+01
     1.706E+01    1.716E+01    1.726E+01    1.736E+01    1.746E+01    1.756E+01    1.766E+01    1.776E+01    1.785E+01    1.795E+01
     1.804E+01    1.814E+01    1.823E+01    1.833E+01    1.842E+01    1.851E+01    1.861E+01    1.870E+01    1.879E+01    1.888E+01
     1.897E+01    1.906E+01    1.915E+01    1.924E+01    1.932E+01    1.941E+01    1.950E+01    1.958E+01    1.967E+01    1.976E+01
     1.984E+01    1.993E+01    2.001E+01    2.010E+01    2.018E+01    2.026E+01    2.035E+01    2.043E+01    2.051E+01    2.059E+01
     2.067E+01    2.076E+01    2.084E+01    2.092E+01    2.100E+01    2.108E+01    2.116E+01    2.124E+01    2.132E+01    2.139E+01
     2.147E+01    2.155E+01    2.163E+01    2.171E+01    2.178E+01    2.186E+01    2.194E+01    2.201E+01    2.209E+01    2.216E+01
     2.224E+01    2.231E+01    2.239E+01    2.246E+01    2.254E+01    2.261E+01    2.269E+01    2.276E+01    2.283E+01    2.290E+01
     2.298E+01    2.305E+01    2.312E+01    2.319E+01    2.326E+01    2.333E+01    2.340E+01    2.347E+01    2.354E+01    2.361E+01
     2.368E+01    2.375E+01    2.382E+01    2.389E+01    2.396E+01    2.402E+01    2.409E+01    2.416E+01    2.423E+01    2.429E+01
     2.436E+01    2.443E+01    2.449E+01    2.456E+01    2.462E+01    2.469E+01    2.476E+01    2.482E+01    2.489E+01    2.495E+01
     2.502E+01    2.508E+01    2.515E+01    2.521E+01    2.528E+01    2.534E+01    2.540E+01    2.547E+01    2.553E+01    2.560E+01
     2.566E+01    2.572E+01    2.579E+01    2.585E+01    2.592E+01    2.598E+01    2.604E+01    2.611E+01    2.617E+01    2.624E+01
     2.630E+01    2.636E+01    2.643E+01    2.649E+01    2.656E+01    2.662E+01    2.669E+01    2.675E+01
 Asp      Conc. = 3.59E+02
