 LCModel (Version 6.3-1L) Copyright: S.W. Provencher.          Ref.: Magn. Reson. Med. 30:672-679 (1993).                
 Slice#2 Row#10 Col#12  PD_05_press_2_raw_act
 36 lines in following concentration table = NCONC+1
    Conc.  %SD /Cr+PCr  Metabolite                                         
   65.546 252%   0.872 Ala                                                 
   34.511 108%   0.459 Asp                                                 
   75.206  79%   1.000 Cr                                                  
    0.000 999%   0.000 PCr                                                 
   18.638 120%   0.248 GABA                                                
   14.316 157%   0.190 Glc                                                 
    0.000 999%   0.000 Gln                                                 
  296.058 114%   3.937 Glu                                                 
    0.000 999%   0.000 GPC                                                 
    0.000 999%   0.000 PCh                                                 
   60.032 144%   0.798 GSH                                                 
  316.703  76%   4.211 Ins                                                 
  444.332  44%   5.908 Lac                                                 
  498.887  27%   6.634 NAA                                                 
    0.000 999%   0.000 NAAG                                                
    4.541 162% 6.0E-02 Scyllo                                              
   19.709 188%   0.262 Tau                                                 
    3.471 991% 4.6E-02 -CrCH2                                              
    0.000 999%   0.000 GPC+PCh                                             
  498.887  27%   6.634 NAA+NAAG                                            
   75.206  79%   1.000 Cr+PCr                                              
  296.058 114%   3.937 Glu+Gln                                             
    0.000 999%   0.000 Lip13a                                              
    0.000 999%   0.000 Lip13b                                              
    0.000 999%   0.000 Lip09                                               
 5.94E+03  11%  78.994 MM09                                                
    0.000 999%   0.000 Lip20                                               
  838.868  59%  11.154 MM20                                                
 3.59E+03  18%  47.717 MM12                                                
 1.24E+04  10% 164.726 MM14                                                
 4.68E+03  20%  62.219 MM17                                                
    0.000 999%   0.000 Lip13a+Lip13b                                       
 1.60E+04   9% 212.443 MM14+Lip13a+Lip13b+MM12                             
 5.94E+03  11%  78.994 MM09+Lip09                                          
  838.868  57%  11.154 MM20+Lip20                                          
   6 lines in following misc. output table
  FWHM = 0.229 ppm    S/N =  11                                            
  Data shift = 0.023 ppm                                                   
  Ph:  41 deg      21.3 deg/ppm                                            
  alphaB,S = 6.5E+00,   4.0E+01                                            
    6 spline knots.   Ns = 9(2)                                            
  (13) 4 infls.   ( 9) 3 extrs.                                            
  498 points on ppm-axis = NY
      4.000000     3.992357     3.984714     3.977070     3.969427     3.961784     3.954141     3.946497     3.938854     3.931211
      3.923568     3.915925     3.908281     3.900638     3.892995     3.885352     3.877708     3.870065     3.862422     3.854779
      3.847136     3.839492     3.831849     3.824206     3.816563     3.808919     3.801276     3.793633     3.785990     3.778347
      3.770703     3.763060     3.755417     3.747774     3.740130     3.732487     3.724844     3.717201     3.709558     3.701914
      3.694271     3.686628     3.678985     3.671341     3.663698     3.656055     3.648412     3.640769     3.633125     3.625482
      3.617839     3.610196     3.602552     3.594909     3.587266     3.579623     3.571980     3.564336     3.556693     3.549050
      3.541407     3.533763     3.526120     3.518477     3.510834     3.503191     3.495547     3.487904     3.480261     3.472618
      3.464974     3.457331     3.449688     3.442045     3.434402     3.426758     3.419115     3.411472     3.403829     3.396185
      3.388542     3.380899     3.373256     3.365613     3.357969     3.350326     3.342683     3.335040     3.327396     3.319753
      3.312110     3.304467     3.296824     3.289180     3.281537     3.273894     3.266251     3.258607     3.250964     3.243321
      3.235678     3.228034     3.220391     3.212748     3.205105     3.197462     3.189818     3.182175     3.174532     3.166889
      3.159245     3.151602     3.143959     3.136316     3.128673     3.121029     3.113386     3.105743     3.098100     3.090456
      3.082813     3.075170     3.067527     3.059884     3.052240     3.044597     3.036954     3.029311     3.021667     3.014024
      3.006381     2.998738     2.991095     2.983451     2.975808     2.968165     2.960522     2.952878     2.945235     2.937592
      2.929949     2.922306     2.914662     2.907019     2.899376     2.891733     2.884089     2.876446     2.868803     2.861160
      2.853517     2.845873     2.838230     2.830587     2.822944     2.815300     2.807657     2.800014     2.792371     2.784728
      2.777084     2.769441     2.761798     2.754155     2.746511     2.738868     2.731225     2.723582     2.715939     2.708295
      2.700652     2.693009     2.685366     2.677722     2.670079     2.662436     2.654793     2.647150     2.639506     2.631863
      2.624220     2.616577     2.608933     2.601290     2.593647     2.586004     2.578361     2.570717     2.563074     2.555431
      2.547788     2.540144     2.532501     2.524858     2.517215     2.509572     2.501928     2.494285     2.486642     2.478999
      2.471355     2.463712     2.456069     2.448426     2.440783     2.433139     2.425496     2.417853     2.410210     2.402566
      2.394923     2.387280     2.379637     2.371994     2.364350     2.356707     2.349064     2.341421     2.333777     2.326134
      2.318491     2.310848     2.303205     2.295561     2.287918     2.280275     2.272632     2.264988     2.257345     2.249702
      2.242059     2.234416     2.226772     2.219129     2.211486     2.203843     2.196199     2.188556     2.180913     2.173270
      2.165627     2.157983     2.150340     2.142697     2.135054     2.127410     2.119767     2.112124     2.104481     2.096838
      2.089194     2.081551     2.073908     2.066265     2.058621     2.050978     2.043335     2.035692     2.028049     2.020405
      2.012762     2.005119     1.997476     1.989833     1.982190     1.974546     1.966903     1.959260     1.951617     1.943974
      1.936331     1.928688     1.921045     1.913402     1.905759     1.898115     1.890472     1.882829     1.875186     1.867543
      1.859900     1.852257     1.844614     1.836971     1.829327     1.821684     1.814041     1.806398     1.798755     1.791112
      1.783469     1.775826     1.768183     1.760540     1.752896     1.745253     1.737610     1.729967     1.722324     1.714681
      1.707038     1.699395     1.691752     1.684108     1.676465     1.668822     1.661179     1.653536     1.645893     1.638250
      1.630607     1.622964     1.615321     1.607677     1.600034     1.592391     1.584748     1.577105     1.569462     1.561819
      1.554176     1.546533     1.538890     1.531246     1.523603     1.515960     1.508317     1.500674     1.493031     1.485388
      1.477745     1.470102     1.462458     1.454815     1.447172     1.439529     1.431886     1.424243     1.416600     1.408957
      1.401314     1.393671     1.386027     1.378384     1.370741     1.363098     1.355455     1.347812     1.340169     1.332526
      1.324883     1.317240     1.309596     1.301953     1.294310     1.286667     1.279024     1.271381     1.263738     1.256095
      1.248452     1.240808     1.233165     1.225522     1.217879     1.210236     1.202593     1.194950     1.187307     1.179664
      1.172021     1.164377     1.156734     1.149091     1.141448     1.133805     1.126162     1.118519     1.110876     1.103233
      1.095590     1.087946     1.080303     1.072660     1.065017     1.057374     1.049731     1.042088     1.034445     1.026802
      1.019158     1.011515     1.003872     0.996229     0.988586     0.980943     0.973300     0.965657     0.958014     0.950371
      0.942727     0.935084     0.927441     0.919798     0.912155     0.904512     0.896869     0.889226     0.881583     0.873940
      0.866296     0.858653     0.851010     0.843367     0.835724     0.828081     0.820438     0.812795     0.805152     0.797508
      0.789865     0.782222     0.774579     0.766936     0.759293     0.751650     0.744007     0.736364     0.728721     0.721077
      0.713434     0.705791     0.698148     0.690505     0.682862     0.675219     0.667576     0.659933     0.652290     0.644646
      0.637003     0.629360     0.621717     0.614074     0.606431     0.598788     0.591145     0.583502     0.575858     0.568215
      0.560572     0.552929     0.545286     0.537643     0.530000     0.522357     0.514714     0.507071     0.499427     0.491784
      0.484141     0.476498     0.468855     0.461212     0.453569     0.445925     0.438282     0.430639     0.422996     0.415353
      0.407710     0.400067     0.392424     0.384780     0.377137     0.369494     0.361851     0.354208     0.346565     0.338922
      0.331278     0.323635     0.315992     0.308349     0.300706     0.293063     0.285420     0.277777     0.270133     0.262490
      0.254847     0.247204     0.239561     0.231918     0.224275     0.216631     0.208988     0.201345
 NY phased data points follow
   6.39735E+00  6.10418E+00  9.05302E+00  7.03068E+00  4.70978E+00  9.76236E+00  1.02517E+01  1.09239E+01  7.90406E+00  7.41691E+00
   4.64041E+00  6.94492E+00  7.73545E+00  1.28508E+01  6.72566E+00  8.65470E+00  7.22016E+00  1.03405E+01  4.86051E+00  1.05023E+01
   4.59604E+00  3.98351E+00  4.70599E+00  5.71041E+00  8.25867E+00  8.38207E+00  4.43535E+00  5.85868E+00  6.40562E+00  4.07563E+00
   8.90752E+00  8.97455E+00  5.64395E+00  5.15825E+00  6.55849E+00  4.56821E+00  9.77634E+00  7.40078E+00  7.31945E+00  3.41149E+00
   1.62404E+00  6.60436E+00  7.90056E+00  8.30112E+00  4.74190E+00  7.55841E+00  6.53118E+00  7.36462E+00  6.79791E+00  8.72587E+00
   6.28541E+00  7.80180E+00  4.30973E+00  4.89833E+00  5.67455E+00  7.95515E+00  8.43255E+00  7.69319E+00  5.73330E+00  5.83214E+00
   8.94998E+00  2.75728E+00  4.01022E+00  7.31323E+00  4.86324E+00  5.89545E+00  5.13858E+00  7.45203E+00  7.64119E+00  3.82150E+00
   5.03246E+00  6.27112E+00  3.75729E+00  2.80216E+00  2.79877E+00  3.77456E+00  8.24118E+00  5.67120E+00  4.25901E+00  5.48393E+00
   4.90575E+00  5.03863E+00  7.17571E+00  6.12618E+00  5.00980E+00  7.64345E+00  5.07123E+00  5.80156E+00  7.05904E+00  4.69307E+00
   5.38476E+00  3.67722E+00  6.25318E+00  6.42217E+00  1.32390E+00  4.10774E+00  4.52810E+00  4.27432E+00  5.39525E+00  5.82282E+00
   4.75797E+00  9.07163E+00  9.23456E+00  4.73348E+00  8.33652E+00  5.10002E+00  6.19534E+00  4.84562E+00  1.80913E+00  6.57385E+00
   6.79999E+00  4.88777E+00  4.57998E+00  6.95468E+00  9.01105E+00  8.13144E+00  7.11197E+00  6.71174E+00  1.05450E+01  3.10144E+00
   6.69518E+00  6.61491E+00  7.78300E+00  7.24484E+00  1.06778E+01  7.94828E+00  8.63539E+00  6.34810E+00  7.05443E+00  5.19326E+00
   7.33646E+00  5.04986E+00  5.83485E+00  3.20380E+00  4.40182E+00  6.58971E+00  7.05956E+00  4.08985E+00  5.87829E+00  8.04984E+00
   6.83218E+00  7.21071E+00  5.19486E+00  9.46353E+00  6.99753E+00  8.54567E+00  3.60725E+00  6.76555E+00  6.95948E+00  1.86119E+00
   5.19247E+00  8.82646E+00  6.66190E+00  5.43244E+00  6.81687E+00  6.09172E+00  4.28761E+00  5.56379E+00  4.40331E+00  5.49794E+00
   5.61536E+00  5.23807E+00  4.02807E+00  8.36718E+00  5.24244E+00  9.68405E+00  7.94294E+00  6.03125E+00  5.78189E+00  2.60173E+00
   7.57451E+00  3.69437E+00  3.16759E+00  7.36379E+00  7.72608E+00  8.58257E+00  8.11396E+00  5.98957E+00  8.16870E+00  7.37495E+00
   1.00163E+01  4.98640E+00  7.28632E+00  6.24575E+00  8.49137E+00  8.27318E+00  4.36370E+00  9.29596E+00  5.43742E+00  6.88697E+00
   9.85412E+00  8.92656E+00  9.76507E+00  7.84494E+00  6.42452E+00  8.76830E+00  9.87331E+00  1.05099E+01  4.97788E+00  1.05795E+01
   1.08568E+01  9.33479E+00  1.05430E+01  1.09868E+01  1.00084E+01  1.06788E+01  8.28733E+00  1.04529E+01  1.06338E+01  1.14946E+01
   7.38000E+00  1.17402E+01  1.01792E+01  1.03953E+01  7.94322E+00  1.10711E+01  8.84871E+00  1.27040E+01  9.18143E+00  8.78232E+00
   9.51747E+00  1.06552E+01  1.11896E+01  1.69067E+01  1.17374E+01  9.30378E+00  1.13764E+01  1.67444E+01  9.81956E+00  8.91554E+00
   1.28504E+01  1.17860E+01  8.64532E+00  1.13172E+01  1.34674E+01  1.54713E+01  1.43911E+01  1.42209E+01  1.40482E+01  1.24056E+01
   1.19122E+01  1.33028E+01  1.53014E+01  1.68084E+01  1.32194E+01  1.58554E+01  1.70743E+01  1.74058E+01  2.16323E+01  1.97708E+01
   1.70128E+01  1.85714E+01  1.78333E+01  2.21794E+01  1.64276E+01  2.25306E+01  1.83948E+01  2.56398E+01  2.19786E+01  2.16281E+01
   1.88842E+01  1.87651E+01  1.58673E+01  9.82335E+00  1.21440E+01  1.19362E+01  1.35046E+01  1.67687E+01  1.40519E+01  1.77791E+01
   2.08007E+01  1.88247E+01  2.02792E+01  2.67561E+01  1.89174E+01  2.09934E+01  1.94971E+01  2.12715E+01  2.31351E+01  2.22097E+01
   2.61238E+01  2.48982E+01  2.47266E+01  2.08676E+01  2.28681E+01  2.87573E+01  2.63837E+01  2.49547E+01  2.65835E+01  2.62851E+01
   2.66696E+01  2.73474E+01  2.95696E+01  3.03751E+01  2.96835E+01  3.18144E+01  3.11165E+01  2.88786E+01  3.39215E+01  3.46065E+01
   3.14326E+01  3.01491E+01  3.24930E+01  3.41949E+01  3.42383E+01  3.76068E+01  3.75597E+01  3.79495E+01  3.91566E+01  4.15274E+01
   4.27686E+01  4.08825E+01  4.27630E+01  4.88031E+01  4.35901E+01  4.40651E+01  4.42334E+01  4.87067E+01  4.96317E+01  5.18191E+01
   4.89420E+01  5.42672E+01  5.63466E+01  5.56313E+01  5.77730E+01  5.69835E+01  6.07864E+01  6.26150E+01  6.41788E+01  6.52613E+01
   6.43562E+01  6.28911E+01  6.19441E+01  6.03583E+01  5.75770E+01  5.72790E+01  5.69319E+01  5.58835E+01  5.22846E+01  4.99866E+01
   5.02663E+01  4.65982E+01  4.70289E+01  4.33731E+01  4.20336E+01  4.15421E+01  3.66597E+01  3.62589E+01  3.48474E+01  3.45505E+01
   3.26769E+01  3.35319E+01  3.63546E+01  3.14165E+01  3.11521E+01  3.13839E+01  3.17785E+01  3.07442E+01  2.41618E+01  2.81714E+01
   2.69233E+01  2.75240E+01  2.38528E+01  2.50766E+01  2.80929E+01  2.81691E+01  2.70928E+01  2.86521E+01  2.57970E+01  2.78981E+01
   2.76732E+01  2.84561E+01  2.62515E+01  2.85627E+01  2.57449E+01  2.59327E+01  2.67188E+01  2.57152E+01  3.04819E+01  2.51193E+01
   2.76415E+01  2.82434E+01  2.77073E+01  3.06820E+01  2.40801E+01  2.83792E+01  2.31297E+01  2.46850E+01  2.55692E+01  2.62734E+01
   2.90372E+01  2.51209E+01  2.27398E+01  2.70672E+01  2.81708E+01  2.54407E+01  2.21846E+01  1.99959E+01  2.44532E+01  2.48545E+01
   1.90052E+01  2.23332E+01  2.34693E+01  2.28594E+01  1.91790E+01  1.89448E+01  1.64886E+01  2.12442E+01  1.48792E+01  1.65178E+01
   1.62359E+01  1.49605E+01  1.27306E+01  1.16796E+01  1.43048E+01  1.64209E+01  1.35725E+01  1.20072E+01  9.79701E+00  1.36118E+01
   8.13073E+00  1.08785E+01  1.03643E+01  1.03829E+01  5.04148E+00  6.54110E+00  3.41001E+00  7.22683E+00  4.65800E+00  1.71378E+00
   2.98169E+00  1.05079E+00  2.32625E+00  2.97161E+00 -1.17816E+00  2.75029E+00  1.62855E+00  1.81127E+00 -2.82681E+00 -5.43432E-02
  -1.35334E+00 -2.18224E+00 -6.61581E+00 -6.89362E+00 -3.21045E+00 -6.58101E+00 -6.26667E+00 -7.04310E+00 -7.59055E+00 -8.65678E+00
  -7.41083E+00 -8.14479E+00 -9.86767E+00 -9.53300E+00 -1.08499E+01 -8.73087E+00 -1.17686E+01 -9.53302E+00 -1.56123E+01 -1.20124E+01
  -1.43043E+01 -1.00077E+01 -1.40247E+01 -1.26813E+01 -1.19867E+01 -1.46038E+01 -1.44886E+01 -1.46454E+01 -1.95212E+01 -1.80154E+01
  -1.77128E+01 -2.03982E+01 -1.96965E+01 -1.81776E+01 -1.90656E+01 -1.30604E+01 -1.91980E+01 -1.55982E+01 -1.81582E+01 -1.48686E+01
  -1.80931E+01 -1.63607E+01 -1.97994E+01 -2.35136E+01 -2.13700E+01 -1.97971E+01 -1.81225E+01 -2.01431E+01 -2.19556E+01 -2.33867E+01
  -1.84525E+01 -1.96091E+01 -1.64261E+01 -2.01242E+01 -1.74809E+01 -2.03484E+01 -1.84469E+01 -2.13830E+01
 NY points of the fit to the data follow
   6.77982E+00  6.88854E+00  7.06605E+00  7.17447E+00  7.32974E+00  7.34706E+00  7.43479E+00  7.33090E+00  7.37315E+00  7.12192E+00
   6.96352E+00  6.67403E+00  6.55559E+00  6.34531E+00  6.25068E+00  6.29775E+00  6.29553E+00  6.53408E+00  6.58745E+00  6.81094E+00
   6.85032E+00  6.95032E+00  6.97418E+00  6.93486E+00  6.94431E+00  6.81057E+00  6.82741E+00  6.71519E+00  6.74641E+00  6.74537E+00
   6.77527E+00  6.69978E+00  6.58618E+00  6.51065E+00  6.41703E+00  6.30351E+00  6.27438E+00  6.22929E+00  6.29902E+00  6.38438E+00
   6.52380E+00  6.74038E+00  6.86691E+00  7.04547E+00  7.01012E+00  6.95995E+00  6.75471E+00  6.50476E+00  6.24892E+00  5.94759E+00
   5.74377E+00  5.62589E+00  5.68088E+00  5.79519E+00  6.00422E+00  6.20711E+00  6.42856E+00  6.54555E+00  6.65126E+00  6.61335E+00
   6.55994E+00  6.38180E+00  6.25569E+00  6.13396E+00  6.07296E+00  6.05238E+00  6.05377E+00  6.04012E+00  6.07698E+00  6.06749E+00
   6.12364E+00  6.03629E+00  6.02937E+00  5.88270E+00  5.82979E+00  5.70728E+00  5.67460E+00  5.61499E+00  5.64884E+00  5.60142E+00
   5.64634E+00  5.59351E+00  5.64360E+00  5.57619E+00  5.61365E+00  5.54661E+00  5.57591E+00  5.55026E+00  5.60064E+00  5.61502E+00
   5.67581E+00  5.68582E+00  5.70077E+00  5.66942E+00  5.64267E+00  5.57478E+00  5.53066E+00  5.46928E+00  5.45977E+00  5.43477E+00
   5.49202E+00  5.51390E+00  5.62336E+00  5.66126E+00  5.77085E+00  5.79848E+00  5.87770E+00  5.91679E+00  6.00102E+00  6.17947E+00
   6.29620E+00  6.44481E+00  6.57707E+00  6.69369E+00  6.84059E+00  6.90138E+00  7.05443E+00  7.05550E+00  7.21552E+00  7.21169E+00
   7.38308E+00  7.40205E+00  7.58870E+00  7.55749E+00  7.70730E+00  7.50305E+00  7.54883E+00  7.22795E+00  7.18517E+00  6.86588E+00
   6.79669E+00  6.66927E+00  6.67191E+00  6.75663E+00  6.86881E+00  7.03287E+00  7.21718E+00  7.36463E+00  7.56063E+00  7.57973E+00
   7.69896E+00  7.55572E+00  7.55291E+00  7.35433E+00  7.27662E+00  7.08443E+00  6.98816E+00  6.81974E+00  6.73803E+00  6.72470E+00
   6.72496E+00  6.72799E+00  6.75175E+00  6.73058E+00  6.74190E+00  6.71330E+00  6.71598E+00  6.68608E+00  6.65494E+00  6.63495E+00
   6.63778E+00  6.63405E+00  6.66524E+00  6.61179E+00  6.66204E+00  6.57411E+00  6.62693E+00  6.52136E+00  6.55599E+00  6.46994E+00
   6.51398E+00  6.51956E+00  6.60148E+00  6.67995E+00  6.80335E+00  6.94144E+00  7.05049E+00  7.19919E+00  7.25638E+00  7.41609E+00
   7.38941E+00  7.55829E+00  7.51801E+00  7.66505E+00  7.65653E+00  7.79589E+00  7.88062E+00  8.00080E+00  8.12417E+00  8.16228E+00
   8.26799E+00  8.22248E+00  8.23221E+00  8.16261E+00  8.13723E+00  8.10882E+00  8.14897E+00  8.23604E+00  8.41876E+00  8.52746E+00
   8.77324E+00  8.86781E+00  9.03078E+00  8.98516E+00  8.91273E+00  8.80040E+00  8.68859E+00  8.66797E+00  8.64997E+00  8.71562E+00
   8.89213E+00  9.02309E+00  9.28000E+00  9.33493E+00  9.44534E+00  9.41193E+00  9.34190E+00  9.30177E+00  9.21135E+00  9.36432E+00
   9.46375E+00  9.80541E+00  1.00625E+01  1.03947E+01  1.06481E+01  1.08039E+01  1.09608E+01  1.09271E+01  1.09867E+01  1.08488E+01
   1.09244E+01  1.08605E+01  1.09895E+01  1.10159E+01  1.11873E+01  1.12547E+01  1.14419E+01  1.15953E+01  1.18671E+01  1.20801E+01
   1.24210E+01  1.28439E+01  1.39552E+01  1.53753E+01  1.59410E+01  1.76104E+01  1.76005E+01  1.93736E+01  1.86593E+01  2.02589E+01
   1.91550E+01  2.05892E+01  1.95595E+01  2.11018E+01  2.01994E+01  2.19774E+01  2.07334E+01  2.22894E+01  2.01880E+01  2.07220E+01
   1.83023E+01  1.77228E+01  1.58564E+01  1.47407E+01  1.44295E+01  1.39651E+01  1.49255E+01  1.56251E+01  1.67510E+01  1.82068E+01
   1.88987E+01  2.06674E+01  2.04957E+01  2.19440E+01  2.10287E+01  2.18477E+01  2.10715E+01  2.16999E+01  2.11741E+01  2.16304E+01
   2.12196E+01  2.13832E+01  2.19402E+01  2.26204E+01  2.33226E+01  2.40835E+01  2.48488E+01  2.56274E+01  2.64034E+01  2.71777E+01
   2.79378E+01  2.86779E+01  2.93958E+01  3.00774E+01  3.07276E+01  3.13401E+01  3.19185E+01  3.24574E+01  3.29654E+01  3.34409E+01
   3.38950E+01  3.43338E+01  3.47676E+01  3.52100E+01  3.56735E+01  3.61740E+01  3.67252E+01  3.73469E+01  3.80602E+01  3.88778E+01
   3.97190E+01  4.07051E+01  4.17112E+01  4.28820E+01  4.40510E+01  4.53771E+01  4.66941E+01  4.82152E+01  4.96915E+01  5.13095E+01
   5.28231E+01  5.44194E+01  5.58291E+01  5.72409E+01  5.84161E+01  5.95203E+01  6.04336E+01  6.12672E+01  6.20992E+01  6.25748E+01
   6.26166E+01  6.26157E+01  6.18706E+01  6.13021E+01  5.96429E+01  5.84460E+01  5.64718E+01  5.52684E+01  5.30481E+01  5.18470E+01
   4.94421E+01  4.82900E+01  4.55407E+01  4.43012E+01  4.12066E+01  3.98961E+01  3.71353E+01  3.60519E+01  3.42871E+01  3.37948E+01
   3.31569E+01  3.32079E+01  3.29423E+01  3.29922E+01  3.23401E+01  3.19862E+01  3.08247E+01  3.00765E+01  2.88009E+01  2.80988E+01
   2.71442E+01  2.69460E+01  2.65768E+01  2.68669E+01  2.68117E+01  2.73958E+01  2.73503E+01  2.79909E+01  2.80857E+01  2.84443E+01
   2.83041E+01  2.84099E+01  2.81359E+01  2.80391E+01  2.75415E+01  2.71114E+01  2.67559E+01  2.64289E+01  2.61201E+01  2.58299E+01
   2.55617E+01  2.53198E+01  2.51081E+01  2.49299E+01  2.47869E+01  2.46799E+01  2.46077E+01  2.45680E+01  2.45568E+01  2.45690E+01
   2.45980E+01  2.46365E+01  2.46762E+01  2.47087E+01  2.47250E+01  2.47165E+01  2.46743E+01  2.45908E+01  2.44586E+01  2.42717E+01
   2.40247E+01  2.37142E+01  2.33373E+01  2.28931E+01  2.23818E+01  2.18052E+01  2.11657E+01  2.04674E+01  1.97151E+01  1.89145E+01
   1.80716E+01  1.71932E+01  1.62859E+01  1.53568E+01  1.44122E+01  1.34590E+01  1.25029E+01  1.15497E+01  1.06041E+01  9.67082E+00
   8.75343E+00  7.85531E+00  6.97881E+00  6.12610E+00  5.29848E+00  4.49712E+00  3.72239E+00  2.97468E+00  2.25363E+00  1.55904E+00
   8.90113E-01  2.46262E-01 -3.73601E-01 -9.70291E-01 -1.54508E+00 -2.09886E+00 -2.63292E+00 -3.14817E+00 -3.64587E+00 -4.12690E+00
  -4.59247E+00 -5.04336E+00 -5.48068E+00 -5.90511E+00 -6.31767E+00 -6.71895E+00 -7.10990E+00 -7.49099E+00 -7.86304E+00 -8.22646E+00
  -8.58200E+00 -8.93000E+00 -9.27113E+00 -9.60563E+00 -9.93411E+00 -1.02568E+01 -1.05741E+01 -1.08864E+01 -1.11941E+01 -1.14972E+01
  -1.17962E+01 -1.20912E+01 -1.23827E+01 -1.26705E+01 -1.29553E+01 -1.32368E+01 -1.35155E+01 -1.37914E+01 -1.40648E+01 -1.43356E+01
  -1.46042E+01 -1.48706E+01 -1.51349E+01 -1.53972E+01 -1.56577E+01 -1.59163E+01 -1.61734E+01 -1.64287E+01 -1.66826E+01 -1.69349E+01
  -1.71860E+01 -1.74357E+01 -1.76841E+01 -1.79313E+01 -1.81774E+01 -1.84222E+01 -1.86662E+01 -1.89089E+01 -1.91508E+01 -1.93917E+01
  -1.96317E+01 -1.98707E+01 -2.01090E+01 -2.03463E+01 -2.05829E+01 -2.08186E+01 -2.10536E+01 -2.12877E+01
 NY background values follow
     5.804E+00    5.777E+00    5.750E+00    5.725E+00    5.699E+00    5.674E+00    5.650E+00    5.626E+00    5.602E+00    5.579E+00
     5.557E+00    5.535E+00    5.513E+00    5.492E+00    5.471E+00    5.451E+00    5.431E+00    5.412E+00    5.393E+00    5.375E+00
     5.357E+00    5.339E+00    5.322E+00    5.306E+00    5.290E+00    5.274E+00    5.259E+00    5.244E+00    5.229E+00    5.215E+00
     5.202E+00    5.188E+00    5.176E+00    5.163E+00    5.151E+00    5.140E+00    5.129E+00    5.118E+00    5.108E+00    5.098E+00
     5.089E+00    5.079E+00    5.071E+00    5.063E+00    5.055E+00    5.047E+00    5.040E+00    5.033E+00    5.027E+00    5.021E+00
     5.015E+00    5.010E+00    5.005E+00    5.001E+00    4.997E+00    4.993E+00    4.990E+00    4.987E+00    4.984E+00    4.982E+00
     4.980E+00    4.978E+00    4.977E+00    4.976E+00    4.976E+00    4.976E+00    4.976E+00    4.976E+00    4.977E+00    4.978E+00
     4.980E+00    4.982E+00    4.984E+00    4.986E+00    4.989E+00    4.992E+00    4.996E+00    5.000E+00    5.004E+00    5.008E+00
     5.013E+00    5.018E+00    5.023E+00    5.029E+00    5.035E+00    5.041E+00    5.048E+00    5.054E+00    5.062E+00    5.069E+00
     5.077E+00    5.085E+00    5.093E+00    5.101E+00    5.110E+00    5.119E+00    5.129E+00    5.138E+00    5.148E+00    5.158E+00
     5.169E+00    5.180E+00    5.191E+00    5.202E+00    5.213E+00    5.225E+00    5.237E+00    5.249E+00    5.262E+00    5.274E+00
     5.287E+00    5.301E+00    5.314E+00    5.328E+00    5.342E+00    5.356E+00    5.370E+00    5.385E+00    5.399E+00    5.415E+00
     5.430E+00    5.445E+00    5.461E+00    5.477E+00    5.493E+00    5.509E+00    5.526E+00    5.542E+00    5.559E+00    5.576E+00
     5.594E+00    5.611E+00    5.629E+00    5.647E+00    5.665E+00    5.683E+00    5.701E+00    5.720E+00    5.739E+00    5.758E+00
     5.777E+00    5.796E+00    5.816E+00    5.835E+00    5.855E+00    5.875E+00    5.895E+00    5.916E+00    5.936E+00    5.957E+00
     5.977E+00    5.998E+00    6.019E+00    6.040E+00    6.062E+00    6.083E+00    6.105E+00    6.126E+00    6.148E+00    6.170E+00
     6.192E+00    6.214E+00    6.237E+00    6.259E+00    6.282E+00    6.304E+00    6.327E+00    6.350E+00    6.373E+00    6.396E+00
     6.420E+00    6.443E+00    6.466E+00    6.489E+00    6.513E+00    6.536E+00    6.560E+00    6.583E+00    6.607E+00    6.630E+00
     6.654E+00    6.677E+00    6.701E+00    6.724E+00    6.747E+00    6.771E+00    6.794E+00    6.817E+00    6.840E+00    6.863E+00
     6.886E+00    6.909E+00    6.931E+00    6.954E+00    6.976E+00    6.998E+00    7.020E+00    7.042E+00    7.064E+00    7.085E+00
     7.106E+00    7.128E+00    7.148E+00    7.169E+00    7.190E+00    7.210E+00    7.230E+00    7.249E+00    7.269E+00    7.288E+00
     7.307E+00    7.325E+00    7.343E+00    7.361E+00    7.379E+00    7.396E+00    7.413E+00    7.429E+00    7.446E+00    7.461E+00
     7.477E+00    7.492E+00    7.507E+00    7.521E+00    7.535E+00    7.548E+00    7.561E+00    7.573E+00    7.585E+00    7.597E+00
     7.608E+00    7.619E+00    7.629E+00    7.638E+00    7.648E+00    7.656E+00    7.664E+00    7.672E+00    7.679E+00    7.685E+00
     7.691E+00    7.696E+00    7.701E+00    7.705E+00    7.709E+00    7.711E+00    7.714E+00    7.715E+00    7.716E+00    7.717E+00
     7.716E+00    7.715E+00    7.714E+00    7.711E+00    7.708E+00    7.704E+00    7.700E+00    7.695E+00    7.689E+00    7.682E+00
     7.675E+00    7.667E+00    7.658E+00    7.648E+00    7.637E+00    7.626E+00    7.614E+00    7.601E+00    7.587E+00    7.573E+00
     7.557E+00    7.541E+00    7.524E+00    7.506E+00    7.487E+00    7.467E+00    7.446E+00    7.425E+00    7.402E+00    7.379E+00
     7.355E+00    7.329E+00    7.303E+00    7.276E+00    7.248E+00    7.218E+00    7.188E+00    7.157E+00    7.125E+00    7.092E+00
     7.057E+00    7.022E+00    6.986E+00    6.948E+00    6.910E+00    6.870E+00    6.830E+00    6.788E+00    6.745E+00    6.701E+00
     6.656E+00    6.610E+00    6.563E+00    6.514E+00    6.465E+00    6.414E+00    6.362E+00    6.309E+00    6.255E+00    6.199E+00
     6.142E+00    6.084E+00    6.025E+00    5.965E+00    5.903E+00    5.840E+00    5.776E+00    5.710E+00    5.643E+00    5.575E+00
     5.506E+00    5.435E+00    5.363E+00    5.290E+00    5.215E+00    5.139E+00    5.062E+00    4.983E+00    4.903E+00    4.821E+00
     4.738E+00    4.654E+00    4.568E+00    4.481E+00    4.392E+00    4.302E+00    4.211E+00    4.118E+00    4.024E+00    3.929E+00
     3.832E+00    3.734E+00    3.634E+00    3.533E+00    3.431E+00    3.328E+00    3.223E+00    3.117E+00    3.009E+00    2.901E+00
     2.791E+00    2.679E+00    2.567E+00    2.453E+00    2.338E+00    2.222E+00    2.105E+00    1.986E+00    1.866E+00    1.745E+00
     1.623E+00    1.499E+00    1.375E+00    1.249E+00    1.122E+00    9.939E-01    8.647E-01    7.343E-01    6.028E-01    4.702E-01
     3.365E-01    2.017E-01    6.582E-02   -7.117E-02   -2.092E-01   -3.484E-01   -4.886E-01   -6.298E-01   -7.721E-01   -9.154E-01
    -1.060E+00   -1.205E+00   -1.351E+00   -1.499E+00   -1.647E+00   -1.797E+00   -1.947E+00   -2.098E+00   -2.251E+00   -2.404E+00
    -2.558E+00   -2.713E+00   -2.869E+00   -3.026E+00   -3.184E+00   -3.343E+00   -3.502E+00   -3.663E+00   -3.824E+00   -3.986E+00
    -4.150E+00   -4.314E+00   -4.479E+00   -4.644E+00   -4.811E+00   -4.978E+00   -5.146E+00   -5.315E+00   -5.485E+00   -5.655E+00
    -5.827E+00   -5.999E+00   -6.172E+00   -6.345E+00   -6.520E+00   -6.695E+00   -6.871E+00   -7.047E+00   -7.224E+00   -7.402E+00
    -7.581E+00   -7.760E+00   -7.941E+00   -8.121E+00   -8.303E+00   -8.485E+00   -8.667E+00   -8.851E+00   -9.035E+00   -9.219E+00
    -9.404E+00   -9.590E+00   -9.777E+00   -9.964E+00   -1.015E+01   -1.034E+01   -1.053E+01   -1.072E+01   -1.091E+01   -1.110E+01
    -1.129E+01   -1.148E+01   -1.167E+01   -1.186E+01   -1.206E+01   -1.225E+01   -1.244E+01   -1.264E+01   -1.283E+01   -1.303E+01
    -1.322E+01   -1.342E+01   -1.362E+01   -1.381E+01   -1.401E+01   -1.421E+01   -1.441E+01   -1.461E+01   -1.481E+01   -1.501E+01
    -1.521E+01   -1.541E+01   -1.561E+01   -1.581E+01   -1.601E+01   -1.621E+01   -1.641E+01   -1.661E+01   -1.682E+01   -1.702E+01
    -1.722E+01   -1.743E+01   -1.763E+01   -1.783E+01   -1.804E+01   -1.824E+01   -1.845E+01   -1.865E+01   -1.886E+01   -1.906E+01
    -1.927E+01   -1.947E+01   -1.968E+01   -1.988E+01   -2.009E+01   -2.030E+01   -2.050E+01   -2.071E+01   -2.092E+01   -2.112E+01
    -2.133E+01   -2.154E+01   -2.174E+01   -2.195E+01   -2.216E+01   -2.237E+01   -2.257E+01   -2.278E+01
 Ala      Conc. = 6.55E+01
