 LCModel (Version 6.3-1L) Copyright: S.W. Provencher.          Ref.: Magn. Reson. Med. 30:672-679 (1993).                
 Slice#1 Row#4 Col#4  PD_05_press_2_raw_act
 36 lines in following concentration table = NCONC+1
    Conc.  %SD /Cr+PCr  Metabolite                                         
    0.000 999%   0.000 Ala                                                 
  467.936  87%   0.261 Asp                                                 
 1.65E+03  26%   0.922 Cr                                                  
  139.742 307% 7.8E-02 PCr                                                 
    0.000 999%   0.000 GABA                                                
   23.399 999% 1.3E-02 Glc                                                 
  356.231 149%   0.199 Gln                                                 
 2.17E+03  27%   1.215 Glu                                                 
  647.607   9%   0.362 GPC                                                 
    0.000 999%   0.000 PCh                                                 
  331.972  52%   0.185 GSH                                                 
 1.16E+03  50%   0.648 Ins                                                 
  134.416 209% 7.5E-02 Lac                                                 
 2.43E+03  15%   1.359 NAA                                                 
 1.89E+03  16%   1.057 NAAG                                                
    0.000 999%   0.000 Scyllo                                              
    0.000 999%   0.000 Tau                                                 
    0.000 999%   0.000 -CrCH2                                              
  647.607   9%   0.362 GPC+PCh                                             
 4.33E+03   6%   2.417 NAA+NAAG                                            
 1.79E+03   8%   1.000 Cr+PCr                                              
 2.53E+03  34%   1.414 Glu+Gln                                             
 9.28E+03  15%   5.182 Lip13a                                              
    0.000 999%   0.000 Lip13b                                              
 2.29E+03  46%   1.279 Lip09                                               
 5.71E+03  16%   3.189 MM09                                                
 2.90E+03  30%   1.620 Lip20                                               
 1.13E+04  12%   6.329 MM20                                                
 2.36E+03  32%   1.318 MM12                                                
    0.000 999%   0.000 MM14                                                
    0.000 999%   0.000 MM17                                                
 9.28E+03  15%   5.182 Lip13a+Lip13b                                       
 1.16E+04  11%   6.499 MM14+Lip13a+Lip13b+MM12                             
 8.00E+03  11%   4.468 MM09+Lip09                                          
 1.42E+04   9%   7.950 MM20+Lip20                                          
   6 lines in following misc. output table
  FWHM = 0.054 ppm    S/N =   8                                            
  Data shift = 0.008 ppm                                                   
  Ph:  46 deg      24.7 deg/ppm                                            
  alphaB,S = 4.9E-01,   8.7E+01                                            
   14 spline knots.   Ns = 8(1)                                            
  (14) 2 infls.   (12) 2 extrs.                                            
  498 points on ppm-axis = NY
      4.000000     3.992357     3.984714     3.977070     3.969427     3.961784     3.954141     3.946497     3.938854     3.931211
      3.923568     3.915925     3.908281     3.900638     3.892995     3.885352     3.877708     3.870065     3.862422     3.854779
      3.847136     3.839492     3.831849     3.824206     3.816563     3.808919     3.801276     3.793633     3.785990     3.778347
      3.770703     3.763060     3.755417     3.747774     3.740130     3.732487     3.724844     3.717201     3.709558     3.701914
      3.694271     3.686628     3.678985     3.671341     3.663698     3.656055     3.648412     3.640769     3.633125     3.625482
      3.617839     3.610196     3.602552     3.594909     3.587266     3.579623     3.571980     3.564336     3.556693     3.549050
      3.541407     3.533763     3.526120     3.518477     3.510834     3.503191     3.495547     3.487904     3.480261     3.472618
      3.464974     3.457331     3.449688     3.442045     3.434402     3.426758     3.419115     3.411472     3.403829     3.396185
      3.388542     3.380899     3.373256     3.365613     3.357969     3.350326     3.342683     3.335040     3.327396     3.319753
      3.312110     3.304467     3.296824     3.289180     3.281537     3.273894     3.266251     3.258607     3.250964     3.243321
      3.235678     3.228034     3.220391     3.212748     3.205105     3.197462     3.189818     3.182175     3.174532     3.166889
      3.159245     3.151602     3.143959     3.136316     3.128673     3.121029     3.113386     3.105743     3.098100     3.090456
      3.082813     3.075170     3.067527     3.059884     3.052240     3.044597     3.036954     3.029311     3.021667     3.014024
      3.006381     2.998738     2.991095     2.983451     2.975808     2.968165     2.960522     2.952878     2.945235     2.937592
      2.929949     2.922306     2.914662     2.907019     2.899376     2.891733     2.884089     2.876446     2.868803     2.861160
      2.853517     2.845873     2.838230     2.830587     2.822944     2.815300     2.807657     2.800014     2.792371     2.784728
      2.777084     2.769441     2.761798     2.754155     2.746511     2.738868     2.731225     2.723582     2.715939     2.708295
      2.700652     2.693009     2.685366     2.677722     2.670079     2.662436     2.654793     2.647150     2.639506     2.631863
      2.624220     2.616577     2.608933     2.601290     2.593647     2.586004     2.578361     2.570717     2.563074     2.555431
      2.547788     2.540144     2.532501     2.524858     2.517215     2.509572     2.501928     2.494285     2.486642     2.478999
      2.471355     2.463712     2.456069     2.448426     2.440783     2.433139     2.425496     2.417853     2.410210     2.402566
      2.394923     2.387280     2.379637     2.371994     2.364350     2.356707     2.349064     2.341421     2.333777     2.326134
      2.318491     2.310848     2.303205     2.295561     2.287918     2.280275     2.272632     2.264988     2.257345     2.249702
      2.242059     2.234416     2.226772     2.219129     2.211486     2.203843     2.196199     2.188556     2.180913     2.173270
      2.165627     2.157983     2.150340     2.142697     2.135054     2.127410     2.119767     2.112124     2.104481     2.096838
      2.089194     2.081551     2.073908     2.066265     2.058621     2.050978     2.043335     2.035692     2.028049     2.020405
      2.012762     2.005119     1.997476     1.989833     1.982190     1.974546     1.966903     1.959260     1.951617     1.943974
      1.936331     1.928688     1.921045     1.913402     1.905759     1.898115     1.890472     1.882829     1.875186     1.867543
      1.859900     1.852257     1.844614     1.836971     1.829327     1.821684     1.814041     1.806398     1.798755     1.791112
      1.783469     1.775826     1.768183     1.760540     1.752896     1.745253     1.737610     1.729967     1.722324     1.714681
      1.707038     1.699395     1.691752     1.684108     1.676465     1.668822     1.661179     1.653536     1.645893     1.638250
      1.630607     1.622964     1.615321     1.607677     1.600034     1.592391     1.584748     1.577105     1.569462     1.561819
      1.554176     1.546533     1.538890     1.531246     1.523603     1.515960     1.508317     1.500674     1.493031     1.485388
      1.477745     1.470102     1.462458     1.454815     1.447172     1.439529     1.431886     1.424243     1.416600     1.408957
      1.401314     1.393671     1.386027     1.378384     1.370741     1.363098     1.355455     1.347812     1.340169     1.332526
      1.324883     1.317240     1.309596     1.301953     1.294310     1.286667     1.279024     1.271381     1.263738     1.256095
      1.248452     1.240808     1.233165     1.225522     1.217879     1.210236     1.202593     1.194950     1.187307     1.179664
      1.172021     1.164377     1.156734     1.149091     1.141448     1.133805     1.126162     1.118519     1.110876     1.103233
      1.095590     1.087946     1.080303     1.072660     1.065017     1.057374     1.049731     1.042088     1.034445     1.026802
      1.019158     1.011515     1.003872     0.996229     0.988586     0.980943     0.973300     0.965657     0.958014     0.950371
      0.942727     0.935084     0.927441     0.919798     0.912155     0.904512     0.896869     0.889226     0.881583     0.873940
      0.866296     0.858653     0.851010     0.843367     0.835724     0.828081     0.820438     0.812795     0.805152     0.797508
      0.789865     0.782222     0.774579     0.766936     0.759293     0.751650     0.744007     0.736364     0.728721     0.721077
      0.713434     0.705791     0.698148     0.690505     0.682862     0.675219     0.667576     0.659933     0.652290     0.644646
      0.637003     0.629360     0.621717     0.614074     0.606431     0.598788     0.591145     0.583502     0.575858     0.568215
      0.560572     0.552929     0.545286     0.537643     0.530000     0.522357     0.514714     0.507071     0.499427     0.491784
      0.484141     0.476498     0.468855     0.461212     0.453569     0.445925     0.438282     0.430639     0.422996     0.415353
      0.407710     0.400067     0.392424     0.384780     0.377137     0.369494     0.361851     0.354208     0.346565     0.338922
      0.331278     0.323635     0.315992     0.308349     0.300706     0.293063     0.285420     0.277777     0.270133     0.262490
      0.254847     0.247204     0.239561     0.231918     0.224275     0.216631     0.208988     0.201345
 NY phased data points follow
   1.13103E+02  1.10649E+02  9.31878E+01  9.37482E+01  9.86775E+01  1.11161E+02  1.06739E+02  1.13858E+02  9.42674E+01  1.31477E+02
   1.24148E+02  1.39344E+02  1.37323E+02  1.44530E+02  1.59611E+02  1.40240E+02  1.27302E+02  1.38258E+02  1.29065E+02  1.14261E+02
   1.07460E+02  1.19300E+02  1.01848E+02  1.02318E+02  1.00586E+02  1.02980E+02  8.40822E+01  8.59289E+01  8.85687E+01  1.05120E+02
   9.42350E+01  9.07643E+01  1.01235E+02  9.91353E+01  1.02135E+02  1.01236E+02  9.17177E+01  8.43147E+01  9.17178E+01  8.29260E+01
   8.86381E+01  9.16441E+01  8.49300E+01  7.63083E+01  7.99371E+01  7.15261E+01  8.31093E+01  9.21586E+01  1.03472E+02  9.59478E+01
   8.45660E+01  9.07968E+01  8.69727E+01  9.36945E+01  7.40872E+01  8.51360E+01  8.64704E+01  9.09591E+01  8.81365E+01  7.25379E+01
   7.86170E+01  8.17812E+01  7.68278E+01  6.41436E+01  7.37802E+01  7.16650E+01  8.22642E+01  6.60758E+01  6.34492E+01  6.90827E+01
   5.35418E+01  6.08467E+01  5.34187E+01  6.59053E+01  5.71151E+01  6.39232E+01  6.08311E+01  6.02711E+01  4.99613E+01  6.44648E+01
   5.50939E+01  5.99096E+01  4.65966E+01  4.47660E+01  5.42789E+01  4.45120E+01  5.72465E+01  3.65487E+01  4.46894E+01  4.53848E+01
   4.57158E+01  4.46981E+01  4.59563E+01  4.94699E+01  4.42353E+01  3.27193E+01  2.87105E+01  4.63045E+01  4.56287E+01  4.02580E+01
   5.92511E+01  7.09955E+01  7.99960E+01  1.06366E+02  1.12582E+02  1.08736E+02  1.01025E+02  9.82353E+01  9.84611E+01  8.72966E+01
   7.64596E+01  6.46357E+01  6.15503E+01  6.71211E+01  4.99129E+01  5.91319E+01  4.52521E+01  3.65314E+01  4.06042E+01  4.64002E+01
   3.12530E+01  2.44823E+01  3.24084E+01  4.90400E+01  4.50210E+01  5.86738E+01  5.95265E+01  8.33591E+01  9.71061E+01  1.13239E+02
   1.17394E+02  9.34139E+01  8.57433E+01  7.71912E+01  6.83801E+01  5.88495E+01  5.85031E+01  5.57621E+01  4.73710E+01  4.33638E+01
   5.01395E+01  4.59286E+01  3.95428E+01  3.24166E+01  2.34018E+01  3.29189E+01  4.69729E+01  3.57125E+01  3.60904E+01  4.07525E+01
   3.23498E+01  3.10966E+01  2.09166E+01  2.99223E+01  3.59790E+01  2.43510E+01  2.82724E+01  3.22856E+01  1.43762E+01  2.38513E+01
   2.77189E+01  2.06915E+01  2.50839E+01  1.35578E+01  6.44378E+00  2.78139E+01  7.57919E+00  3.58280E+01  1.31970E+01  2.39173E+01
   9.43153E+00  2.16093E+01  2.42656E+01  2.24119E+01  4.48359E+00  2.14687E+01  2.11356E+00  2.14887E+00 -7.79986E-01 -5.97913E+00
  -9.66100E+00 -2.86064E+00 -4.11885E+00 -5.07537E+00  4.47957E+00  4.98982E+00 -6.71252E+00  1.32652E+01  1.70611E+01  7.89556E+00
   1.48717E+00  1.51987E+01  2.15086E+01  1.63326E+01  1.83032E+01  2.03078E+01  3.72190E+00  1.37976E+01  3.29201E+00  6.59910E+00
   8.88810E+00  1.58248E+01 -3.68899E-01  1.20600E+01  2.09918E+01  1.82486E+01  8.10030E+00  2.05500E+01 -4.99771E+00  5.48651E+00
   3.72466E+00  8.19331E+00  1.24589E+01  2.08965E+01  1.49638E+01  1.87037E+01  2.53947E+01  2.98802E+01  3.83061E+01  2.53358E+01
   1.88235E+01  1.16796E+00 -1.78459E+00  9.52936E+00  9.28227E+00  1.39282E+01  1.40105E+01  1.32962E+01  1.86430E+01  2.13334E+01
   2.38600E+01  2.97509E+01  2.83277E+01  2.64251E+01  2.67110E+01  2.17845E+01  1.44264E+01  1.47682E+01  1.58525E+00  2.01016E+01
   3.00248E+01 -9.02013E-02  6.46264E+00  1.44930E+01  1.39239E+01  1.43575E+01  1.85192E+01  2.59301E+01  2.64913E+01  1.78809E+01
   3.52512E+00  1.39857E+01  2.40909E+01  1.68658E+01  3.15473E+01  5.50076E+01  8.52008E+01  9.41362E+01  9.82388E+01  1.33252E+02
   1.30466E+02  1.56339E+02  1.45317E+02  1.36699E+02  8.80650E+01  7.70332E+01  6.40014E+01  3.61838E+01  2.61975E+01  1.30736E+01
   1.54686E+01  1.39115E+00  2.74845E+00  1.79673E+01 -5.66908E+00 -1.85779E+01 -9.29480E+00 -1.51274E+01 -1.67204E+01 -7.91846E+00
  -1.82143E+01 -2.49835E+01 -2.61550E+01 -2.24441E+01 -3.71344E+01 -3.96655E+01 -3.63977E+01 -2.74859E+01 -3.45025E+01 -2.16700E+01
  -3.22695E+01 -2.73331E+01 -4.33601E+01 -4.07609E+01 -3.59990E+01 -4.81034E+01 -5.64838E+01 -3.03903E+01 -4.04443E+01 -4.58214E+01
  -6.19236E+01 -4.84395E+01 -5.75611E+01 -4.87898E+01 -4.99572E+01 -4.31706E+01 -4.55711E+01 -3.14999E+01 -3.88737E+01 -3.98549E+01
  -5.54172E+01 -3.88531E+01 -3.17704E+01 -3.31346E+01 -4.51655E+01 -4.95392E+01 -4.28215E+01 -4.24613E+01 -5.72453E+01 -5.13541E+01
  -4.87567E+01 -4.80817E+01 -4.71493E+01 -5.00577E+01 -6.26188E+01 -7.19341E+01 -5.55463E+01 -6.21715E+01 -6.84853E+01 -7.67952E+01
  -5.96334E+01 -3.93830E+01 -4.86328E+01 -4.97401E+01 -2.34622E+01 -2.90549E+01 -1.48046E+01 -6.27023E+00 -9.10206E+00 -9.72160E+00
  -2.05041E+00 -2.28151E+00  5.72548E+00  1.06225E+01  2.95460E+01  1.61432E+01  5.93906E+00 -2.29714E+00  2.19455E+01  1.87566E+01
   1.87974E+01  1.03676E+01  3.03317E+01  1.77641E+01  2.44789E+01  7.47763E+00  1.82404E+01  1.19381E+01  9.35219E+00  1.59400E+01
   4.37087E+00 -8.92189E+00 -1.03086E+01  8.47414E-01  2.52963E+00 -8.99133E+00 -5.30075E+00 -8.69702E+00 -1.58875E+01 -1.18537E+01
  -1.59472E+01 -1.24089E+01 -1.35316E+01 -6.29980E+00 -3.55131E+00 -1.06352E+01 -1.14787E+01 -1.28380E+01 -9.13430E-01 -1.73593E+01
  -1.62354E+01 -2.11025E+01 -9.19652E+00 -4.46190E+00 -1.72589E+01 -1.23282E+01 -6.61202E+00  1.10511E+01  1.15628E+00 -2.38445E+00
   4.95592E+00  6.78245E-01  4.71722E+00 -7.20058E+00  3.79793E+00  8.79514E+00  5.28253E+00  1.20809E+01  3.13640E+00  1.34906E+01
  -1.20566E+00  1.37049E+01  4.37114E+00  2.15569E+00  8.27438E+00  9.61578E+00 -6.48448E+00  8.85118E+00  4.55533E+00  5.82615E-02
  -3.91459E+00 -3.94767E+00  3.51868E+00 -5.09083E+00 -1.04736E+01 -1.40548E+01 -2.11638E+01 -1.14027E+01 -1.12956E+01 -1.41994E+01
  -9.11971E+00  6.81387E+00 -2.01211E+01 -1.71755E+01  5.67128E-01 -1.54246E+01 -1.72819E+01 -1.94781E+01 -2.53107E+01 -2.27903E+01
  -8.99716E+00 -3.24122E+01 -1.94634E+01 -1.82592E+01 -9.95820E+00 -2.22906E+01 -1.05839E+01 -1.85897E+01 -1.12129E+01 -1.13824E+01
  -1.41157E+01 -1.21131E+01 -1.84821E+01 -1.96131E+01 -1.39931E+01 -2.58467E+01 -2.75806E+01 -1.58109E+01 -1.34361E+01 -9.44400E+00
  -1.02606E+01 -1.87498E+01 -8.71349E+00 -2.23284E+01 -1.84285E+01 -2.58468E+01 -2.61280E+01 -3.78703E+00 -2.53873E+01 -2.43895E+01
  -2.11132E+01 -1.12110E+01 -3.00591E+01 -4.56256E+00 -2.26450E+01 -1.80932E+01 -4.61881E+00 -2.39038E+01 -2.39817E+01 -1.03248E+01
  -1.92036E+01 -1.44746E+01 -9.41910E+00 -7.24013E+00 -1.58539E+01 -6.30417E+00 -1.61354E+01 -3.50285E+00 -1.31420E+01 -1.90382E+01
  -2.13446E+01 -1.76956E+01 -8.10257E+00 -2.96562E+01 -3.51425E+01 -1.28505E+01 -6.65870E+00 -6.17560E+00 -2.78365E+01 -2.42299E+01
  -2.81583E+01 -2.53782E+01 -1.45711E+01 -2.74620E+01 -2.21770E+01 -2.27834E+01 -1.24762E+01 -8.98335E+00
 NY points of the fit to the data follow
   1.11593E+02  1.09713E+02  1.08015E+02  1.06152E+02  1.03156E+02  1.00885E+02  1.01273E+02  1.04381E+02  1.09539E+02  1.16540E+02
   1.25187E+02  1.34298E+02  1.41722E+02  1.45434E+02  1.44756E+02  1.40628E+02  1.34825E+02  1.28385E+02  1.21344E+02  1.14104E+02
   1.07467E+02  1.02519E+02  9.98336E+01  9.79794E+01  9.61894E+01  9.44346E+01  9.29194E+01  9.21507E+01  9.25147E+01  9.40342E+01
   9.63681E+01  9.87900E+01  1.00419E+02  1.00894E+02  1.00199E+02  9.84510E+01  9.59635E+01  9.31295E+01  9.01990E+01  8.74019E+01
   8.51362E+01  8.36533E+01  8.31387E+01  8.35830E+01  8.48171E+01  8.65043E+01  8.83048E+01  8.98212E+01  9.05745E+01  9.03206E+01
   8.91285E+01  8.70884E+01  8.45618E+01  8.19813E+01  7.94965E+01  7.72128E+01  7.54329E+01  7.44434E+01  7.41820E+01  7.42630E+01
   7.43408E+01  7.41472E+01  7.35172E+01  7.24481E+01  7.10459E+01  6.95750E+01  6.82736E+01  6.72241E+01  6.64018E+01  6.58372E+01
   6.55484E+01  6.54411E+01  6.53934E+01  6.52336E+01  6.48642E+01  6.42740E+01  6.35222E+01  6.27066E+01  6.18950E+01  6.11626E+01
   6.05088E+01  5.98836E+01  5.92336E+01  5.84540E+01  5.74730E+01  5.62605E+01  5.48264E+01  5.32832E+01  5.18049E+01  5.05938E+01
   4.98247E+01  4.95016E+01  4.94752E+01  4.95068E+01  4.89324E+01  4.57632E+01  4.12908E+01  3.94331E+01  4.16576E+01  4.75830E+01
   5.70747E+01  7.02743E+01  8.59434E+01  1.00814E+02  1.10968E+02  1.14062E+02  1.10536E+02  1.02997E+02  9.39471E+01  8.41074E+01
   7.34030E+01  6.24923E+01  5.32438E+01  4.83109E+01  4.67649E+01  4.60745E+01  4.56045E+01  4.51528E+01  4.44284E+01  4.21989E+01
   3.77532E+01  3.45426E+01  3.51689E+01  3.97606E+01  4.77674E+01  5.91466E+01  7.33798E+01  8.83314E+01  1.00482E+02  1.06761E+02
   1.06349E+02  1.00867E+02  9.28953E+01  8.38254E+01  7.36472E+01  6.26293E+01  5.20770E+01  4.44666E+01  4.10827E+01  3.95848E+01
   3.87338E+01  3.81775E+01  3.77614E+01  3.74597E+01  3.72507E+01  3.70038E+01  3.66647E+01  3.61913E+01  3.54483E+01  3.44467E+01
   3.32922E+01  3.20467E+01  3.08755E+01  2.98934E+01  2.90568E+01  2.82983E+01  2.76373E+01  2.69783E+01  2.62403E+01  2.53009E+01
   2.41134E+01  2.28751E+01  2.19014E+01  2.12127E+01  2.05059E+01  1.95808E+01  1.84886E+01  1.74207E+01  1.66203E+01  1.60302E+01
   1.53035E+01  1.43640E+01  1.33929E+01  1.24940E+01  1.15633E+01  1.05703E+01  9.45234E+00  8.41667E+00  7.65893E+00  7.06851E+00
   6.26205E+00  5.23145E+00  4.42976E+00  4.17823E+00  4.43441E+00  4.97831E+00  5.66223E+00  6.60037E+00  7.98627E+00  9.74198E+00
   1.16184E+01  1.29948E+01  1.33929E+01  1.29060E+01  1.19817E+01  1.08216E+01  9.43040E+00  7.99685E+00  6.93566E+00  6.65241E+00
   7.16377E+00  8.47671E+00  1.03652E+01  1.21189E+01  1.31256E+01  1.31698E+01  1.19627E+01  9.26614E+00  5.25251E+00  1.38592E+00
  -1.13067E+00 -1.91216E+00 -8.72716E-01  2.08234E+00  6.69027E+00  1.16192E+01  1.50438E+01  1.58923E+01  1.42523E+01  1.05556E+01
   5.68471E+00  7.56112E-01 -3.21284E+00 -5.25711E+00 -4.82541E+00 -2.16001E+00  1.86429E+00  5.85526E+00  9.31486E+00  1.21553E+01
   1.42489E+01  1.54593E+01  1.59294E+01  1.62321E+01  1.70826E+01  1.84549E+01  1.96752E+01  2.03619E+01  2.04938E+01  2.02436E+01
   1.97081E+01  1.90526E+01  1.87260E+01  1.91100E+01  2.01842E+01  2.16805E+01  2.31594E+01  2.35273E+01  2.06431E+01  1.68223E+01
   1.59174E+01  1.85234E+01  2.16037E+01  2.55329E+01  3.58256E+01  5.35017E+01  7.46284E+01  9.50715E+01  1.13164E+02  1.28491E+02
   1.39997E+02  1.44845E+02  1.39876E+02  1.24878E+02  1.03581E+02  8.16138E+01  6.29052E+01  4.56682E+01  2.84105E+01  1.29970E+01
   2.98120E+00 -1.65234E+00 -4.47231E+00 -6.61642E+00 -8.47479E+00 -1.04020E+01 -1.24849E+01 -1.46298E+01 -1.67607E+01 -1.87864E+01
  -2.06449E+01 -2.23138E+01 -2.37594E+01 -2.49650E+01 -2.60084E+01 -2.69852E+01 -2.79738E+01 -2.90272E+01 -3.01082E+01 -3.11641E+01
  -3.21575E+01 -3.30274E+01 -3.37527E+01 -3.43540E+01 -3.48803E+01 -3.54103E+01 -3.59641E+01 -3.65465E+01 -3.71583E+01 -3.77881E+01
  -3.84197E+01 -3.90245E+01 -3.95494E+01 -3.99955E+01 -4.03867E+01 -4.07346E+01 -4.10433E+01 -4.13203E+01 -4.15825E+01 -4.18542E+01
  -4.21278E+01 -4.23903E+01 -4.26382E+01 -4.28673E+01 -4.30758E+01 -4.32625E+01 -4.34249E+01 -4.35605E+01 -4.36664E+01 -4.37386E+01
  -4.37723E+01 -4.37608E+01 -4.36961E+01 -4.35686E+01 -4.33673E+01 -4.30780E+01 -4.26835E+01 -4.21641E+01 -4.14973E+01 -4.06581E+01
  -3.96193E+01 -3.83520E+01 -3.68273E+01 -3.50180E+01 -3.29006E+01 -3.04572E+01 -2.76782E+01 -2.45668E+01 -2.11479E+01 -1.74717E+01
  -1.34886E+01 -9.13740E+00 -4.52241E+00  1.88841E-01  4.85175E+00  9.32873E+00  1.34215E+01  1.68098E+01  1.93090E+01  2.09760E+01
   2.19524E+01  2.23660E+01  2.23074E+01  2.18383E+01  2.10162E+01  1.98806E+01  1.84308E+01  1.66407E+01  1.44216E+01  1.17766E+01
   8.86243E+00  5.80357E+00  2.67336E+00 -4.64168E-01 -3.51082E+00 -6.29505E+00 -8.75161E+00 -1.09055E+01 -1.27684E+01 -1.43481E+01
  -1.56537E+01 -1.66961E+01 -1.74868E+01 -1.80373E+01 -1.83580E+01 -1.84576E+01 -1.83436E+01 -1.80221E+01 -1.74990E+01 -1.67798E+01
  -1.58710E+01 -1.47803E+01 -1.35178E+01 -1.20970E+01 -1.05347E+01 -8.85182E+00 -7.07293E+00 -5.22638E+00 -3.34398E+00 -1.46037E+00
   3.87991E-01  2.16416E+00  3.83192E+00  5.35692E+00  6.70786E+00  7.85765E+00  8.78460E+00  9.47326E+00  9.91477E+00  1.01068E+01
   1.00535E+01  9.76468E+00  9.25565E+00  8.54610E+00  7.65898E+00  6.61920E+00  5.45265E+00  4.18527E+00  2.84235E+00  1.44788E+00
   2.37469E-02 -1.41058E+00 -2.83817E+00 -4.24451E+00 -5.61735E+00 -6.94666E+00 -8.22457E+00 -9.44514E+00 -1.06040E+01 -1.16981E+01
  -1.27252E+01 -1.36844E+01 -1.45755E+01 -1.53993E+01 -1.61569E+01 -1.68498E+01 -1.74802E+01 -1.80502E+01 -1.85627E+01 -1.90207E+01
  -1.94272E+01 -1.97851E+01 -2.00975E+01 -2.03676E+01 -2.05984E+01 -2.07932E+01 -2.09547E+01 -2.10854E+01 -2.11880E+01 -2.12649E+01
  -2.13185E+01 -2.13509E+01 -2.13639E+01 -2.13593E+01 -2.13386E+01 -2.13035E+01 -2.12555E+01 -2.11957E+01 -2.11252E+01 -2.10449E+01
  -2.09559E+01 -2.08591E+01 -2.07555E+01 -2.06455E+01 -2.05297E+01 -2.04086E+01 -2.02827E+01 -2.01525E+01 -2.00183E+01 -1.98805E+01
  -1.97393E+01 -1.95949E+01 -1.94477E+01 -1.92980E+01 -1.91460E+01 -1.89917E+01 -1.88352E+01 -1.86769E+01 -1.85169E+01 -1.83554E+01
  -1.81923E+01 -1.80278E+01 -1.78619E+01 -1.76947E+01 -1.75266E+01 -1.73573E+01 -1.71870E+01 -1.70156E+01 -1.68432E+01 -1.66701E+01
  -1.64961E+01 -1.63214E+01 -1.61457E+01 -1.59692E+01 -1.57920E+01 -1.56141E+01 -1.54356E+01 -1.52563E+01 -1.50762E+01 -1.48953E+01
  -1.47138E+01 -1.45317E+01 -1.43490E+01 -1.41654E+01 -1.39811E+01 -1.37960E+01 -1.36103E+01 -1.34239E+01
 NY background values follow
     1.060E+02    1.054E+02    1.048E+02    1.042E+02    1.035E+02    1.029E+02    1.023E+02    1.017E+02    1.010E+02    1.004E+02
     9.980E+01    9.917E+01    9.855E+01    9.792E+01    9.730E+01    9.667E+01    9.605E+01    9.542E+01    9.480E+01    9.417E+01
     9.355E+01    9.292E+01    9.230E+01    9.168E+01    9.105E+01    9.043E+01    8.980E+01    8.918E+01    8.856E+01    8.794E+01
     8.731E+01    8.669E+01    8.607E+01    8.545E+01    8.483E+01    8.421E+01    8.358E+01    8.296E+01    8.235E+01    8.173E+01
     8.111E+01    8.049E+01    7.987E+01    7.926E+01    7.864E+01    7.802E+01    7.741E+01    7.679E+01    7.618E+01    7.557E+01
     7.495E+01    7.434E+01    7.373E+01    7.312E+01    7.251E+01    7.190E+01    7.130E+01    7.069E+01    7.009E+01    6.949E+01
     6.888E+01    6.828E+01    6.768E+01    6.709E+01    6.649E+01    6.590E+01    6.531E+01    6.471E+01    6.413E+01    6.354E+01
     6.295E+01    6.237E+01    6.179E+01    6.121E+01    6.063E+01    6.006E+01    5.948E+01    5.891E+01    5.834E+01    5.778E+01
     5.721E+01    5.665E+01    5.609E+01    5.554E+01    5.498E+01    5.443E+01    5.389E+01    5.334E+01    5.280E+01    5.226E+01
     5.172E+01    5.119E+01    5.066E+01    5.013E+01    4.960E+01    4.908E+01    4.856E+01    4.804E+01    4.753E+01    4.702E+01
     4.651E+01    4.600E+01    4.550E+01    4.500E+01    4.450E+01    4.401E+01    4.351E+01    4.302E+01    4.253E+01    4.205E+01
     4.156E+01    4.108E+01    4.060E+01    4.012E+01    3.964E+01    3.917E+01    3.870E+01    3.823E+01    3.776E+01    3.729E+01
     3.683E+01    3.637E+01    3.591E+01    3.545E+01    3.499E+01    3.453E+01    3.408E+01    3.363E+01    3.317E+01    3.272E+01
     3.228E+01    3.183E+01    3.138E+01    3.094E+01    3.050E+01    3.005E+01    2.961E+01    2.917E+01    2.873E+01    2.830E+01
     2.786E+01    2.742E+01    2.699E+01    2.655E+01    2.612E+01    2.569E+01    2.526E+01    2.482E+01    2.439E+01    2.396E+01
     2.353E+01    2.310E+01    2.268E+01    2.225E+01    2.182E+01    2.139E+01    2.097E+01    2.054E+01    2.011E+01    1.969E+01
     1.926E+01    1.883E+01    1.841E+01    1.798E+01    1.756E+01    1.713E+01    1.670E+01    1.628E+01    1.585E+01    1.542E+01
     1.499E+01    1.457E+01    1.414E+01    1.371E+01    1.328E+01    1.285E+01    1.242E+01    1.199E+01    1.156E+01    1.113E+01
     1.069E+01    1.026E+01    9.824E+00    9.389E+00    8.953E+00    8.515E+00    8.077E+00    7.638E+00    7.198E+00    6.756E+00
     6.314E+00    5.870E+00    5.425E+00    4.979E+00    4.532E+00    4.083E+00    3.633E+00    3.182E+00    2.729E+00    2.275E+00
     1.819E+00    1.362E+00    9.027E-01    4.421E-01   -2.003E-02   -4.839E-01   -9.495E-01   -1.417E+00   -1.886E+00   -2.357E+00
    -2.830E+00   -3.305E+00   -3.781E+00   -4.260E+00   -4.741E+00   -5.224E+00   -5.708E+00   -6.195E+00   -6.685E+00   -7.176E+00
    -7.670E+00   -8.166E+00   -8.664E+00   -9.165E+00   -9.668E+00   -1.017E+01   -1.068E+01   -1.119E+01   -1.170E+01   -1.222E+01
    -1.274E+01   -1.326E+01   -1.378E+01   -1.430E+01   -1.482E+01   -1.535E+01   -1.587E+01   -1.640E+01   -1.693E+01   -1.746E+01
    -1.798E+01   -1.851E+01   -1.904E+01   -1.957E+01   -2.010E+01   -2.063E+01   -2.116E+01   -2.169E+01   -2.221E+01   -2.274E+01
    -2.326E+01   -2.379E+01   -2.431E+01   -2.483E+01   -2.535E+01   -2.587E+01   -2.638E+01   -2.689E+01   -2.741E+01   -2.791E+01
    -2.842E+01   -2.892E+01   -2.942E+01   -2.992E+01   -3.041E+01   -3.090E+01   -3.139E+01   -3.187E+01   -3.235E+01   -3.283E+01
    -3.330E+01   -3.376E+01   -3.422E+01   -3.468E+01   -3.513E+01   -3.558E+01   -3.602E+01   -3.646E+01   -3.690E+01   -3.732E+01
    -3.775E+01   -3.816E+01   -3.857E+01   -3.898E+01   -3.938E+01   -3.977E+01   -4.016E+01   -4.055E+01   -4.092E+01   -4.129E+01
    -4.166E+01   -4.201E+01   -4.237E+01   -4.271E+01   -4.305E+01   -4.338E+01   -4.370E+01   -4.402E+01   -4.433E+01   -4.464E+01
    -4.493E+01   -4.522E+01   -4.550E+01   -4.578E+01   -4.604E+01   -4.630E+01   -4.655E+01   -4.680E+01   -4.703E+01   -4.726E+01
    -4.748E+01   -4.769E+01   -4.789E+01   -4.808E+01   -4.827E+01   -4.844E+01   -4.861E+01   -4.877E+01   -4.892E+01   -4.906E+01
    -4.919E+01   -4.932E+01   -4.943E+01   -4.954E+01   -4.964E+01   -4.973E+01   -4.981E+01   -4.988E+01   -4.995E+01   -5.001E+01
    -5.006E+01   -5.010E+01   -5.014E+01   -5.017E+01   -5.019E+01   -5.021E+01   -5.021E+01   -5.021E+01   -5.021E+01   -5.019E+01
    -5.017E+01   -5.015E+01   -5.011E+01   -5.007E+01   -5.003E+01   -4.998E+01   -4.992E+01   -4.986E+01   -4.979E+01   -4.971E+01
    -4.963E+01   -4.954E+01   -4.945E+01   -4.935E+01   -4.925E+01   -4.914E+01   -4.902E+01   -4.891E+01   -4.878E+01   -4.865E+01
    -4.852E+01   -4.838E+01   -4.824E+01   -4.809E+01   -4.794E+01   -4.778E+01   -4.762E+01   -4.746E+01   -4.729E+01   -4.712E+01
    -4.694E+01   -4.676E+01   -4.658E+01   -4.639E+01   -4.620E+01   -4.601E+01   -4.581E+01   -4.561E+01   -4.540E+01   -4.519E+01
    -4.498E+01   -4.477E+01   -4.455E+01   -4.433E+01   -4.411E+01   -4.388E+01   -4.365E+01   -4.342E+01   -4.318E+01   -4.295E+01
    -4.271E+01   -4.247E+01   -4.222E+01   -4.198E+01   -4.173E+01   -4.148E+01   -4.122E+01   -4.097E+01   -4.071E+01   -4.046E+01
    -4.020E+01   -3.993E+01   -3.967E+01   -3.941E+01   -3.914E+01   -3.887E+01   -3.861E+01   -3.834E+01   -3.806E+01   -3.779E+01
    -3.752E+01   -3.725E+01   -3.697E+01   -3.670E+01   -3.642E+01   -3.614E+01   -3.587E+01   -3.559E+01   -3.531E+01   -3.503E+01
    -3.475E+01   -3.447E+01   -3.419E+01   -3.391E+01   -3.363E+01   -3.335E+01   -3.307E+01   -3.279E+01   -3.251E+01   -3.224E+01
    -3.196E+01   -3.168E+01   -3.140E+01   -3.112E+01   -3.085E+01   -3.057E+01   -3.029E+01   -3.002E+01   -2.974E+01   -2.947E+01
    -2.920E+01   -2.893E+01   -2.866E+01   -2.839E+01   -2.812E+01   -2.785E+01   -2.759E+01   -2.733E+01   -2.706E+01   -2.680E+01
    -2.654E+01   -2.629E+01   -2.603E+01   -2.578E+01   -2.553E+01   -2.528E+01   -2.503E+01   -2.478E+01   -2.454E+01   -2.429E+01
    -2.405E+01   -2.381E+01   -2.357E+01   -2.333E+01   -2.309E+01   -2.286E+01   -2.262E+01   -2.239E+01   -2.216E+01   -2.193E+01
    -2.170E+01   -2.147E+01   -2.124E+01   -2.102E+01   -2.079E+01   -2.057E+01   -2.034E+01   -2.012E+01   -1.990E+01   -1.967E+01
    -1.945E+01   -1.923E+01   -1.901E+01   -1.879E+01   -1.857E+01   -1.835E+01   -1.814E+01   -1.792E+01   -1.770E+01   -1.748E+01
    -1.727E+01   -1.705E+01   -1.683E+01   -1.662E+01   -1.640E+01   -1.618E+01   -1.597E+01   -1.575E+01
 Asp      Conc. = 4.68E+02
