 LCModel (Version 6.3-1L) Copyright: S.W. Provencher.          Ref.: Magn. Reson. Med. 30:672-679 (1993).                
 Slice#3 Row#8 Col#1  PD_05_press_2_raw_act
 36 lines in following concentration table = NCONC+1
    Conc.  %SD /Cr+PCr  Metabolite                                         
  405.791 158%   0.517 Ala                                                 
  116.940  32%   0.149 Asp                                                 
    0.000 999%   0.000 Cr                                                  
  784.355  17%   1.000 PCr                                                 
   63.907  36% 8.1E-02 GABA                                                
   65.175  35% 8.3E-02 Glc                                                 
    0.000 999%   0.000 Gln                                                 
 1.84E+03  61%   2.340 Glu                                                 
  273.101  21%   0.348 GPC                                                 
    0.000 999%   0.000 PCh                                                 
    0.000 999%   0.000 GSH                                                 
 2.16E+03  28%   2.750 Ins                                                 
 2.38E+03  31%   3.031 Lac                                                 
    0.000 999%   0.000 NAA                                                 
  583.982  21%   0.745 NAAG                                                
   22.803  34% 2.9E-02 Scyllo                                              
  105.102  36%   0.134 Tau                                                 
   78.062  19%   0.100 -CrCH2                                              
  273.101  21%   0.348 GPC+PCh                                             
  583.982  21%   0.745 NAA+NAAG                                            
  784.355  17%   1.000 Cr+PCr                                              
 1.84E+03  61%   2.340 Glu+Gln                                             
    0.000 999%   0.000 Lip13a                                              
    0.000 999%   0.000 Lip13b                                              
    0.000 999%   0.000 Lip09                                               
  159.663  84%   0.204 MM09                                                
    0.000 999%   0.000 Lip20                                               
    0.000 999%   0.000 MM20                                                
   48.823 169% 6.2E-02 MM12                                                
 1.17E+03  17%   1.487 MM14                                                
    0.000 999%   0.000 MM17                                                
    0.000 999%   0.000 Lip13a+Lip13b                                       
 1.22E+03  19%   1.550 MM14+Lip13a+Lip13b+MM12                             
  159.663  84%   0.204 MM09+Lip09                                          
    0.000 999%   0.000 MM20+Lip20                                          
   6 lines in following misc. output table
  FWHM = 0.168 ppm    S/N =   2                                            
  Data shift =-0.008 ppm                                                   
  Ph:  73 deg      19.7 deg/ppm                                            
  alphaB,S = 1.8E+00,   8.8E+01                                            
    9 spline knots.   Ns = 9(2)                                            
  (11) 5 infls.   ( 6) 3 extrs.                                            
  498 points on ppm-axis = NY
      4.000000     3.992357     3.984714     3.977070     3.969427     3.961784     3.954141     3.946497     3.938854     3.931211
      3.923568     3.915925     3.908281     3.900638     3.892995     3.885352     3.877708     3.870065     3.862422     3.854779
      3.847136     3.839492     3.831849     3.824206     3.816563     3.808919     3.801276     3.793633     3.785990     3.778347
      3.770703     3.763060     3.755417     3.747774     3.740130     3.732487     3.724844     3.717201     3.709558     3.701914
      3.694271     3.686628     3.678985     3.671341     3.663698     3.656055     3.648412     3.640769     3.633125     3.625482
      3.617839     3.610196     3.602552     3.594909     3.587266     3.579623     3.571980     3.564336     3.556693     3.549050
      3.541407     3.533763     3.526120     3.518477     3.510834     3.503191     3.495547     3.487904     3.480261     3.472618
      3.464974     3.457331     3.449688     3.442045     3.434402     3.426758     3.419115     3.411472     3.403829     3.396185
      3.388542     3.380899     3.373256     3.365613     3.357969     3.350326     3.342683     3.335040     3.327396     3.319753
      3.312110     3.304467     3.296824     3.289180     3.281537     3.273894     3.266251     3.258607     3.250964     3.243321
      3.235678     3.228034     3.220391     3.212748     3.205105     3.197462     3.189818     3.182175     3.174532     3.166889
      3.159245     3.151602     3.143959     3.136316     3.128673     3.121029     3.113386     3.105743     3.098100     3.090456
      3.082813     3.075170     3.067527     3.059884     3.052240     3.044597     3.036954     3.029311     3.021667     3.014024
      3.006381     2.998738     2.991095     2.983451     2.975808     2.968165     2.960522     2.952878     2.945235     2.937592
      2.929949     2.922306     2.914662     2.907019     2.899376     2.891733     2.884089     2.876446     2.868803     2.861160
      2.853517     2.845873     2.838230     2.830587     2.822944     2.815300     2.807657     2.800014     2.792371     2.784728
      2.777084     2.769441     2.761798     2.754155     2.746511     2.738868     2.731225     2.723582     2.715939     2.708295
      2.700652     2.693009     2.685366     2.677722     2.670079     2.662436     2.654793     2.647150     2.639506     2.631863
      2.624220     2.616577     2.608933     2.601290     2.593647     2.586004     2.578361     2.570717     2.563074     2.555431
      2.547788     2.540144     2.532501     2.524858     2.517215     2.509572     2.501928     2.494285     2.486642     2.478999
      2.471355     2.463712     2.456069     2.448426     2.440783     2.433139     2.425496     2.417853     2.410210     2.402566
      2.394923     2.387280     2.379637     2.371994     2.364350     2.356707     2.349064     2.341421     2.333777     2.326134
      2.318491     2.310848     2.303205     2.295561     2.287918     2.280275     2.272632     2.264988     2.257345     2.249702
      2.242059     2.234416     2.226772     2.219129     2.211486     2.203843     2.196199     2.188556     2.180913     2.173270
      2.165627     2.157983     2.150340     2.142697     2.135054     2.127410     2.119767     2.112124     2.104481     2.096838
      2.089194     2.081551     2.073908     2.066265     2.058621     2.050978     2.043335     2.035692     2.028049     2.020405
      2.012762     2.005119     1.997476     1.989833     1.982190     1.974546     1.966903     1.959260     1.951617     1.943974
      1.936331     1.928688     1.921045     1.913402     1.905759     1.898115     1.890472     1.882829     1.875186     1.867543
      1.859900     1.852257     1.844614     1.836971     1.829327     1.821684     1.814041     1.806398     1.798755     1.791112
      1.783469     1.775826     1.768183     1.760540     1.752896     1.745253     1.737610     1.729967     1.722324     1.714681
      1.707038     1.699395     1.691752     1.684108     1.676465     1.668822     1.661179     1.653536     1.645893     1.638250
      1.630607     1.622964     1.615321     1.607677     1.600034     1.592391     1.584748     1.577105     1.569462     1.561819
      1.554176     1.546533     1.538890     1.531246     1.523603     1.515960     1.508317     1.500674     1.493031     1.485388
      1.477745     1.470102     1.462458     1.454815     1.447172     1.439529     1.431886     1.424243     1.416600     1.408957
      1.401314     1.393671     1.386027     1.378384     1.370741     1.363098     1.355455     1.347812     1.340169     1.332526
      1.324883     1.317240     1.309596     1.301953     1.294310     1.286667     1.279024     1.271381     1.263738     1.256095
      1.248452     1.240808     1.233165     1.225522     1.217879     1.210236     1.202593     1.194950     1.187307     1.179664
      1.172021     1.164377     1.156734     1.149091     1.141448     1.133805     1.126162     1.118519     1.110876     1.103233
      1.095590     1.087946     1.080303     1.072660     1.065017     1.057374     1.049731     1.042088     1.034445     1.026802
      1.019158     1.011515     1.003872     0.996229     0.988586     0.980943     0.973300     0.965657     0.958014     0.950371
      0.942727     0.935084     0.927441     0.919798     0.912155     0.904512     0.896869     0.889226     0.881583     0.873940
      0.866296     0.858653     0.851010     0.843367     0.835724     0.828081     0.820438     0.812795     0.805152     0.797508
      0.789865     0.782222     0.774579     0.766936     0.759293     0.751650     0.744007     0.736364     0.728721     0.721077
      0.713434     0.705791     0.698148     0.690505     0.682862     0.675219     0.667576     0.659933     0.652290     0.644646
      0.637003     0.629360     0.621717     0.614074     0.606431     0.598788     0.591145     0.583502     0.575858     0.568215
      0.560572     0.552929     0.545286     0.537643     0.530000     0.522357     0.514714     0.507071     0.499427     0.491784
      0.484141     0.476498     0.468855     0.461212     0.453569     0.445925     0.438282     0.430639     0.422996     0.415353
      0.407710     0.400067     0.392424     0.384780     0.377137     0.369494     0.361851     0.354208     0.346565     0.338922
      0.331278     0.323635     0.315992     0.308349     0.300706     0.293063     0.285420     0.277777     0.270133     0.262490
      0.254847     0.247204     0.239561     0.231918     0.224275     0.216631     0.208988     0.201345
 NY phased data points follow
   1.38152E+02  1.37030E+02  1.32264E+02  1.31993E+02  1.31429E+02  1.24019E+02  1.26031E+02  1.14216E+02  1.21467E+02  1.19059E+02
   1.17431E+02  1.15415E+02  1.10644E+02  1.11160E+02  1.15644E+02  1.08244E+02  1.08800E+02  1.01584E+02  1.01640E+02  9.53107E+01
   1.00129E+02  9.95042E+01  9.76762E+01  9.15202E+01  9.37458E+01  8.87318E+01  8.76581E+01  8.95643E+01  9.16710E+01  8.49243E+01
   8.86479E+01  9.19706E+01  8.95285E+01  8.97725E+01  8.92498E+01  8.22860E+01  8.13153E+01  7.82706E+01  7.83243E+01  8.17652E+01
   8.19153E+01  7.87317E+01  7.23619E+01  7.07714E+01  7.05075E+01  7.37960E+01  7.04701E+01  7.20282E+01  7.43022E+01  6.97255E+01
   6.91045E+01  7.07508E+01  6.86269E+01  5.97858E+01  6.72218E+01  6.09390E+01  5.37739E+01  5.69690E+01  6.05547E+01  5.57875E+01
   5.68584E+01  5.68844E+01  4.84181E+01  5.39280E+01  4.97171E+01  4.98617E+01  4.77223E+01  5.56918E+01  4.72365E+01  4.23064E+01
   4.55733E+01  4.55786E+01  4.23390E+01  4.30056E+01  4.51199E+01  4.06190E+01  4.50454E+01  4.51230E+01  4.11553E+01  3.70430E+01
   4.04682E+01  3.49224E+01  3.84501E+01  4.08963E+01  4.01576E+01  4.25607E+01  3.91849E+01  3.59705E+01  3.64309E+01  3.44675E+01
   3.76694E+01  3.14718E+01  3.53045E+01  3.39433E+01  3.97169E+01  3.25053E+01  3.51329E+01  3.63587E+01  3.36100E+01  2.71037E+01
   2.80144E+01  3.01683E+01  2.86596E+01  3.00662E+01  3.48372E+01  3.03814E+01  3.46592E+01  3.42537E+01  3.80827E+01  3.40428E+01
   2.84228E+01  2.99070E+01  2.23843E+01  1.96576E+01  2.14186E+01  3.26595E+01  2.61407E+01  2.98694E+01  2.31952E+01  3.09453E+01
   2.39598E+01  2.61832E+01  2.74258E+01  1.80551E+01  2.47955E+01  2.36739E+01  1.90465E+01  2.62917E+01  2.60007E+01  2.74975E+01
   2.90029E+01  2.44467E+01  3.00658E+01  2.56555E+01  2.12661E+01  2.08466E+01  2.09837E+01  1.70184E+01  2.13883E+01  1.58433E+01
   1.36848E+01  1.60404E+01  1.47829E+01  1.68939E+01  7.85980E+00  1.47871E+01  1.14680E+01  1.77842E+01  1.10418E+01  1.74146E+01
   9.80913E+00  1.22538E+01  6.00230E+00  8.40875E+00  9.15414E+00  5.73052E+00  1.13248E+01  6.71352E+00  5.99701E+00  1.39782E+01
   5.37637E+00  1.20856E+01  1.20527E+00  1.54970E+00  8.29401E+00  2.36783E+00  1.13132E+01  1.17769E+01  9.87060E+00  6.51855E+00
   1.35432E+01  7.74740E+00  3.81993E+00  1.82663E+01  1.28686E+01  1.01683E+01  1.25239E+01  6.14255E+00  1.11941E+01  7.31632E+00
   1.34117E+01  9.47946E+00  1.45099E+01  1.00423E+01  1.41993E+01  1.21677E+01  1.05892E+01  5.12421E+00  1.84951E+01  1.05508E+01
   8.82562E+00  1.39665E+01  1.50239E+01  1.29243E+01  1.39329E+01  1.38226E+01  1.34613E+01  1.50825E+01  1.01046E+01  1.24327E+01
   9.73926E+00  2.88151E+00  7.08039E+00  4.65651E+00  1.50194E+01  1.34440E+00  3.77312E+00  6.40618E+00 -2.84884E+00 -4.28150E+00
  -7.41523E+00 -2.13951E+00  1.49211E+00 -3.00702E+00 -7.07513E+00 -7.88380E+00 -5.61818E+00 -4.19847E-01 -1.45693E+01 -5.25346E+00
  -8.90409E+00 -1.11234E+01 -1.17359E+01 -1.36921E+01 -1.00715E+01 -1.27411E+01 -1.21347E+01 -7.49205E+00 -6.65771E+00 -2.10909E+00
  -5.49792E+00 -1.11479E+01 -1.33994E+01 -8.75456E+00 -1.27081E+01 -1.55347E+01 -6.56290E+00 -1.28342E+01 -1.18545E+01 -1.08281E+01
  -1.39317E+01 -9.14805E+00 -1.49847E+01 -1.30066E+01 -1.23788E+01 -1.60081E+01 -1.12868E+01 -1.38346E+01 -1.56626E+01 -5.00827E+00
  -1.05501E+01 -1.26789E+01 -1.17968E+01 -1.42775E+01 -1.46020E+01 -1.57012E+01 -1.50061E+01 -1.18514E+01 -1.23250E+01 -7.92617E+00
  -7.60349E+00  1.26031E+00 -4.87184E+00 -1.20171E+00 -1.25249E+01 -1.14109E+01 -1.82890E+01 -1.88706E+01 -2.12250E+01 -1.94138E+01
  -1.95363E+01 -2.44190E+01 -2.26136E+01 -2.25609E+01 -1.97225E+01 -2.45572E+01 -2.02790E+01 -2.05980E+01 -2.18706E+01 -1.64343E+01
  -2.10445E+01 -2.05733E+01 -2.45154E+01 -2.99995E+01 -2.28092E+01 -2.30624E+01 -2.25630E+01 -2.60308E+01 -3.01296E+01 -2.96788E+01
  -2.15908E+01 -2.68970E+01 -2.96805E+01 -2.75602E+01 -2.22604E+01 -2.79537E+01 -2.38286E+01 -2.85783E+01 -2.36717E+01 -2.54942E+01
  -2.90243E+01 -2.51446E+01 -2.31424E+01 -2.17105E+01 -2.54875E+01 -3.09214E+01 -2.24262E+01 -2.61582E+01 -2.62888E+01 -2.68008E+01
  -3.08002E+01 -2.26015E+01 -2.12988E+01 -2.50520E+01 -2.84059E+01 -2.69819E+01 -2.82140E+01 -2.37786E+01 -2.42995E+01 -1.67437E+01
  -2.22895E+01 -1.78488E+01 -1.76368E+01 -1.80417E+01 -2.02802E+01 -1.88945E+01 -1.62754E+01 -1.49476E+01 -8.93097E+00 -1.40422E+01
  -6.76006E+00 -1.48326E+01 -1.58117E+01 -1.14618E+01 -1.65253E+01 -1.41619E+01 -1.70757E+01 -1.61337E+01 -1.24303E+01 -2.37885E+01
  -2.07625E+01 -1.94857E+01 -1.74537E+01 -1.99476E+01 -1.97269E+01 -2.22819E+01 -2.23729E+01 -2.08161E+01 -1.75433E+01 -2.23276E+01
  -1.90116E+01 -2.33822E+01 -1.90796E+01 -3.14799E+01 -2.93495E+01 -2.98280E+01 -3.54810E+01 -2.81581E+01 -3.60280E+01 -3.26586E+01
  -3.53768E+01 -3.36658E+01 -2.71253E+01 -2.71465E+01 -3.49395E+01 -3.18575E+01 -2.81178E+01 -2.14027E+01 -2.70824E+01 -2.61794E+01
  -2.68641E+01 -2.20934E+01 -2.37691E+01 -2.21007E+01 -2.07444E+01 -1.81111E+01 -2.44177E+01 -1.97010E+01 -2.00193E+01 -1.68801E+01
  -2.40260E+01 -2.11075E+01 -1.84037E+01 -2.54759E+01 -2.81186E+01 -2.49714E+01 -3.35778E+01 -2.48921E+01 -2.75714E+01 -3.08276E+01
  -2.73264E+01 -3.20264E+01 -3.04591E+01 -3.17535E+01 -2.85231E+01 -2.35836E+01 -2.53389E+01 -3.46432E+01 -2.18676E+01 -3.03342E+01
  -2.86345E+01 -2.81613E+01 -3.38679E+01 -3.12774E+01 -2.95267E+01 -3.04040E+01 -3.35034E+01 -2.85204E+01 -3.14711E+01 -3.05228E+01
  -3.04554E+01 -3.43066E+01 -2.88650E+01 -3.25496E+01 -3.27676E+01 -3.16335E+01 -2.68595E+01 -3.07244E+01 -3.02997E+01 -2.66649E+01
  -2.70589E+01 -2.90858E+01 -3.10434E+01 -2.58617E+01 -2.75004E+01 -3.48419E+01 -3.37562E+01 -3.10213E+01 -2.95102E+01 -3.13982E+01
  -3.04522E+01 -2.69617E+01 -3.39775E+01 -3.12221E+01 -2.69537E+01 -2.97111E+01 -2.92963E+01 -3.30132E+01 -2.84430E+01 -3.07679E+01
  -3.02994E+01 -3.09279E+01 -3.34462E+01 -3.31272E+01 -3.03175E+01 -3.42578E+01 -2.88011E+01 -3.26144E+01 -3.01131E+01 -2.65336E+01
  -3.00641E+01 -3.13752E+01 -2.89572E+01 -3.26946E+01 -3.43215E+01 -2.94549E+01 -3.31463E+01 -3.33318E+01 -3.44232E+01 -2.83089E+01
  -2.98608E+01 -3.22434E+01 -2.55234E+01 -3.23486E+01 -3.06935E+01 -3.13972E+01 -2.74028E+01 -3.32898E+01 -2.37720E+01 -3.01734E+01
  -2.72349E+01 -3.39201E+01 -3.70515E+01 -2.82439E+01 -2.60183E+01 -3.08368E+01 -2.78758E+01 -2.82015E+01 -3.22420E+01 -3.22784E+01
  -3.05430E+01 -3.45323E+01 -3.35701E+01 -3.20970E+01 -3.20913E+01 -2.72443E+01 -2.73280E+01 -3.06649E+01 -2.33640E+01 -3.13257E+01
  -2.87207E+01 -2.68855E+01 -2.72273E+01 -2.56117E+01 -2.79270E+01 -2.89914E+01 -2.76183E+01 -2.74808E+01
 NY points of the fit to the data follow
   1.30824E+02  1.29475E+02  1.27656E+02  1.25898E+02  1.24045E+02  1.22187E+02  1.20564E+02  1.18940E+02  1.17637E+02  1.16302E+02
   1.15293E+02  1.14113E+02  1.13297E+02  1.11925E+02  1.11115E+02  1.09199E+02  1.08246E+02  1.05714E+02  1.04583E+02  1.02046E+02
   1.00977E+02  9.87340E+01  9.77520E+01  9.57280E+01  9.48437E+01  9.29499E+01  9.20550E+01  9.02516E+01  8.93891E+01  8.79633E+01
   8.73525E+01  8.60382E+01  8.54848E+01  8.43333E+01  8.40254E+01  8.30556E+01  8.28934E+01  8.18182E+01  8.14822E+01  8.00743E+01
   7.93212E+01  7.77072E+01  7.67019E+01  7.51841E+01  7.42007E+01  7.29738E+01  7.22045E+01  7.13371E+01  7.08224E+01  7.01322E+01
   6.95781E+01  6.87103E+01  6.78631E+01  6.65133E+01  6.52960E+01  6.34969E+01  6.20785E+01  6.03468E+01  5.91876E+01  5.77959E+01
   5.69822E+01  5.57807E+01  5.51523E+01  5.39255E+01  5.33523E+01  5.20371E+01  5.14675E+01  5.01495E+01  4.95776E+01  4.82263E+01
   4.75843E+01  4.62934E+01  4.57694E+01  4.45300E+01  4.41026E+01  4.28104E+01  4.24058E+01  4.10661E+01  4.06542E+01  3.93737E+01
   3.89291E+01  3.77842E+01  3.74033E+01  3.65825E+01  3.68491E+01  3.60593E+01  3.62491E+01  3.53658E+01  3.56303E+01  3.46781E+01
   3.51706E+01  3.41551E+01  3.47895E+01  3.37481E+01  3.43516E+01  3.33093E+01  3.36302E+01  3.26493E+01  3.28109E+01  3.20075E+01
   3.23726E+01  3.18510E+01  3.27466E+01  3.23144E+01  3.33432E+01  3.27015E+01  3.33933E+01  3.23383E+01  3.23709E+01  3.15570E+01
   3.07571E+01  2.99483E+01  2.90112E+01  2.85924E+01  2.77987E+01  2.78361E+01  2.70098E+01  2.72673E+01  2.63243E+01  2.65878E+01
   2.56277E+01  2.57042E+01  2.49780E+01  2.50170E+01  2.44518E+01  2.48538E+01  2.45530E+01  2.56261E+01  2.53811E+01  2.66404E+01
   2.61330E+01  2.69984E+01  2.60167E+01  2.59492E+01  2.45629E+01  2.35791E+01  2.21729E+01  2.09962E+01  1.98209E+01  1.87504E+01
   1.78131E+01  1.68211E+01  1.60931E+01  1.52288E+01  1.47534E+01  1.41825E+01  1.39613E+01  1.37616E+01  1.36358E+01  1.34932E+01
   1.33634E+01  1.32055E+01  1.30350E+01  1.28593E+01  1.26849E+01  1.24929E+01  1.23276E+01  1.21197E+01  1.19536E+01  1.17550E+01
   1.15932E+01  1.13993E+01  1.12245E+01  1.10288E+01  1.08170E+01  1.06024E+01  1.03814E+01  1.01733E+01  9.94216E+00  9.74554E+00
   9.52031E+00  9.33138E+00  9.13611E+00  8.94501E+00  8.78225E+00  8.57545E+00  8.41404E+00  8.20565E+00  8.01503E+00  7.79999E+00
   7.55286E+00  7.32882E+00  7.06955E+00  6.83528E+00  6.60003E+00  6.36580E+00  6.16485E+00  5.95100E+00  5.76145E+00  5.51941E+00
   5.34534E+00  4.99324E+00  4.79513E+00  4.35858E+00  4.15207E+00  3.67063E+00  3.53538E+00  3.14300E+00  3.09126E+00  2.54306E+00
   2.54197E+00  1.93506E+00  1.97529E+00  1.24413E+00  1.22526E+00  4.29888E-01  4.83865E-01 -5.83828E-01 -6.03590E-01 -2.01422E+00
  -2.07385E+00 -3.52699E+00 -3.41433E+00 -4.56337E+00 -4.10775E+00 -4.73673E+00 -4.02586E+00 -4.50149E+00 -3.88868E+00 -4.72695E+00
  -4.54102E+00 -5.94713E+00 -6.22325E+00 -7.77264E+00 -8.14517E+00 -9.23819E+00 -9.32276E+00 -9.79530E+00 -9.63898E+00 -9.71875E+00
  -9.55918E+00 -9.57284E+00 -9.65715E+00 -9.62419E+00 -9.79000E+00 -9.64718E+00 -9.79801E+00 -9.60936E+00 -9.46421E+00 -9.35983E+00
  -9.55198E+00 -9.53721E+00 -9.86541E+00 -9.71394E+00 -9.90202E+00 -9.54022E+00 -9.68937E+00 -9.30272E+00 -9.54399E+00 -9.33960E+00
  -9.87995E+00 -9.92062E+00 -1.05288E+01 -1.06595E+01 -1.09312E+01 -1.09369E+01 -1.06514E+01 -1.05530E+01 -1.01610E+01 -1.01393E+01
  -1.01288E+01 -1.03489E+01 -1.10391E+01 -1.15281E+01 -1.27564E+01 -1.34047E+01 -1.46086E+01 -1.53533E+01 -1.63870E+01 -1.72242E+01
  -1.81414E+01 -1.89666E+01 -1.96871E+01 -2.03485E+01 -2.07600E+01 -2.12160E+01 -2.13020E+01 -2.16385E+01 -2.16928E+01 -2.19823E+01
  -2.20729E+01 -2.23429E+01 -2.24710E+01 -2.27116E+01 -2.28456E+01 -2.30649E+01 -2.31854E+01 -2.33934E+01 -2.35098E+01 -2.37187E+01
  -2.38366E+01 -2.40390E+01 -2.41479E+01 -2.43207E+01 -2.44130E+01 -2.45578E+01 -2.46371E+01 -2.47631E+01 -2.48401E+01 -2.49492E+01
  -2.50279E+01 -2.51162E+01 -2.51834E+01 -2.52394E+01 -2.52775E+01 -2.52877E+01 -2.52783E+01 -2.52190E+01 -2.51155E+01 -2.49226E+01
  -2.48488E+01 -2.46723E+01 -2.45642E+01 -2.43354E+01 -2.41890E+01 -2.39173E+01 -2.37745E+01 -2.33709E+01 -2.30788E+01 -2.26565E+01
  -2.22660E+01 -2.18119E+01 -2.12410E+01 -2.06511E+01 -1.98503E+01 -1.91049E+01 -1.81376E+01 -1.72751E+01 -1.61831E+01 -1.50877E+01
  -1.45660E+01 -1.45255E+01 -1.44677E+01 -1.50745E+01 -1.52889E+01 -1.64500E+01 -1.68074E+01 -1.77626E+01 -1.77122E+01 -1.92031E+01
  -1.90812E+01 -2.09776E+01 -2.05160E+01 -2.19118E+01 -2.08659E+01 -2.13442E+01 -1.98544E+01 -1.98842E+01 -1.86769E+01 -1.98973E+01
  -1.95828E+01 -2.24234E+01 -2.29523E+01 -2.67486E+01 -2.72919E+01 -3.02812E+01 -2.96834E+01 -3.08127E+01 -2.91434E+01 -2.90313E+01
  -2.69092E+01 -2.68283E+01 -2.49901E+01 -2.55465E+01 -2.44288E+01 -2.50219E+01 -2.44056E+01 -2.48026E+01 -2.46476E+01 -2.53598E+01
  -2.55844E+01 -2.64927E+01 -2.69576E+01 -2.77522E+01 -2.82234E+01 -2.85707E+01 -2.88038E+01 -2.89650E+01 -2.90849E+01 -2.91722E+01
  -2.92382E+01 -2.92836E+01 -2.93153E+01 -2.93317E+01 -2.93383E+01 -2.93324E+01 -2.93190E+01 -2.92951E+01 -2.92653E+01 -2.92267E+01
  -2.91842E+01 -2.91348E+01 -2.90838E+01 -2.90283E+01 -2.89739E+01 -2.89180E+01 -2.88662E+01 -2.88163E+01 -2.87737E+01 -2.87359E+01
  -2.87082E+01 -2.86878E+01 -2.86794E+01 -2.86796E+01 -2.86925E+01 -2.87140E+01 -2.87474E+01 -2.87881E+01 -2.88389E+01 -2.88946E+01
  -2.89579E+01 -2.90232E+01 -2.90932E+01 -2.91626E+01 -2.92341E+01 -2.93026E+01 -2.93712E+01 -2.94352E+01 -2.94980E+01 -2.95552E+01
  -2.96107E+01 -2.96604E+01 -2.97083E+01 -2.97506E+01 -2.97916E+01 -2.98274E+01 -2.98625E+01 -2.98930E+01 -2.99233E+01 -2.99496E+01
  -2.99762E+01 -2.99993E+01 -3.00232E+01 -3.00438E+01 -3.00655E+01 -3.00842E+01 -3.01041E+01 -3.01213E+01 -3.01397E+01 -3.01555E+01
  -3.01726E+01 -3.01871E+01 -3.02030E+01 -3.02163E+01 -3.02309E+01 -3.02428E+01 -3.02561E+01 -3.02666E+01 -3.02784E+01 -3.02875E+01
  -3.02977E+01 -3.03051E+01 -3.03137E+01 -3.03193E+01 -3.03261E+01 -3.03298E+01 -3.03345E+01 -3.03361E+01 -3.03386E+01 -3.03380E+01
  -3.03381E+01 -3.03351E+01 -3.03327E+01 -3.03270E+01 -3.03220E+01 -3.03135E+01 -3.03055E+01 -3.02940E+01 -3.02830E+01 -3.02684E+01
  -3.02541E+01 -3.02361E+01 -3.02184E+01 -3.01969E+01 -3.01755E+01 -3.01502E+01 -3.01250E+01 -3.00958E+01 -3.00665E+01 -3.00331E+01
  -2.99996E+01 -2.99619E+01 -2.99240E+01 -2.98817E+01 -2.98391E+01 -2.97920E+01 -2.97445E+01 -2.96925E+01 -2.96399E+01 -2.95826E+01
  -2.95246E+01 -2.94618E+01 -2.93982E+01 -2.93297E+01 -2.92601E+01 -2.91853E+01 -2.91094E+01 -2.90280E+01
 NY background values follow
     1.184E+02    1.172E+02    1.159E+02    1.147E+02    1.134E+02    1.122E+02    1.110E+02    1.097E+02    1.085E+02    1.073E+02
     1.060E+02    1.048E+02    1.036E+02    1.023E+02    1.011E+02    9.991E+01    9.869E+01    9.748E+01    9.627E+01    9.507E+01
     9.387E+01    9.267E+01    9.147E+01    9.028E+01    8.910E+01    8.792E+01    8.674E+01    8.557E+01    8.441E+01    8.324E+01
     8.209E+01    8.094E+01    7.980E+01    7.866E+01    7.753E+01    7.640E+01    7.528E+01    7.417E+01    7.307E+01    7.197E+01
     7.088E+01    6.980E+01    6.872E+01    6.765E+01    6.660E+01    6.554E+01    6.450E+01    6.347E+01    6.244E+01    6.143E+01
     6.042E+01    5.942E+01    5.843E+01    5.745E+01    5.648E+01    5.552E+01    5.457E+01    5.364E+01    5.271E+01    5.179E+01
     5.088E+01    4.999E+01    4.910E+01    4.823E+01    4.737E+01    4.652E+01    4.568E+01    4.486E+01    4.405E+01    4.325E+01
     4.246E+01    4.168E+01    4.092E+01    4.017E+01    3.944E+01    3.872E+01    3.801E+01    3.732E+01    3.664E+01    3.597E+01
     3.532E+01    3.469E+01    3.407E+01    3.346E+01    3.287E+01    3.229E+01    3.173E+01    3.119E+01    3.065E+01    3.014E+01
     2.963E+01    2.914E+01    2.866E+01    2.820E+01    2.774E+01    2.730E+01    2.688E+01    2.646E+01    2.605E+01    2.566E+01
     2.528E+01    2.491E+01    2.455E+01    2.420E+01    2.386E+01    2.353E+01    2.320E+01    2.289E+01    2.259E+01    2.230E+01
     2.201E+01    2.173E+01    2.146E+01    2.120E+01    2.095E+01    2.070E+01    2.046E+01    2.023E+01    2.000E+01    1.978E+01
     1.957E+01    1.936E+01    1.916E+01    1.896E+01    1.877E+01    1.858E+01    1.840E+01    1.822E+01    1.804E+01    1.787E+01
     1.770E+01    1.753E+01    1.737E+01    1.721E+01    1.706E+01    1.690E+01    1.675E+01    1.659E+01    1.644E+01    1.629E+01
     1.615E+01    1.600E+01    1.585E+01    1.570E+01    1.555E+01    1.541E+01    1.526E+01    1.511E+01    1.496E+01    1.480E+01
     1.465E+01    1.449E+01    1.433E+01    1.417E+01    1.401E+01    1.384E+01    1.367E+01    1.350E+01    1.332E+01    1.314E+01
     1.295E+01    1.276E+01    1.257E+01    1.237E+01    1.216E+01    1.195E+01    1.173E+01    1.151E+01    1.128E+01    1.104E+01
     1.080E+01    1.056E+01    1.031E+01    1.005E+01    9.788E+00    9.521E+00    9.250E+00    8.973E+00    8.692E+00    8.406E+00
     8.116E+00    7.822E+00    7.523E+00    7.221E+00    6.914E+00    6.604E+00    6.290E+00    5.972E+00    5.651E+00    5.326E+00
     4.999E+00    4.668E+00    4.334E+00    3.997E+00    3.658E+00    3.316E+00    2.971E+00    2.625E+00    2.275E+00    1.924E+00
     1.571E+00    1.215E+00    8.585E-01    4.998E-01    1.396E-01   -2.221E-01   -5.850E-01   -9.491E-01   -1.314E+00   -1.680E+00
    -2.047E+00   -2.415E+00   -2.783E+00   -3.152E+00   -3.521E+00   -3.890E+00   -4.259E+00   -4.629E+00   -4.998E+00   -5.367E+00
    -5.735E+00   -6.103E+00   -6.470E+00   -6.837E+00   -7.203E+00   -7.567E+00   -7.931E+00   -8.293E+00   -8.654E+00   -9.014E+00
    -9.372E+00   -9.728E+00   -1.008E+01   -1.044E+01   -1.079E+01   -1.113E+01   -1.148E+01   -1.182E+01   -1.216E+01   -1.250E+01
    -1.284E+01   -1.317E+01   -1.350E+01   -1.383E+01   -1.415E+01   -1.447E+01   -1.478E+01   -1.510E+01   -1.541E+01   -1.571E+01
    -1.601E+01   -1.631E+01   -1.660E+01   -1.689E+01   -1.718E+01   -1.746E+01   -1.774E+01   -1.801E+01   -1.828E+01   -1.855E+01
    -1.881E+01   -1.907E+01   -1.932E+01   -1.957E+01   -1.982E+01   -2.007E+01   -2.031E+01   -2.054E+01   -2.078E+01   -2.101E+01
    -2.124E+01   -2.146E+01   -2.168E+01   -2.189E+01   -2.211E+01   -2.232E+01   -2.252E+01   -2.273E+01   -2.293E+01   -2.312E+01
    -2.331E+01   -2.350E+01   -2.369E+01   -2.387E+01   -2.405E+01   -2.423E+01   -2.440E+01   -2.457E+01   -2.474E+01   -2.490E+01
    -2.507E+01   -2.522E+01   -2.538E+01   -2.553E+01   -2.568E+01   -2.583E+01   -2.597E+01   -2.611E+01   -2.625E+01   -2.638E+01
    -2.651E+01   -2.664E+01   -2.677E+01   -2.689E+01   -2.701E+01   -2.713E+01   -2.724E+01   -2.735E+01   -2.746E+01   -2.757E+01
    -2.767E+01   -2.778E+01   -2.787E+01   -2.797E+01   -2.806E+01   -2.816E+01   -2.824E+01   -2.833E+01   -2.841E+01   -2.849E+01
    -2.857E+01   -2.865E+01   -2.872E+01   -2.880E+01   -2.886E+01   -2.893E+01   -2.900E+01   -2.906E+01   -2.912E+01   -2.918E+01
    -2.923E+01   -2.929E+01   -2.934E+01   -2.939E+01   -2.943E+01   -2.948E+01   -2.952E+01   -2.956E+01   -2.960E+01   -2.964E+01
    -2.967E+01   -2.971E+01   -2.974E+01   -2.977E+01   -2.980E+01   -2.982E+01   -2.985E+01   -2.987E+01   -2.989E+01   -2.991E+01
    -2.993E+01   -2.995E+01   -2.996E+01   -2.998E+01   -2.999E+01   -3.000E+01   -3.001E+01   -3.002E+01   -3.003E+01   -3.004E+01
    -3.004E+01   -3.005E+01   -3.005E+01   -3.006E+01   -3.006E+01   -3.006E+01   -3.006E+01   -3.006E+01   -3.006E+01   -3.005E+01
    -3.005E+01   -3.005E+01   -3.004E+01   -3.004E+01   -3.003E+01   -3.002E+01   -3.002E+01   -3.001E+01   -3.000E+01   -3.000E+01
    -2.999E+01   -2.998E+01   -2.997E+01   -2.996E+01   -2.995E+01   -2.994E+01   -2.993E+01   -2.992E+01   -2.991E+01   -2.990E+01
    -2.989E+01   -2.988E+01   -2.987E+01   -2.986E+01   -2.985E+01   -2.985E+01   -2.984E+01   -2.983E+01   -2.982E+01   -2.981E+01
    -2.981E+01   -2.980E+01   -2.979E+01   -2.979E+01   -2.978E+01   -2.978E+01   -2.977E+01   -2.977E+01   -2.977E+01   -2.977E+01
    -2.976E+01   -2.976E+01   -2.977E+01   -2.977E+01   -2.977E+01   -2.977E+01   -2.978E+01   -2.978E+01   -2.979E+01   -2.980E+01
    -2.980E+01   -2.981E+01   -2.982E+01   -2.983E+01   -2.984E+01   -2.985E+01   -2.987E+01   -2.988E+01   -2.989E+01   -2.990E+01
    -2.992E+01   -2.993E+01   -2.994E+01   -2.996E+01   -2.997E+01   -2.998E+01   -3.000E+01   -3.001E+01   -3.002E+01   -3.004E+01
    -3.005E+01   -3.006E+01   -3.008E+01   -3.009E+01   -3.010E+01   -3.011E+01   -3.012E+01   -3.013E+01   -3.014E+01   -3.015E+01
    -3.016E+01   -3.017E+01   -3.018E+01   -3.018E+01   -3.019E+01   -3.020E+01   -3.020E+01   -3.020E+01   -3.020E+01   -3.020E+01
    -3.020E+01   -3.020E+01   -3.020E+01   -3.020E+01   -3.019E+01   -3.018E+01   -3.017E+01   -3.017E+01   -3.015E+01   -3.014E+01
    -3.013E+01   -3.011E+01   -3.009E+01   -3.007E+01   -3.005E+01   -3.003E+01   -3.000E+01   -2.998E+01   -2.995E+01   -2.992E+01
    -2.988E+01   -2.985E+01   -2.981E+01   -2.977E+01   -2.973E+01   -2.968E+01   -2.964E+01   -2.959E+01   -2.954E+01   -2.948E+01
    -2.943E+01   -2.937E+01   -2.931E+01   -2.924E+01   -2.917E+01   -2.910E+01   -2.903E+01   -2.895E+01
 Ala      Conc. = 4.06E+02
