 LCModel (Version 6.3-1L) Copyright: S.W. Provencher.          Ref.: Magn. Reson. Med. 30:672-679 (1993).                
 Slice#2 Row#9 Col#6  PD_05_press_2_raw_act
 36 lines in following concentration table = NCONC+1
    Conc.  %SD /Cr+PCr  Metabolite                                         
  468.429  54%   0.138 Ala                                                 
    0.000 999%   0.000 Asp                                                 
 2.56E+03  18%   0.753 Cr                                                  
  836.435  57%   0.247 PCr                                                 
    0.000 999%   0.000 GABA                                                
    0.000 999%   0.000 Glc                                                 
 2.67E+03  20%   0.786 Gln                                                 
 4.11E+03  14%   1.210 Glu                                                 
  875.911   5%   0.258 GPC                                                 
    0.000 999%   0.000 PCh                                                 
 1.58E+03  10%   0.466 GSH                                                 
 2.20E+03  24%   0.647 Ins                                                 
  369.282  74%   0.109 Lac                                                 
 5.73E+03   5%   1.690 NAA                                                 
  507.429  62%   0.150 NAAG                                                
   93.150  58% 2.7E-02 Scyllo                                              
    0.000 999%   0.000 Tau                                                 
    0.000 999%   0.000 -CrCH2                                              
  875.911   5%   0.258 GPC+PCh                                             
 6.24E+03   3%   1.839 NAA+NAAG                                            
 3.39E+03   4%   1.000 Cr+PCr                                              
 6.77E+03  13%   1.996 Glu+Gln                                             
 4.10E+03  30%   1.209 Lip13a                                              
    0.000 999%   0.000 Lip13b                                              
    0.000 999%   0.000 Lip09                                               
 4.75E+03  11%   1.399 MM09                                                
  640.459  74%   0.189 Lip20                                               
 9.81E+03  10%   2.892 MM20                                                
 1.89E+03  25%   0.556 MM12                                                
 5.03E+03  20%   1.484 MM14                                                
 4.32E+03  17%   1.274 MM17                                                
 4.10E+03  30%   1.209 Lip13a+Lip13b                                       
 1.10E+04  10%   3.248 MM14+Lip13a+Lip13b+MM12                             
 4.75E+03  11%   1.399 MM09+Lip09                                          
 1.05E+04   9%   3.081 MM20+Lip20                                          
   6 lines in following misc. output table
  FWHM = 0.054 ppm    S/N =  16                                            
  Data shift = 0.000 ppm                                                   
  Ph:  -4 deg       4.8 deg/ppm                                            
  alphaB,S = 2.1E+00,   1.6E+02                                            
   14 spline knots.   Ns = 8(1)                                            
  (14) 2 infls.   (15) 1 extrs.                                            
  498 points on ppm-axis = NY
      4.000000     3.992357     3.984714     3.977070     3.969427     3.961784     3.954141     3.946497     3.938854     3.931211
      3.923568     3.915925     3.908281     3.900638     3.892995     3.885352     3.877708     3.870065     3.862422     3.854779
      3.847136     3.839492     3.831849     3.824206     3.816563     3.808919     3.801276     3.793633     3.785990     3.778347
      3.770703     3.763060     3.755417     3.747774     3.740130     3.732487     3.724844     3.717201     3.709558     3.701914
      3.694271     3.686628     3.678985     3.671341     3.663698     3.656055     3.648412     3.640769     3.633125     3.625482
      3.617839     3.610196     3.602552     3.594909     3.587266     3.579623     3.571980     3.564336     3.556693     3.549050
      3.541407     3.533763     3.526120     3.518477     3.510834     3.503191     3.495547     3.487904     3.480261     3.472618
      3.464974     3.457331     3.449688     3.442045     3.434402     3.426758     3.419115     3.411472     3.403829     3.396185
      3.388542     3.380899     3.373256     3.365613     3.357969     3.350326     3.342683     3.335040     3.327396     3.319753
      3.312110     3.304467     3.296824     3.289180     3.281537     3.273894     3.266251     3.258607     3.250964     3.243321
      3.235678     3.228034     3.220391     3.212748     3.205105     3.197462     3.189818     3.182175     3.174532     3.166889
      3.159245     3.151602     3.143959     3.136316     3.128673     3.121029     3.113386     3.105743     3.098100     3.090456
      3.082813     3.075170     3.067527     3.059884     3.052240     3.044597     3.036954     3.029311     3.021667     3.014024
      3.006381     2.998738     2.991095     2.983451     2.975808     2.968165     2.960522     2.952878     2.945235     2.937592
      2.929949     2.922306     2.914662     2.907019     2.899376     2.891733     2.884089     2.876446     2.868803     2.861160
      2.853517     2.845873     2.838230     2.830587     2.822944     2.815300     2.807657     2.800014     2.792371     2.784728
      2.777084     2.769441     2.761798     2.754155     2.746511     2.738868     2.731225     2.723582     2.715939     2.708295
      2.700652     2.693009     2.685366     2.677722     2.670079     2.662436     2.654793     2.647150     2.639506     2.631863
      2.624220     2.616577     2.608933     2.601290     2.593647     2.586004     2.578361     2.570717     2.563074     2.555431
      2.547788     2.540144     2.532501     2.524858     2.517215     2.509572     2.501928     2.494285     2.486642     2.478999
      2.471355     2.463712     2.456069     2.448426     2.440783     2.433139     2.425496     2.417853     2.410210     2.402566
      2.394923     2.387280     2.379637     2.371994     2.364350     2.356707     2.349064     2.341421     2.333777     2.326134
      2.318491     2.310848     2.303205     2.295561     2.287918     2.280275     2.272632     2.264988     2.257345     2.249702
      2.242059     2.234416     2.226772     2.219129     2.211486     2.203843     2.196199     2.188556     2.180913     2.173270
      2.165627     2.157983     2.150340     2.142697     2.135054     2.127410     2.119767     2.112124     2.104481     2.096838
      2.089194     2.081551     2.073908     2.066265     2.058621     2.050978     2.043335     2.035692     2.028049     2.020405
      2.012762     2.005119     1.997476     1.989833     1.982190     1.974546     1.966903     1.959260     1.951617     1.943974
      1.936331     1.928688     1.921045     1.913402     1.905759     1.898115     1.890472     1.882829     1.875186     1.867543
      1.859900     1.852257     1.844614     1.836971     1.829327     1.821684     1.814041     1.806398     1.798755     1.791112
      1.783469     1.775826     1.768183     1.760540     1.752896     1.745253     1.737610     1.729967     1.722324     1.714681
      1.707038     1.699395     1.691752     1.684108     1.676465     1.668822     1.661179     1.653536     1.645893     1.638250
      1.630607     1.622964     1.615321     1.607677     1.600034     1.592391     1.584748     1.577105     1.569462     1.561819
      1.554176     1.546533     1.538890     1.531246     1.523603     1.515960     1.508317     1.500674     1.493031     1.485388
      1.477745     1.470102     1.462458     1.454815     1.447172     1.439529     1.431886     1.424243     1.416600     1.408957
      1.401314     1.393671     1.386027     1.378384     1.370741     1.363098     1.355455     1.347812     1.340169     1.332526
      1.324883     1.317240     1.309596     1.301953     1.294310     1.286667     1.279024     1.271381     1.263738     1.256095
      1.248452     1.240808     1.233165     1.225522     1.217879     1.210236     1.202593     1.194950     1.187307     1.179664
      1.172021     1.164377     1.156734     1.149091     1.141448     1.133805     1.126162     1.118519     1.110876     1.103233
      1.095590     1.087946     1.080303     1.072660     1.065017     1.057374     1.049731     1.042088     1.034445     1.026802
      1.019158     1.011515     1.003872     0.996229     0.988586     0.980943     0.973300     0.965657     0.958014     0.950371
      0.942727     0.935084     0.927441     0.919798     0.912155     0.904512     0.896869     0.889226     0.881583     0.873940
      0.866296     0.858653     0.851010     0.843367     0.835724     0.828081     0.820438     0.812795     0.805152     0.797508
      0.789865     0.782222     0.774579     0.766936     0.759293     0.751650     0.744007     0.736364     0.728721     0.721077
      0.713434     0.705791     0.698148     0.690505     0.682862     0.675219     0.667576     0.659933     0.652290     0.644646
      0.637003     0.629360     0.621717     0.614074     0.606431     0.598788     0.591145     0.583502     0.575858     0.568215
      0.560572     0.552929     0.545286     0.537643     0.530000     0.522357     0.514714     0.507071     0.499427     0.491784
      0.484141     0.476498     0.468855     0.461212     0.453569     0.445925     0.438282     0.430639     0.422996     0.415353
      0.407710     0.400067     0.392424     0.384780     0.377137     0.369494     0.361851     0.354208     0.346565     0.338922
      0.331278     0.323635     0.315992     0.308349     0.300706     0.293063     0.285420     0.277777     0.270133     0.262490
      0.254847     0.247204     0.239561     0.231918     0.224275     0.216631     0.208988     0.201345
 NY phased data points follow
   5.21958E+01  4.99363E+01  5.12495E+01  5.95988E+01  7.15913E+01  7.50336E+01  8.78506E+01  1.00346E+02  1.14410E+02  1.24386E+02
   1.26639E+02  1.28421E+02  1.13756E+02  1.05782E+02  1.01382E+02  9.13826E+01  7.07022E+01  8.36531E+01  7.47618E+01  7.08892E+01
   6.76234E+01  7.14409E+01  6.44739E+01  7.19022E+01  6.90287E+01  6.92755E+01  7.31053E+01  7.77221E+01  7.90739E+01  7.95639E+01
   7.42638E+01  8.38274E+01  7.47946E+01  6.75612E+01  5.84426E+01  5.95711E+01  6.83187E+01  6.22633E+01  6.00871E+01  5.39101E+01
   6.02055E+01  5.50718E+01  5.56858E+01  5.78156E+01  5.71322E+01  5.73597E+01  6.29862E+01  6.45826E+01  6.51381E+01  5.79931E+01
   5.99240E+01  4.39671E+01  4.21148E+01  4.89580E+01  4.85400E+01  4.43893E+01  4.96055E+01  5.17733E+01  4.75695E+01  3.86828E+01
   4.57410E+01  3.16493E+01  3.54984E+01  3.02218E+01  2.48534E+01  3.01703E+01  3.17623E+01  1.66710E+01  2.32212E+01  2.39084E+01
   3.71949E+01  3.47750E+01  3.82288E+01  3.38084E+01  3.62238E+01  2.81259E+01  3.47460E+01  2.86962E+01  3.30495E+01  2.79376E+01
   2.86106E+01  2.65699E+01  2.58896E+01  2.89654E+01  3.74732E+01  3.09013E+01  2.33210E+01  2.45459E+01  3.39326E+01  2.44660E+01
   2.21615E+01  2.76287E+01  3.01087E+01  2.84684E+01  2.69652E+01  3.57745E+01  3.67133E+01  4.06780E+01  4.75576E+01  5.93573E+01
   6.94879E+01  7.77875E+01  8.95240E+01  1.01922E+02  9.01528E+01  7.62291E+01  6.97556E+01  6.30993E+01  5.16764E+01  4.83529E+01
   4.53983E+01  3.14826E+01  3.41466E+01  2.40883E+01  2.70466E+01  3.30209E+01  3.43241E+01  3.11095E+01  3.59787E+01  3.00756E+01
   2.75909E+01  4.40003E+01  4.73961E+01  7.19944E+01  9.98888E+01  1.07340E+02  1.18600E+02  1.30728E+02  1.19682E+02  1.13994E+02
   8.48242E+01  7.44917E+01  6.27570E+01  4.92683E+01  4.51565E+01  3.19141E+01  2.66756E+01  2.83727E+01  2.77954E+01  1.64869E+01
   2.59996E+01  2.73729E+01  1.23790E+01  2.07395E+01  2.59523E+01  2.02699E+01  1.97969E+01  7.56354E+00  1.35947E+01  1.88284E+01
   1.51851E+01  1.50980E+01  1.79505E+01  1.43977E+01  2.05994E+01  7.18532E+00  1.69824E+01  1.03200E+01  5.33471E+00  1.06030E+01
   5.01460E+00  2.27139E+00  1.03993E+01  1.04619E+01  2.85301E+01  2.06978E+01  1.28168E+01  1.35520E+01  1.77952E+00  7.60891E+00
  -2.24801E+00 -1.17298E+01 -1.61984E+01 -1.94351E+01 -1.48192E+01 -2.00539E+01 -1.94084E+01 -2.48639E+01 -1.33503E+01 -1.41406E+01
  -1.98918E+01 -2.15580E+01 -1.44874E+01 -1.84415E+01 -1.83479E+01 -1.51997E+01 -4.27889E+00 -8.80947E+00  7.32082E+00  1.18593E+01
   7.40927E+00  1.34176E+01  7.65255E+00  1.60320E+01  9.75338E+00  3.87393E+00 -6.35526E-01  2.48715E-01 -4.82883E+00  8.42584E+00
   5.91693E+00  3.80819E+00  9.03739E+00  1.29148E+01  6.33130E+00  1.24414E+01  7.64574E+00 -2.86153E+00 -8.27464E-01 -8.01174E+00
  -4.96550E+00 -2.09116E+00  1.60452E+01  2.83497E+01  2.17840E+01  2.96029E+01  3.42476E+01  2.86329E+01  2.39176E+01  9.60350E+00
   1.07013E+01  3.95593E+00  2.91200E+00  5.42273E+00  8.12349E+00  1.28323E+01  1.33835E+01  2.31910E+01  2.47643E+01  2.07178E+01
   2.42455E+01  2.47748E+01  2.48177E+01  2.33915E+01  1.68209E+01  2.23990E+01  2.37572E+01  2.59659E+01  2.38224E+01  2.15348E+01
   1.55002E+01  2.39798E+01  2.91221E+01  2.22062E+01  2.77535E+01  3.34712E+01  3.39354E+01  3.81508E+01  3.49408E+01  4.40252E+01
   6.15662E+01  6.00322E+01  6.02020E+01  7.74374E+01  9.45555E+01  9.96422E+01  1.23217E+02  1.56298E+02  1.83875E+02  2.19717E+02
   2.28693E+02  2.10703E+02  1.76144E+02  1.43313E+02  1.21218E+02  9.33911E+01  7.30749E+01  5.45868E+01  4.41194E+01  4.09611E+01
   3.58501E+01  3.48299E+01  2.67552E+01  3.13278E+01  1.38345E+01  2.03171E+01  1.50974E+01  9.88239E+00  1.23188E+01  1.88682E+01
   1.70915E+01  1.07629E+01  1.89418E+01  1.16860E+01  7.45881E+00  1.96649E+01  1.72247E+01  1.92114E+01  1.08375E+01  1.74997E+01
   2.23078E+01  1.38293E+01  9.08803E+00  1.16526E+01  1.24134E+01  2.07630E+01  1.96150E+01  2.06430E+01  2.01625E+01  2.19532E+01
   1.10708E+01  2.26959E+01  2.61306E+01  2.37154E+01  2.89785E+01  2.66897E+01  2.45086E+01  2.61861E+01  3.38312E+01  3.52570E+01
   2.36041E+01  3.28333E+01  3.93692E+01  4.04425E+01  2.86877E+01  3.54742E+01  3.23916E+01  2.85537E+01  3.15848E+01  3.48500E+01
   2.67428E+01  2.66957E+01  2.22833E+01  3.17557E+01  3.67547E+01  2.39625E+01  2.44313E+01  3.12302E+01  2.41971E+01  2.38838E+01
   3.16493E+01  2.19892E+01  2.81625E+01  2.64907E+01  3.40123E+01  3.65242E+01  3.41871E+01  3.70191E+01  3.51192E+01  3.18751E+01
   3.44134E+01  4.14101E+01  3.44366E+01  3.69194E+01  3.61317E+01  4.32240E+01  4.20607E+01  4.06083E+01  3.13868E+01  3.17563E+01
   2.49178E+01  3.06324E+01  3.23949E+01  3.65333E+01  2.46821E+01  4.03289E+01  3.38994E+01  3.39194E+01  3.04163E+01  3.64031E+01
   2.44217E+01  2.56290E+01  3.70104E+01  2.18303E+01  3.26296E+01  2.59117E+01  4.11511E+01  2.72176E+01  3.35165E+01  3.12353E+01
   3.50475E+01  2.38129E+01  3.09822E+01  3.00827E+01  2.88600E+01  1.58003E+01  2.71476E+01  1.77647E+01  2.77181E+01  2.31907E+01
   2.52950E+01  2.21450E+01  2.32481E+01  1.44940E+01  1.63953E+01  2.16300E+01  2.00007E+01  2.35972E+01  2.57975E+01  2.26064E+01
   3.10051E+01  2.37246E+01  3.11246E+01  3.19939E+01  2.46662E+01  2.94086E+01  3.40793E+01  2.77456E+01  3.24183E+01  2.47112E+01
   3.63036E+01  2.31481E+01  3.56104E+01  2.55734E+01  3.48764E+01  2.62235E+01  2.88093E+01  3.52253E+01  3.18613E+01  3.24521E+01
   2.41880E+01  2.90641E+01  2.86874E+01  2.78837E+01  2.37483E+01  2.04940E+01  2.19434E+01  2.27948E+01  2.03858E+01  1.42807E+01
   1.12972E+01  1.32760E+01  1.60643E+01  1.24030E+01  1.74878E+01  1.49430E+01  1.33348E+01  1.74764E+01  1.83730E+01  4.34206E+00
   4.39944E+00  9.57747E+00  4.65781E+00  5.26159E+00  1.97487E+01  4.87131E+00  1.03678E+00  8.99784E-01  8.84937E+00  6.90268E+00
   4.84698E+00  1.75131E+01  7.74959E+00  1.47650E+01  4.67411E+00 -1.38608E+00  9.92347E+00  9.48265E+00  7.25859E+00  9.14435E+00
  -1.10086E-01  3.45426E-01  5.82441E+00  1.29457E+01  1.42638E+01  1.45999E+01  4.99521E+00  1.18154E+01  8.90867E+00  7.08822E+00
   1.06078E+01  5.54922E+00 -2.58374E+00 -2.36238E+00  1.13222E+01  9.16862E+00  2.67564E+00  5.09930E+00  1.53661E+01  6.06321E+00
   7.01421E+00  1.36070E+01  7.52262E+00  5.92516E+00  3.89738E+00  7.05330E+00  2.60985E+00  6.70286E-02  1.01343E+00  4.18251E+00
   1.06790E+00 -1.41016E+00  8.51326E+00  2.96877E+00  1.25452E+01  4.63536E+00  9.95754E+00  9.12188E+00  6.38882E+00  8.18692E+00
   3.85105E+00 -5.34214E+00 -1.32528E+00  8.51557E-01  7.01550E+00  6.67771E+00  8.12799E+00  1.54899E+01
 NY points of the fit to the data follow
   5.92091E+01  5.91904E+01  6.04044E+01  6.35778E+01  6.90708E+01  7.61439E+01  8.49813E+01  9.57565E+01  1.07335E+02  1.17251E+02
   1.22878E+02  1.22514E+02  1.16376E+02  1.06729E+02  9.64428E+01  8.73456E+01  7.99774E+01  7.41434E+01  6.92345E+01  6.50026E+01
   6.14053E+01  5.95157E+01  5.96252E+01  6.03572E+01  6.20194E+01  6.52456E+01  7.00047E+01  7.55993E+01  8.07496E+01  8.39685E+01
   8.43966E+01  8.21964E+01  7.80935E+01  7.26911E+01  6.65791E+01  6.06761E+01  5.56843E+01  5.19231E+01  4.94877E+01  4.89875E+01
   5.00197E+01  5.13894E+01  5.29586E+01  5.49178E+01  5.72047E+01  5.93745E+01  6.06473E+01  6.03521E+01  5.82926E+01  5.49432E+01
   5.12409E+01  4.80058E+01  4.55536E+01  4.39005E+01  4.29224E+01  4.23309E+01  4.20118E+01  4.20656E+01  4.23640E+01  4.24593E+01
   4.19871E+01  4.09200E+01  3.94616E+01  3.79728E+01  3.68182E+01  3.61385E+01  3.59008E+01  3.59567E+01  3.61255E+01  3.63060E+01
   3.64208E+01  3.63690E+01  3.60916E+01  3.55702E+01  3.48944E+01  3.41766E+01  3.34865E+01  3.28860E+01  3.24638E+01  3.21539E+01
   3.18023E+01  3.14475E+01  3.12229E+01  3.10217E+01  3.06164E+01  2.98348E+01  2.86655E+01  2.73071E+01  2.61490E+01  2.54852E+01
   2.53175E+01  2.54867E+01  2.58129E+01  2.61605E+01  2.66829E+01  2.87449E+01  3.32355E+01  3.89348E+01  4.63108E+01  5.67981E+01
   7.01950E+01  8.39811E+01  9.44936E+01  9.81980E+01  9.37959E+01  8.34458E+01  7.10875E+01  5.97357E+01  5.04817E+01  4.32630E+01
   3.75534E+01  3.26325E+01  2.81491E+01  2.50995E+01  2.41047E+01  2.38356E+01  2.38347E+01  2.41110E+01  2.52068E+01  2.93394E+01
   3.68759E+01  4.60617E+01  5.78161E+01  7.37856E+01  9.31295E+01  1.12219E+02  1.25961E+02  1.29842E+02  1.22989E+02  1.08885E+02
   9.25112E+01  7.71711E+01  6.36974E+01  5.20266E+01  4.19780E+01  3.34489E+01  2.67707E+01  2.36711E+01  2.39300E+01  2.50001E+01
   2.57251E+01  2.56734E+01  2.49516E+01  2.39627E+01  2.28893E+01  2.17608E+01  2.05896E+01  1.93437E+01  1.80383E+01  1.67571E+01
   1.55480E+01  1.45802E+01  1.38273E+01  1.31288E+01  1.24917E+01  1.19470E+01  1.13486E+01  1.05849E+01  9.54950E+00  8.34292E+00
   7.36469E+00  6.95725E+00  7.06071E+00  7.26821E+00  7.08185E+00  6.23572E+00  4.85817E+00  3.28786E+00  1.78401E+00  4.92436E-01
  -4.94555E-01 -1.52107E+00 -2.82421E+00 -4.34810E+00 -5.68964E+00 -6.31440E+00 -6.27615E+00 -6.00165E+00 -5.89550E+00 -6.23864E+00
  -6.79443E+00 -7.01503E+00 -6.71375E+00 -5.94407E+00 -4.65295E+00 -2.70615E+00 -5.81244E-02  3.18736E+00  6.51839E+00  9.04181E+00
   1.00812E+01  9.40703E+00  7.40254E+00  5.00001E+00  3.06138E+00  2.20700E+00  2.87675E+00  4.96909E+00  8.10564E+00  1.18349E+01
   1.54951E+01  1.83778E+01  1.96385E+01  1.91012E+01  1.66245E+01  1.19964E+01  5.82678E+00 -3.00225E-01 -4.64238E+00 -6.08035E+00
  -4.53604E+00 -2.45514E-01  6.02831E+00  1.30063E+01  1.90853E+01  2.26243E+01  2.27661E+01  1.97255E+01  1.43116E+01  7.87295E+00
   1.88958E+00 -1.88101E+00 -2.43630E+00 -3.21443E-02  4.36513E+00  9.39461E+00  1.39182E+01  1.72379E+01  1.90321E+01  2.00408E+01
   2.08675E+01  2.19113E+01  2.33235E+01  2.48893E+01  2.63319E+01  2.75208E+01  2.84322E+01  2.89138E+01  2.86557E+01  2.76221E+01
   2.62738E+01  2.51852E+01  2.49876E+01  2.61237E+01  2.84292E+01  3.12079E+01  3.38305E+01  3.63624E+01  3.90304E+01  4.17345E+01
   4.47139E+01  4.89883E+01  5.80664E+01  7.31695E+01  8.98494E+01  1.08433E+02  1.32135E+02  1.61028E+02  1.90269E+02  2.12348E+02
   2.19173E+02  2.07188E+02  1.81125E+02  1.50160E+02  1.21349E+02  9.73932E+01  7.85212E+01  6.34150E+01  5.01608E+01  3.77313E+01
   2.87548E+01  2.50463E+01  2.31494E+01  2.17908E+01  2.06644E+01  1.96169E+01  1.85032E+01  1.73671E+01  1.62785E+01  1.52805E+01
   1.44065E+01  1.36783E+01  1.30754E+01  1.25731E+01  1.21811E+01  1.19086E+01  1.17487E+01  1.17021E+01  1.17870E+01  1.20239E+01
   1.24166E+01  1.29444E+01  1.35975E+01  1.43704E+01  1.52523E+01  1.62327E+01  1.73070E+01  1.84684E+01  1.97057E+01  2.10012E+01
   2.23295E+01  2.36594E+01  2.49606E+01  2.62004E+01  2.73471E+01  2.83733E+01  2.92575E+01  2.99849E+01  3.05454E+01  3.09334E+01
   3.11530E+01  3.12156E+01  3.11384E+01  3.09463E+01  3.06699E+01  3.03440E+01  3.00091E+01  2.97147E+01  2.95366E+01  2.95779E+01
   2.97370E+01  2.99112E+01  3.01816E+01  3.05264E+01  3.07128E+01  3.04456E+01  2.95319E+01  2.81363E+01  2.67009E+01  2.55738E+01
   2.50548E+01  2.53529E+01  2.65049E+01  2.83626E+01  3.06109E+01  3.27931E+01  3.45291E+01  3.57625E+01  3.65572E+01  3.70905E+01
   3.74957E+01  3.77544E+01  3.79552E+01  3.80871E+01  3.79370E+01  3.73594E+01  3.63147E+01  3.48702E+01  3.32746E+01  3.18116E+01
   3.08005E+01  3.04637E+01  3.08235E+01  3.17309E+01  3.29031E+01  3.39597E+01  3.46163E+01  3.48701E+01  3.48080E+01  3.44768E+01
   3.39924E+01  3.34253E+01  3.27941E+01  3.20708E+01  3.12212E+01  3.03481E+01  2.95250E+01  2.87130E+01  2.78967E+01  2.70765E+01
   2.62585E+01  2.54521E+01  2.46682E+01  2.39186E+01  2.32157E+01  2.25718E+01  2.19987E+01  2.15072E+01  2.11071E+01  2.08074E+01
   2.06158E+01  2.05381E+01  2.05789E+01  2.07403E+01  2.10230E+01  2.14254E+01  2.19439E+01  2.25720E+01  2.33008E+01  2.41185E+01
   2.50107E+01  2.59605E+01  2.69486E+01  2.79533E+01  2.89509E+01  2.99169E+01  3.08264E+01  3.16548E+01  3.23787E+01  3.29764E+01
   3.34293E+01  3.37224E+01  3.38450E+01  3.37909E+01  3.35590E+01  3.31524E+01  3.25793E+01  3.18519E+01  3.09861E+01  3.00006E+01
   2.89158E+01  2.77533E+01  2.65350E+01  2.52822E+01  2.40154E+01  2.27528E+01  2.15106E+01  2.03025E+01  1.91398E+01  1.80313E+01
   1.69834E+01  1.60000E+01  1.50832E+01  1.42333E+01  1.34494E+01  1.27295E+01  1.20707E+01  1.14695E+01  1.09220E+01  1.04242E+01
   9.97220E+00  9.56221E+00  9.19038E+00  8.85307E+00  8.54690E+00  8.26892E+00  8.01648E+00  7.78709E+00  7.57838E+00  7.38825E+00
   7.21489E+00  7.05679E+00  6.91258E+00  6.78096E+00  6.66064E+00  6.55056E+00  6.44985E+00  6.35780E+00  6.27372E+00  6.19686E+00
   6.12656E+00  6.06226E+00  6.00359E+00  5.95021E+00  5.90171E+00  5.85766E+00  5.81764E+00  5.78142E+00  5.74882E+00  5.71966E+00
   5.69366E+00  5.67050E+00  5.65000E+00  5.63206E+00  5.61661E+00  5.60351E+00  5.59251E+00  5.58342E+00  5.57615E+00  5.57070E+00
   5.56703E+00  5.56500E+00  5.56442E+00  5.56519E+00  5.56729E+00  5.57077E+00  5.57554E+00  5.58148E+00  5.58843E+00  5.59636E+00
   5.60531E+00  5.61530E+00  5.62625E+00  5.63802E+00  5.65052E+00  5.66377E+00  5.67784E+00  5.69272E+00  5.70829E+00  5.72443E+00
   5.74112E+00  5.75842E+00  5.77638E+00  5.79496E+00  5.81403E+00  5.83351E+00  5.85343E+00  5.87388E+00
 NY background values follow
     5.164E+01    5.132E+01    5.101E+01    5.069E+01    5.038E+01    5.006E+01    4.975E+01    4.943E+01    4.911E+01    4.880E+01
     4.848E+01    4.817E+01    4.785E+01    4.753E+01    4.722E+01    4.690E+01    4.659E+01    4.627E+01    4.596E+01    4.564E+01
     4.532E+01    4.501E+01    4.469E+01    4.438E+01    4.406E+01    4.375E+01    4.343E+01    4.311E+01    4.280E+01    4.248E+01
     4.217E+01    4.185E+01    4.154E+01    4.123E+01    4.091E+01    4.060E+01    4.028E+01    3.997E+01    3.966E+01    3.934E+01
     3.903E+01    3.872E+01    3.840E+01    3.809E+01    3.778E+01    3.747E+01    3.716E+01    3.685E+01    3.653E+01    3.622E+01
     3.591E+01    3.560E+01    3.529E+01    3.499E+01    3.468E+01    3.437E+01    3.406E+01    3.375E+01    3.345E+01    3.314E+01
     3.284E+01    3.253E+01    3.223E+01    3.192E+01    3.162E+01    3.132E+01    3.101E+01    3.071E+01    3.041E+01    3.011E+01
     2.981E+01    2.951E+01    2.922E+01    2.892E+01    2.862E+01    2.833E+01    2.803E+01    2.774E+01    2.744E+01    2.715E+01
     2.686E+01    2.657E+01    2.628E+01    2.599E+01    2.570E+01    2.541E+01    2.513E+01    2.484E+01    2.456E+01    2.428E+01
     2.399E+01    2.371E+01    2.343E+01    2.315E+01    2.288E+01    2.260E+01    2.232E+01    2.205E+01    2.178E+01    2.150E+01
     2.123E+01    2.096E+01    2.069E+01    2.043E+01    2.016E+01    1.990E+01    1.963E+01    1.937E+01    1.911E+01    1.885E+01
     1.859E+01    1.833E+01    1.807E+01    1.782E+01    1.756E+01    1.731E+01    1.706E+01    1.681E+01    1.656E+01    1.631E+01
     1.607E+01    1.582E+01    1.558E+01    1.534E+01    1.510E+01    1.486E+01    1.462E+01    1.438E+01    1.415E+01    1.392E+01
     1.368E+01    1.345E+01    1.322E+01    1.300E+01    1.277E+01    1.255E+01    1.232E+01    1.210E+01    1.188E+01    1.166E+01
     1.145E+01    1.123E+01    1.102E+01    1.081E+01    1.060E+01    1.039E+01    1.018E+01    9.974E+00    9.771E+00    9.568E+00
     9.368E+00    9.169E+00    8.972E+00    8.777E+00    8.583E+00    8.391E+00    8.201E+00    8.013E+00    7.826E+00    7.642E+00
     7.459E+00    7.278E+00    7.099E+00    6.921E+00    6.746E+00    6.572E+00    6.400E+00    6.230E+00    6.062E+00    5.896E+00
     5.732E+00    5.570E+00    5.410E+00    5.252E+00    5.096E+00    4.941E+00    4.789E+00    4.639E+00    4.491E+00    4.345E+00
     4.201E+00    4.059E+00    3.919E+00    3.781E+00    3.645E+00    3.512E+00    3.380E+00    3.250E+00    3.122E+00    2.996E+00
     2.873E+00    2.751E+00    2.630E+00    2.512E+00    2.396E+00    2.281E+00    2.169E+00    2.058E+00    1.949E+00    1.842E+00
     1.736E+00    1.632E+00    1.530E+00    1.430E+00    1.331E+00    1.234E+00    1.139E+00    1.045E+00    9.526E-01    8.620E-01
     7.730E-01    6.855E-01    5.996E-01    5.152E-01    4.324E-01    3.509E-01    2.710E-01    1.925E-01    1.155E-01    3.981E-02
    -3.445E-02   -1.073E-01   -1.789E-01   -2.490E-01   -3.179E-01   -3.855E-01   -4.517E-01   -5.167E-01   -5.805E-01   -6.430E-01
    -7.042E-01   -7.643E-01   -8.231E-01   -8.807E-01   -9.371E-01   -9.923E-01   -1.046E+00   -1.099E+00   -1.151E+00   -1.201E+00
    -1.251E+00   -1.299E+00   -1.346E+00   -1.392E+00   -1.437E+00   -1.481E+00   -1.524E+00   -1.566E+00   -1.606E+00   -1.646E+00
    -1.684E+00   -1.722E+00   -1.758E+00   -1.794E+00   -1.828E+00   -1.862E+00   -1.894E+00   -1.926E+00   -1.956E+00   -1.986E+00
    -2.014E+00   -2.042E+00   -2.069E+00   -2.095E+00   -2.119E+00   -2.143E+00   -2.167E+00   -2.189E+00   -2.210E+00   -2.231E+00
    -2.250E+00   -2.269E+00   -2.287E+00   -2.305E+00   -2.321E+00   -2.336E+00   -2.351E+00   -2.365E+00   -2.378E+00   -2.391E+00
    -2.402E+00   -2.413E+00   -2.423E+00   -2.433E+00   -2.441E+00   -2.449E+00   -2.456E+00   -2.463E+00   -2.469E+00   -2.474E+00
    -2.478E+00   -2.482E+00   -2.484E+00   -2.487E+00   -2.488E+00   -2.489E+00   -2.490E+00   -2.489E+00   -2.488E+00   -2.487E+00
    -2.484E+00   -2.481E+00   -2.478E+00   -2.474E+00   -2.469E+00   -2.464E+00   -2.458E+00   -2.451E+00   -2.444E+00   -2.437E+00
    -2.429E+00   -2.420E+00   -2.411E+00   -2.401E+00   -2.391E+00   -2.380E+00   -2.369E+00   -2.357E+00   -2.345E+00   -2.332E+00
    -2.319E+00   -2.305E+00   -2.291E+00   -2.276E+00   -2.261E+00   -2.245E+00   -2.229E+00   -2.212E+00   -2.196E+00   -2.178E+00
    -2.160E+00   -2.142E+00   -2.123E+00   -2.104E+00   -2.085E+00   -2.065E+00   -2.044E+00   -2.023E+00   -2.002E+00   -1.981E+00
    -1.959E+00   -1.936E+00   -1.914E+00   -1.891E+00   -1.867E+00   -1.843E+00   -1.819E+00   -1.795E+00   -1.770E+00   -1.745E+00
    -1.719E+00   -1.693E+00   -1.667E+00   -1.641E+00   -1.614E+00   -1.587E+00   -1.559E+00   -1.531E+00   -1.503E+00   -1.475E+00
    -1.446E+00   -1.418E+00   -1.388E+00   -1.359E+00   -1.329E+00   -1.299E+00   -1.269E+00   -1.238E+00   -1.208E+00   -1.177E+00
    -1.145E+00   -1.114E+00   -1.082E+00   -1.050E+00   -1.018E+00   -9.850E-01   -9.522E-01   -9.191E-01   -8.858E-01   -8.522E-01
    -8.184E-01   -7.844E-01   -7.501E-01   -7.156E-01   -6.808E-01   -6.458E-01   -6.106E-01   -5.751E-01   -5.395E-01   -5.035E-01
    -4.674E-01   -4.310E-01   -3.945E-01   -3.577E-01   -3.207E-01   -2.834E-01   -2.460E-01   -2.083E-01   -1.704E-01   -1.324E-01
    -9.408E-02   -5.559E-02   -1.690E-02    2.200E-02    6.110E-02    1.004E-01    1.399E-01    1.796E-01    2.195E-01    2.595E-01
     2.998E-01    3.402E-01    3.808E-01    4.216E-01    4.625E-01    5.036E-01    5.448E-01    5.862E-01    6.278E-01    6.695E-01
     7.113E-01    7.532E-01    7.953E-01    8.375E-01    8.798E-01    9.222E-01    9.648E-01    1.007E+00    1.050E+00    1.093E+00
     1.136E+00    1.179E+00    1.222E+00    1.265E+00    1.308E+00    1.352E+00    1.395E+00    1.438E+00    1.482E+00    1.525E+00
     1.569E+00    1.612E+00    1.656E+00    1.700E+00    1.743E+00    1.787E+00    1.831E+00    1.874E+00    1.918E+00    1.962E+00
     2.006E+00    2.049E+00    2.093E+00    2.137E+00    2.180E+00    2.224E+00    2.268E+00    2.311E+00    2.355E+00    2.398E+00
     2.442E+00    2.485E+00    2.529E+00    2.572E+00    2.616E+00    2.659E+00    2.703E+00    2.746E+00    2.790E+00    2.833E+00
     2.877E+00    2.920E+00    2.964E+00    3.007E+00    3.050E+00    3.094E+00    3.137E+00    3.181E+00    3.224E+00    3.267E+00
     3.311E+00    3.354E+00    3.397E+00    3.441E+00    3.484E+00    3.527E+00    3.571E+00    3.614E+00    3.658E+00    3.701E+00
     3.744E+00    3.788E+00    3.831E+00    3.874E+00    3.918E+00    3.961E+00    4.005E+00    4.048E+00
 Ala      Conc. = 4.68E+02
