 LCModel (Version 6.3-1L) Copyright: S.W. Provencher.          Ref.: Magn. Reson. Med. 30:672-679 (1993).                
 Slice#1 Row#4 Col#2  PD_05_press_2_raw_act
 36 lines in following concentration table = NCONC+1
    Conc.  %SD /Cr+PCr  Metabolite                                         
    0.000 999%   0.000 Ala                                                 
   43.635  26%   0.222 Asp                                                 
  196.611  20%   1.000 Cr                                                  
    0.000 999%   0.000 PCr                                                 
   26.122  26%   0.133 GABA                                                
   25.916  27%   0.132 Glc                                                 
   92.168 105%   0.469 Gln                                                 
  291.953  39%   1.485 Glu                                                 
   54.185  25%   0.276 GPC                                                 
    0.000 999%   0.000 PCh                                                 
    0.000 999%   0.000 GSH                                                 
    0.000 999%   0.000 Ins                                                 
   27.054 211%   0.138 Lac                                                 
  280.171  18%   1.425 NAA                                                 
  236.592  23%   1.203 NAAG                                                
    8.790  26% 4.5E-02 Scyllo                                              
   42.943  27%   0.218 Tau                                                 
   19.852  50%   0.101 -CrCH2                                              
   54.185  25%   0.276 GPC+PCh                                             
  516.763  16%   2.628 NAA+NAAG                                            
  196.611  20%   1.000 Cr+PCr                                              
  384.121  36%   1.954 Glu+Gln                                             
 1.25E+04  15%  63.542 Lip13a                                              
  141.673 376%   0.721 Lip13b                                              
 3.65E+03  25%  18.570 Lip09                                               
  771.787  64%   3.925 MM09                                                
 1.00E+03  70%   5.109 Lip20                                               
 3.43E+03  21%  17.444 MM20                                                
  270.362 165%   1.375 MM12                                                
 8.38E+03   7%  42.647+MM14                                                
    0.000 999%   0.000 MM17                                                
 1.26E+04  13%  64.263 Lip13a+Lip13b                                       
 2.13E+04   5% 108.286 MM14+Lip13a+Lip13b+MM12                             
 4.42E+03  15%  22.496 MM09+Lip09                                          
 4.43E+03  16%  22.553 MM20+Lip20                                          
   6 lines in following misc. output table
  FWHM = 0.054 ppm    S/N =   6                                            
  Data shift = 0.000 ppm                                                   
  Ph:  95 deg      68.9 deg/ppm                                            
  alphaB,S = 4.8E-01,   1.3E+01                                            
   14 spline knots.   Ns = 7(1)                                            
  ( 7) 5 infls.   ( 4) 2 extrs.                                            
  498 points on ppm-axis = NY
      4.000000     3.992357     3.984714     3.977070     3.969427     3.961784     3.954141     3.946497     3.938854     3.931211
      3.923568     3.915925     3.908281     3.900638     3.892995     3.885352     3.877708     3.870065     3.862422     3.854779
      3.847136     3.839492     3.831849     3.824206     3.816563     3.808919     3.801276     3.793633     3.785990     3.778347
      3.770703     3.763060     3.755417     3.747774     3.740130     3.732487     3.724844     3.717201     3.709558     3.701914
      3.694271     3.686628     3.678985     3.671341     3.663698     3.656055     3.648412     3.640769     3.633125     3.625482
      3.617839     3.610196     3.602552     3.594909     3.587266     3.579623     3.571980     3.564336     3.556693     3.549050
      3.541407     3.533763     3.526120     3.518477     3.510834     3.503191     3.495547     3.487904     3.480261     3.472618
      3.464974     3.457331     3.449688     3.442045     3.434402     3.426758     3.419115     3.411472     3.403829     3.396185
      3.388542     3.380899     3.373256     3.365613     3.357969     3.350326     3.342683     3.335040     3.327396     3.319753
      3.312110     3.304467     3.296824     3.289180     3.281537     3.273894     3.266251     3.258607     3.250964     3.243321
      3.235678     3.228034     3.220391     3.212748     3.205105     3.197462     3.189818     3.182175     3.174532     3.166889
      3.159245     3.151602     3.143959     3.136316     3.128673     3.121029     3.113386     3.105743     3.098100     3.090456
      3.082813     3.075170     3.067527     3.059884     3.052240     3.044597     3.036954     3.029311     3.021667     3.014024
      3.006381     2.998738     2.991095     2.983451     2.975808     2.968165     2.960522     2.952878     2.945235     2.937592
      2.929949     2.922306     2.914662     2.907019     2.899376     2.891733     2.884089     2.876446     2.868803     2.861160
      2.853517     2.845873     2.838230     2.830587     2.822944     2.815300     2.807657     2.800014     2.792371     2.784728
      2.777084     2.769441     2.761798     2.754155     2.746511     2.738868     2.731225     2.723582     2.715939     2.708295
      2.700652     2.693009     2.685366     2.677722     2.670079     2.662436     2.654793     2.647150     2.639506     2.631863
      2.624220     2.616577     2.608933     2.601290     2.593647     2.586004     2.578361     2.570717     2.563074     2.555431
      2.547788     2.540144     2.532501     2.524858     2.517215     2.509572     2.501928     2.494285     2.486642     2.478999
      2.471355     2.463712     2.456069     2.448426     2.440783     2.433139     2.425496     2.417853     2.410210     2.402566
      2.394923     2.387280     2.379637     2.371994     2.364350     2.356707     2.349064     2.341421     2.333777     2.326134
      2.318491     2.310848     2.303205     2.295561     2.287918     2.280275     2.272632     2.264988     2.257345     2.249702
      2.242059     2.234416     2.226772     2.219129     2.211486     2.203843     2.196199     2.188556     2.180913     2.173270
      2.165627     2.157983     2.150340     2.142697     2.135054     2.127410     2.119767     2.112124     2.104481     2.096838
      2.089194     2.081551     2.073908     2.066265     2.058621     2.050978     2.043335     2.035692     2.028049     2.020405
      2.012762     2.005119     1.997476     1.989833     1.982190     1.974546     1.966903     1.959260     1.951617     1.943974
      1.936331     1.928688     1.921045     1.913402     1.905759     1.898115     1.890472     1.882829     1.875186     1.867543
      1.859900     1.852257     1.844614     1.836971     1.829327     1.821684     1.814041     1.806398     1.798755     1.791112
      1.783469     1.775826     1.768183     1.760540     1.752896     1.745253     1.737610     1.729967     1.722324     1.714681
      1.707038     1.699395     1.691752     1.684108     1.676465     1.668822     1.661179     1.653536     1.645893     1.638250
      1.630607     1.622964     1.615321     1.607677     1.600034     1.592391     1.584748     1.577105     1.569462     1.561819
      1.554176     1.546533     1.538890     1.531246     1.523603     1.515960     1.508317     1.500674     1.493031     1.485388
      1.477745     1.470102     1.462458     1.454815     1.447172     1.439529     1.431886     1.424243     1.416600     1.408957
      1.401314     1.393671     1.386027     1.378384     1.370741     1.363098     1.355455     1.347812     1.340169     1.332526
      1.324883     1.317240     1.309596     1.301953     1.294310     1.286667     1.279024     1.271381     1.263738     1.256095
      1.248452     1.240808     1.233165     1.225522     1.217879     1.210236     1.202593     1.194950     1.187307     1.179664
      1.172021     1.164377     1.156734     1.149091     1.141448     1.133805     1.126162     1.118519     1.110876     1.103233
      1.095590     1.087946     1.080303     1.072660     1.065017     1.057374     1.049731     1.042088     1.034445     1.026802
      1.019158     1.011515     1.003872     0.996229     0.988586     0.980943     0.973300     0.965657     0.958014     0.950371
      0.942727     0.935084     0.927441     0.919798     0.912155     0.904512     0.896869     0.889226     0.881583     0.873940
      0.866296     0.858653     0.851010     0.843367     0.835724     0.828081     0.820438     0.812795     0.805152     0.797508
      0.789865     0.782222     0.774579     0.766936     0.759293     0.751650     0.744007     0.736364     0.728721     0.721077
      0.713434     0.705791     0.698148     0.690505     0.682862     0.675219     0.667576     0.659933     0.652290     0.644646
      0.637003     0.629360     0.621717     0.614074     0.606431     0.598788     0.591145     0.583502     0.575858     0.568215
      0.560572     0.552929     0.545286     0.537643     0.530000     0.522357     0.514714     0.507071     0.499427     0.491784
      0.484141     0.476498     0.468855     0.461212     0.453569     0.445925     0.438282     0.430639     0.422996     0.415353
      0.407710     0.400067     0.392424     0.384780     0.377137     0.369494     0.361851     0.354208     0.346565     0.338922
      0.331278     0.323635     0.315992     0.308349     0.300706     0.293063     0.285420     0.277777     0.270133     0.262490
      0.254847     0.247204     0.239561     0.231918     0.224275     0.216631     0.208988     0.201345
 NY phased data points follow
   8.31330E+01  8.01993E+01  7.28647E+01  6.95261E+01  6.99411E+01  6.34700E+01  7.73736E+01  8.11292E+01  8.23596E+01  8.66395E+01
   8.62403E+01  7.48502E+01  8.33242E+01  7.67414E+01  6.85896E+01  6.88415E+01  7.53502E+01  6.48439E+01  6.61002E+01  6.21210E+01
   5.80756E+01  4.88765E+01  5.80146E+01  4.94648E+01  5.53435E+01  5.20273E+01  6.01931E+01  4.42035E+01  4.90377E+01  5.60469E+01
   3.93619E+01  4.94086E+01  5.17469E+01  5.14841E+01  5.71522E+01  5.07518E+01  5.15125E+01  4.75875E+01  5.11301E+01  3.95804E+01
   4.59650E+01  4.53071E+01  2.75161E+01  3.47362E+01  5.00875E+01  3.30691E+01  3.92848E+01  3.62828E+01  3.66746E+01  4.13425E+01
   3.47886E+01  3.55108E+01  2.95262E+01  3.57208E+01  3.85152E+01  2.30177E+01  3.27945E+01  3.11941E+01  3.29498E+01  2.48364E+01
   2.37380E+01  1.91676E+01  2.61063E+01  2.68193E+01  2.50708E+01  1.98409E+01  1.50974E+01  1.82169E+01  2.34958E+01  1.65148E+01
   1.23425E+01  1.10119E+01  1.99561E+01  1.03764E+01  1.04105E+01  1.37424E+01  1.81869E+01  1.13005E+01  1.08367E+01  6.84854E+00
   9.37184E+00  1.52303E+01  7.10116E+00  1.25166E+01  1.22580E+01  1.20191E+01  6.92323E+00  1.31416E+01  3.55326E+00  2.35679E+00
   9.64892E-01  1.41652E+00  2.53294E-01 -5.21984E-01 -3.76853E+00  7.42069E+00  6.04811E+00 -4.99777E-01  1.08949E+01  8.94412E+00
   1.63227E+01  1.09872E+01  9.80245E+00  1.55776E+01  1.98038E+01  2.58311E+01  3.35291E+00 -6.24987E+00 -5.23002E+00 -4.22465E+00
  -2.10084E+01 -5.07150E+00  1.33114E+00  5.53393E+00  3.01481E+00 -5.37900E+00 -5.47149E-01  1.38082E+00 -1.19289E+01 -9.66876E+00
  -6.38094E+00 -1.01963E+01 -8.32255E+00  9.17985E+00  1.42013E+00  8.15026E+00  1.32227E+01  7.59004E+00  1.45115E+01  7.90763E+00
   7.00523E+00 -1.03868E+01 -1.17917E+01 -1.68106E+01 -2.46969E+01 -1.89503E+01 -1.46032E+01 -1.54701E+01 -1.96320E+01 -3.00981E+01
  -1.47958E+01 -2.23251E+01 -2.05016E+01 -2.20410E+01 -2.37287E+01 -1.60916E+01 -1.69366E+01 -2.80266E+01 -2.28582E+01 -2.11690E+01
  -2.09068E+01 -1.84397E+01 -2.96820E+01 -1.95144E+01 -2.30148E+01 -2.45192E+01 -2.86990E+01 -2.25515E+01 -1.22799E+01 -1.73729E+01
  -1.80584E+01 -3.60338E+01 -3.21265E+01 -2.89498E+01 -2.93021E+01 -2.22659E+01 -2.96487E+01 -1.67476E+01 -2.02528E+01 -2.41618E+01
  -3.96397E+01 -2.49513E+01 -3.59701E+01 -2.93151E+01 -4.22038E+01 -3.82687E+01 -3.96083E+01 -4.36004E+01 -3.05355E+01 -3.03804E+01
  -3.25329E+01 -2.70152E+01 -3.39002E+01 -3.49931E+01 -3.59756E+01 -3.67555E+01 -2.71329E+01 -3.03413E+01 -3.08708E+01 -2.98813E+01
  -2.56436E+01 -3.26773E+01 -3.47505E+01 -3.17693E+01 -3.06600E+01 -3.67874E+01 -3.38783E+01 -3.05535E+01 -3.36626E+01 -3.66264E+01
  -3.45598E+01 -2.86694E+01 -2.85490E+01 -2.38891E+01 -3.56703E+01 -4.00961E+01 -4.10956E+01 -5.03478E+01 -4.46486E+01 -4.05698E+01
  -2.95247E+01 -3.66045E+01 -3.82849E+01 -3.72568E+01 -1.86369E+01 -2.45060E+01 -3.36210E+01 -3.39115E+01 -4.39081E+01 -3.43835E+01
  -5.21637E+01 -4.17776E+01 -3.93126E+01 -2.68500E+01 -2.94575E+01 -3.10642E+01 -2.46301E+01 -2.77788E+01 -3.06849E+01 -2.79826E+01
  -3.22208E+01 -3.50933E+01 -3.72170E+01 -4.71710E+01 -2.87297E+01 -3.03517E+01 -2.82870E+01 -3.62613E+01 -2.66296E+01 -1.89566E+01
  -3.32093E+01 -2.51984E+01 -2.54799E+01 -1.58421E+01 -1.92422E+01 -1.98901E+01 -2.70850E+01 -1.76309E+01 -1.57012E+01 -1.51949E+01
  -1.31148E+01 -1.05920E+01 -1.20919E+01 -1.53551E+01 -1.62126E+01 -1.11937E-01 -8.52579E+00 -1.22352E+01 -1.76349E+01 -2.83637E+01
  -2.75700E+01 -3.64192E+01 -5.75704E+01 -6.22141E+01 -8.59838E+01 -6.73012E+01 -7.00141E+01 -6.26501E+01 -5.61084E+01 -4.83564E+01
  -4.60295E+01 -5.42836E+01 -5.32177E+01 -5.99196E+01 -5.56604E+01 -4.84875E+01 -5.54243E+01 -4.55261E+01 -4.98396E+01 -4.12211E+01
  -5.93906E+01 -4.89904E+01 -5.58746E+01 -5.10746E+01 -4.15073E+01 -5.26977E+01 -4.86410E+01 -4.21138E+01 -4.78839E+01 -4.61320E+01
  -4.42087E+01 -4.44543E+01 -4.08390E+01 -4.63298E+01 -4.08226E+01 -5.50164E+01 -4.87393E+01 -4.59324E+01 -5.29158E+01 -4.75905E+01
  -5.31748E+01 -4.63108E+01 -5.06299E+01 -5.11495E+01 -5.49958E+01 -5.14479E+01 -5.20256E+01 -5.03527E+01 -5.28147E+01 -4.61944E+01
  -5.03326E+01 -4.47276E+01 -4.01336E+01 -5.32972E+01 -3.90101E+01 -4.77571E+01 -4.20888E+01 -4.28696E+01 -3.63315E+01 -4.20040E+01
  -4.44777E+01 -4.40360E+01 -3.44750E+01 -3.57750E+01 -2.89265E+01 -1.72481E+01 -8.41116E+00 -8.06465E+00 -2.21192E+00  1.05767E+01
   1.03276E+01  1.11263E+01  2.59326E+01  2.87601E+01  3.29648E+01  2.20812E+01  3.57217E+01  3.72513E+01  3.27101E+01  4.76516E+01
   5.04329E+01  4.60568E+01  5.11661E+01  4.55391E+01  3.85684E+01  5.07816E+01  5.03686E+01  4.44653E+01  4.77025E+01  3.37627E+01
   3.99435E+01  3.38465E+01  4.74901E+01  4.18748E+01  3.30741E+01  4.01101E+01  3.08882E+01  2.90765E+01  2.24537E+01  2.45379E+01
   1.56970E+01  1.88410E+01  9.23134E+00  2.32932E+01  1.08005E+01  7.06518E+00 -2.94129E+00  1.13323E+01  8.53197E+00  5.79847E+00
  -2.62301E+00  4.28260E+00 -1.38580E+01  5.27217E-01 -4.79696E+00 -8.27930E-01 -1.73166E+00 -7.78063E+00 -9.36769E+00 -1.38347E+00
  -9.34576E+00 -1.05988E+01 -7.35489E+00 -1.33470E+01 -4.59432E+00 -3.02223E-01 -2.51804E+00 -8.19173E+00 -1.14127E+01 -1.03400E+01
   4.24491E+00  3.95674E+00 -1.71862E+01 -4.80818E+00 -1.45218E+01 -9.12918E+00  5.63102E-01 -1.04378E+01 -7.33044E+00 -6.31330E+00
   5.24137E+00 -5.15285E+00 -9.47961E+00 -3.11412E+00 -7.60334E+00  6.95223E+00  1.03343E+01  7.73786E+00 -2.52768E+00  2.37865E+00
  -3.31599E+00 -4.49972E+00 -2.63598E+00 -1.49039E+00  8.05383E+00  3.16968E+00  6.08936E+00  2.66738E+00  1.08052E+00 -1.17833E+00
   9.70757E-01 -2.19834E+00 -5.00292E+00 -1.45514E+00 -1.02454E+00  2.33018E+00  1.62608E+00  1.55093E+00  5.73304E+00  1.23928E+01
  -5.30495E+00  5.10891E+00  7.33416E+00 -9.92662E+00  5.71952E+00 -1.75593E+00 -5.96114E+00  6.10862E+00  4.05745E+00 -1.67831E+00
   7.37022E+00  9.39174E+00  5.94687E+00  9.62952E+00  1.83517E+00  9.89667E+00  7.60516E+00  1.05782E+01 -2.55472E-01  1.96609E+00
  -8.88066E+00  7.94953E+00  2.83851E-01  5.06058E+00  1.93212E+00  3.74122E+00 -1.48011E+00  3.79372E+00 -4.32843E+00  8.52897E+00
   3.74656E+00  3.55011E+00 -2.64701E+00  2.73664E+00  6.09168E+00  6.24993E+00 -3.65275E+00 -3.32083E+00 -4.66957E-01  1.48635E+00
   8.19209E+00  1.49939E+01  8.24376E+00  2.75786E+00  9.10934E+00  5.72668E+00  5.14533E-01 -5.96358E+00  4.85138E+00  5.11990E+00
   2.01334E+00  1.28771E+01 -1.69581E+00  2.61100E+00  7.45915E+00 -2.02179E+00  6.22223E-01  3.30819E+00  2.41435E+00  5.54202E+00
   3.98168E+00 -7.07494E-01  1.32729E+01  3.22246E+00 -2.19216E+00  9.12492E+00  5.46123E+00  2.12476E+00
 NY points of the fit to the data follow
   7.48745E+01  7.42288E+01  7.34180E+01  7.25300E+01  7.17777E+01  7.16996E+01  7.30338E+01  7.49154E+01  7.61348E+01  7.65073E+01
   7.65611E+01  7.65982E+01  7.60334E+01  7.36744E+01  6.90271E+01  6.29676E+01  5.71726E+01  5.31237E+01  5.15310E+01  5.22920E+01
   5.46549E+01  5.66913E+01  5.67294E+01  5.58101E+01  5.47839E+01  5.38884E+01  5.31778E+01  5.25921E+01  5.21565E+01  5.19339E+01
   5.18988E+01  5.18627E+01  5.15532E+01  5.07452E+01  4.91870E+01  4.68593E+01  4.43447E+01  4.25678E+01  4.19364E+01  4.23699E+01
   4.33453E+01  4.39815E+01  4.37234E+01  4.25978E+01  4.10142E+01  3.94122E+01  3.80743E+01  3.71893E+01  3.66211E+01  3.60245E+01
   3.53722E+01  3.47589E+01  3.40939E+01  3.32623E+01  3.23505E+01  3.14698E+01  3.05884E+01  2.97275E+01  2.89891E+01  2.83870E+01
   2.78164E+01  2.72173E+01  2.65974E+01  2.59526E+01  2.52680E+01  2.45413E+01  2.37962E+01  2.30471E+01  2.23488E+01  2.17483E+01
   2.11909E+01  2.06235E+01  2.00352E+01  1.94329E+01  1.88125E+01  1.81344E+01  1.73399E+01  1.64247E+01  1.54574E+01  1.47211E+01
   1.43427E+01  1.41574E+01  1.40070E+01  1.38079E+01  1.34415E+01  1.28455E+01  1.19985E+01  1.08277E+01  9.41540E+00  8.02449E+00
   6.88718E+00  6.10055E+00  5.68596E+00  5.55288E+00  5.54637E+00  5.50920E+00  5.83118E+00  7.79131E+00  1.09566E+01  1.35545E+01
   1.46996E+01  1.47655E+01  1.44824E+01  1.38302E+01  1.16990E+01  7.14103E+00  6.69203E-01 -5.95845E+00 -1.09288E+01 -1.32094E+01
  -1.26473E+01 -9.71572E+00 -6.08450E+00 -4.37215E+00 -4.26252E+00 -4.46086E+00 -4.71912E+00 -5.02509E+00 -5.32881E+00 -5.56173E+00
  -5.55070E+00 -4.45819E+00 -1.25528E+00  2.64874E+00  5.50597E+00  6.91710E+00  7.49203E+00  7.64780E+00  6.67920E+00  3.12103E+00
  -3.54181E+00 -1.19152E+01 -1.94957E+01 -2.43323E+01 -2.56929E+01 -2.37119E+01 -1.94426E+01 -1.55999E+01 -1.44117E+01 -1.43789E+01
  -1.46302E+01 -1.50362E+01 -1.55270E+01 -1.60196E+01 -1.64695E+01 -1.69108E+01 -1.73812E+01 -1.79424E+01 -1.86108E+01 -1.92899E+01
  -1.98816E+01 -2.03180E+01 -2.06245E+01 -2.09660E+01 -2.14537E+01 -2.20024E+01 -2.24601E+01 -2.27932E+01 -2.31107E+01 -2.36162E+01
  -2.43378E+01 -2.50935E+01 -2.56751E+01 -2.59964E+01 -2.61261E+01 -2.62353E+01 -2.64831E+01 -2.69966E+01 -2.77883E+01 -2.86118E+01
  -2.91320E+01 -2.92631E+01 -2.92098E+01 -2.93297E+01 -2.98731E+01 -3.06235E+01 -3.12552E+01 -3.14960E+01 -3.13482E+01 -3.10975E+01
  -3.11311E+01 -3.13958E+01 -3.15967E+01 -3.15910E+01 -3.13674E+01 -3.10358E+01 -3.09322E+01 -3.12393E+01 -3.18248E+01 -3.25080E+01
  -3.31250E+01 -3.37215E+01 -3.43706E+01 -3.51102E+01 -3.57789E+01 -3.61057E+01 -3.59484E+01 -3.55051E+01 -3.49758E+01 -3.44693E+01
  -3.42206E+01 -3.44326E+01 -3.50977E+01 -3.62622E+01 -3.78093E+01 -3.94573E+01 -4.10179E+01 -4.21233E+01 -4.24422E+01 -4.15677E+01
  -3.96064E+01 -3.71455E+01 -3.47809E+01 -3.29618E+01 -3.21175E+01 -3.28072E+01 -3.52043E+01 -3.87069E+01 -4.21175E+01 -4.43945E+01
  -4.52672E+01 -4.47179E+01 -4.25653E+01 -3.91156E+01 -3.54027E+01 -3.28128E+01 -3.16775E+01 -3.18456E+01 -3.30629E+01 -3.49712E+01
  -3.69281E+01 -3.80275E+01 -3.79262E+01 -3.71425E+01 -3.62549E+01 -3.55449E+01 -3.52766E+01 -3.52406E+01 -3.51977E+01 -3.50681E+01
  -3.48143E+01 -3.44575E+01 -3.39923E+01 -3.34042E+01 -3.27407E+01 -3.19683E+01 -3.11369E+01 -3.02900E+01 -2.87648E+01 -2.50819E+01
  -2.03244E+01 -1.63428E+01 -1.31822E+01 -8.50878E+00 -1.83866E+00  3.30304E+00  3.34369E+00 -2.30747E+00 -1.10582E+01 -1.98077E+01
  -2.78500E+01 -3.62808E+01 -4.49126E+01 -5.17982E+01 -5.63410E+01 -5.95384E+01 -5.93862E+01 -5.48455E+01 -4.81061E+01 -4.39940E+01
  -4.31071E+01 -4.29846E+01 -4.30547E+01 -4.32956E+01 -4.36913E+01 -4.42449E+01 -4.49577E+01 -4.57012E+01 -4.63462E+01 -4.67975E+01
  -4.70530E+01 -4.71475E+01 -4.71584E+01 -4.72140E+01 -4.73868E+01 -4.76237E+01 -4.78491E+01 -4.80517E+01 -4.82337E+01 -4.83653E+01
  -4.84023E+01 -4.83594E+01 -4.83132E+01 -4.83000E+01 -4.83228E+01 -4.83894E+01 -4.84788E+01 -4.85611E+01 -4.86057E+01 -4.85685E+01
  -4.84410E+01 -4.82694E+01 -4.80845E+01 -4.79007E+01 -4.77273E+01 -4.75674E+01 -4.74141E+01 -4.72406E+01 -4.70118E+01 -4.67227E+01
  -4.63669E+01 -4.59313E+01 -4.54022E+01 -4.47610E+01 -4.39839E+01 -4.30441E+01 -4.19117E+01 -4.05553E+01 -3.89432E+01 -3.70439E+01
  -3.48281E+01 -3.22703E+01 -2.93505E+01 -2.60558E+01 -2.23838E+01 -1.83435E+01 -1.39576E+01 -9.26264E+00 -4.30985E+00  8.35623E-01
   6.09632E+00  1.13851E+01  1.66080E+01  2.16685E+01  2.64713E+01  3.09271E+01  3.49579E+01  3.85013E+01  4.15165E+01  4.39969E+01
   4.59760E+01  4.73828E+01  4.81020E+01  4.81653E+01  4.77030E+01  4.68316E+01  4.55874E+01  4.39762E+01  4.21820E+01  4.04530E+01
   3.89291E+01  3.76387E+01  3.65432E+01  3.55859E+01  3.46653E+01  3.35376E+01  3.19125E+01  2.98076E+01  2.74131E+01  2.48612E+01
   2.22853E+01  1.98060E+01  1.75328E+01  1.54718E+01  1.34285E+01  1.13393E+01  9.26321E+00  7.23288E+00  5.26800E+00  3.38345E+00
   1.59166E+00 -9.66059E-02 -1.67215E+00 -3.12746E+00 -4.45673E+00 -5.65589E+00 -6.72254E+00 -7.65587E+00 -8.45654E+00 -9.12642E+00
  -9.66829E+00 -1.00855E+01 -1.03820E+01 -1.05617E+01 -1.06293E+01 -1.05891E+01 -1.04460E+01 -1.02047E+01 -9.87038E+00 -9.44850E+00
  -8.94521E+00 -8.36726E+00 -7.72215E+00 -7.01814E+00 -6.26442E+00 -5.47112E+00 -4.64920E+00 -3.81028E+00 -2.96638E+00 -2.12970E+00
  -1.31242E+00 -5.26371E-01  2.17308E-01  9.08590E-01  1.53879E+00  2.10078E+00  2.58906E+00  2.99989E+00  3.33135E+00  3.58339E+00
   3.75758E+00  3.85697E+00  3.88581E+00  3.84936E+00  3.75371E+00  3.60559E+00  3.41202E+00  3.18013E+00  2.91693E+00  2.62924E+00
   2.32361E+00  2.00627E+00  1.68288E+00  1.35858E+00  1.03793E+00  7.24995E-01  4.23296E-01  1.35903E-01 -1.34731E-01 -3.86645E-01
  -6.18367E-01 -8.28750E-01 -1.01701E+00 -1.18269E+00 -1.32572E+00 -1.44630E+00 -1.54483E+00 -1.62181E+00 -1.67789E+00 -1.71385E+00
  -1.73063E+00 -1.72921E+00 -1.71058E+00 -1.67567E+00 -1.62546E+00 -1.56092E+00 -1.48309E+00 -1.39291E+00 -1.29126E+00 -1.17893E+00
  -1.05672E+00 -9.25422E-01 -7.85832E-01 -6.38602E-01 -4.84269E-01 -3.23287E-01 -1.56165E-01  1.66194E-02  1.94601E-01  3.77431E-01
   5.64804E-01  7.56440E-01  9.51995E-01  1.15117E+00  1.35367E+00  1.55934E+00  1.76799E+00  1.97945E+00  2.19347E+00  2.40987E+00
   2.62850E+00  2.84930E+00  3.07215E+00  3.29694E+00  3.52350E+00  3.75173E+00  3.98156E+00  4.21298E+00  4.44590E+00  4.68025E+00
   4.91591E+00  5.15284E+00  5.39103E+00  5.63051E+00  5.87120E+00  6.11304E+00  6.35594E+00  6.59994E+00  6.84505E+00  7.09129E+00
   7.33858E+00  7.58688E+00  7.83616E+00  8.08649E+00  8.33788E+00  8.59034E+00  8.84380E+00  9.09823E+00
 NY background values follow
     7.426E+01    7.346E+01    7.266E+01    7.186E+01    7.106E+01    7.026E+01    6.946E+01    6.866E+01    6.786E+01    6.706E+01
     6.625E+01    6.545E+01    6.465E+01    6.385E+01    6.305E+01    6.225E+01    6.145E+01    6.065E+01    5.985E+01    5.905E+01
     5.826E+01    5.746E+01    5.666E+01    5.587E+01    5.508E+01    5.428E+01    5.349E+01    5.270E+01    5.191E+01    5.112E+01
     5.034E+01    4.955E+01    4.877E+01    4.798E+01    4.720E+01    4.643E+01    4.565E+01    4.487E+01    4.410E+01    4.333E+01
     4.256E+01    4.179E+01    4.103E+01    4.027E+01    3.951E+01    3.875E+01    3.799E+01    3.724E+01    3.649E+01    3.574E+01
     3.500E+01    3.425E+01    3.351E+01    3.278E+01    3.204E+01    3.131E+01    3.058E+01    2.986E+01    2.913E+01    2.841E+01
     2.770E+01    2.698E+01    2.627E+01    2.557E+01    2.486E+01    2.416E+01    2.346E+01    2.277E+01    2.208E+01    2.139E+01
     2.070E+01    2.002E+01    1.935E+01    1.867E+01    1.800E+01    1.733E+01    1.667E+01    1.601E+01    1.536E+01    1.470E+01
     1.405E+01    1.341E+01    1.277E+01    1.213E+01    1.150E+01    1.087E+01    1.024E+01    9.624E+00    9.007E+00    8.394E+00
     7.785E+00    7.180E+00    6.580E+00    5.984E+00    5.392E+00    4.804E+00    4.220E+00    3.640E+00    3.065E+00    2.493E+00
     1.926E+00    1.362E+00    8.025E-01    2.469E-01   -3.047E-01   -8.524E-01   -1.396E+00   -1.936E+00   -2.472E+00   -3.004E+00
    -3.533E+00   -4.057E+00   -4.578E+00   -5.095E+00   -5.608E+00   -6.118E+00   -6.624E+00   -7.126E+00   -7.625E+00   -8.119E+00
    -8.611E+00   -9.098E+00   -9.582E+00   -1.006E+01   -1.054E+01   -1.101E+01   -1.148E+01   -1.195E+01   -1.241E+01   -1.287E+01
    -1.333E+01   -1.378E+01   -1.423E+01   -1.468E+01   -1.512E+01   -1.556E+01   -1.599E+01   -1.643E+01   -1.686E+01   -1.728E+01
    -1.771E+01   -1.813E+01   -1.854E+01   -1.895E+01   -1.936E+01   -1.977E+01   -2.018E+01   -2.058E+01   -2.097E+01   -2.137E+01
    -2.176E+01   -2.215E+01   -2.253E+01   -2.291E+01   -2.329E+01   -2.367E+01   -2.404E+01   -2.441E+01   -2.477E+01   -2.514E+01
    -2.550E+01   -2.585E+01   -2.621E+01   -2.656E+01   -2.691E+01   -2.725E+01   -2.760E+01   -2.793E+01   -2.827E+01   -2.860E+01
    -2.893E+01   -2.926E+01   -2.959E+01   -2.991E+01   -3.023E+01   -3.054E+01   -3.086E+01   -3.117E+01   -3.147E+01   -3.178E+01
    -3.208E+01   -3.238E+01   -3.267E+01   -3.297E+01   -3.326E+01   -3.354E+01   -3.383E+01   -3.411E+01   -3.439E+01   -3.467E+01
    -3.494E+01   -3.522E+01   -3.549E+01   -3.575E+01   -3.602E+01   -3.628E+01   -3.654E+01   -3.680E+01   -3.706E+01   -3.731E+01
    -3.756E+01   -3.781E+01   -3.806E+01   -3.831E+01   -3.855E+01   -3.879E+01   -3.903E+01   -3.927E+01   -3.951E+01   -3.974E+01
    -3.998E+01   -4.021E+01   -4.044E+01   -4.067E+01   -4.089E+01   -4.112E+01   -4.134E+01   -4.156E+01   -4.178E+01   -4.200E+01
    -4.222E+01   -4.244E+01   -4.265E+01   -4.286E+01   -4.308E+01   -4.329E+01   -4.350E+01   -4.371E+01   -4.392E+01   -4.412E+01
    -4.433E+01   -4.453E+01   -4.473E+01   -4.493E+01   -4.513E+01   -4.533E+01   -4.553E+01   -4.572E+01   -4.591E+01   -4.610E+01
    -4.628E+01   -4.647E+01   -4.665E+01   -4.683E+01   -4.700E+01   -4.718E+01   -4.735E+01   -4.752E+01   -4.768E+01   -4.784E+01
    -4.800E+01   -4.815E+01   -4.831E+01   -4.845E+01   -4.860E+01   -4.874E+01   -4.887E+01   -4.901E+01   -4.914E+01   -4.926E+01
    -4.938E+01   -4.950E+01   -4.961E+01   -4.972E+01   -4.982E+01   -4.992E+01   -5.001E+01   -5.010E+01   -5.018E+01   -5.026E+01
    -5.033E+01   -5.040E+01   -5.046E+01   -5.052E+01   -5.057E+01   -5.062E+01   -5.066E+01   -5.070E+01   -5.073E+01   -5.076E+01
    -5.078E+01   -5.079E+01   -5.081E+01   -5.081E+01   -5.081E+01   -5.081E+01   -5.080E+01   -5.078E+01   -5.076E+01   -5.074E+01
    -5.071E+01   -5.068E+01   -5.064E+01   -5.059E+01   -5.054E+01   -5.049E+01   -5.043E+01   -5.037E+01   -5.030E+01   -5.023E+01
    -5.015E+01   -5.007E+01   -4.998E+01   -4.989E+01   -4.979E+01   -4.969E+01   -4.959E+01   -4.948E+01   -4.936E+01   -4.924E+01
    -4.912E+01   -4.899E+01   -4.886E+01   -4.872E+01   -4.858E+01   -4.843E+01   -4.828E+01   -4.812E+01   -4.796E+01   -4.780E+01
    -4.763E+01   -4.746E+01   -4.728E+01   -4.710E+01   -4.692E+01   -4.673E+01   -4.654E+01   -4.634E+01   -4.614E+01   -4.593E+01
    -4.573E+01   -4.551E+01   -4.530E+01   -4.508E+01   -4.486E+01   -4.463E+01   -4.440E+01   -4.417E+01   -4.394E+01   -4.370E+01
    -4.345E+01   -4.321E+01   -4.296E+01   -4.271E+01   -4.245E+01   -4.220E+01   -4.194E+01   -4.167E+01   -4.141E+01   -4.114E+01
    -4.087E+01   -4.059E+01   -4.031E+01   -4.004E+01   -3.975E+01   -3.947E+01   -3.918E+01   -3.889E+01   -3.860E+01   -3.831E+01
    -3.801E+01   -3.772E+01   -3.742E+01   -3.712E+01   -3.681E+01   -3.651E+01   -3.620E+01   -3.589E+01   -3.558E+01   -3.526E+01
    -3.495E+01   -3.463E+01   -3.432E+01   -3.400E+01   -3.367E+01   -3.335E+01   -3.303E+01   -3.270E+01   -3.237E+01   -3.205E+01
    -3.172E+01   -3.138E+01   -3.105E+01   -3.072E+01   -3.038E+01   -3.005E+01   -2.971E+01   -2.937E+01   -2.903E+01   -2.869E+01
    -2.835E+01   -2.801E+01   -2.766E+01   -2.732E+01   -2.697E+01   -2.663E+01   -2.628E+01   -2.593E+01   -2.559E+01   -2.524E+01
    -2.489E+01   -2.454E+01   -2.419E+01   -2.384E+01   -2.349E+01   -2.313E+01   -2.278E+01   -2.243E+01   -2.208E+01   -2.172E+01
    -2.137E+01   -2.102E+01   -2.067E+01   -2.031E+01   -1.996E+01   -1.961E+01   -1.925E+01   -1.890E+01   -1.855E+01   -1.819E+01
    -1.784E+01   -1.749E+01   -1.714E+01   -1.679E+01   -1.643E+01   -1.608E+01   -1.573E+01   -1.538E+01   -1.503E+01   -1.469E+01
    -1.434E+01   -1.399E+01   -1.364E+01   -1.330E+01   -1.295E+01   -1.261E+01   -1.227E+01   -1.193E+01   -1.158E+01   -1.124E+01
    -1.091E+01   -1.057E+01   -1.023E+01   -9.897E+00   -9.563E+00   -9.230E+00   -8.899E+00   -8.569E+00   -8.240E+00   -7.913E+00
    -7.588E+00   -7.264E+00   -6.942E+00   -6.621E+00   -6.302E+00   -5.985E+00   -5.669E+00   -5.354E+00   -5.041E+00   -4.730E+00
    -4.419E+00   -4.110E+00   -3.803E+00   -3.496E+00   -3.191E+00   -2.887E+00   -2.584E+00   -2.282E+00   -1.981E+00   -1.681E+00
    -1.382E+00   -1.084E+00   -7.866E-01   -4.901E-01   -1.945E-01    1.004E-01    3.946E-01    6.881E-01    9.810E-01    1.273E+00
     1.565E+00    1.857E+00    2.147E+00    2.438E+00    2.728E+00    3.018E+00    3.307E+00    3.596E+00    3.885E+00    4.174E+00
     4.463E+00    4.751E+00    5.040E+00    5.329E+00    5.617E+00    5.906E+00    6.195E+00    6.484E+00
 Asp      Conc. = 4.36E+01
