 LCModel (Version 6.3-1L) Copyright: S.W. Provencher.          Ref.: Magn. Reson. Med. 30:672-679 (1993).                
 Slice#3 Row#7 Col#1  PD_05_press_2_raw_act
 36 lines in following concentration table = NCONC+1
    Conc.  %SD /Cr+PCr  Metabolite                                         
   77.484 175%   0.144 Ala                                                 
  133.418  81%   0.248 Asp                                                 
    0.000 999%   0.000 Cr                                                  
  537.513  13%   1.000 PCr                                                 
   49.011 136% 9.1E-02 GABA                                                
   66.217 100%   0.123 Glc                                                 
  216.166 139%   0.402 Gln                                                 
 1.37E+03  27%   2.548 Glu                                                 
  176.011  15%   0.327 GPC                                                 
    0.000 999%   0.000 PCh                                                 
  539.071  18%   1.003 GSH                                                 
 1.31E+03  28%   2.444 Ins                                                 
    0.000 999%   0.000 Lac                                                 
  931.692  10%   1.733 NAA                                                 
    0.000 999%   0.000 NAAG                                                
   35.915  55% 6.7E-02 Scyllo                                              
  117.315  93%   0.218 Tau                                                 
  478.630  22%   0.890 -CrCH2                                              
  176.011  15%   0.327 GPC+PCh                                             
  931.692  10%   1.733 NAA+NAAG                                            
  537.513  13%   1.000 Cr+PCr                                              
 1.59E+03  34%   2.950 Glu+Gln                                             
    0.000 999%   0.000 Lip13a                                              
    0.000 999%   0.000 Lip13b                                              
    0.000 999%   0.000 Lip09                                               
  822.347  25%   1.530 MM09                                                
    0.000 999%   0.000 Lip20                                               
  456.830  86%   0.850 MM20                                                
  229.135  60%   0.426 MM12                                                
 1.79E+03  16%   3.331 MM14                                                
  763.299  30%   1.420 MM17                                                
    0.000 999%   0.000 Lip13a+Lip13b                                       
 2.02E+03  17%   3.757 MM14+Lip13a+Lip13b+MM12                             
  822.347  25%   1.530 MM09+Lip09                                          
  456.830  86%   0.850 MM20+Lip20                                          
   6 lines in following misc. output table
  FWHM = 0.061 ppm    S/N =   3                                            
  Data shift = 0.000 ppm                                                   
  Ph: -69 deg     -30.5 deg/ppm                                            
  alphaB,S = 6.1E-01,   7.8E+00                                            
   14 spline knots.   Ns = 8(1)                                            
  (15)13 infls.   (14) 6 extrs.                                            
  498 points on ppm-axis = NY
      4.000000     3.992357     3.984714     3.977070     3.969427     3.961784     3.954141     3.946497     3.938854     3.931211
      3.923568     3.915925     3.908281     3.900638     3.892995     3.885352     3.877708     3.870065     3.862422     3.854779
      3.847136     3.839492     3.831849     3.824206     3.816563     3.808919     3.801276     3.793633     3.785990     3.778347
      3.770703     3.763060     3.755417     3.747774     3.740130     3.732487     3.724844     3.717201     3.709558     3.701914
      3.694271     3.686628     3.678985     3.671341     3.663698     3.656055     3.648412     3.640769     3.633125     3.625482
      3.617839     3.610196     3.602552     3.594909     3.587266     3.579623     3.571980     3.564336     3.556693     3.549050
      3.541407     3.533763     3.526120     3.518477     3.510834     3.503191     3.495547     3.487904     3.480261     3.472618
      3.464974     3.457331     3.449688     3.442045     3.434402     3.426758     3.419115     3.411472     3.403829     3.396185
      3.388542     3.380899     3.373256     3.365613     3.357969     3.350326     3.342683     3.335040     3.327396     3.319753
      3.312110     3.304467     3.296824     3.289180     3.281537     3.273894     3.266251     3.258607     3.250964     3.243321
      3.235678     3.228034     3.220391     3.212748     3.205105     3.197462     3.189818     3.182175     3.174532     3.166889
      3.159245     3.151602     3.143959     3.136316     3.128673     3.121029     3.113386     3.105743     3.098100     3.090456
      3.082813     3.075170     3.067527     3.059884     3.052240     3.044597     3.036954     3.029311     3.021667     3.014024
      3.006381     2.998738     2.991095     2.983451     2.975808     2.968165     2.960522     2.952878     2.945235     2.937592
      2.929949     2.922306     2.914662     2.907019     2.899376     2.891733     2.884089     2.876446     2.868803     2.861160
      2.853517     2.845873     2.838230     2.830587     2.822944     2.815300     2.807657     2.800014     2.792371     2.784728
      2.777084     2.769441     2.761798     2.754155     2.746511     2.738868     2.731225     2.723582     2.715939     2.708295
      2.700652     2.693009     2.685366     2.677722     2.670079     2.662436     2.654793     2.647150     2.639506     2.631863
      2.624220     2.616577     2.608933     2.601290     2.593647     2.586004     2.578361     2.570717     2.563074     2.555431
      2.547788     2.540144     2.532501     2.524858     2.517215     2.509572     2.501928     2.494285     2.486642     2.478999
      2.471355     2.463712     2.456069     2.448426     2.440783     2.433139     2.425496     2.417853     2.410210     2.402566
      2.394923     2.387280     2.379637     2.371994     2.364350     2.356707     2.349064     2.341421     2.333777     2.326134
      2.318491     2.310848     2.303205     2.295561     2.287918     2.280275     2.272632     2.264988     2.257345     2.249702
      2.242059     2.234416     2.226772     2.219129     2.211486     2.203843     2.196199     2.188556     2.180913     2.173270
      2.165627     2.157983     2.150340     2.142697     2.135054     2.127410     2.119767     2.112124     2.104481     2.096838
      2.089194     2.081551     2.073908     2.066265     2.058621     2.050978     2.043335     2.035692     2.028049     2.020405
      2.012762     2.005119     1.997476     1.989833     1.982190     1.974546     1.966903     1.959260     1.951617     1.943974
      1.936331     1.928688     1.921045     1.913402     1.905759     1.898115     1.890472     1.882829     1.875186     1.867543
      1.859900     1.852257     1.844614     1.836971     1.829327     1.821684     1.814041     1.806398     1.798755     1.791112
      1.783469     1.775826     1.768183     1.760540     1.752896     1.745253     1.737610     1.729967     1.722324     1.714681
      1.707038     1.699395     1.691752     1.684108     1.676465     1.668822     1.661179     1.653536     1.645893     1.638250
      1.630607     1.622964     1.615321     1.607677     1.600034     1.592391     1.584748     1.577105     1.569462     1.561819
      1.554176     1.546533     1.538890     1.531246     1.523603     1.515960     1.508317     1.500674     1.493031     1.485388
      1.477745     1.470102     1.462458     1.454815     1.447172     1.439529     1.431886     1.424243     1.416600     1.408957
      1.401314     1.393671     1.386027     1.378384     1.370741     1.363098     1.355455     1.347812     1.340169     1.332526
      1.324883     1.317240     1.309596     1.301953     1.294310     1.286667     1.279024     1.271381     1.263738     1.256095
      1.248452     1.240808     1.233165     1.225522     1.217879     1.210236     1.202593     1.194950     1.187307     1.179664
      1.172021     1.164377     1.156734     1.149091     1.141448     1.133805     1.126162     1.118519     1.110876     1.103233
      1.095590     1.087946     1.080303     1.072660     1.065017     1.057374     1.049731     1.042088     1.034445     1.026802
      1.019158     1.011515     1.003872     0.996229     0.988586     0.980943     0.973300     0.965657     0.958014     0.950371
      0.942727     0.935084     0.927441     0.919798     0.912155     0.904512     0.896869     0.889226     0.881583     0.873940
      0.866296     0.858653     0.851010     0.843367     0.835724     0.828081     0.820438     0.812795     0.805152     0.797508
      0.789865     0.782222     0.774579     0.766936     0.759293     0.751650     0.744007     0.736364     0.728721     0.721077
      0.713434     0.705791     0.698148     0.690505     0.682862     0.675219     0.667576     0.659933     0.652290     0.644646
      0.637003     0.629360     0.621717     0.614074     0.606431     0.598788     0.591145     0.583502     0.575858     0.568215
      0.560572     0.552929     0.545286     0.537643     0.530000     0.522357     0.514714     0.507071     0.499427     0.491784
      0.484141     0.476498     0.468855     0.461212     0.453569     0.445925     0.438282     0.430639     0.422996     0.415353
      0.407710     0.400067     0.392424     0.384780     0.377137     0.369494     0.361851     0.354208     0.346565     0.338922
      0.331278     0.323635     0.315992     0.308349     0.300706     0.293063     0.285420     0.277777     0.270133     0.262490
      0.254847     0.247204     0.239561     0.231918     0.224275     0.216631     0.208988     0.201345
 NY phased data points follow
  -2.82890E+02 -2.79448E+02 -2.65148E+02 -2.69053E+02 -2.64543E+02 -2.55195E+02 -2.43094E+02 -2.36464E+02 -2.41176E+02 -2.40991E+02
  -2.39804E+02 -2.37120E+02 -2.31103E+02 -2.33700E+02 -2.31674E+02 -2.24516E+02 -2.33641E+02 -2.22779E+02 -2.17363E+02 -2.13363E+02
  -2.16114E+02 -2.09969E+02 -2.01447E+02 -2.05684E+02 -2.03278E+02 -1.92396E+02 -1.91722E+02 -1.87402E+02 -1.92727E+02 -1.82904E+02
  -1.78878E+02 -1.82486E+02 -1.81603E+02 -1.84680E+02 -1.77633E+02 -1.74997E+02 -1.80531E+02 -1.67336E+02 -1.75137E+02 -1.71112E+02
  -1.64615E+02 -1.69859E+02 -1.60424E+02 -1.61635E+02 -1.60271E+02 -1.56689E+02 -1.48637E+02 -1.53312E+02 -1.50780E+02 -1.51531E+02
  -1.50013E+02 -1.49358E+02 -1.48051E+02 -1.38123E+02 -1.44520E+02 -1.43963E+02 -1.39378E+02 -1.40657E+02 -1.31895E+02 -1.34010E+02
  -1.36377E+02 -1.31736E+02 -1.29534E+02 -1.33413E+02 -1.32551E+02 -1.23335E+02 -1.22426E+02 -1.25554E+02 -1.19799E+02 -1.20651E+02
  -1.13580E+02 -1.10743E+02 -1.12623E+02 -1.10385E+02 -1.11310E+02 -1.09012E+02 -1.09342E+02 -1.05096E+02 -1.03652E+02 -9.65417E+01
  -1.00809E+02 -9.53925E+01 -9.60059E+01 -1.01149E+02 -9.92133E+01 -9.78601E+01 -9.46619E+01 -8.87733E+01 -9.05075E+01 -9.60669E+01
  -8.93350E+01 -8.93180E+01 -7.86750E+01 -7.36036E+01 -8.01675E+01 -7.26336E+01 -7.28143E+01 -6.68021E+01 -7.30291E+01 -7.02685E+01
  -6.65692E+01 -5.89046E+01 -6.59693E+01 -6.44825E+01 -6.90484E+01 -6.54639E+01 -6.49693E+01 -6.94228E+01 -7.08694E+01 -7.55173E+01
  -6.59841E+01 -7.31939E+01 -7.12792E+01 -6.29236E+01 -6.25103E+01 -6.06692E+01 -5.89566E+01 -5.86400E+01 -6.09172E+01 -5.61604E+01
  -5.01343E+01 -4.64095E+01 -4.84568E+01 -4.45403E+01 -4.38175E+01 -3.43900E+01 -3.38597E+01 -4.05268E+01 -3.06893E+01 -3.53417E+01
  -4.45256E+01 -4.11776E+01 -4.28502E+01 -4.60401E+01 -5.61041E+01 -5.04986E+01 -5.15697E+01 -4.24279E+01 -4.87222E+01 -4.39236E+01
  -3.93165E+01 -4.25505E+01 -4.08159E+01 -3.76176E+01 -4.07524E+01 -4.01385E+01 -3.27656E+01 -4.45135E+01 -4.02803E+01 -3.41949E+01
  -3.48157E+01 -3.08675E+01 -3.62012E+01 -3.50783E+01 -3.32595E+01 -3.62092E+01 -3.06540E+01 -3.05968E+01 -3.38898E+01 -3.04463E+01
  -3.29824E+01 -2.98852E+01 -3.41536E+01 -2.23682E+01 -2.45534E+01 -2.67039E+01 -2.20787E+01 -2.07000E+01 -2.32060E+01 -1.88151E+01
  -1.96225E+01 -2.20356E+01 -2.46993E+01 -2.29778E+01 -2.00353E+01 -1.69557E+01 -2.45008E+01 -1.48364E+01 -1.61129E+01 -1.63826E+01
  -2.17447E+01 -1.50383E+01 -1.24677E+01 -1.19968E+01 -1.79764E+01 -1.59836E+01 -1.28264E+01 -9.90394E+00 -9.17728E+00 -1.14933E+01
  -6.03255E+00 -4.53784E+00 -1.81630E+00  1.47110E+00 -2.79886E+00 -2.50107E+00  3.15806E-01  1.97562E+00 -1.25124E+00  2.48314E+00
  -3.84772E-01  1.57284E+00  1.74758E+00  6.17876E+00  4.32643E+00  1.79222E+00  5.97671E+00  8.06999E+00  9.39502E-01 -1.84851E+00
   9.37464E+00  6.56241E+00  9.67142E+00  1.12934E+01  1.23327E+01  1.51343E+01  1.71963E+01 -4.96771E-01  1.00502E+01  4.66145E+00
   2.96482E+00  1.22474E+01  5.56082E+00  5.79409E+00  9.16706E+00  1.78033E+00  9.49901E+00  1.73501E+01  1.50751E+01  1.74175E+01
   1.50889E+01  1.22277E+01  1.72309E+01  1.19233E+01  1.19241E+01  1.27704E+01  1.17006E+01  1.36698E+01  1.52626E+01  1.32164E+01
   1.44950E+01  1.69681E+01  1.75454E+01  1.44298E+01  9.31454E+00  1.34782E+01  1.61563E+01  1.39816E+01  2.07205E+01  2.75276E+01
   2.13704E+01  1.87682E+01  1.77020E+01  2.73488E+01  2.46295E+01  2.21718E+01  3.52484E+01  4.44147E+01  4.88996E+01  5.01812E+01
   4.52487E+01  4.89012E+01  5.31368E+01  3.88737E+01  4.12753E+01  2.85759E+01  2.69906E+01  2.78761E+01  1.73532E+01  1.73244E+01
   1.23297E+01  2.46312E+01  2.38877E+01  2.14676E+01  2.24374E+01  2.62314E+01  2.24820E+01  2.74135E+01  2.96566E+01  3.06904E+01
   2.37689E+01  2.89093E+01  2.71646E+01  2.24519E+01  2.56532E+01  2.86156E+01  2.69044E+01  2.89627E+01  1.85664E+01  2.69264E+01
   2.56117E+01  2.45494E+01  1.99898E+01  2.75406E+01  2.06095E+01  2.87860E+01  2.48269E+01  3.12290E+01  3.12297E+01  2.23629E+01
   2.67188E+01  3.65500E+01  3.36190E+01  3.56895E+01  2.51665E+01  3.07642E+01  3.22783E+01  3.51545E+01  4.31145E+01  3.24034E+01
   2.99666E+01  3.46783E+01  3.99449E+01  3.71609E+01  4.38372E+01  4.37409E+01  4.41092E+01  4.41625E+01  4.12327E+01  4.24216E+01
   4.62276E+01  4.75960E+01  5.07423E+01  4.49481E+01  4.20470E+01  4.87689E+01  4.56286E+01  5.20691E+01  5.03256E+01  4.55513E+01
   4.78353E+01  4.37032E+01  4.32453E+01  5.30705E+01  4.74678E+01  5.15952E+01  4.24832E+01  4.84114E+01  4.91344E+01  4.32284E+01
   4.31086E+01  4.50107E+01  4.67372E+01  5.34096E+01  4.71029E+01  4.45664E+01  3.89710E+01  4.94769E+01  4.73196E+01  4.31853E+01
   5.05065E+01  4.14959E+01  4.47973E+01  4.13433E+01  4.41143E+01  4.48970E+01  4.86880E+01  4.16876E+01  4.39150E+01  4.04166E+01
   3.64129E+01  4.05846E+01  3.92670E+01  4.29605E+01  4.15447E+01  3.84785E+01  4.43619E+01  4.22546E+01  3.86055E+01  3.98832E+01
   4.72647E+01  4.28021E+01  4.53056E+01  4.36089E+01  4.65400E+01  4.43703E+01  4.76846E+01  5.16990E+01  4.60579E+01  4.89883E+01
   4.48530E+01  5.14825E+01  4.70987E+01  4.89493E+01  4.84568E+01  4.72856E+01  4.43340E+01  5.03082E+01  4.64136E+01  5.34802E+01
   4.77725E+01  4.33864E+01  4.99439E+01  4.64416E+01  6.00807E+01  5.69886E+01  5.84131E+01  5.10197E+01  4.43317E+01  4.81809E+01
   5.32343E+01  5.08453E+01  4.68871E+01  4.67255E+01  5.23328E+01  4.35322E+01  5.10126E+01  5.12177E+01  4.39237E+01  5.32765E+01
   4.35780E+01  4.60515E+01  4.90313E+01  4.73082E+01  4.49937E+01  4.65380E+01  4.76468E+01  4.30500E+01  4.29213E+01  4.38761E+01
   4.40197E+01  4.81707E+01  4.36986E+01  4.72751E+01  4.23950E+01  3.92851E+01  4.18471E+01  4.57559E+01  4.35570E+01  4.47135E+01
   4.42625E+01  4.49591E+01  4.90428E+01  4.16546E+01  4.72186E+01  4.58341E+01  4.13880E+01  4.31525E+01  4.03352E+01  4.68769E+01
   3.96943E+01  4.65613E+01  4.30056E+01  4.62526E+01  4.01364E+01  4.57920E+01  3.98347E+01  4.34256E+01  4.38575E+01  4.97209E+01
   4.68729E+01  4.78503E+01  4.47748E+01  4.27652E+01  4.26149E+01  4.73360E+01  4.36584E+01  4.54358E+01  4.49366E+01  4.60465E+01
   4.04212E+01  3.74614E+01  4.73703E+01  4.12746E+01  4.04893E+01  4.69928E+01  4.21025E+01  4.05407E+01  4.55629E+01  3.99388E+01
   4.44608E+01  4.54179E+01  3.97797E+01  4.29621E+01  3.75136E+01  4.01859E+01  4.28528E+01  4.73432E+01  4.44002E+01  4.31562E+01
   3.69870E+01  4.58104E+01  4.31291E+01  4.08942E+01  3.89270E+01  3.81897E+01  3.93376E+01  3.40583E+01  4.70743E+01  3.90112E+01
   3.82003E+01  3.93798E+01  3.75161E+01  4.11302E+01  3.67825E+01  3.70182E+01  3.95959E+01  3.86064E+01
 NY points of the fit to the data follow
  -2.66431E+02 -2.64139E+02 -2.58789E+02 -2.58465E+02 -2.57362E+02 -2.53327E+02 -2.49051E+02 -2.45005E+02 -2.43238E+02 -2.41403E+02
  -2.36999E+02 -2.34217E+02 -2.32323E+02 -2.30531E+02 -2.27841E+02 -2.25578E+02 -2.24745E+02 -2.23306E+02 -2.22381E+02 -2.18954E+02
  -2.16421E+02 -2.12047E+02 -2.07136E+02 -2.05813E+02 -2.02543E+02 -1.96861E+02 -1.92276E+02 -1.89024E+02 -1.87672E+02 -1.84893E+02
  -1.81471E+02 -1.81135E+02 -1.81169E+02 -1.80803E+02 -1.80295E+02 -1.80354E+02 -1.81451E+02 -1.80637E+02 -1.78490E+02 -1.74066E+02
  -1.70776E+02 -1.68189E+02 -1.64544E+02 -1.60161E+02 -1.56574E+02 -1.54481E+02 -1.53222E+02 -1.51770E+02 -1.50625E+02 -1.50368E+02
  -1.50365E+02 -1.49503E+02 -1.48369E+02 -1.47658E+02 -1.46605E+02 -1.44769E+02 -1.41618E+02 -1.38165E+02 -1.35586E+02 -1.33504E+02
  -1.31945E+02 -1.30505E+02 -1.29302E+02 -1.28018E+02 -1.26293E+02 -1.25001E+02 -1.23616E+02 -1.21753E+02 -1.19641E+02 -1.17417E+02
  -1.15431E+02 -1.13457E+02 -1.11638E+02 -1.10303E+02 -1.09201E+02 -1.08233E+02 -1.07010E+02 -1.05756E+02 -1.04407E+02 -1.03453E+02
  -1.02642E+02 -1.01150E+02 -9.97471E+01 -9.87540E+01 -9.79913E+01 -9.70310E+01 -9.56847E+01 -9.44384E+01 -9.32763E+01 -9.21246E+01
  -9.08150E+01 -8.91035E+01 -8.75969E+01 -8.54196E+01 -8.09044E+01 -7.75206E+01 -7.68105E+01 -7.33672E+01 -6.89952E+01 -6.61456E+01
  -6.49570E+01 -6.50688E+01 -6.39260E+01 -6.27174E+01 -6.41020E+01 -6.57273E+01 -6.68316E+01 -6.77597E+01 -6.93880E+01 -7.09813E+01
  -7.10846E+01 -6.96023E+01 -6.68072E+01 -6.53465E+01 -6.43540E+01 -6.34206E+01 -6.24605E+01 -6.13486E+01 -5.98639E+01 -5.60793E+01
  -5.20065E+01 -5.17487E+01 -4.86461E+01 -4.31975E+01 -3.92934E+01 -3.68990E+01 -3.70806E+01 -3.67847E+01 -3.51243E+01 -3.64857E+01
  -3.94233E+01 -4.16515E+01 -4.38886E+01 -4.58572E+01 -4.85332E+01 -4.96203E+01 -4.88045E+01 -4.54181E+01 -4.36324E+01 -4.25363E+01
  -4.14764E+01 -4.00026E+01 -3.85269E+01 -3.74116E+01 -3.67736E+01 -3.66139E+01 -3.64430E+01 -3.65766E+01 -3.62663E+01 -3.57938E+01
  -3.51151E+01 -3.43033E+01 -3.36052E+01 -3.29342E+01 -3.24024E+01 -3.16713E+01 -3.09257E+01 -3.02708E+01 -2.95460E+01 -2.89893E+01
  -2.82226E+01 -2.73343E+01 -2.66703E+01 -2.59759E+01 -2.52977E+01 -2.45364E+01 -2.37458E+01 -2.31365E+01 -2.25381E+01 -2.21103E+01
  -2.14657E+01 -2.10007E+01 -2.08256E+01 -2.04610E+01 -1.99778E+01 -1.90464E+01 -1.83261E+01 -1.80859E+01 -1.75554E+01 -1.68694E+01
  -1.62471E+01 -1.51911E+01 -1.42539E+01 -1.32476E+01 -1.20682E+01 -1.09980E+01 -9.71254E+00 -8.41766E+00 -7.52668E+00 -6.94197E+00
  -6.13347E+00 -5.45029E+00 -5.33733E+00 -5.30514E+00 -4.95141E+00 -4.45194E+00 -3.75184E+00 -3.20933E+00 -2.44204E+00 -1.09036E+00
   4.20637E-01  1.84547E+00  2.18344E+00  2.65957E+00  3.04863E+00  2.56755E+00  2.04634E+00  2.04295E+00  3.34237E+00  3.99223E+00
   4.00396E+00  5.67144E+00  7.66606E+00  8.54585E+00  8.10895E+00  7.33737E+00  8.26185E+00  7.93697E+00  5.58207E+00  3.74843E+00
   3.42401E+00  3.93121E+00  3.83086E+00  3.67056E+00  5.32999E+00  8.77111E+00  1.13028E+01  1.25737E+01  1.40548E+01  1.59350E+01
   1.67589E+01  1.58405E+01  1.50534E+01  1.49737E+01  1.53029E+01  1.46647E+01  1.43340E+01  1.50611E+01  1.51494E+01  1.44695E+01
   1.42175E+01  1.44017E+01  1.48652E+01  1.49136E+01  1.53294E+01  1.65604E+01  1.78266E+01  1.85883E+01  1.88957E+01  1.95056E+01
   1.95774E+01  1.97662E+01  2.16879E+01  2.84675E+01  2.98330E+01  3.02688E+01  3.75159E+01  4.46102E+01  4.85109E+01  4.84899E+01
   4.68999E+01  4.81690E+01  4.70160E+01  4.15940E+01  3.68661E+01  3.26115E+01  2.89943E+01  2.26665E+01  1.85705E+01  1.64991E+01
   1.92042E+01  2.22899E+01  2.31629E+01  2.35620E+01  2.40419E+01  2.42837E+01  2.45022E+01  2.46921E+01  2.48688E+01  2.49880E+01
   2.50504E+01  2.50654E+01  2.51412E+01  2.53235E+01  2.55466E+01  2.57958E+01  2.60584E+01  2.63462E+01  2.66154E+01  2.68840E+01
   2.71338E+01  2.73958E+01  2.76686E+01  2.79600E+01  2.82722E+01  2.86156E+01  2.89817E+01  2.93710E+01  2.97869E+01  3.02367E+01
   3.07183E+01  3.12295E+01  3.17721E+01  3.23483E+01  3.29542E+01  3.35894E+01  3.42479E+01  3.49293E+01  3.56260E+01  3.63349E+01
   3.70470E+01  3.77608E+01  3.84684E+01  3.91692E+01  3.98553E+01  4.05289E+01  4.11885E+01  4.18459E+01  4.25255E+01  4.32639E+01
   4.37782E+01  4.41761E+01  4.47914E+01  4.53012E+01  4.55694E+01  4.56807E+01  4.57226E+01  4.60355E+01  4.63650E+01  4.62691E+01
   4.63201E+01  4.66414E+01  4.69937E+01  4.72339E+01  4.73575E+01  4.75827E+01  4.79335E+01  4.80683E+01  4.78726E+01  4.76000E+01
   4.72968E+01  4.69121E+01  4.63809E+01  4.58585E+01  4.53798E+01  4.51036E+01  4.48290E+01  4.45525E+01  4.42920E+01  4.40586E+01
   4.38532E+01  4.36804E+01  4.35380E+01  4.34280E+01  4.33465E+01  4.32942E+01  4.32658E+01  4.32612E+01  4.32748E+01  4.33062E+01
   4.33498E+01  4.34056E+01  4.34683E+01  4.35383E+01  4.36111E+01  4.36882E+01  4.37658E+01  4.38459E+01  4.39257E+01  4.40081E+01
   4.40911E+01  4.41784E+01  4.42687E+01  4.43662E+01  4.44703E+01  4.45858E+01  4.47124E+01  4.48552E+01  4.50142E+01  4.51940E+01
   4.53943E+01  4.56195E+01  4.58684E+01  4.61439E+01  4.64435E+01  4.67681E+01  4.71131E+01  4.74773E+01  4.78536E+01  4.82384E+01
   4.86220E+01  4.89991E+01  4.93585E+01  4.96939E+01  4.99943E+01  5.02538E+01  5.04627E+01  5.06178E+01  5.07123E+01  5.07465E+01
   5.07177E+01  5.06300E+01  5.04847E+01  5.02894E+01  5.00486E+01  4.97723E+01  4.94665E+01  4.91417E+01  4.88041E+01  4.84635E+01
   4.81246E+01  4.77953E+01  4.74783E+01  4.71792E+01  4.68985E+01  4.66399E+01  4.64018E+01  4.61862E+01  4.59901E+01  4.58147E+01
   4.56562E+01  4.55152E+01  4.53878E+01  4.52745E+01  4.51713E+01  4.50789E+01  4.49938E+01  4.49167E+01  4.48446E+01  4.47783E+01
   4.47150E+01  4.46560E+01  4.45985E+01  4.45442E+01  4.44904E+01  4.44389E+01  4.43871E+01  4.43368E+01  4.42858E+01  4.42359E+01
   4.41848E+01  4.41343E+01  4.40823E+01  4.40307E+01  4.39774E+01  4.39242E+01  4.38691E+01  4.38138E+01  4.37565E+01  4.36989E+01
   4.36391E+01  4.35790E+01  4.35164E+01  4.34534E+01  4.33880E+01  4.33221E+01  4.32538E+01  4.31850E+01  4.31138E+01  4.30421E+01
   4.29681E+01  4.28936E+01  4.28168E+01  4.27395E+01  4.26599E+01  4.25799E+01  4.24976E+01  4.24150E+01  4.23301E+01  4.22449E+01
   4.21575E+01  4.20698E+01  4.19800E+01  4.18899E+01  4.17977E+01  4.17052E+01  4.16107E+01  4.15161E+01  4.14195E+01  4.13227E+01
   4.12239E+01  4.11251E+01  4.10243E+01  4.09236E+01  4.08210E+01  4.07183E+01  4.06139E+01  4.05095E+01  4.04034E+01  4.02974E+01
   4.01897E+01  4.00821E+01  3.99728E+01  3.98638E+01  3.97531E+01  3.96427E+01  3.95307E+01  3.94190E+01
 NY background values follow
    -2.663E+02   -2.639E+02   -2.615E+02   -2.592E+02   -2.568E+02   -2.544E+02   -2.520E+02   -2.497E+02   -2.473E+02   -2.450E+02
    -2.426E+02   -2.403E+02   -2.379E+02   -2.356E+02   -2.332E+02   -2.309E+02   -2.286E+02   -2.263E+02   -2.240E+02   -2.216E+02
    -2.194E+02   -2.171E+02   -2.148E+02   -2.125E+02   -2.102E+02   -2.080E+02   -2.057E+02   -2.035E+02   -2.013E+02   -1.990E+02
    -1.968E+02   -1.946E+02   -1.924E+02   -1.903E+02   -1.881E+02   -1.860E+02   -1.838E+02   -1.817E+02   -1.796E+02   -1.775E+02
    -1.754E+02   -1.733E+02   -1.712E+02   -1.692E+02   -1.672E+02   -1.651E+02   -1.631E+02   -1.612E+02   -1.592E+02   -1.572E+02
    -1.553E+02   -1.534E+02   -1.515E+02   -1.496E+02   -1.477E+02   -1.458E+02   -1.440E+02   -1.421E+02   -1.403E+02   -1.385E+02
    -1.368E+02   -1.350E+02   -1.332E+02   -1.315E+02   -1.298E+02   -1.281E+02   -1.264E+02   -1.247E+02   -1.231E+02   -1.215E+02
    -1.198E+02   -1.182E+02   -1.167E+02   -1.151E+02   -1.135E+02   -1.120E+02   -1.105E+02   -1.090E+02   -1.075E+02   -1.060E+02
    -1.046E+02   -1.031E+02   -1.017E+02   -1.003E+02   -9.895E+01   -9.758E+01   -9.623E+01   -9.490E+01   -9.359E+01   -9.229E+01
    -9.102E+01   -8.975E+01   -8.851E+01   -8.728E+01   -8.607E+01   -8.488E+01   -8.370E+01   -8.254E+01   -8.139E+01   -8.026E+01
    -7.915E+01   -7.804E+01   -7.695E+01   -7.588E+01   -7.482E+01   -7.377E+01   -7.273E+01   -7.171E+01   -7.070E+01   -6.970E+01
    -6.871E+01   -6.773E+01   -6.677E+01   -6.581E+01   -6.486E+01   -6.393E+01   -6.300E+01   -6.208E+01   -6.117E+01   -6.027E+01
    -5.938E+01   -5.849E+01   -5.762E+01   -5.675E+01   -5.588E+01   -5.503E+01   -5.418E+01   -5.333E+01   -5.249E+01   -5.166E+01
    -5.083E+01   -5.000E+01   -4.918E+01   -4.837E+01   -4.755E+01   -4.674E+01   -4.594E+01   -4.513E+01   -4.433E+01   -4.353E+01
    -4.274E+01   -4.194E+01   -4.115E+01   -4.037E+01   -3.958E+01   -3.880E+01   -3.802E+01   -3.725E+01   -3.648E+01   -3.571E+01
    -3.495E+01   -3.418E+01   -3.343E+01   -3.267E+01   -3.192E+01   -3.117E+01   -3.043E+01   -2.969E+01   -2.895E+01   -2.821E+01
    -2.748E+01   -2.676E+01   -2.604E+01   -2.532E+01   -2.460E+01   -2.389E+01   -2.318E+01   -2.248E+01   -2.178E+01   -2.109E+01
    -2.039E+01   -1.971E+01   -1.903E+01   -1.835E+01   -1.767E+01   -1.700E+01   -1.634E+01   -1.568E+01   -1.502E+01   -1.437E+01
    -1.372E+01   -1.307E+01   -1.244E+01   -1.180E+01   -1.117E+01   -1.055E+01   -9.928E+00   -9.313E+00   -8.703E+00   -8.098E+00
    -7.499E+00   -6.905E+00   -6.316E+00   -5.732E+00   -5.154E+00   -4.582E+00   -4.015E+00   -3.454E+00   -2.899E+00   -2.350E+00
    -1.806E+00   -1.269E+00   -7.379E-01   -2.128E-01    3.060E-01    8.185E-01    1.325E+00    1.824E+00    2.317E+00    2.804E+00
     3.283E+00    3.756E+00    4.222E+00    4.682E+00    5.134E+00    5.579E+00    6.017E+00    6.447E+00    6.871E+00    7.287E+00
     7.695E+00    8.096E+00    8.489E+00    8.875E+00    9.253E+00    9.623E+00    9.985E+00    1.034E+01    1.069E+01    1.102E+01
     1.136E+01    1.168E+01    1.200E+01    1.231E+01    1.261E+01    1.291E+01    1.320E+01    1.349E+01    1.377E+01    1.405E+01
     1.432E+01    1.458E+01    1.484E+01    1.510E+01    1.535E+01    1.560E+01    1.585E+01    1.609E+01    1.632E+01    1.656E+01
     1.679E+01    1.702E+01    1.724E+01    1.747E+01    1.769E+01    1.791E+01    1.813E+01    1.834E+01    1.856E+01    1.877E+01
     1.899E+01    1.920E+01    1.941E+01    1.963E+01    1.984E+01    2.005E+01    2.027E+01    2.048E+01    2.070E+01    2.092E+01
     2.113E+01    2.135E+01    2.158E+01    2.180E+01    2.203E+01    2.225E+01    2.248E+01    2.271E+01    2.294E+01    2.318E+01
     2.341E+01    2.365E+01    2.388E+01    2.412E+01    2.436E+01    2.460E+01    2.484E+01    2.508E+01    2.533E+01    2.557E+01
     2.581E+01    2.606E+01    2.630E+01    2.655E+01    2.680E+01    2.704E+01    2.729E+01    2.754E+01    2.778E+01    2.803E+01
     2.828E+01    2.852E+01    2.877E+01    2.901E+01    2.926E+01    2.951E+01    2.975E+01    2.999E+01    3.024E+01    3.048E+01
     3.072E+01    3.097E+01    3.121E+01    3.145E+01    3.168E+01    3.192E+01    3.216E+01    3.239E+01    3.263E+01    3.286E+01
     3.309E+01    3.332E+01    3.355E+01    3.377E+01    3.400E+01    3.422E+01    3.444E+01    3.466E+01    3.488E+01    3.510E+01
     3.531E+01    3.552E+01    3.573E+01    3.594E+01    3.615E+01    3.635E+01    3.655E+01    3.675E+01    3.695E+01    3.714E+01
     3.734E+01    3.753E+01    3.771E+01    3.790E+01    3.808E+01    3.826E+01    3.843E+01    3.861E+01    3.878E+01    3.895E+01
     3.911E+01    3.927E+01    3.943E+01    3.959E+01    3.974E+01    3.989E+01    4.003E+01    4.018E+01    4.031E+01    4.045E+01
     4.058E+01    4.071E+01    4.084E+01    4.096E+01    4.107E+01    4.119E+01    4.130E+01    4.141E+01    4.151E+01    4.161E+01
     4.171E+01    4.180E+01    4.190E+01    4.198E+01    4.207E+01    4.215E+01    4.223E+01    4.231E+01    4.238E+01    4.245E+01
     4.252E+01    4.259E+01    4.265E+01    4.271E+01    4.277E+01    4.283E+01    4.288E+01    4.293E+01    4.298E+01    4.303E+01
     4.307E+01    4.312E+01    4.316E+01    4.320E+01    4.323E+01    4.327E+01    4.330E+01    4.333E+01    4.336E+01    4.339E+01
     4.342E+01    4.344E+01    4.347E+01    4.349E+01    4.351E+01    4.353E+01    4.355E+01    4.357E+01    4.358E+01    4.360E+01
     4.361E+01    4.363E+01    4.364E+01    4.365E+01    4.366E+01    4.367E+01    4.367E+01    4.368E+01    4.368E+01    4.368E+01
     4.369E+01    4.369E+01    4.368E+01    4.368E+01    4.368E+01    4.367E+01    4.366E+01    4.366E+01    4.365E+01    4.363E+01
     4.362E+01    4.361E+01    4.359E+01    4.357E+01    4.355E+01    4.353E+01    4.351E+01    4.348E+01    4.346E+01    4.343E+01
     4.340E+01    4.337E+01    4.334E+01    4.330E+01    4.327E+01    4.323E+01    4.319E+01    4.315E+01    4.310E+01    4.306E+01
     4.301E+01    4.296E+01    4.291E+01    4.286E+01    4.280E+01    4.275E+01    4.269E+01    4.263E+01    4.256E+01    4.250E+01
     4.243E+01    4.237E+01    4.230E+01    4.223E+01    4.216E+01    4.208E+01    4.201E+01    4.193E+01    4.185E+01    4.177E+01
     4.169E+01    4.161E+01    4.152E+01    4.144E+01    4.135E+01    4.126E+01    4.118E+01    4.109E+01    4.099E+01    4.090E+01
     4.081E+01    4.071E+01    4.062E+01    4.052E+01    4.042E+01    4.032E+01    4.022E+01    4.012E+01    4.002E+01    3.992E+01
     3.982E+01    3.971E+01    3.961E+01    3.950E+01    3.940E+01    3.929E+01    3.918E+01    3.907E+01
 Ala      Conc. = 7.75E+01
