 LCModel (Version 6.3-1L) Copyright: S.W. Provencher.          Ref.: Magn. Reson. Med. 30:672-679 (1993).                
 Slice#2 Row#5 Col#4  PD_05_press_2_raw_act
 36 lines in following concentration table = NCONC+1
    Conc.  %SD /Cr+PCr  Metabolite                                         
  205.880 126% 7.1E-02 Ala                                                 
  444.233 123%   0.154 Asp                                                 
 2.44E+03  19%   0.847 Cr                                                  
  439.721 108%   0.153 PCr                                                 
    0.000 999%   0.000 GABA                                                
    0.000 999%   0.000 Glc                                                 
  735.646  73%   0.255 Gln                                                 
 4.27E+03  14%   1.481 Glu                                                 
 1.28E+03   5%   0.446 GPC                                                 
    0.000 999%   0.000 PCh                                                 
  942.567  19%   0.327 GSH                                                 
 2.39E+03  28%   0.830 Ins                                                 
  202.797 147% 7.0E-02 Lac                                                 
 4.57E+03   6%   1.588 NAA                                                 
 1.25E+03  24%   0.433 NAAG                                                
  140.341  49% 4.9E-02 Scyllo                                              
    0.000 999%   0.000 Tau                                                 
    0.000 999%   0.000 -CrCH2                                              
 1.28E+03   5%   0.446 GPC+PCh                                             
 5.82E+03   4%   2.021 NAA+NAAG                                            
 2.88E+03   5%   1.000 Cr+PCr                                              
 5.00E+03  17%   1.736 Glu+Gln                                             
    0.000 999%   0.000 Lip13a                                              
  802.662  49%   0.279 Lip13b                                              
    0.000 999%   0.000 Lip09                                               
 8.03E+03  11%   2.788 MM09                                                
   55.336 999% 1.9E-02 Lip20                                               
 1.41E+04  11%   4.909 MM20                                                
 4.56E+03  15%   1.581 MM12                                                
    0.000 999%   0.000 MM14                                                
 3.77E+03  26%   1.308 MM17                                                
  802.662  49%   0.279 Lip13a+Lip13b                                       
 5.36E+03  13%   1.860 MM14+Lip13a+Lip13b+MM12                             
 8.03E+03  11%   2.788 MM09+Lip09                                          
 1.42E+04  10%   4.928 MM20+Lip20                                          
   6 lines in following misc. output table
  FWHM = 0.046 ppm    S/N =  11                                            
  Data shift = 0.023 ppm                                                   
  Ph:  10 deg      10.5 deg/ppm                                            
  alphaB,S = 5.7E-01,   9.3E+01                                            
   14 spline knots.   Ns = 6(1)                                            
  ( 5) 2 infls.   ( 1) 1 extrs.                                            
  498 points on ppm-axis = NY
      4.000000     3.992357     3.984714     3.977070     3.969427     3.961784     3.954141     3.946497     3.938854     3.931211
      3.923568     3.915925     3.908281     3.900638     3.892995     3.885352     3.877708     3.870065     3.862422     3.854779
      3.847136     3.839492     3.831849     3.824206     3.816563     3.808919     3.801276     3.793633     3.785990     3.778347
      3.770703     3.763060     3.755417     3.747774     3.740130     3.732487     3.724844     3.717201     3.709558     3.701914
      3.694271     3.686628     3.678985     3.671341     3.663698     3.656055     3.648412     3.640769     3.633125     3.625482
      3.617839     3.610196     3.602552     3.594909     3.587266     3.579623     3.571980     3.564336     3.556693     3.549050
      3.541407     3.533763     3.526120     3.518477     3.510834     3.503191     3.495547     3.487904     3.480261     3.472618
      3.464974     3.457331     3.449688     3.442045     3.434402     3.426758     3.419115     3.411472     3.403829     3.396185
      3.388542     3.380899     3.373256     3.365613     3.357969     3.350326     3.342683     3.335040     3.327396     3.319753
      3.312110     3.304467     3.296824     3.289180     3.281537     3.273894     3.266251     3.258607     3.250964     3.243321
      3.235678     3.228034     3.220391     3.212748     3.205105     3.197462     3.189818     3.182175     3.174532     3.166889
      3.159245     3.151602     3.143959     3.136316     3.128673     3.121029     3.113386     3.105743     3.098100     3.090456
      3.082813     3.075170     3.067527     3.059884     3.052240     3.044597     3.036954     3.029311     3.021667     3.014024
      3.006381     2.998738     2.991095     2.983451     2.975808     2.968165     2.960522     2.952878     2.945235     2.937592
      2.929949     2.922306     2.914662     2.907019     2.899376     2.891733     2.884089     2.876446     2.868803     2.861160
      2.853517     2.845873     2.838230     2.830587     2.822944     2.815300     2.807657     2.800014     2.792371     2.784728
      2.777084     2.769441     2.761798     2.754155     2.746511     2.738868     2.731225     2.723582     2.715939     2.708295
      2.700652     2.693009     2.685366     2.677722     2.670079     2.662436     2.654793     2.647150     2.639506     2.631863
      2.624220     2.616577     2.608933     2.601290     2.593647     2.586004     2.578361     2.570717     2.563074     2.555431
      2.547788     2.540144     2.532501     2.524858     2.517215     2.509572     2.501928     2.494285     2.486642     2.478999
      2.471355     2.463712     2.456069     2.448426     2.440783     2.433139     2.425496     2.417853     2.410210     2.402566
      2.394923     2.387280     2.379637     2.371994     2.364350     2.356707     2.349064     2.341421     2.333777     2.326134
      2.318491     2.310848     2.303205     2.295561     2.287918     2.280275     2.272632     2.264988     2.257345     2.249702
      2.242059     2.234416     2.226772     2.219129     2.211486     2.203843     2.196199     2.188556     2.180913     2.173270
      2.165627     2.157983     2.150340     2.142697     2.135054     2.127410     2.119767     2.112124     2.104481     2.096838
      2.089194     2.081551     2.073908     2.066265     2.058621     2.050978     2.043335     2.035692     2.028049     2.020405
      2.012762     2.005119     1.997476     1.989833     1.982190     1.974546     1.966903     1.959260     1.951617     1.943974
      1.936331     1.928688     1.921045     1.913402     1.905759     1.898115     1.890472     1.882829     1.875186     1.867543
      1.859900     1.852257     1.844614     1.836971     1.829327     1.821684     1.814041     1.806398     1.798755     1.791112
      1.783469     1.775826     1.768183     1.760540     1.752896     1.745253     1.737610     1.729967     1.722324     1.714681
      1.707038     1.699395     1.691752     1.684108     1.676465     1.668822     1.661179     1.653536     1.645893     1.638250
      1.630607     1.622964     1.615321     1.607677     1.600034     1.592391     1.584748     1.577105     1.569462     1.561819
      1.554176     1.546533     1.538890     1.531246     1.523603     1.515960     1.508317     1.500674     1.493031     1.485388
      1.477745     1.470102     1.462458     1.454815     1.447172     1.439529     1.431886     1.424243     1.416600     1.408957
      1.401314     1.393671     1.386027     1.378384     1.370741     1.363098     1.355455     1.347812     1.340169     1.332526
      1.324883     1.317240     1.309596     1.301953     1.294310     1.286667     1.279024     1.271381     1.263738     1.256095
      1.248452     1.240808     1.233165     1.225522     1.217879     1.210236     1.202593     1.194950     1.187307     1.179664
      1.172021     1.164377     1.156734     1.149091     1.141448     1.133805     1.126162     1.118519     1.110876     1.103233
      1.095590     1.087946     1.080303     1.072660     1.065017     1.057374     1.049731     1.042088     1.034445     1.026802
      1.019158     1.011515     1.003872     0.996229     0.988586     0.980943     0.973300     0.965657     0.958014     0.950371
      0.942727     0.935084     0.927441     0.919798     0.912155     0.904512     0.896869     0.889226     0.881583     0.873940
      0.866296     0.858653     0.851010     0.843367     0.835724     0.828081     0.820438     0.812795     0.805152     0.797508
      0.789865     0.782222     0.774579     0.766936     0.759293     0.751650     0.744007     0.736364     0.728721     0.721077
      0.713434     0.705791     0.698148     0.690505     0.682862     0.675219     0.667576     0.659933     0.652290     0.644646
      0.637003     0.629360     0.621717     0.614074     0.606431     0.598788     0.591145     0.583502     0.575858     0.568215
      0.560572     0.552929     0.545286     0.537643     0.530000     0.522357     0.514714     0.507071     0.499427     0.491784
      0.484141     0.476498     0.468855     0.461212     0.453569     0.445925     0.438282     0.430639     0.422996     0.415353
      0.407710     0.400067     0.392424     0.384780     0.377137     0.369494     0.361851     0.354208     0.346565     0.338922
      0.331278     0.323635     0.315992     0.308349     0.300706     0.293063     0.285420     0.277777     0.270133     0.262490
      0.254847     0.247204     0.239561     0.231918     0.224275     0.216631     0.208988     0.201345
 NY phased data points follow
   4.16822E+00  2.07884E+01  3.44552E+01  2.58128E+01  2.26794E+01  2.26011E+01  4.08395E+01  4.20741E+01  6.03406E+01  7.42140E+01
   8.38486E+01  9.46451E+01  9.34769E+01  8.37722E+01  6.99714E+01  5.95110E+01  4.88647E+01  3.54135E+01  3.07228E+01  2.55635E+01
   2.71315E+01  3.44679E+01  3.41560E+01  2.80351E+01  3.22377E+01  2.51600E+01  1.88841E+01  2.64398E+01  2.43503E+01  3.68029E+01
   3.85137E+01  4.08206E+01  3.56146E+01  3.22762E+01  3.64124E+01  2.08977E+01  2.38551E+01  2.78506E+01  2.75978E+01  2.30146E+01
   1.68993E+01  1.43471E+01  1.86220E+01  2.44195E+01  1.03264E+01  4.32392E+01  4.42621E+01  4.54838E+01  5.15862E+01  3.44672E+01
   3.11030E+01  1.50271E+01  2.42926E+01  2.33906E+01  1.26547E+01  2.49699E+01  2.55208E+01  1.03607E+01  2.37327E+01  1.61731E+01
   1.71767E+01  5.22101E+00  3.80149E+00 -1.12044E+01 -4.54149E+00 -1.18806E+01 -1.00947E+01 -7.63643E+00 -1.25077E+01 -7.43293E+00
  -1.20507E+01 -1.19550E+01 -7.36044E+00 -8.07737E-01 -1.66827E+01 -3.75402E+00 -1.11570E+01 -1.12392E+01 -6.21351E+00 -1.38090E+01
   7.12500E-01 -9.33556E+00 -8.60139E+00 -6.80027E-01  1.02436E+00 -7.78331E+00  1.08879E+01 -1.13096E+01  3.20307E+00  3.49881E+00
  -7.04354E+00 -1.71747E+00  1.54621E+00 -7.73953E+00  5.76675E-01 -2.16854E+00  8.58284E+00 -1.25188E+01  1.07285E+01  2.76756E+01
   6.96055E+01  7.59996E+01  9.64382E+01  1.21015E+02  1.24405E+02  9.60492E+01  7.23300E+01  6.52486E+01  4.62601E+01  3.00929E+01
   2.01170E+01  5.14482E+00  1.20837E+00 -7.95855E-01 -9.26343E-01  3.09985E+00  5.66794E+00 -2.27365E+01  1.01303E-01  1.08003E+01
  -4.06210E+00  4.04943E-01 -7.15260E+00  6.24953E+00  3.90351E+01  6.00736E+01  8.27385E+01  1.01106E+02  9.66843E+01  9.67191E+01
   6.85304E+01  4.75294E+01  3.95098E+01  2.47148E+01  2.83418E+00  7.81188E+00 -8.16431E+00 -1.33422E+01 -1.81327E+00 -2.11117E+01
  -7.75155E+00 -1.40269E+01 -1.31538E+01 -1.72468E+01 -9.55022E+00 -1.60273E+01 -4.96019E+00 -2.53858E+01 -1.18915E+01 -7.09032E+00
  -8.91278E+00 -1.07835E+01 -2.07986E+01 -1.89819E+01 -2.07691E+01 -3.11740E+01 -2.34307E+01 -1.79979E+01 -2.03054E+01 -1.90923E+01
  -3.20012E+01 -3.51246E+01 -3.17722E+01 -3.15657E+01 -3.00806E+01 -2.08459E+01 -1.40445E+01 -2.65397E+01 -1.92613E+01 -3.64613E+01
  -3.01173E+01 -4.87661E+01 -3.80008E+01 -3.47850E+01 -3.80884E+01 -3.32542E+01 -4.62008E+01 -3.69805E+01 -3.17942E+01 -4.06363E+01
  -4.06903E+01 -3.77267E+01 -4.14582E+01 -5.07109E+01 -4.38049E+01 -3.21481E+01 -3.19057E+01 -2.25369E+01 -1.25744E+01 -1.58964E+01
  -1.92510E+01  2.44708E+00 -2.39203E+00 -1.51949E+01 -3.03650E+00 -8.03967E+00 -4.97093E+00 -1.33800E+01 -3.03038E+01 -2.50125E+01
  -2.51531E+01 -1.08319E+01 -1.03034E+01 -2.98093E-01 -1.17752E+01 -2.57316E+01 -1.23738E+01 -3.63707E+01 -3.07083E+01 -3.23751E+01
  -2.72622E+01 -2.34189E+01 -2.54190E+01 -1.81398E+01 -9.87545E+00 -9.32749E-01  1.38059E+01  1.26929E+01 -4.83602E+00 -1.65956E+01
  -2.70794E+01 -4.49707E+01 -3.61946E+01 -4.89206E+01 -1.87642E+01 -1.45665E+01 -2.78580E+00 -7.86807E+00  3.27382E-01  4.88212E+00
  -5.71660E+00 -1.18302E+00 -3.98279E+00 -3.79795E+00 -1.89119E+01  1.14860E-01 -1.78134E+00  1.92503E+00 -2.91628E-01 -7.11221E+00
  -2.44276E+01 -2.82857E+01 -2.31871E+01 -1.75806E+01 -1.04212E+01 -2.14980E+00 -6.63351E+00  9.91601E+00  1.70462E+01  1.58999E+01
   3.33955E+00  9.93563E+00  2.30533E+01  3.79261E+01  6.09742E+01  5.80050E+01  8.53726E+01  1.13819E+02  1.32552E+02  1.65116E+02
   1.96407E+02  1.82285E+02  1.39360E+02  8.83407E+01  4.43833E+01  2.97380E+01  3.58657E+00 -1.84155E+01 -1.72594E+01 -1.37407E+01
  -2.44445E+01 -3.47996E+01 -1.07030E+01 -2.88502E+01 -2.40472E+01 -3.34448E+01 -3.33858E+01 -2.55988E+01 -2.31861E+01 -3.33318E+01
  -4.48330E+01 -4.25946E+01 -2.74061E+01 -3.72500E+01 -3.71690E+01 -4.76251E+01 -3.02859E+01 -3.69148E+01 -3.31035E+01 -2.54090E+01
  -2.28089E+01 -4.69754E+01 -4.55954E+01 -4.28440E+01 -5.10496E+01 -5.37648E+01 -4.67297E+01 -5.52972E+01 -5.58716E+01 -4.80420E+01
  -5.96138E+01 -4.47051E+01 -6.93906E+01 -4.72187E+01 -5.75317E+01 -4.22090E+01 -4.76466E+01 -5.70902E+01 -5.35320E+01 -5.37006E+01
  -5.01103E+01 -6.29154E+01 -4.83419E+01 -5.90201E+01 -5.86710E+01 -5.89507E+01 -5.90364E+01 -6.27559E+01 -7.46399E+01 -6.32960E+01
  -7.20247E+01 -7.89934E+01 -8.47857E+01 -8.18245E+01 -7.46171E+01 -9.47087E+01 -9.04053E+01 -9.40100E+01 -7.57005E+01 -9.92035E+01
  -9.17858E+01 -8.49714E+01 -7.92913E+01 -9.11024E+01 -8.86021E+01 -9.18981E+01 -7.88958E+01 -7.86422E+01 -7.28226E+01 -8.29009E+01
  -5.86472E+01 -7.70394E+01 -7.20733E+01 -5.93334E+01 -7.74454E+01 -5.87600E+01 -6.32451E+01 -6.45379E+01 -6.19729E+01 -6.31471E+01
  -6.81809E+01 -7.60682E+01 -5.30096E+01 -5.00916E+01 -4.24496E+01 -4.34929E+01 -3.78297E+01 -4.59849E+01 -4.27094E+01 -3.65486E+01
  -3.81594E+01 -1.80104E+01 -1.44763E+01 -3.99166E+01 -2.74881E+01 -3.48256E+01 -3.53584E+01 -3.12426E+01 -2.99778E+01 -2.57219E+01
  -2.95718E+01 -3.49041E+01 -4.38773E+01 -1.43871E+01 -2.78629E+01 -2.51094E+01 -2.29163E+01 -2.72792E+01 -2.35919E+01 -2.69952E+01
  -2.81082E+01 -3.72697E+01 -3.14222E+01 -2.29414E+01 -3.51296E+01 -3.11233E+01 -3.23567E+01 -2.80359E+01 -1.53967E+01 -2.45150E+01
  -2.37279E+01 -4.79441E+00 -2.09797E+01 -3.74418E+01 -1.98581E+01 -1.77692E+01 -1.64635E+01 -1.65392E+01 -1.30395E+01 -2.13610E+01
  -1.93968E+01 -1.93195E+01 -1.55419E+01 -1.42714E+01 -1.28200E+01 -2.08786E+01 -1.90141E+01 -2.98485E+00 -1.66822E+01 -1.24439E+01
  -1.93523E+01 -2.35408E+01 -1.65514E+01 -2.24041E+01 -2.50743E+01 -4.07921E+01 -2.52807E+01 -2.51918E+01 -3.18454E+01 -4.23908E+01
  -3.48731E+01 -2.31394E+01 -2.81097E+01 -3.71418E+01 -2.61116E+01 -3.15683E+01 -3.88716E+01 -2.80916E+01 -3.53075E+01 -3.41211E+01
  -3.12665E+01 -3.11307E+01 -2.77236E+01 -3.90076E+01 -2.00433E+01 -2.89757E+01 -3.19186E+01 -3.97808E+01 -3.07189E+01 -2.43199E+01
  -2.96527E+01 -3.57902E+01 -3.61989E+01 -2.92949E+01 -3.69536E+01 -2.39970E+01 -3.16710E+01 -2.44285E+01 -3.74580E+01 -2.78514E+01
  -1.73998E+01 -3.06148E+01 -2.86460E+01 -2.99831E+01 -4.65249E+01 -3.55668E+01 -1.92826E+01 -4.11561E+01 -3.61070E+01 -2.88738E+01
  -2.82564E+01 -1.99763E+01 -4.37439E+01 -3.50230E+01 -4.21020E+01 -2.68088E+01 -2.72016E+01 -1.86970E+01 -3.95315E+01 -3.77265E+01
  -2.53452E+01 -2.87915E+01 -3.04597E+01 -2.52534E+01 -3.23325E+01 -3.20111E+01 -3.37929E+01 -1.90208E+01 -2.51823E+01 -3.72180E+01
  -3.69756E+01 -3.88297E+01 -2.55948E+01 -2.70803E+01 -3.34360E+01 -3.06204E+01 -2.92334E+01 -2.03327E+01 -2.32989E+01 -2.50798E+01
  -3.21243E+01 -4.04652E+01 -2.47348E+01 -2.48110E+01 -3.40947E+01 -3.44116E+01 -3.54914E+01 -2.83829E+01
 NY points of the fit to the data follow
   2.51513E+01  2.44287E+01  2.43506E+01  2.50779E+01  2.69543E+01  3.03387E+01  3.61747E+01  4.53783E+01  5.78766E+01  7.16795E+01
   8.40608E+01  9.21177E+01  9.28708E+01  8.55233E+01  7.30221E+01  6.00116E+01  4.92271E+01  4.05729E+01  3.31802E+01  2.76680E+01
   2.51878E+01  2.42818E+01  2.35658E+01  2.25040E+01  2.13034E+01  2.07479E+01  2.15844E+01  2.41019E+01  2.85130E+01  3.45943E+01
   4.06004E+01  4.41311E+01  4.40433E+01  4.09770E+01  3.60107E+01  2.97965E+01  2.31049E+01  1.75390E+01  1.45077E+01  1.36997E+01
   1.42146E+01  1.56735E+01  1.81054E+01  2.15273E+01  2.54740E+01  2.93814E+01  3.24518E+01  3.35575E+01  3.18986E+01  2.76359E+01
   2.22615E+01  1.74614E+01  1.37242E+01  1.07257E+01  8.63136E+00  7.96700E+00  8.55465E+00  9.67462E+00  1.08260E+01  1.16250E+01
   1.15639E+01  1.03539E+01  8.20045E+00  5.76774E+00  3.71494E+00  2.35705E+00  1.76347E+00  1.90309E+00  2.56280E+00  3.40194E+00
   4.15637E+00  4.59954E+00  4.56753E+00  3.99825E+00  3.04370E+00  2.01793E+00  1.12802E+00  3.98829E-01 -2.35101E-01 -7.44795E-01
  -9.70489E-01 -8.09171E-01 -2.50873E-01  5.06214E-01  1.11108E+00  1.21941E+00  4.79584E-01 -1.23427E+00 -3.43384E+00 -5.21715E+00
  -5.98837E+00 -5.87260E+00 -5.36083E+00 -4.76950E+00 -4.12284E+00 -3.49101E+00 -2.72494E+00  1.05496E-02  8.28800E+00  2.50362E+01
   5.00101E+01  7.91945E+01  1.06573E+02  1.23939E+02  1.23916E+02  1.06636E+02  8.06870E+01  5.58003E+01  3.57310E+01  1.92194E+01
   5.75547E+00 -2.36224E+00 -5.02383E+00 -5.78901E+00 -6.03899E+00 -6.09533E+00 -6.05830E+00 -5.95138E+00 -5.74492E+00 -5.33440E+00
  -4.41028E+00 -1.82209E+00  4.89412E+00  1.79560E+01  3.74907E+01  6.06242E+01  8.29794E+01  9.85323E+01  1.01080E+02  8.96266E+01
   7.02088E+01  5.06589E+01  3.43784E+01  2.01758E+01  7.08360E+00 -2.81881E+00 -7.76045E+00 -9.79601E+00 -1.01152E+01 -9.39461E+00
  -8.30845E+00 -7.33803E+00 -6.81906E+00 -6.96748E+00 -7.67030E+00 -8.69082E+00 -9.92448E+00 -1.12782E+01 -1.26255E+01 -1.39106E+01
  -1.51077E+01 -1.62731E+01 -1.73370E+01 -1.81701E+01 -1.86838E+01 -1.89843E+01 -1.93577E+01 -2.01096E+01 -2.13610E+01 -2.29136E+01
  -2.43017E+01 -2.49939E+01 -2.48453E+01 -2.42245E+01 -2.38181E+01 -2.41747E+01 -2.52253E+01 -2.64449E+01 -2.74633E+01 -2.82818E+01
  -2.90206E+01 -2.98766E+01 -3.09283E+01 -3.20516E+01 -3.31285E+01 -3.38893E+01 -3.40607E+01 -3.37203E+01 -3.33177E+01 -3.32833E+01
  -3.36122E+01 -3.38446E+01 -3.35662E+01 -3.28946E+01 -3.21818E+01 -3.13227E+01 -2.97146E+01 -2.69253E+01 -2.32127E+01 -1.96302E+01
  -1.71582E+01 -1.61941E+01 -1.66462E+01 -1.82011E+01 -2.04022E+01 -2.26478E+01 -2.43309E+01 -2.51235E+01 -2.47064E+01 -2.28463E+01
  -1.98700E+01 -1.66653E+01 -1.40352E+01 -1.24802E+01 -1.25641E+01 -1.47421E+01 -1.90252E+01 -2.44194E+01 -2.96529E+01 -3.35800E+01
  -3.48754E+01 -3.25443E+01 -2.66196E+01 -1.83932E+01 -9.83120E+00 -3.28791E+00 -1.33074E+00 -5.48360E+00 -1.49192E+01 -2.64586E+01
  -3.69813E+01 -4.45765E+01 -4.76861E+01 -4.51129E+01 -3.72268E+01 -2.71058E+01 -1.82732E+01 -1.22006E+01 -8.70714E+00 -7.25100E+00
  -7.56529E+00 -8.79765E+00 -9.33727E+00 -8.24309E+00 -6.00283E+00 -3.57261E+00 -1.76062E+00 -1.14252E+00 -2.07505E+00 -4.48478E+00
  -7.38689E+00 -9.35732E+00 -9.45795E+00 -7.46881E+00 -3.82548E+00  4.64908E-01  4.07136E+00  6.16643E+00  6.90094E+00  7.21669E+00
   8.70689E+00  1.29412E+01  2.08569E+01  3.18877E+01  4.63229E+01  6.56770E+01  9.03786E+01  1.18333E+02  1.46367E+02  1.70471E+02
   1.81556E+02  1.70043E+02  1.37432E+02  9.73095E+01  6.26991E+01  3.54847E+01  1.22012E+01 -7.25455E+00 -1.88412E+01 -2.35894E+01
  -2.63856E+01 -2.83269E+01 -2.96309E+01 -3.05819E+01 -3.15157E+01 -3.25927E+01 -3.38906E+01 -3.52818E+01 -3.65632E+01 -3.76389E+01
  -3.85249E+01 -3.91916E+01 -3.95860E+01 -3.97719E+01 -3.99082E+01 -4.00967E+01 -4.03229E+01 -4.05417E+01 -4.07411E+01 -4.09268E+01
  -4.10783E+01 -4.11957E+01 -4.13420E+01 -4.16110E+01 -4.20617E+01 -4.27092E+01 -4.35378E+01 -4.45278E+01 -4.56543E+01 -4.68708E+01
  -4.81279E+01 -4.94148E+01 -5.07393E+01 -5.21025E+01 -5.34915E+01 -5.48886E+01 -5.62805E+01 -5.76539E+01 -5.89847E+01 -6.02553E+01
  -6.14551E+01 -6.25760E+01 -6.36130E+01 -6.45641E+01 -6.54279E+01 -6.62042E+01 -6.68934E+01 -6.74960E+01 -6.80110E+01 -6.84325E+01
  -6.87430E+01 -6.89034E+01 -6.89003E+01 -6.87998E+01 -6.87540E+01 -6.89287E+01 -6.94568E+01 -7.04258E+01 -7.17568E+01 -7.31283E+01
  -7.41432E+01 -7.45752E+01 -7.44277E+01 -7.37815E+01 -7.26801E+01 -7.12964E+01 -7.00594E+01 -6.92779E+01 -6.88942E+01 -6.86732E+01
  -6.84295E+01 -6.80893E+01 -6.76070E+01 -6.69040E+01 -6.60196E+01 -6.51360E+01 -6.43799E+01 -6.38230E+01 -6.33792E+01 -6.27009E+01
  -6.13557E+01 -5.91160E+01 -5.60672E+01 -5.24293E+01 -4.84186E+01 -4.43772E+01 -4.08371E+01 -3.81508E+01 -3.62559E+01 -3.49281E+01
  -3.40056E+01 -3.34161E+01 -3.30574E+01 -3.27387E+01 -3.23800E+01 -3.20077E+01 -3.16470E+01 -3.13296E+01 -3.10909E+01 -3.09635E+01
  -3.09694E+01 -3.11167E+01 -3.13977E+01 -3.17900E+01 -3.22594E+01 -3.27635E+01 -3.32561E+01 -3.36907E+01 -3.40234E+01 -3.42153E+01
  -3.42340E+01 -3.40553E+01 -3.36636E+01 -3.30523E+01 -3.22234E+01 -3.11864E+01 -2.99584E+01 -2.85627E+01 -2.70285E+01 -2.53896E+01
  -2.36828E+01 -2.19472E+01 -2.02228E+01 -1.85500E+01 -1.69683E+01 -1.55145E+01 -1.42221E+01 -1.31201E+01 -1.22324E+01 -1.15771E+01
  -1.11660E+01 -1.10040E+01 -1.10895E+01 -1.14141E+01 -1.19640E+01 -1.27204E+01 -1.36601E+01 -1.47567E+01 -1.59815E+01 -1.73050E+01
  -1.86978E+01 -2.01316E+01 -2.15799E+01 -2.30184E+01 -2.44259E+01 -2.57843E+01 -2.70790E+01 -2.82990E+01 -2.94359E+01 -3.04843E+01
  -3.14412E+01 -3.23061E+01 -3.30805E+01 -3.37669E+01 -3.43692E+01 -3.48917E+01 -3.53395E+01 -3.57180E+01 -3.60329E+01 -3.62895E+01
  -3.64929E+01 -3.66480E+01 -3.67595E+01 -3.68319E+01 -3.68693E+01 -3.68754E+01 -3.68533E+01 -3.68061E+01 -3.67367E+01 -3.66476E+01
  -3.65411E+01 -3.64192E+01 -3.62834E+01 -3.61356E+01 -3.59773E+01 -3.58100E+01 -3.56349E+01 -3.54529E+01 -3.52649E+01 -3.50720E+01
  -3.48751E+01 -3.46751E+01 -3.44724E+01 -3.42677E+01 -3.40612E+01 -3.38535E+01 -3.36449E+01 -3.34356E+01 -3.32258E+01 -3.30155E+01
  -3.28050E+01 -3.25947E+01 -3.23845E+01 -3.21746E+01 -3.19649E+01 -3.17555E+01 -3.15465E+01 -3.13381E+01 -3.11303E+01 -3.09229E+01
  -3.07160E+01 -3.05096E+01 -3.03037E+01 -3.00984E+01 -2.98935E+01 -2.96891E+01 -2.94849E+01 -2.92810E+01 -2.90776E+01 -2.88745E+01
  -2.86715E+01 -2.84686E+01 -2.82657E+01 -2.80628E+01 -2.78599E+01 -2.76569E+01 -2.74536E+01 -2.72498E+01 -2.70456E+01 -2.68410E+01
  -2.66359E+01 -2.64300E+01 -2.62233E+01 -2.60155E+01 -2.58068E+01 -2.55971E+01 -2.53861E+01 -2.51738E+01
 NY background values follow
     1.751E+01    1.722E+01    1.692E+01    1.662E+01    1.633E+01    1.603E+01    1.573E+01    1.543E+01    1.513E+01    1.483E+01
     1.452E+01    1.422E+01    1.392E+01    1.361E+01    1.331E+01    1.300E+01    1.270E+01    1.239E+01    1.209E+01    1.178E+01
     1.147E+01    1.116E+01    1.086E+01    1.055E+01    1.024E+01    9.928E+00    9.619E+00    9.308E+00    8.998E+00    8.687E+00
     8.376E+00    8.065E+00    7.754E+00    7.442E+00    7.130E+00    6.818E+00    6.506E+00    6.193E+00    5.881E+00    5.568E+00
     5.255E+00    4.942E+00    4.629E+00    4.316E+00    4.003E+00    3.690E+00    3.377E+00    3.064E+00    2.751E+00    2.438E+00
     2.125E+00    1.813E+00    1.501E+00    1.189E+00    8.784E-01    5.679E-01    2.579E-01   -5.138E-02   -3.599E-01   -6.677E-01
    -9.747E-01   -1.281E+00   -1.586E+00   -1.890E+00   -2.193E+00   -2.495E+00   -2.795E+00   -3.095E+00   -3.393E+00   -3.689E+00
    -3.984E+00   -4.278E+00   -4.570E+00   -4.860E+00   -5.149E+00   -5.436E+00   -5.721E+00   -6.004E+00   -6.286E+00   -6.565E+00
    -6.842E+00   -7.117E+00   -7.390E+00   -7.660E+00   -7.929E+00   -8.195E+00   -8.458E+00   -8.719E+00   -8.977E+00   -9.233E+00
    -9.486E+00   -9.737E+00   -9.984E+00   -1.023E+01   -1.047E+01   -1.071E+01   -1.095E+01   -1.118E+01   -1.141E+01   -1.164E+01
    -1.187E+01   -1.210E+01   -1.232E+01   -1.254E+01   -1.276E+01   -1.297E+01   -1.318E+01   -1.340E+01   -1.361E+01   -1.381E+01
    -1.402E+01   -1.422E+01   -1.442E+01   -1.462E+01   -1.482E+01   -1.501E+01   -1.521E+01   -1.540E+01   -1.559E+01   -1.578E+01
    -1.597E+01   -1.615E+01   -1.634E+01   -1.652E+01   -1.670E+01   -1.688E+01   -1.706E+01   -1.724E+01   -1.741E+01   -1.759E+01
    -1.776E+01   -1.793E+01   -1.810E+01   -1.827E+01   -1.844E+01   -1.861E+01   -1.878E+01   -1.894E+01   -1.911E+01   -1.927E+01
    -1.944E+01   -1.960E+01   -1.976E+01   -1.992E+01   -2.009E+01   -2.025E+01   -2.041E+01   -2.057E+01   -2.073E+01   -2.089E+01
    -2.105E+01   -2.121E+01   -2.137E+01   -2.153E+01   -2.169E+01   -2.185E+01   -2.202E+01   -2.218E+01   -2.234E+01   -2.250E+01
    -2.267E+01   -2.283E+01   -2.300E+01   -2.316E+01   -2.333E+01   -2.350E+01   -2.366E+01   -2.383E+01   -2.401E+01   -2.418E+01
    -2.435E+01   -2.453E+01   -2.470E+01   -2.488E+01   -2.506E+01   -2.524E+01   -2.542E+01   -2.561E+01   -2.579E+01   -2.598E+01
    -2.617E+01   -2.636E+01   -2.655E+01   -2.675E+01   -2.695E+01   -2.715E+01   -2.735E+01   -2.756E+01   -2.777E+01   -2.798E+01
    -2.819E+01   -2.841E+01   -2.863E+01   -2.885E+01   -2.908E+01   -2.931E+01   -2.954E+01   -2.977E+01   -3.001E+01   -3.026E+01
    -3.051E+01   -3.076E+01   -3.101E+01   -3.127E+01   -3.153E+01   -3.180E+01   -3.207E+01   -3.235E+01   -3.263E+01   -3.291E+01
    -3.320E+01   -3.350E+01   -3.380E+01   -3.410E+01   -3.441E+01   -3.473E+01   -3.505E+01   -3.537E+01   -3.570E+01   -3.604E+01
    -3.638E+01   -3.673E+01   -3.708E+01   -3.744E+01   -3.781E+01   -3.818E+01   -3.856E+01   -3.894E+01   -3.933E+01   -3.973E+01
    -4.013E+01   -4.053E+01   -4.095E+01   -4.136E+01   -4.179E+01   -4.221E+01   -4.265E+01   -4.308E+01   -4.352E+01   -4.397E+01
    -4.442E+01   -4.487E+01   -4.533E+01   -4.579E+01   -4.625E+01   -4.672E+01   -4.719E+01   -4.766E+01   -4.813E+01   -4.861E+01
    -4.909E+01   -4.957E+01   -5.005E+01   -5.054E+01   -5.102E+01   -5.151E+01   -5.200E+01   -5.249E+01   -5.298E+01   -5.347E+01
    -5.396E+01   -5.445E+01   -5.494E+01   -5.544E+01   -5.593E+01   -5.642E+01   -5.691E+01   -5.740E+01   -5.789E+01   -5.837E+01
    -5.886E+01   -5.934E+01   -5.983E+01   -6.031E+01   -6.079E+01   -6.126E+01   -6.174E+01   -6.221E+01   -6.268E+01   -6.314E+01
    -6.360E+01   -6.406E+01   -6.451E+01   -6.496E+01   -6.541E+01   -6.585E+01   -6.629E+01   -6.672E+01   -6.714E+01   -6.756E+01
    -6.798E+01   -6.838E+01   -6.879E+01   -6.918E+01   -6.957E+01   -6.995E+01   -7.033E+01   -7.070E+01   -7.106E+01   -7.141E+01
    -7.176E+01   -7.209E+01   -7.242E+01   -7.274E+01   -7.305E+01   -7.335E+01   -7.365E+01   -7.393E+01   -7.420E+01   -7.447E+01
    -7.472E+01   -7.496E+01   -7.519E+01   -7.541E+01   -7.562E+01   -7.582E+01   -7.601E+01   -7.619E+01   -7.635E+01   -7.650E+01
    -7.664E+01   -7.677E+01   -7.689E+01   -7.699E+01   -7.709E+01   -7.717E+01   -7.725E+01   -7.731E+01   -7.736E+01   -7.740E+01
    -7.743E+01   -7.745E+01   -7.745E+01   -7.745E+01   -7.744E+01   -7.742E+01   -7.738E+01   -7.734E+01   -7.728E+01   -7.722E+01
    -7.715E+01   -7.706E+01   -7.697E+01   -7.687E+01   -7.675E+01   -7.663E+01   -7.650E+01   -7.636E+01   -7.621E+01   -7.605E+01
    -7.588E+01   -7.571E+01   -7.552E+01   -7.532E+01   -7.512E+01   -7.491E+01   -7.469E+01   -7.446E+01   -7.422E+01   -7.397E+01
    -7.372E+01   -7.346E+01   -7.319E+01   -7.291E+01   -7.262E+01   -7.233E+01   -7.203E+01   -7.172E+01   -7.140E+01   -7.108E+01
    -7.075E+01   -7.042E+01   -7.007E+01   -6.973E+01   -6.937E+01   -6.901E+01   -6.865E+01   -6.828E+01   -6.790E+01   -6.752E+01
    -6.714E+01   -6.675E+01   -6.636E+01   -6.596E+01   -6.556E+01   -6.515E+01   -6.474E+01   -6.433E+01   -6.391E+01   -6.349E+01
    -6.307E+01   -6.265E+01   -6.222E+01   -6.179E+01   -6.136E+01   -6.093E+01   -6.049E+01   -6.006E+01   -5.962E+01   -5.918E+01
    -5.874E+01   -5.830E+01   -5.786E+01   -5.741E+01   -5.697E+01   -5.653E+01   -5.609E+01   -5.564E+01   -5.520E+01   -5.476E+01
    -5.432E+01   -5.388E+01   -5.344E+01   -5.301E+01   -5.257E+01   -5.214E+01   -5.170E+01   -5.127E+01   -5.084E+01   -5.041E+01
    -4.998E+01   -4.955E+01   -4.913E+01   -4.871E+01   -4.828E+01   -4.787E+01   -4.745E+01   -4.704E+01   -4.662E+01   -4.622E+01
    -4.581E+01   -4.541E+01   -4.500E+01   -4.461E+01   -4.421E+01   -4.382E+01   -4.343E+01   -4.304E+01   -4.266E+01   -4.228E+01
    -4.191E+01   -4.154E+01   -4.117E+01   -4.081E+01   -4.045E+01   -4.009E+01   -3.974E+01   -3.939E+01   -3.905E+01   -3.871E+01
    -3.838E+01   -3.805E+01   -3.772E+01   -3.740E+01   -3.709E+01   -3.678E+01   -3.647E+01   -3.617E+01   -3.587E+01   -3.558E+01
    -3.529E+01   -3.500E+01   -3.472E+01   -3.444E+01   -3.416E+01   -3.389E+01   -3.362E+01   -3.336E+01   -3.309E+01   -3.283E+01
    -3.258E+01   -3.232E+01   -3.207E+01   -3.182E+01   -3.157E+01   -3.133E+01   -3.108E+01   -3.084E+01   -3.060E+01   -3.036E+01
    -3.012E+01   -2.989E+01   -2.965E+01   -2.942E+01   -2.919E+01   -2.896E+01   -2.873E+01   -2.850E+01   -2.827E+01   -2.804E+01
    -2.781E+01   -2.758E+01   -2.735E+01   -2.712E+01   -2.689E+01   -2.666E+01   -2.643E+01   -2.620E+01
 Ala      Conc. = 2.06E+02
