 LCModel (Version 6.3-1L) Copyright: S.W. Provencher.          Ref.: Magn. Reson. Med. 30:672-679 (1993).                
 Slice#1 Row#9 Col#8  PD_05_press_2_raw_act
 36 lines in following concentration table = NCONC+1
    Conc.  %SD /Cr+PCr  Metabolite                                         
  475.313  32%   0.345 Ala                                                 
   93.891 274% 6.8E-02 Asp                                                 
 1.21E+03  21%   0.875 Cr                                                  
  171.858 150%   0.125 PCr                                                 
   66.927 252% 4.9E-02 GABA                                                
  136.708 122% 9.9E-02 Glc                                                 
 1.25E+03  26%   0.908 Gln                                                 
 2.50E+03  16%   1.812 Glu                                                 
  322.559   9%   0.234 GPC                                                 
    0.000 999%   0.000 PCh                                                 
  506.256  20%   0.367 GSH                                                 
 1.48E+03  22%   1.075 Ins                                                 
  156.211 105%   0.113 Lac                                                 
 2.90E+03   6%   2.102 NAA                                                 
  408.077  46%   0.296 NAAG                                                
   81.827  40% 5.9E-02 Scyllo                                              
  254.800  91%   0.185 Tau                                                 
    1.958 999% 1.4E-03 -CrCH2                                              
  322.559   9%   0.234 GPC+PCh                                             
 3.31E+03   4%   2.398 NAA+NAAG                                            
 1.38E+03   6%   1.000 Cr+PCr                                              
 3.75E+03  15%   2.720 Glu+Gln                                             
 1.62E+03  35%   1.178 Lip13a                                              
    0.000 999%   0.000 Lip13b                                              
    0.000 999%   0.000 Lip09                                               
 2.49E+03  10%   1.807 MM09                                                
  130.581 180% 9.5E-02 Lip20                                               
 5.46E+03   9%   3.963 MM20                                                
  963.535  25%   0.699 MM12                                                
 2.88E+03  19%   2.092 MM14                                                
 2.84E+03  15%   2.061 MM17                                                
 1.62E+03  35%   1.178 Lip13a+Lip13b                                       
 5.47E+03  10%   3.969 MM14+Lip13a+Lip13b+MM12                             
 2.49E+03  10%   1.807 MM09+Lip09                                          
 5.59E+03   9%   4.057 MM20+Lip20                                          
   6 lines in following misc. output table
  FWHM = 0.054 ppm    S/N =  13                                            
  Data shift = 0.008 ppm                                                   
  Ph:  -4 deg      12.5 deg/ppm                                            
  alphaB,S = 2.4E+00,   1.0E+02                                            
   14 spline knots.   Ns = 7(1)                                            
  ( 9) 2 infls.   ( 5) 1 extrs.                                            
  498 points on ppm-axis = NY
      4.000000     3.992357     3.984714     3.977070     3.969427     3.961784     3.954141     3.946497     3.938854     3.931211
      3.923568     3.915925     3.908281     3.900638     3.892995     3.885352     3.877708     3.870065     3.862422     3.854779
      3.847136     3.839492     3.831849     3.824206     3.816563     3.808919     3.801276     3.793633     3.785990     3.778347
      3.770703     3.763060     3.755417     3.747774     3.740130     3.732487     3.724844     3.717201     3.709558     3.701914
      3.694271     3.686628     3.678985     3.671341     3.663698     3.656055     3.648412     3.640769     3.633125     3.625482
      3.617839     3.610196     3.602552     3.594909     3.587266     3.579623     3.571980     3.564336     3.556693     3.549050
      3.541407     3.533763     3.526120     3.518477     3.510834     3.503191     3.495547     3.487904     3.480261     3.472618
      3.464974     3.457331     3.449688     3.442045     3.434402     3.426758     3.419115     3.411472     3.403829     3.396185
      3.388542     3.380899     3.373256     3.365613     3.357969     3.350326     3.342683     3.335040     3.327396     3.319753
      3.312110     3.304467     3.296824     3.289180     3.281537     3.273894     3.266251     3.258607     3.250964     3.243321
      3.235678     3.228034     3.220391     3.212748     3.205105     3.197462     3.189818     3.182175     3.174532     3.166889
      3.159245     3.151602     3.143959     3.136316     3.128673     3.121029     3.113386     3.105743     3.098100     3.090456
      3.082813     3.075170     3.067527     3.059884     3.052240     3.044597     3.036954     3.029311     3.021667     3.014024
      3.006381     2.998738     2.991095     2.983451     2.975808     2.968165     2.960522     2.952878     2.945235     2.937592
      2.929949     2.922306     2.914662     2.907019     2.899376     2.891733     2.884089     2.876446     2.868803     2.861160
      2.853517     2.845873     2.838230     2.830587     2.822944     2.815300     2.807657     2.800014     2.792371     2.784728
      2.777084     2.769441     2.761798     2.754155     2.746511     2.738868     2.731225     2.723582     2.715939     2.708295
      2.700652     2.693009     2.685366     2.677722     2.670079     2.662436     2.654793     2.647150     2.639506     2.631863
      2.624220     2.616577     2.608933     2.601290     2.593647     2.586004     2.578361     2.570717     2.563074     2.555431
      2.547788     2.540144     2.532501     2.524858     2.517215     2.509572     2.501928     2.494285     2.486642     2.478999
      2.471355     2.463712     2.456069     2.448426     2.440783     2.433139     2.425496     2.417853     2.410210     2.402566
      2.394923     2.387280     2.379637     2.371994     2.364350     2.356707     2.349064     2.341421     2.333777     2.326134
      2.318491     2.310848     2.303205     2.295561     2.287918     2.280275     2.272632     2.264988     2.257345     2.249702
      2.242059     2.234416     2.226772     2.219129     2.211486     2.203843     2.196199     2.188556     2.180913     2.173270
      2.165627     2.157983     2.150340     2.142697     2.135054     2.127410     2.119767     2.112124     2.104481     2.096838
      2.089194     2.081551     2.073908     2.066265     2.058621     2.050978     2.043335     2.035692     2.028049     2.020405
      2.012762     2.005119     1.997476     1.989833     1.982190     1.974546     1.966903     1.959260     1.951617     1.943974
      1.936331     1.928688     1.921045     1.913402     1.905759     1.898115     1.890472     1.882829     1.875186     1.867543
      1.859900     1.852257     1.844614     1.836971     1.829327     1.821684     1.814041     1.806398     1.798755     1.791112
      1.783469     1.775826     1.768183     1.760540     1.752896     1.745253     1.737610     1.729967     1.722324     1.714681
      1.707038     1.699395     1.691752     1.684108     1.676465     1.668822     1.661179     1.653536     1.645893     1.638250
      1.630607     1.622964     1.615321     1.607677     1.600034     1.592391     1.584748     1.577105     1.569462     1.561819
      1.554176     1.546533     1.538890     1.531246     1.523603     1.515960     1.508317     1.500674     1.493031     1.485388
      1.477745     1.470102     1.462458     1.454815     1.447172     1.439529     1.431886     1.424243     1.416600     1.408957
      1.401314     1.393671     1.386027     1.378384     1.370741     1.363098     1.355455     1.347812     1.340169     1.332526
      1.324883     1.317240     1.309596     1.301953     1.294310     1.286667     1.279024     1.271381     1.263738     1.256095
      1.248452     1.240808     1.233165     1.225522     1.217879     1.210236     1.202593     1.194950     1.187307     1.179664
      1.172021     1.164377     1.156734     1.149091     1.141448     1.133805     1.126162     1.118519     1.110876     1.103233
      1.095590     1.087946     1.080303     1.072660     1.065017     1.057374     1.049731     1.042088     1.034445     1.026802
      1.019158     1.011515     1.003872     0.996229     0.988586     0.980943     0.973300     0.965657     0.958014     0.950371
      0.942727     0.935084     0.927441     0.919798     0.912155     0.904512     0.896869     0.889226     0.881583     0.873940
      0.866296     0.858653     0.851010     0.843367     0.835724     0.828081     0.820438     0.812795     0.805152     0.797508
      0.789865     0.782222     0.774579     0.766936     0.759293     0.751650     0.744007     0.736364     0.728721     0.721077
      0.713434     0.705791     0.698148     0.690505     0.682862     0.675219     0.667576     0.659933     0.652290     0.644646
      0.637003     0.629360     0.621717     0.614074     0.606431     0.598788     0.591145     0.583502     0.575858     0.568215
      0.560572     0.552929     0.545286     0.537643     0.530000     0.522357     0.514714     0.507071     0.499427     0.491784
      0.484141     0.476498     0.468855     0.461212     0.453569     0.445925     0.438282     0.430639     0.422996     0.415353
      0.407710     0.400067     0.392424     0.384780     0.377137     0.369494     0.361851     0.354208     0.346565     0.338922
      0.331278     0.323635     0.315992     0.308349     0.300706     0.293063     0.285420     0.277777     0.270133     0.262490
      0.254847     0.247204     0.239561     0.231918     0.224275     0.216631     0.208988     0.201345
 NY phased data points follow
   1.42489E+01  1.64666E+01  2.34607E+01  2.25618E+01  1.78487E+01  1.65479E+01  2.25307E+01  3.24606E+01  3.78075E+01  3.82344E+01
   4.47283E+01  4.18532E+01  3.91431E+01  4.75055E+01  3.39801E+01  2.97933E+01  3.09983E+01  2.70458E+01  2.50362E+01  3.14567E+01
   3.07311E+01  2.89448E+01  3.11712E+01  2.59767E+01  2.41456E+01  2.25010E+01  2.00166E+01  2.26984E+01  2.28785E+01  2.83103E+01
   3.01379E+01  2.29820E+01  2.88465E+01  2.32987E+01  2.62635E+01  2.06501E+01  1.69149E+01  2.03305E+01  1.82010E+01  1.63957E+01
   2.21204E+01  1.70771E+01  1.29685E+01  2.33024E+01  2.25276E+01  2.67733E+01  2.11782E+01  2.55763E+01  2.11084E+01  2.10170E+01
   2.00032E+01  2.27810E+01  1.83668E+01  2.54299E+01  1.33311E+01  1.43037E+01  1.56669E+01  2.16944E+01  2.03137E+01  1.60126E+01
   1.52715E+01  1.43749E+01  2.00070E+01  1.23806E+01  1.44482E+01  8.88683E+00  1.33030E+01  1.53245E+01  7.86163E+00  5.70921E+00
   1.57640E+01  1.60157E+01  1.23851E+01  8.87603E+00  1.76959E+01  1.68867E+01  9.20628E+00  1.08806E+01  1.15762E+01  1.47908E+01
   6.34309E+00  7.10443E+00  9.69599E+00  1.30645E+01  1.91421E+01  1.17347E+01  1.33244E+01  6.82792E+00  1.23991E+01  5.28677E+00
   1.07331E+01  1.91650E+01  9.53290E+00  1.85719E+01  1.11204E+01  1.26740E+01  7.88437E+00  1.22741E+01  1.31885E+01  2.47127E+01
   1.79478E+01  3.10111E+01  3.81921E+01  3.72928E+01  3.17732E+01  2.80646E+01  2.82907E+01  2.40761E+01  2.54275E+01  1.76482E+01
   1.63891E+01  1.30817E+01  1.81659E+01  1.73950E+01  3.57084E+00  7.82491E+00  1.11747E+01  1.26948E+01  8.13327E+00  1.53754E+01
   1.29653E+01  1.50276E+01  1.76912E+01  2.33205E+01  3.99726E+01  4.22647E+01  5.41869E+01  5.76773E+01  5.43729E+01  5.32414E+01
   3.99671E+01  3.15823E+01  2.83121E+01  2.20442E+01  1.68332E+01  1.66987E+01  9.69185E+00  1.58905E+01  1.60052E+01  1.40572E+01
   1.05354E+01  6.82872E+00  1.56069E+01  1.41618E+01 -9.50573E-02  3.17517E+00  1.66304E+01  6.81559E+00  5.45015E+00  3.89257E+00
   3.40272E+00  7.70213E+00  5.62952E+00 -3.53814E+00 -2.48878E-01  2.12575E+00  2.58258E+00  4.26749E+00 -7.28449E-01  4.18417E+00
  -2.15134E+00  4.27424E+00  1.84274E+00  9.17493E+00  5.73796E+00  7.15987E-01  3.83011E+00  4.31985E+00  5.21510E+00 -6.56803E+00
  -3.63077E+00 -1.21690E+00 -9.71976E+00 -6.07298E+00 -1.15987E+01 -1.79224E+00 -1.06108E+01 -1.58048E+01 -6.73762E+00 -1.09530E+01
  -1.48620E+01 -7.48098E+00 -5.92078E+00 -6.72631E+00 -2.89675E+00  1.28932E+00  2.09730E+00  3.18996E+00 -3.02431E+00  2.99968E+00
   3.44772E+00 -7.62238E-01  2.38260E+00 -1.29443E+00 -3.70723E-01 -5.49522E+00 -6.69373E+00 -5.18462E+00 -1.19921E+01 -6.45499E+00
  -2.79507E+00  2.57317E+00 -3.39894E+00  3.93673E+00 -2.11711E+00  4.27848E+00  2.50002E+00 -1.73044E+00  4.93114E-01 -7.49003E+00
  -4.97817E+00  1.86492E+00  5.97251E+00  8.40668E+00  1.79781E+01  1.02392E+01  1.65405E+01  1.19647E+01  9.37562E+00 -1.02496E+00
  -2.23137E+00 -2.93920E+00 -1.66791E+00 -1.61570E+00  7.00315E+00  1.12162E+01  1.03854E+01  1.57140E+01  1.32582E+01  1.92314E+01
   1.69397E+01  1.19912E+01  1.54380E+01  1.82451E+01  1.36985E+01  1.35008E+01  5.78557E+00  1.39462E+01  1.39820E+01  1.31882E+01
   1.26404E+01  1.56836E+01  1.92651E+01  2.15006E+01  2.21220E+01  2.74370E+01  2.04847E+01  2.33963E+01  2.61224E+01  2.87247E+01
   3.82525E+01  3.48519E+01  3.95419E+01  4.33493E+01  5.02275E+01  5.86302E+01  7.08991E+01  9.23517E+01  1.06122E+02  1.16136E+02
   1.28363E+02  1.18299E+02  9.95631E+01  8.26471E+01  6.34869E+01  4.40930E+01  2.79527E+01  2.53624E+01  1.86223E+01  1.07775E+01
   7.76188E+00  7.89429E+00  1.19270E+01  8.30089E+00  9.53762E+00  9.62864E+00  7.80837E+00 -1.09238E+00  3.51866E+00  5.61703E+00
   1.14631E+01  2.46085E+00  9.24814E+00 -1.06615E+00  4.14226E+00  3.36025E+00  5.68432E+00  2.34899E+00  1.08701E+01  5.92431E+00
   8.56282E+00  4.26254E+00  7.66702E+00  9.55978E+00  7.01293E+00  1.68704E+01  9.93566E+00  1.62248E+01  1.58141E+01  1.33076E+01
   1.56296E+01  1.80975E+01  8.05036E+00  1.31560E+01  1.95140E+01  1.14058E+01  1.96598E+01  2.06106E+01  2.24297E+01  1.80730E+01
   2.60960E+01  2.99389E+01  2.56346E+01  2.02827E+01  2.22759E+01  1.71080E+01  2.09781E+01  1.60652E+01  1.90671E+01  1.82390E+01
   1.23710E+01  1.73150E+01  1.28029E+01  1.95465E+01  1.52457E+01  1.21386E+01  1.53177E+01  1.54753E+01  8.65388E+00  1.09554E+00
   1.30468E+01  8.73054E+00  1.30709E+01  1.64944E+01  1.30523E+01  2.13407E+01  1.79858E+01  1.60868E+01  1.95531E+01  1.92790E+01
   1.77195E+01  1.45779E+01  1.55290E+01  1.61619E+01  1.92274E+01  1.45125E+01  1.79201E+01  1.35436E+01  1.30044E+01  1.43432E+01
   1.14391E+01  1.29797E+01  4.90204E+00  1.59564E+01  1.08830E+01  1.42128E+01  1.52835E+01  1.33036E+01  4.26057E+00  1.56330E+01
   9.24323E+00  9.75345E+00  1.12801E+01  1.68093E+01  1.64162E+01  2.00865E+01  1.81742E+01  9.48633E+00  1.53422E+01  1.29353E+01
   9.24899E+00  1.08546E+01  1.03028E+01  8.60417E+00  8.86099E+00  3.56787E+00  2.99484E+00  2.52978E+00  6.69539E+00  7.16987E+00
   6.13892E+00 -3.38356E+00 -4.52873E-01  1.98949E+00  4.32807E+00  1.09515E+01  2.38642E+00  1.14733E+01  6.39357E+00  1.15693E+01
   1.26974E+01  1.33569E+01  1.06617E+01  1.71705E+01  1.27076E+01  1.33164E+01  1.91242E+01  1.70698E+01  2.13613E+01  1.95235E+01
   1.09950E+01  2.26212E+01  1.88181E+01  9.44713E+00  1.10772E+01  1.79784E+01  1.12843E+01  1.07238E+01  1.07079E+01  8.59468E+00
   1.13694E+01  7.37179E+00  2.13104E-01  3.72386E+00  4.67505E+00  5.45172E+00  5.66549E+00 -3.92454E+00  2.39056E+00 -5.29671E+00
   3.53543E+00 -7.14506E+00  4.91247E+00 -4.46607E+00 -2.37416E-01 -5.69786E+00  5.37521E+00 -2.23394E+00 -1.49605E-01 -2.76717E+00
  -4.50369E+00 -5.81995E+00 -7.73433E+00 -1.72036E+00 -1.11542E+00 -5.87606E+00  1.19547E+00 -4.38816E+00 -5.41438E+00  9.16578E-01
  -1.21402E+00 -1.31566E+00 -4.01485E+00 -1.30036E+00 -9.52610E-01 -3.37922E+00 -1.85358E-01 -6.08652E+00 -1.10882E+01 -1.84467E+00
  -2.57741E-01  2.60172E+00 -5.09988E+00 -8.65269E+00 -1.01683E+01 -6.04719E+00  1.81055E+00 -6.80909E-01 -1.23761E+00 -8.06074E+00
  -3.02378E-01 -2.95163E-01  5.28075E-01 -5.08281E+00 -4.06309E+00 -1.14477E+00 -2.05497E+00  2.70783E+00 -1.74749E+00 -1.17974E+00
   4.72930E+00 -3.02340E+00 -2.50135E+00 -9.79114E+00 -4.14601E+00 -1.41765E+00  2.77929E+00 -7.89301E+00  3.65771E+00 -4.27444E+00
  -1.93033E+00 -3.18750E+00 -1.10582E+01  2.58586E+00 -9.66702E-01 -5.57739E+00  1.20415E+00  1.53327E+00 -6.17248E-01 -2.86559E+00
  -1.21661E+00 -4.15332E+00  1.20359E+00  1.72345E+00 -1.09161E+00 -3.32528E+00 -7.15342E+00 -5.98011E+00
 NY points of the fit to the data follow
   1.80530E+01  1.75118E+01  1.74528E+01  1.78232E+01  1.88213E+01  2.10169E+01  2.43959E+01  2.89030E+01  3.42043E+01  3.93899E+01
   4.33996E+01  4.53195E+01  4.45841E+01  4.14305E+01  3.69418E+01  3.23390E+01  2.83152E+01  2.51793E+01  2.30647E+01  2.16075E+01
   2.05573E+01  2.01916E+01  2.01760E+01  2.01105E+01  1.99559E+01  2.00624E+01  2.07463E+01  2.21750E+01  2.43553E+01  2.68537E+01
   2.89363E+01  2.99937E+01  2.96748E+01  2.78962E+01  2.49556E+01  2.16466E+01  1.86219E+01  1.62437E+01  1.49965E+01  1.48328E+01
   1.52873E+01  1.62375E+01  1.77837E+01  1.98382E+01  2.20449E+01  2.39780E+01  2.52241E+01  2.53107E+01  2.40843E+01  2.19753E+01
   1.95431E+01  1.72802E+01  1.55378E+01  1.44583E+01  1.39493E+01  1.38915E+01  1.42715E+01  1.49990E+01  1.57532E+01  1.62016E+01
   1.61947E+01  1.57250E+01  1.49627E+01  1.41304E+01  1.34455E+01  1.30844E+01  1.30331E+01  1.31798E+01  1.34852E+01  1.39002E+01
   1.43374E+01  1.47431E+01  1.50186E+01  1.50811E+01  1.49022E+01  1.45099E+01  1.39563E+01  1.33149E+01  1.27450E+01  1.23854E+01
   1.22900E+01  1.24520E+01  1.27691E+01  1.30309E+01  1.30624E+01  1.27879E+01  1.21609E+01  1.12672E+01  1.03461E+01  9.64579E+00
   9.24866E+00  9.10370E+00  9.12168E+00  9.17003E+00  9.18606E+00  9.33255E+00  1.00560E+01  1.18639E+01  1.48938E+01  1.93796E+01
   2.49810E+01  3.06861E+01  3.52387E+01  3.74232E+01  3.65359E+01  3.30303E+01  2.82180E+01  2.33634E+01  1.91759E+01  1.58920E+01
   1.34147E+01  1.13816E+01  9.94968E+00  9.48124E+00  9.38643E+00  9.38709E+00  9.42766E+00  9.54006E+00  9.77322E+00  1.03013E+01
   1.17539E+01  1.49880E+01  2.01973E+01  2.75453E+01  3.64372E+01  4.53341E+01  5.24246E+01  5.59802E+01  5.49977E+01  5.00304E+01
   4.28462E+01  3.51996E+01  2.81066E+01  2.20416E+01  1.71403E+01  1.31934E+01  1.05780E+01  9.79657E+00  9.90942E+00  1.02278E+01
   1.04312E+01  1.03975E+01  1.01654E+01  9.76198E+00  9.23644E+00  8.66355E+00  8.05766E+00  7.42761E+00  6.80897E+00  6.21132E+00
   5.68931E+00  5.25011E+00  4.90888E+00  4.66577E+00  4.45878E+00  4.21781E+00  3.86617E+00  3.34751E+00  2.73659E+00  2.14557E+00
   1.70579E+00  1.55040E+00  1.65932E+00  1.83790E+00  1.86630E+00  1.60971E+00  1.07529E+00  4.11106E-01 -2.10841E-01 -7.51825E-01
  -1.32970E+00 -1.96204E+00 -2.64142E+00 -3.29563E+00 -3.75623E+00 -3.96895E+00 -3.95262E+00 -3.77819E+00 -3.58926E+00 -3.51358E+00
  -3.57733E+00 -3.64307E+00 -3.53513E+00 -3.18882E+00 -2.53171E+00 -1.53921E+00 -2.36155E-01  1.38685E+00  3.09916E+00  4.51348E+00
   5.22383E+00  5.11517E+00  4.39268E+00  3.35539E+00  2.35589E+00  1.71563E+00  1.56529E+00  2.04520E+00  3.25780E+00  5.09294E+00
   7.24860E+00  9.36410E+00  1.09085E+01  1.12869E+01  1.01674E+01  7.61434E+00  3.94107E+00 -3.17902E-02 -3.22762E+00 -4.65885E+00
  -3.87585E+00 -8.44212E-01  3.68135E+00  8.40864E+00  1.20166E+01  1.34432E+01  1.21508E+01  8.66282E+00  4.09850E+00 -3.91102E-01
  -3.67203E+00 -4.82455E+00 -3.66978E+00 -7.30008E-01  3.09879E+00  6.98579E+00  1.00124E+01  1.18858E+01  1.27951E+01  1.31317E+01
   1.32729E+01  1.33426E+01  1.34541E+01  1.37799E+01  1.42918E+01  1.48238E+01  1.52786E+01  1.57188E+01  1.62056E+01  1.66933E+01
   1.71872E+01  1.78193E+01  1.86274E+01  1.96240E+01  2.07864E+01  2.18981E+01  2.28193E+01  2.36775E+01  2.47521E+01  2.64143E+01
   2.88908E+01  3.22575E+01  3.62994E+01  4.18507E+01  5.03480E+01  6.15236E+01  7.57511E+01  9.20421E+01  1.07482E+02  1.18567E+02
   1.21771E+02  1.15093E+02  1.00252E+02  8.16646E+01  6.34941E+01  4.81075E+01  3.60798E+01  2.68207E+01  1.89916E+01  1.33008E+01
   1.10991E+01  1.01557E+01  9.57107E+00  9.14612E+00  8.69068E+00  8.13306E+00  7.49940E+00  6.82802E+00  6.17187E+00  5.58179E+00
   5.08523E+00  4.68736E+00  4.39736E+00  4.21260E+00  4.11336E+00  4.08842E+00  4.13546E+00  4.26568E+00  4.49742E+00  4.83775E+00
   5.28895E+00  5.85325E+00  6.52588E+00  7.29613E+00  8.15229E+00  9.09050E+00  1.01060E+01  1.11889E+01  1.23274E+01  1.35028E+01
   1.46882E+01  1.58546E+01  1.69684E+01  1.79941E+01  1.89001E+01  1.96605E+01  2.02567E+01  2.06757E+01  2.09093E+01  2.09605E+01
   2.08391E+01  2.05620E+01  2.01534E+01  1.96430E+01  1.90648E+01  1.84564E+01  1.78586E+01  1.73170E+01  1.68894E+01  1.66686E+01
   1.67306E+01  1.69684E+01  1.72803E+01  1.74531E+01  1.71936E+01  1.63048E+01  1.47263E+01  1.26105E+01  1.04948E+01  8.92241E+00
   8.26585E+00  8.67094E+00  1.00238E+01  1.20182E+01  1.42110E+01  1.61909E+01  1.76689E+01  1.83927E+01  1.85053E+01  1.82804E+01
   1.79469E+01  1.76395E+01  1.73154E+01  1.68919E+01  1.64698E+01  1.59900E+01  1.53332E+01  1.44794E+01  1.35487E+01  1.27294E+01
   1.21849E+01  1.20067E+01  1.21777E+01  1.26048E+01  1.31415E+01  1.36226E+01  1.39493E+01  1.40584E+01  1.39360E+01  1.36564E+01
   1.32838E+01  1.28644E+01  1.24057E+01  1.18888E+01  1.13638E+01  1.08615E+01  1.03608E+01  9.85566E+00  9.34856E+00  8.84521E+00
   8.35298E+00  7.88005E+00  7.43507E+00  7.02689E+00  6.66436E+00  6.35603E+00  6.11000E+00  5.93381E+00  5.83440E+00  5.81805E+00
   5.89015E+00  6.05493E+00  6.31524E+00  6.67228E+00  7.12541E+00  7.67177E+00  8.30594E+00  9.01951E+00  9.80094E+00  1.06355E+01
   1.15055E+01  1.23902E+01  1.32666E+01  1.41098E+01  1.48940E+01  1.55937E+01  1.61845E+01  1.66448E+01  1.69561E+01  1.71046E+01
   1.70818E+01  1.68847E+01  1.65165E+01  1.59859E+01  1.53067E+01  1.44971E+01  1.35786E+01  1.25751E+01  1.15113E+01  1.04120E+01
   9.30065E+00  8.19851E+00  7.12429E+00  6.09357E+00  5.11851E+00  4.20785E+00  3.36711E+00  2.59896E+00  1.90367E+00  1.27951E+00
   7.23187E-01  2.30222E-01 -2.04551E-01 -5.86599E-01 -9.21414E-01 -1.21435E+00 -1.47054E+00 -1.69474E+00 -1.89125E+00 -2.06383E+00
  -2.21575E+00 -2.34988E+00 -2.46876E+00 -2.57455E+00 -2.66909E+00 -2.75386E+00 -2.83012E+00 -2.89897E+00 -2.96140E+00 -3.01823E+00
  -3.07012E+00 -3.11759E+00 -3.16110E+00 -3.20111E+00 -3.23804E+00 -3.27221E+00 -3.30388E+00 -3.33323E+00 -3.36048E+00 -3.38586E+00
  -3.40957E+00 -3.43175E+00 -3.45248E+00 -3.47183E+00 -3.48994E+00 -3.50694E+00 -3.52295E+00 -3.53801E+00 -3.55215E+00 -3.56542E+00
  -3.57792E+00 -3.58972E+00 -3.60089E+00 -3.61141E+00 -3.62129E+00 -3.63058E+00 -3.63936E+00 -3.64769E+00 -3.65558E+00 -3.66300E+00
  -3.66996E+00 -3.67650E+00 -3.68270E+00 -3.68857E+00 -3.69409E+00 -3.69923E+00 -3.70403E+00 -3.70854E+00 -3.71280E+00 -3.71680E+00
  -3.72051E+00 -3.72391E+00 -3.72704E+00 -3.72995E+00 -3.73264E+00 -3.73510E+00 -3.73727E+00 -3.73917E+00 -3.74083E+00 -3.74229E+00
  -3.74352E+00 -3.74449E+00 -3.74515E+00 -3.74552E+00 -3.74562E+00 -3.74546E+00 -3.74497E+00 -3.74411E+00
 NY background values follow
     1.441E+01    1.434E+01    1.426E+01    1.418E+01    1.411E+01    1.403E+01    1.395E+01    1.388E+01    1.380E+01    1.373E+01
     1.365E+01    1.357E+01    1.350E+01    1.342E+01    1.335E+01    1.327E+01    1.319E+01    1.312E+01    1.304E+01    1.296E+01
     1.289E+01    1.281E+01    1.274E+01    1.266E+01    1.258E+01    1.251E+01    1.243E+01    1.236E+01    1.228E+01    1.220E+01
     1.213E+01    1.205E+01    1.198E+01    1.190E+01    1.182E+01    1.175E+01    1.167E+01    1.160E+01    1.152E+01    1.144E+01
     1.137E+01    1.129E+01    1.122E+01    1.114E+01    1.106E+01    1.099E+01    1.091E+01    1.084E+01    1.076E+01    1.069E+01
     1.061E+01    1.053E+01    1.046E+01    1.038E+01    1.031E+01    1.023E+01    1.016E+01    1.008E+01    1.001E+01    9.932E+00
     9.857E+00    9.782E+00    9.707E+00    9.632E+00    9.557E+00    9.483E+00    9.408E+00    9.333E+00    9.259E+00    9.184E+00
     9.110E+00    9.035E+00    8.961E+00    8.887E+00    8.813E+00    8.739E+00    8.665E+00    8.591E+00    8.517E+00    8.444E+00
     8.370E+00    8.297E+00    8.223E+00    8.150E+00    8.077E+00    8.004E+00    7.931E+00    7.858E+00    7.785E+00    7.712E+00
     7.640E+00    7.568E+00    7.495E+00    7.423E+00    7.351E+00    7.279E+00    7.207E+00    7.136E+00    7.064E+00    6.993E+00
     6.921E+00    6.850E+00    6.779E+00    6.708E+00    6.638E+00    6.567E+00    6.497E+00    6.426E+00    6.356E+00    6.286E+00
     6.216E+00    6.147E+00    6.077E+00    6.008E+00    5.939E+00    5.870E+00    5.801E+00    5.732E+00    5.664E+00    5.595E+00
     5.527E+00    5.459E+00    5.391E+00    5.324E+00    5.256E+00    5.189E+00    5.122E+00    5.055E+00    4.988E+00    4.922E+00
     4.856E+00    4.790E+00    4.724E+00    4.658E+00    4.593E+00    4.527E+00    4.462E+00    4.397E+00    4.333E+00    4.268E+00
     4.204E+00    4.140E+00    4.076E+00    4.013E+00    3.950E+00    3.886E+00    3.824E+00    3.761E+00    3.699E+00    3.637E+00
     3.575E+00    3.513E+00    3.452E+00    3.391E+00    3.330E+00    3.269E+00    3.209E+00    3.149E+00    3.089E+00    3.030E+00
     2.971E+00    2.912E+00    2.853E+00    2.795E+00    2.737E+00    2.679E+00    2.622E+00    2.565E+00    2.508E+00    2.451E+00
     2.395E+00    2.339E+00    2.284E+00    2.228E+00    2.173E+00    2.119E+00    2.064E+00    2.010E+00    1.957E+00    1.903E+00
     1.850E+00    1.798E+00    1.746E+00    1.694E+00    1.642E+00    1.591E+00    1.540E+00    1.489E+00    1.439E+00    1.389E+00
     1.339E+00    1.290E+00    1.241E+00    1.193E+00    1.144E+00    1.097E+00    1.049E+00    1.002E+00    9.548E-01    9.082E-01
     8.619E-01    8.160E-01    7.703E-01    7.250E-01    6.800E-01    6.354E-01    5.910E-01    5.470E-01    5.033E-01    4.599E-01
     4.169E-01    3.741E-01    3.317E-01    2.895E-01    2.477E-01    2.062E-01    1.650E-01    1.241E-01    8.354E-02    4.327E-02
     3.308E-03   -3.635E-02   -7.570E-02   -1.148E-01   -1.535E-01   -1.919E-01   -2.301E-01   -2.679E-01   -3.055E-01   -3.427E-01
    -3.797E-01   -4.163E-01   -4.527E-01   -4.888E-01   -5.246E-01   -5.601E-01   -5.953E-01   -6.302E-01   -6.649E-01   -6.992E-01
    -7.333E-01   -7.671E-01   -8.006E-01   -8.339E-01   -8.668E-01   -8.995E-01   -9.320E-01   -9.641E-01   -9.960E-01   -1.028E+00
    -1.059E+00   -1.090E+00   -1.121E+00   -1.151E+00   -1.182E+00   -1.212E+00   -1.242E+00   -1.271E+00   -1.300E+00   -1.329E+00
    -1.358E+00   -1.387E+00   -1.415E+00   -1.443E+00   -1.471E+00   -1.498E+00   -1.525E+00   -1.552E+00   -1.579E+00   -1.606E+00
    -1.632E+00   -1.658E+00   -1.684E+00   -1.710E+00   -1.735E+00   -1.760E+00   -1.785E+00   -1.810E+00   -1.834E+00   -1.859E+00
    -1.883E+00   -1.906E+00   -1.930E+00   -1.953E+00   -1.976E+00   -1.999E+00   -2.022E+00   -2.044E+00   -2.067E+00   -2.089E+00
    -2.110E+00   -2.132E+00   -2.154E+00   -2.175E+00   -2.196E+00   -2.216E+00   -2.237E+00   -2.257E+00   -2.278E+00   -2.298E+00
    -2.317E+00   -2.337E+00   -2.356E+00   -2.375E+00   -2.394E+00   -2.413E+00   -2.432E+00   -2.450E+00   -2.468E+00   -2.486E+00
    -2.504E+00   -2.522E+00   -2.539E+00   -2.556E+00   -2.573E+00   -2.590E+00   -2.607E+00   -2.624E+00   -2.640E+00   -2.656E+00
    -2.672E+00   -2.688E+00   -2.704E+00   -2.719E+00   -2.734E+00   -2.749E+00   -2.764E+00   -2.779E+00   -2.794E+00   -2.808E+00
    -2.822E+00   -2.837E+00   -2.850E+00   -2.864E+00   -2.878E+00   -2.891E+00   -2.904E+00   -2.918E+00   -2.931E+00   -2.943E+00
    -2.956E+00   -2.968E+00   -2.981E+00   -2.993E+00   -3.005E+00   -3.017E+00   -3.028E+00   -3.040E+00   -3.051E+00   -3.062E+00
    -3.073E+00   -3.084E+00   -3.095E+00   -3.106E+00   -3.116E+00   -3.126E+00   -3.137E+00   -3.147E+00   -3.157E+00   -3.166E+00
    -3.176E+00   -3.185E+00   -3.195E+00   -3.204E+00   -3.213E+00   -3.222E+00   -3.230E+00   -3.239E+00   -3.247E+00   -3.256E+00
    -3.264E+00   -3.272E+00   -3.280E+00   -3.288E+00   -3.295E+00   -3.303E+00   -3.310E+00   -3.317E+00   -3.325E+00   -3.332E+00
    -3.338E+00   -3.345E+00   -3.352E+00   -3.358E+00   -3.365E+00   -3.371E+00   -3.377E+00   -3.383E+00   -3.389E+00   -3.394E+00
    -3.400E+00   -3.405E+00   -3.411E+00   -3.416E+00   -3.421E+00   -3.426E+00   -3.431E+00   -3.436E+00   -3.440E+00   -3.445E+00
    -3.449E+00   -3.453E+00   -3.458E+00   -3.462E+00   -3.466E+00   -3.469E+00   -3.473E+00   -3.477E+00   -3.480E+00   -3.483E+00
    -3.487E+00   -3.490E+00   -3.493E+00   -3.496E+00   -3.499E+00   -3.501E+00   -3.504E+00   -3.507E+00   -3.509E+00   -3.511E+00
    -3.514E+00   -3.516E+00   -3.518E+00   -3.520E+00   -3.522E+00   -3.523E+00   -3.525E+00   -3.527E+00   -3.528E+00   -3.530E+00
    -3.531E+00   -3.533E+00   -3.534E+00   -3.535E+00   -3.536E+00   -3.537E+00   -3.538E+00   -3.539E+00   -3.540E+00   -3.541E+00
    -3.542E+00   -3.542E+00   -3.543E+00   -3.543E+00   -3.544E+00   -3.544E+00   -3.545E+00   -3.545E+00   -3.545E+00   -3.546E+00
    -3.546E+00   -3.546E+00   -3.546E+00   -3.546E+00   -3.546E+00   -3.546E+00   -3.546E+00   -3.546E+00   -3.546E+00   -3.546E+00
    -3.546E+00   -3.546E+00   -3.546E+00   -3.546E+00   -3.545E+00   -3.545E+00   -3.545E+00   -3.544E+00   -3.544E+00   -3.544E+00
    -3.543E+00   -3.543E+00   -3.542E+00   -3.542E+00   -3.542E+00   -3.541E+00   -3.541E+00   -3.540E+00   -3.540E+00   -3.539E+00
    -3.538E+00   -3.538E+00   -3.537E+00   -3.537E+00   -3.536E+00   -3.536E+00   -3.535E+00   -3.535E+00   -3.534E+00   -3.533E+00
    -3.533E+00   -3.532E+00   -3.532E+00   -3.531E+00   -3.531E+00   -3.530E+00   -3.529E+00   -3.529E+00
 Ala      Conc. = 4.75E+02
