 LCModel (Version 6.3-1L) Copyright: S.W. Provencher.          Ref.: Magn. Reson. Med. 30:672-679 (1993).                
 Slice#3 Row#9 Col#2  PD_05_press_2_raw_act
 36 lines in following concentration table = NCONC+1
    Conc.  %SD /Cr+PCr  Metabolite                                         
  164.402  64%   0.803 Ala                                                 
   56.494 103%   0.276 Asp                                                 
  204.800  26%   1.000 Cr                                                  
    0.000 999%   0.000 PCr                                                 
   17.127 204% 8.4E-02 GABA                                                
   13.238 265% 6.5E-02 Glc                                                 
  447.039  49%   2.183 Gln                                                 
  307.759  76%   1.503 Glu                                                 
   82.834  25%   0.404 GPC                                                 
    0.000 999%   0.000 PCh                                                 
  382.378  21%   1.867 GSH                                                 
   19.404 999% 9.5E-02 Ins                                                 
  217.149  53%   1.060 Lac                                                 
  351.149  17%   1.715 NAA                                                 
    0.000 999%   0.000 NAAG                                                
    6.905 162% 3.4E-02 Scyllo                                              
   23.405 248%   0.114 Tau                                                 
   55.229 103%   0.270 -CrCH2                                              
   82.834  25%   0.404 GPC+PCh                                             
  351.149  17%   1.715 NAA+NAAG                                            
  204.800  26%   1.000 Cr+PCr                                              
  754.798  43%   3.686 Glu+Gln                                             
    0.000 999%   0.000 Lip13a                                              
    0.000 999%   0.000 Lip13b                                              
    0.000 999%   0.000 Lip09                                               
  424.101  43%   2.071 MM09                                                
    0.000 999%   0.000 Lip20                                               
  625.962  44%   3.056 MM20                                                
  126.439  45%   0.617 MM12                                                
  357.537  40%   1.746 MM14                                                
  176.496  43%   0.862 MM17                                                
    0.000 999%   0.000 Lip13a+Lip13b                                       
  483.977  41%   2.363 MM14+Lip13a+Lip13b+MM12                             
  424.101  43%   2.071 MM09+Lip09                                          
  625.962  44%   3.056 MM20+Lip20                                          
   6 lines in following misc. output table
  FWHM = 0.054 ppm    S/N =   2                                            
  Data shift =-0.008 ppm                                                   
  Ph: -10 deg     -10.8 deg/ppm                                            
  alphaB,S = 6.0E-01,   2.5E+01                                            
   14 spline knots.   Ns = 5(1)                                            
  (12) 2 infls.   (11) 1 extrs.                                            
  498 points on ppm-axis = NY
      4.000000     3.992357     3.984714     3.977070     3.969427     3.961784     3.954141     3.946497     3.938854     3.931211
      3.923568     3.915925     3.908281     3.900638     3.892995     3.885352     3.877708     3.870065     3.862422     3.854779
      3.847136     3.839492     3.831849     3.824206     3.816563     3.808919     3.801276     3.793633     3.785990     3.778347
      3.770703     3.763060     3.755417     3.747774     3.740130     3.732487     3.724844     3.717201     3.709558     3.701914
      3.694271     3.686628     3.678985     3.671341     3.663698     3.656055     3.648412     3.640769     3.633125     3.625482
      3.617839     3.610196     3.602552     3.594909     3.587266     3.579623     3.571980     3.564336     3.556693     3.549050
      3.541407     3.533763     3.526120     3.518477     3.510834     3.503191     3.495547     3.487904     3.480261     3.472618
      3.464974     3.457331     3.449688     3.442045     3.434402     3.426758     3.419115     3.411472     3.403829     3.396185
      3.388542     3.380899     3.373256     3.365613     3.357969     3.350326     3.342683     3.335040     3.327396     3.319753
      3.312110     3.304467     3.296824     3.289180     3.281537     3.273894     3.266251     3.258607     3.250964     3.243321
      3.235678     3.228034     3.220391     3.212748     3.205105     3.197462     3.189818     3.182175     3.174532     3.166889
      3.159245     3.151602     3.143959     3.136316     3.128673     3.121029     3.113386     3.105743     3.098100     3.090456
      3.082813     3.075170     3.067527     3.059884     3.052240     3.044597     3.036954     3.029311     3.021667     3.014024
      3.006381     2.998738     2.991095     2.983451     2.975808     2.968165     2.960522     2.952878     2.945235     2.937592
      2.929949     2.922306     2.914662     2.907019     2.899376     2.891733     2.884089     2.876446     2.868803     2.861160
      2.853517     2.845873     2.838230     2.830587     2.822944     2.815300     2.807657     2.800014     2.792371     2.784728
      2.777084     2.769441     2.761798     2.754155     2.746511     2.738868     2.731225     2.723582     2.715939     2.708295
      2.700652     2.693009     2.685366     2.677722     2.670079     2.662436     2.654793     2.647150     2.639506     2.631863
      2.624220     2.616577     2.608933     2.601290     2.593647     2.586004     2.578361     2.570717     2.563074     2.555431
      2.547788     2.540144     2.532501     2.524858     2.517215     2.509572     2.501928     2.494285     2.486642     2.478999
      2.471355     2.463712     2.456069     2.448426     2.440783     2.433139     2.425496     2.417853     2.410210     2.402566
      2.394923     2.387280     2.379637     2.371994     2.364350     2.356707     2.349064     2.341421     2.333777     2.326134
      2.318491     2.310848     2.303205     2.295561     2.287918     2.280275     2.272632     2.264988     2.257345     2.249702
      2.242059     2.234416     2.226772     2.219129     2.211486     2.203843     2.196199     2.188556     2.180913     2.173270
      2.165627     2.157983     2.150340     2.142697     2.135054     2.127410     2.119767     2.112124     2.104481     2.096838
      2.089194     2.081551     2.073908     2.066265     2.058621     2.050978     2.043335     2.035692     2.028049     2.020405
      2.012762     2.005119     1.997476     1.989833     1.982190     1.974546     1.966903     1.959260     1.951617     1.943974
      1.936331     1.928688     1.921045     1.913402     1.905759     1.898115     1.890472     1.882829     1.875186     1.867543
      1.859900     1.852257     1.844614     1.836971     1.829327     1.821684     1.814041     1.806398     1.798755     1.791112
      1.783469     1.775826     1.768183     1.760540     1.752896     1.745253     1.737610     1.729967     1.722324     1.714681
      1.707038     1.699395     1.691752     1.684108     1.676465     1.668822     1.661179     1.653536     1.645893     1.638250
      1.630607     1.622964     1.615321     1.607677     1.600034     1.592391     1.584748     1.577105     1.569462     1.561819
      1.554176     1.546533     1.538890     1.531246     1.523603     1.515960     1.508317     1.500674     1.493031     1.485388
      1.477745     1.470102     1.462458     1.454815     1.447172     1.439529     1.431886     1.424243     1.416600     1.408957
      1.401314     1.393671     1.386027     1.378384     1.370741     1.363098     1.355455     1.347812     1.340169     1.332526
      1.324883     1.317240     1.309596     1.301953     1.294310     1.286667     1.279024     1.271381     1.263738     1.256095
      1.248452     1.240808     1.233165     1.225522     1.217879     1.210236     1.202593     1.194950     1.187307     1.179664
      1.172021     1.164377     1.156734     1.149091     1.141448     1.133805     1.126162     1.118519     1.110876     1.103233
      1.095590     1.087946     1.080303     1.072660     1.065017     1.057374     1.049731     1.042088     1.034445     1.026802
      1.019158     1.011515     1.003872     0.996229     0.988586     0.980943     0.973300     0.965657     0.958014     0.950371
      0.942727     0.935084     0.927441     0.919798     0.912155     0.904512     0.896869     0.889226     0.881583     0.873940
      0.866296     0.858653     0.851010     0.843367     0.835724     0.828081     0.820438     0.812795     0.805152     0.797508
      0.789865     0.782222     0.774579     0.766936     0.759293     0.751650     0.744007     0.736364     0.728721     0.721077
      0.713434     0.705791     0.698148     0.690505     0.682862     0.675219     0.667576     0.659933     0.652290     0.644646
      0.637003     0.629360     0.621717     0.614074     0.606431     0.598788     0.591145     0.583502     0.575858     0.568215
      0.560572     0.552929     0.545286     0.537643     0.530000     0.522357     0.514714     0.507071     0.499427     0.491784
      0.484141     0.476498     0.468855     0.461212     0.453569     0.445925     0.438282     0.430639     0.422996     0.415353
      0.407710     0.400067     0.392424     0.384780     0.377137     0.369494     0.361851     0.354208     0.346565     0.338922
      0.331278     0.323635     0.315992     0.308349     0.300706     0.293063     0.285420     0.277777     0.270133     0.262490
      0.254847     0.247204     0.239561     0.231918     0.224275     0.216631     0.208988     0.201345
 NY phased data points follow
  -2.21768E+02 -2.20794E+02 -2.11215E+02 -2.15461E+02 -2.08251E+02 -2.07694E+02 -1.96536E+02 -1.98665E+02 -1.96586E+02 -1.92866E+02
  -1.87769E+02 -1.83260E+02 -1.77692E+02 -1.72203E+02 -1.74390E+02 -1.70057E+02 -1.79895E+02 -1.77066E+02 -1.70931E+02 -1.72472E+02
  -1.58261E+02 -1.61334E+02 -1.55564E+02 -1.56725E+02 -1.50683E+02 -1.49479E+02 -1.55940E+02 -1.45725E+02 -1.43094E+02 -1.37144E+02
  -1.33927E+02 -1.38467E+02 -1.32741E+02 -1.30552E+02 -1.25115E+02 -1.24493E+02 -1.19339E+02 -1.18854E+02 -1.20156E+02 -1.21192E+02
  -1.17947E+02 -1.20612E+02 -1.13637E+02 -1.17327E+02 -1.14055E+02 -1.08877E+02 -1.06839E+02 -1.07525E+02 -1.08176E+02 -1.15614E+02
  -1.06896E+02 -1.03545E+02 -1.00358E+02 -1.04113E+02 -1.01041E+02 -1.07054E+02 -1.00260E+02 -1.07164E+02 -9.69110E+01 -9.69710E+01
  -9.57861E+01 -9.98050E+01 -9.62070E+01 -9.88030E+01 -8.83543E+01 -9.08093E+01 -9.04260E+01 -9.09615E+01 -8.69479E+01 -9.21114E+01
  -8.46264E+01 -8.67608E+01 -8.39081E+01 -8.25647E+01 -8.79987E+01 -8.40786E+01 -7.96501E+01 -7.90035E+01 -8.30014E+01 -7.99372E+01
  -8.26342E+01 -7.49017E+01 -7.01872E+01 -7.43383E+01 -7.38206E+01 -7.90783E+01 -7.26749E+01 -6.86787E+01 -6.49891E+01 -6.97075E+01
  -6.79955E+01 -6.40914E+01 -5.54319E+01 -5.89243E+01 -6.22293E+01 -6.14192E+01 -6.36713E+01 -5.74693E+01 -5.72783E+01 -6.32261E+01
  -5.72400E+01 -4.98930E+01 -5.06187E+01 -5.07782E+01 -5.26312E+01 -4.93049E+01 -4.98986E+01 -5.13776E+01 -4.12496E+01 -5.26344E+01
  -4.96685E+01 -4.82534E+01 -4.62083E+01 -5.36154E+01 -4.65892E+01 -5.04144E+01 -4.71843E+01 -4.90527E+01 -4.67385E+01 -4.83459E+01
  -4.70319E+01 -4.96564E+01 -4.36388E+01 -4.73856E+01 -3.97287E+01 -3.94127E+01 -3.29108E+01 -3.06951E+01 -2.75926E+01 -3.65353E+01
  -3.86652E+01 -3.49486E+01 -4.26176E+01 -3.93649E+01 -3.64892E+01 -2.90923E+01 -3.71489E+01 -3.24685E+01 -3.41896E+01 -4.09214E+01
  -3.69489E+01 -3.70033E+01 -3.42287E+01 -3.18331E+01 -2.45574E+01 -2.97834E+01 -3.58568E+01 -3.04555E+01 -2.86499E+01 -2.72623E+01
  -2.98771E+01 -3.20189E+01 -2.47794E+01 -3.02384E+01 -2.92565E+01 -3.04571E+01 -2.62325E+01 -2.25421E+01 -2.87877E+01 -1.97682E+01
  -2.49514E+01 -2.24337E+01 -2.53619E+01 -2.18691E+01 -2.20033E+01 -2.32706E+01 -2.06244E+01 -2.33797E+01 -1.31633E+01 -2.37319E+01
  -1.50045E+01 -1.36425E+01 -1.14938E+01 -9.61680E+00 -1.63079E+01 -1.25592E+01 -1.70831E+01 -6.06801E+00 -1.38841E+01 -1.37294E+01
  -8.11078E+00 -1.15413E+01 -1.05482E+01 -1.31297E+01 -6.48299E+00 -6.15903E+00 -5.13240E+00 -8.69498E+00 -1.21801E+01 -6.97618E+00
  -6.72646E+00 -2.94076E+00 -3.09557E+00 -8.29585E+00 -4.98630E+00 -2.12214E+00 -4.86309E+00  1.60814E+00 -4.56995E+00 -1.43299E+00
  -1.03352E+01  5.04434E+00 -3.84552E+00 -1.37596E+00  1.36729E+00 -1.39991E+00 -1.11808E-01 -1.04524E+00 -5.68844E+00 -1.99581E+00
  -5.76816E-01 -3.20683E+00 -1.87840E+00 -6.01746E+00  3.91960E+00  1.14260E-01  3.15878E+00  8.64125E+00  6.07768E+00  5.36529E+00
   8.72431E+00  1.89795E+00  9.49372E-01  7.60776E+00  9.50184E+00  1.43913E+01  1.11767E+01  5.07206E+00  8.12876E+00  8.05123E+00
   9.17849E+00  1.56418E+01  1.22224E+01  1.35210E+01  1.13029E+01  1.09695E+01  1.61025E+01  9.40064E+00  1.26791E+01  1.46772E+01
   1.54653E+01  9.62981E+00  8.81381E+00  1.27232E+01  1.00290E+01  1.32650E+01  1.19163E+01  1.57255E+01  1.55544E+01  1.68309E+01
   2.08745E+01  1.79092E+01  1.96804E+01  2.05832E+01  2.97287E+01  2.59664E+01  1.53727E+01  1.82114E+01  2.09678E+01  3.75413E+01
   4.04379E+01  4.11374E+01  4.00520E+01  3.37047E+01  3.20803E+01  3.31862E+01  2.57455E+01  2.74699E+01  2.39427E+01  3.66609E+01
   3.02244E+01  3.03275E+01  3.15195E+01  3.21882E+01  3.40549E+01  3.79902E+01  3.84714E+01  3.05361E+01  3.23751E+01  3.68658E+01
   3.27652E+01  3.60148E+01  3.22477E+01  3.46276E+01  3.43278E+01  3.47134E+01  3.70311E+01  3.46608E+01  3.78274E+01  3.74534E+01
   4.03081E+01  3.35650E+01  3.40222E+01  3.23132E+01  3.68189E+01  3.57790E+01  3.72312E+01  4.04804E+01  3.39833E+01  3.98647E+01
   4.07538E+01  4.42400E+01  4.43850E+01  4.33773E+01  4.60513E+01  4.74517E+01  4.68301E+01  4.29104E+01  4.98461E+01  4.57554E+01
   5.05530E+01  5.45095E+01  4.81099E+01  5.53276E+01  6.09125E+01  5.03565E+01  5.18264E+01  4.75663E+01  5.42672E+01  5.36674E+01
   5.25117E+01  4.98998E+01  5.35931E+01  4.82581E+01  5.15925E+01  5.26043E+01  4.82308E+01  4.70941E+01  4.84620E+01  5.13401E+01
   4.72460E+01  4.87606E+01  4.75561E+01  5.01462E+01  4.78452E+01  4.27849E+01  4.49813E+01  4.63721E+01  4.62733E+01  4.80083E+01
   4.33304E+01  4.83917E+01  4.45638E+01  4.36710E+01  4.16023E+01  4.40644E+01  3.77796E+01  3.43508E+01  4.06366E+01  3.87466E+01
   3.32090E+01  3.05241E+01  3.10166E+01  3.52586E+01  2.71184E+01  2.39238E+01  2.87615E+01  3.46588E+01  3.17640E+01  3.10834E+01
   2.45249E+01  2.94634E+01  3.54793E+01  2.40317E+01  2.51044E+01  2.68213E+01  3.22188E+01  2.45221E+01  2.85962E+01  1.80846E+01
   2.17594E+01  2.75906E+01  2.24579E+01  2.45475E+01  2.26618E+01  2.58810E+01  2.40538E+01  1.79973E+01  2.05027E+01  1.89914E+01
   1.64737E+01  1.70745E+01  2.47355E+01  1.61287E+01  2.26182E+01  1.56297E+01  1.64130E+01  1.45680E+01  1.28002E+01  1.77033E+01
   1.05655E+01  1.26974E+01  1.51445E+01  1.05921E+01  1.69704E+01  1.54707E+01  1.28263E+01  8.31875E+00  1.36539E+01  6.74443E+00
   1.41388E+01  1.13431E+01  1.88685E+01  1.21477E+01  8.43228E+00  1.17260E+01  1.22323E+01  1.32715E+01  8.37041E+00  9.04652E+00
   6.95194E+00  8.13675E+00  4.96708E+00  4.76312E+00  1.55922E+00  8.28838E+00  9.29254E+00  9.81647E+00  6.83254E+00  6.71062E+00
   1.35227E+01  4.55853E+00  3.21706E+00  2.72677E+00  1.95665E+00  3.38056E+00  1.38470E+00  6.38174E+00  1.90794E+00  1.38993E+00
   5.35100E+00  5.67167E+00  2.09567E+00 -1.66985E+00  3.96578E+00  4.21985E+00  5.47292E+00  3.94059E+00  1.08358E+00  6.20280E+00
   6.66635E+00  2.99709E+00  5.77971E+00 -1.60107E+00  7.21672E+00  6.74560E+00  3.94671E+00  1.62503E+00  6.22668E+00  5.22963E+00
   4.92845E+00  2.69772E+00  6.45325E+00  5.15919E+00  1.02912E+01  8.70175E+00 -4.22120E-01 -2.35168E+00  1.00759E+01  1.07123E+01
   3.54385E-01 -3.97897E-01  4.72419E+00 -2.77371E+00 -6.77039E-01  1.32079E+00  5.46361E+00  6.36236E+00  2.65572E+00  3.49503E+00
   4.00340E-01  6.46237E+00  6.41490E+00  6.14725E+00  4.01400E+00 -6.61590E-01  6.61693E+00  4.87358E+00  1.17461E+00  4.57604E+00
   5.67317E+00  6.10287E+00  5.27196E+00  6.55309E+00  3.93543E+00 -1.01038E+00  1.06223E+01  9.72696E+00  4.21439E+00  7.61895E+00
   4.65211E+00  7.94361E+00  7.66524E+00  9.05570E+00  7.67097E+00  9.21727E+00  5.98162E+00  2.10499E+00
 NY points of the fit to the data follow
  -2.12387E+02 -2.10012E+02 -2.07593E+02 -2.05131E+02 -2.02659E+02 -2.00233E+02 -1.97820E+02 -1.95291E+02 -1.92301E+02 -1.88890E+02
  -1.85489E+02 -1.82406E+02 -1.79742E+02 -1.77481E+02 -1.75424E+02 -1.73579E+02 -1.72248E+02 -1.71137E+02 -1.69439E+02 -1.67288E+02
  -1.64975E+02 -1.62634E+02 -1.60379E+02 -1.58274E+02 -1.56389E+02 -1.54647E+02 -1.52713E+02 -1.50109E+02 -1.46280E+02 -1.41606E+02
  -1.36945E+02 -1.32951E+02 -1.29968E+02 -1.28146E+02 -1.27393E+02 -1.27623E+02 -1.28734E+02 -1.29573E+02 -1.29014E+02 -1.27679E+02
  -1.25865E+02 -1.23774E+02 -1.21601E+02 -1.19547E+02 -1.17727E+02 -1.16150E+02 -1.14692E+02 -1.13201E+02 -1.11740E+02 -1.10314E+02
  -1.08875E+02 -1.07459E+02 -1.06111E+02 -1.04784E+02 -1.03455E+02 -1.02166E+02 -1.00925E+02 -9.96883E+01 -9.84494E+01 -9.72179E+01
  -9.60069E+01 -9.48220E+01 -9.36547E+01 -9.25014E+01 -9.13629E+01 -9.02475E+01 -8.91530E+01 -8.80739E+01 -8.70121E+01 -8.59658E+01
  -8.49309E+01 -8.39076E+01 -8.28941E+01 -8.18804E+01 -8.08748E+01 -7.99002E+01 -7.89569E+01 -7.80508E+01 -7.71815E+01 -7.63265E+01
  -7.54750E+01 -7.46266E+01 -7.37610E+01 -7.28481E+01 -7.18986E+01 -7.09606E+01 -7.00737E+01 -6.92515E+01 -6.84909E+01 -6.77691E+01
  -6.70684E+01 -6.64027E+01 -6.57742E+01 -6.51162E+01 -6.44005E+01 -6.36600E+01 -6.28876E+01 -6.20230E+01 -6.08845E+01 -5.93297E+01
  -5.69985E+01 -5.40691E+01 -5.13481E+01 -4.93910E+01 -4.83258E+01 -4.81042E+01 -4.84384E+01 -4.91440E+01 -5.03887E+01 -5.18339E+01
  -5.22682E+01 -5.19261E+01 -5.14024E+01 -5.08220E+01 -5.02155E+01 -4.95897E+01 -4.89551E+01 -4.83285E+01 -4.77261E+01 -4.71385E+01
  -4.65326E+01 -4.58101E+01 -4.47868E+01 -4.33133E+01 -4.11095E+01 -3.84990E+01 -3.61793E+01 -3.45401E+01 -3.36282E+01 -3.33204E+01
  -3.33395E+01 -3.35753E+01 -3.42445E+01 -3.51197E+01 -3.54496E+01 -3.56620E+01 -3.59903E+01 -3.62066E+01 -3.61109E+01 -3.56787E+01
  -3.48890E+01 -3.36440E+01 -3.21770E+01 -3.08763E+01 -2.98587E+01 -2.91809E+01 -2.88283E+01 -2.86040E+01 -2.84485E+01 -2.81958E+01
  -2.78252E+01 -2.74188E+01 -2.69995E+01 -2.65543E+01 -2.60733E+01 -2.55630E+01 -2.50197E+01 -2.44512E+01 -2.39063E+01 -2.33993E+01
  -2.28905E+01 -2.23509E+01 -2.17818E+01 -2.12009E+01 -2.06132E+01 -2.00295E+01 -1.94411E+01 -1.88579E+01 -1.83207E+01 -1.78253E+01
  -1.73518E+01 -1.68855E+01 -1.63927E+01 -1.59221E+01 -1.55113E+01 -1.51071E+01 -1.46750E+01 -1.42214E+01 -1.37760E+01 -1.33551E+01
  -1.29389E+01 -1.24880E+01 -1.20077E+01 -1.16063E+01 -1.13182E+01 -1.10083E+01 -1.05513E+01 -9.86994E+00 -8.96755E+00 -7.90332E+00
  -6.78386E+00 -5.76735E+00 -5.01553E+00 -4.70567E+00 -4.85545E+00 -5.37229E+00 -6.04973E+00 -6.51922E+00 -6.44230E+00 -5.68240E+00
  -4.33195E+00 -2.72328E+00 -1.10867E+00  3.73066E-01  1.49274E+00  1.87081E+00  1.49639E+00  6.03104E-01 -5.47850E-01 -1.42082E+00
  -1.72558E+00 -1.45023E+00 -5.66546E-01  8.57974E-01  2.52490E+00  4.20466E+00  5.65603E+00  6.36145E+00  6.36040E+00  6.07108E+00
   5.59540E+00  5.09339E+00  4.84169E+00  5.11334E+00  5.82540E+00  6.75096E+00  7.74705E+00  8.71068E+00  9.54170E+00  1.00046E+01
   1.00353E+01  9.93929E+00  1.00115E+01  1.02572E+01  1.07268E+01  1.15473E+01  1.26931E+01  1.39421E+01  1.50046E+01  1.56017E+01
   1.56299E+01  1.53556E+01  1.50064E+01  1.45631E+01  1.42823E+01  1.45914E+01  1.53876E+01  1.63083E+01  1.73548E+01  1.85452E+01
   1.95629E+01  2.03609E+01  2.09563E+01  2.14711E+01  2.19945E+01  2.27528E+01  2.39536E+01  2.59446E+01  2.91362E+01  3.26771E+01
   3.54310E+01  3.69920E+01  3.73410E+01  3.66751E+01  3.54228E+01  3.35327E+01  3.08704E+01  2.88548E+01  2.85029E+01  2.86674E+01
   2.89547E+01  2.93424E+01  2.98065E+01  3.02983E+01  3.08223E+01  3.13649E+01  3.19050E+01  3.24306E+01  3.29356E+01  3.34090E+01
   3.38634E+01  3.43214E+01  3.47902E+01  3.52722E+01  3.57686E+01  3.62750E+01  3.67881E+01  3.73039E+01  3.78144E+01  3.83192E+01
   3.88186E+01  3.93114E+01  3.97980E+01  4.02808E+01  4.07600E+01  4.12337E+01  4.17013E+01  4.21637E+01  4.26191E+01  4.30657E+01
   4.35026E+01  4.39282E+01  4.43408E+01  4.47384E+01  4.51189E+01  4.54800E+01  4.58201E+01  4.61374E+01  4.64305E+01  4.66977E+01
   4.69385E+01  4.71525E+01  4.73397E+01  4.75004E+01  4.76356E+01  4.77463E+01  4.78346E+01  4.79030E+01  4.79559E+01  4.79998E+01
   4.80446E+01  4.81103E+01  4.82341E+01  4.84155E+01  4.86540E+01  4.88251E+01  4.86605E+01  4.80772E+01  4.71803E+01  4.60850E+01
   4.49463E+01  4.38945E+01  4.30260E+01  4.26463E+01  4.29960E+01  4.37017E+01  4.42759E+01  4.46158E+01  4.46980E+01  4.45851E+01
   4.42529E+01  4.35718E+01  4.28024E+01  4.23348E+01  4.20889E+01  4.19169E+01  4.14327E+01  4.04133E+01  3.89496E+01  3.72035E+01
   3.53867E+01  3.37115E+01  3.23461E+01  3.15922E+01  3.17286E+01  3.24872E+01  3.31312E+01  3.34595E+01  3.34603E+01  3.32140E+01
   3.26579E+01  3.16180E+01  3.04358E+01  2.95256E+01  2.87650E+01  2.80712E+01  2.74140E+01  2.67796E+01  2.61609E+01  2.55540E+01
   2.49565E+01  2.43673E+01  2.37858E+01  2.32117E+01  2.26454E+01  2.20874E+01  2.15383E+01  2.09988E+01  2.04699E+01  1.99524E+01
   1.94474E+01  1.89559E+01  1.84791E+01  1.80179E+01  1.75735E+01  1.71467E+01  1.67384E+01  1.63493E+01  1.59799E+01  1.56302E+01
   1.53001E+01  1.49889E+01  1.46956E+01  1.44185E+01  1.41554E+01  1.39037E+01  1.36603E+01  1.34218E+01  1.31844E+01  1.29445E+01
   1.26982E+01  1.24422E+01  1.21735E+01  1.18898E+01  1.15895E+01  1.12719E+01  1.09372E+01  1.05866E+01  1.02219E+01  9.84535E+00
   9.45997E+00  9.06910E+00  8.67645E+00  8.28579E+00  7.90082E+00  7.52498E+00  7.16135E+00  6.81255E+00  6.48070E+00  6.16738E+00
   5.87365E+00  5.60006E+00  5.34676E+00  5.11347E+00  4.89970E+00  4.70466E+00  4.52747E+00  4.36706E+00  4.22240E+00  4.09239E+00
   3.97602E+00  3.87227E+00  3.78023E+00  3.69899E+00  3.62777E+00  3.56583E+00  3.51253E+00  3.46725E+00  3.42945E+00  3.39860E+00
   3.37426E+00  3.35599E+00  3.34343E+00  3.33617E+00  3.33388E+00  3.33621E+00  3.34288E+00  3.35355E+00  3.36798E+00  3.38584E+00
   3.40688E+00  3.43081E+00  3.45739E+00  3.48642E+00  3.51782E+00  3.55151E+00  3.58745E+00  3.62557E+00  3.66586E+00  3.70823E+00
   3.75265E+00  3.79905E+00  3.84742E+00  3.89768E+00  3.94984E+00  4.00381E+00  4.05958E+00  4.11707E+00  4.17629E+00  4.23717E+00
   4.29970E+00  4.36381E+00  4.42948E+00  4.49666E+00  4.56534E+00  4.63547E+00  4.70703E+00  4.77996E+00  4.85424E+00  4.92981E+00
   5.00669E+00  5.08481E+00  5.16415E+00  5.24465E+00  5.32630E+00  5.40906E+00  5.49292E+00  5.57782E+00  5.66375E+00  5.75064E+00
   5.83850E+00  5.92727E+00  6.01695E+00  6.10749E+00  6.19886E+00  6.29101E+00  6.38394E+00  6.47762E+00
 NY background values follow
    -2.121E+02   -2.098E+02   -2.074E+02   -2.050E+02   -2.027E+02   -2.003E+02   -1.980E+02   -1.957E+02   -1.933E+02   -1.910E+02
    -1.887E+02   -1.864E+02   -1.841E+02   -1.818E+02   -1.796E+02   -1.773E+02   -1.750E+02   -1.728E+02   -1.706E+02   -1.684E+02
    -1.662E+02   -1.640E+02   -1.618E+02   -1.597E+02   -1.576E+02   -1.554E+02   -1.534E+02   -1.513E+02   -1.492E+02   -1.472E+02
    -1.452E+02   -1.432E+02   -1.412E+02   -1.392E+02   -1.373E+02   -1.354E+02   -1.335E+02   -1.316E+02   -1.298E+02   -1.280E+02
    -1.262E+02   -1.245E+02   -1.227E+02   -1.210E+02   -1.194E+02   -1.177E+02   -1.161E+02   -1.145E+02   -1.130E+02   -1.114E+02
    -1.099E+02   -1.085E+02   -1.070E+02   -1.056E+02   -1.042E+02   -1.028E+02   -1.015E+02   -1.002E+02   -9.889E+01   -9.762E+01
    -9.637E+01   -9.515E+01   -9.395E+01   -9.277E+01   -9.161E+01   -9.047E+01   -8.935E+01   -8.825E+01   -8.717E+01   -8.611E+01
    -8.507E+01   -8.405E+01   -8.304E+01   -8.205E+01   -8.108E+01   -8.012E+01   -7.918E+01   -7.826E+01   -7.735E+01   -7.645E+01
    -7.556E+01   -7.469E+01   -7.383E+01   -7.299E+01   -7.215E+01   -7.133E+01   -7.052E+01   -6.971E+01   -6.892E+01   -6.814E+01
    -6.736E+01   -6.660E+01   -6.584E+01   -6.509E+01   -6.434E+01   -6.361E+01   -6.288E+01   -6.216E+01   -6.144E+01   -6.073E+01
    -6.003E+01   -5.933E+01   -5.864E+01   -5.796E+01   -5.728E+01   -5.661E+01   -5.594E+01   -5.528E+01   -5.462E+01   -5.396E+01
    -5.331E+01   -5.267E+01   -5.203E+01   -5.139E+01   -5.076E+01   -5.012E+01   -4.950E+01   -4.887E+01   -4.825E+01   -4.763E+01
    -4.701E+01   -4.640E+01   -4.578E+01   -4.517E+01   -4.456E+01   -4.395E+01   -4.334E+01   -4.274E+01   -4.213E+01   -4.153E+01
    -4.092E+01   -4.032E+01   -3.971E+01   -3.910E+01   -3.850E+01   -3.789E+01   -3.728E+01   -3.667E+01   -3.606E+01   -3.545E+01
    -3.484E+01   -3.423E+01   -3.362E+01   -3.301E+01   -3.240E+01   -3.179E+01   -3.118E+01   -3.057E+01   -2.996E+01   -2.935E+01
    -2.875E+01   -2.814E+01   -2.754E+01   -2.694E+01   -2.634E+01   -2.574E+01   -2.515E+01   -2.456E+01   -2.397E+01   -2.338E+01
    -2.280E+01   -2.221E+01   -2.164E+01   -2.106E+01   -2.049E+01   -1.993E+01   -1.937E+01   -1.881E+01   -1.826E+01   -1.771E+01
    -1.716E+01   -1.662E+01   -1.609E+01   -1.556E+01   -1.504E+01   -1.452E+01   -1.401E+01   -1.350E+01   -1.300E+01   -1.251E+01
    -1.202E+01   -1.154E+01   -1.106E+01   -1.060E+01   -1.014E+01   -9.681E+00   -9.231E+00   -8.787E+00   -8.349E+00   -7.916E+00
    -7.487E+00   -7.064E+00   -6.644E+00   -6.230E+00   -5.819E+00   -5.412E+00   -5.008E+00   -4.608E+00   -4.211E+00   -3.817E+00
    -3.426E+00   -3.037E+00   -2.650E+00   -2.266E+00   -1.883E+00   -1.502E+00   -1.122E+00   -7.434E-01   -3.657E-01    1.135E-02
     3.879E-01    7.642E-01    1.140E+00    1.517E+00    1.894E+00    2.271E+00    2.649E+00    3.029E+00    3.410E+00    3.792E+00
     4.176E+00    4.562E+00    4.950E+00    5.340E+00    5.734E+00    6.130E+00    6.529E+00    6.931E+00    7.337E+00    7.746E+00
     8.158E+00    8.574E+00    8.992E+00    9.414E+00    9.840E+00    1.027E+01    1.070E+01    1.114E+01    1.157E+01    1.202E+01
     1.246E+01    1.291E+01    1.336E+01    1.381E+01    1.427E+01    1.473E+01    1.520E+01    1.567E+01    1.614E+01    1.661E+01
     1.709E+01    1.757E+01    1.805E+01    1.854E+01    1.903E+01    1.952E+01    2.002E+01    2.052E+01    2.102E+01    2.153E+01
     2.204E+01    2.255E+01    2.307E+01    2.359E+01    2.411E+01    2.463E+01    2.516E+01    2.569E+01    2.623E+01    2.677E+01
     2.731E+01    2.785E+01    2.840E+01    2.895E+01    2.950E+01    3.006E+01    3.061E+01    3.117E+01    3.172E+01    3.227E+01
     3.282E+01    3.337E+01    3.391E+01    3.445E+01    3.499E+01    3.552E+01    3.604E+01    3.656E+01    3.707E+01    3.757E+01
     3.807E+01    3.855E+01    3.902E+01    3.949E+01    3.994E+01    4.038E+01    4.081E+01    4.122E+01    4.162E+01    4.201E+01
     4.238E+01    4.274E+01    4.308E+01    4.340E+01    4.370E+01    4.399E+01    4.425E+01    4.450E+01    4.473E+01    4.493E+01
     4.511E+01    4.528E+01    4.541E+01    4.553E+01    4.562E+01    4.568E+01    4.572E+01    4.573E+01    4.572E+01    4.568E+01
     4.561E+01    4.552E+01    4.541E+01    4.528E+01    4.512E+01    4.494E+01    4.474E+01    4.452E+01    4.427E+01    4.401E+01
     4.373E+01    4.343E+01    4.312E+01    4.278E+01    4.243E+01    4.206E+01    4.168E+01    4.129E+01    4.088E+01    4.045E+01
     4.001E+01    3.957E+01    3.910E+01    3.863E+01    3.815E+01    3.766E+01    3.715E+01    3.664E+01    3.612E+01    3.560E+01
     3.506E+01    3.453E+01    3.398E+01    3.343E+01    3.287E+01    3.231E+01    3.175E+01    3.119E+01    3.062E+01    3.005E+01
     2.948E+01    2.891E+01    2.834E+01    2.777E+01    2.720E+01    2.664E+01    2.607E+01    2.551E+01    2.494E+01    2.438E+01
     2.383E+01    2.327E+01    2.272E+01    2.217E+01    2.163E+01    2.109E+01    2.055E+01    2.002E+01    1.949E+01    1.896E+01
     1.844E+01    1.793E+01    1.742E+01    1.692E+01    1.642E+01    1.593E+01    1.545E+01    1.497E+01    1.450E+01    1.404E+01
     1.359E+01    1.314E+01    1.270E+01    1.227E+01    1.185E+01    1.144E+01    1.103E+01    1.064E+01    1.025E+01    9.876E+00
     9.511E+00    9.156E+00    8.812E+00    8.478E+00    8.156E+00    7.845E+00    7.546E+00    7.258E+00    6.983E+00    6.719E+00
     6.467E+00    6.226E+00    5.996E+00    5.777E+00    5.569E+00    5.371E+00    5.183E+00    5.005E+00    4.837E+00    4.679E+00
     4.529E+00    4.389E+00    4.258E+00    4.135E+00    4.021E+00    3.915E+00    3.817E+00    3.727E+00    3.645E+00    3.569E+00
     3.501E+00    3.440E+00    3.385E+00    3.337E+00    3.295E+00    3.259E+00    3.229E+00    3.204E+00    3.185E+00    3.170E+00
     3.161E+00    3.156E+00    3.156E+00    3.160E+00    3.168E+00    3.180E+00    3.196E+00    3.215E+00    3.237E+00    3.261E+00
     3.289E+00    3.319E+00    3.351E+00    3.386E+00    3.422E+00    3.460E+00    3.501E+00    3.543E+00    3.587E+00    3.633E+00
     3.681E+00    3.731E+00    3.783E+00    3.836E+00    3.891E+00    3.947E+00    4.006E+00    4.066E+00    4.127E+00    4.190E+00
     4.255E+00    4.321E+00    4.389E+00    4.458E+00    4.528E+00    4.600E+00    4.674E+00    4.748E+00    4.824E+00    4.901E+00
     4.979E+00    5.059E+00    5.139E+00    5.221E+00    5.304E+00    5.388E+00    5.473E+00    5.558E+00    5.645E+00    5.733E+00
     5.822E+00    5.911E+00    6.002E+00    6.093E+00    6.185E+00    6.278E+00    6.372E+00    6.466E+00
 Ala      Conc. = 1.64E+02
