 LCModel (Version 6.3-1L) Copyright: S.W. Provencher.          Ref.: Magn. Reson. Med. 30:672-679 (1993).                
 Slice#1 Row#7 Col#8  PD_05_press_2_raw_act
 36 lines in following concentration table = NCONC+1
    Conc.  %SD /Cr+PCr  Metabolite                                         
  349.394  61%   0.196 Ala                                                 
    0.000 999%   0.000 Asp                                                 
 1.12E+03  30%   0.630 Cr                                                  
  660.604  54%   0.370 PCr                                                 
  126.779 183% 7.1E-02 GABA                                                
  279.657  84%   0.157 Glc                                                 
  560.608  74%   0.314 Gln                                                 
 2.68E+03  19%   1.500 Glu                                                 
  531.693   8%   0.298 GPC                                                 
    0.000 999%   0.000 PCh                                                 
  830.068  18%   0.465 GSH                                                 
 2.46E+03  19%   1.375 Ins                                                 
  656.881  35%   0.368 Lac                                                 
 3.95E+03   6%   2.212 NAA                                                 
  850.983  28%   0.477 NAAG                                                
  108.451  45% 6.1E-02 Scyllo                                              
    0.000 999%   0.000 Tau                                                 
   86.473 227% 4.8E-02 -CrCH2                                              
  531.693   8%   0.298 GPC+PCh                                             
 4.80E+03   4%   2.689 NAA+NAAG                                            
 1.79E+03   7%   1.000 Cr+PCr                                              
 3.24E+03  20%   1.814 Glu+Gln                                             
 3.31E+03  29%   1.855 Lip13a                                              
    0.000 999%   0.000 Lip13b                                              
  538.949  71%   0.302 Lip09                                               
 2.58E+03  18%   1.444 MM09                                                
  483.865  50%   0.271 Lip20                                               
 5.20E+03  14%   2.915 MM20                                                
  696.443  45%   0.390 MM12                                                
 6.67E+03   8%   3.735+MM14                                                
 1.73E+03  25%   0.967 MM17                                                
 3.31E+03  29%   1.855 Lip13a+Lip13b                                       
 1.07E+04   6%   5.980 MM14+Lip13a+Lip13b+MM12                             
 3.12E+03  11%   1.746 MM09+Lip09                                          
 5.69E+03  12%   3.186 MM20+Lip20                                          
   6 lines in following misc. output table
  FWHM = 0.038 ppm    S/N =  11                                            
  Data shift = 0.008 ppm                                                   
  Ph: -15 deg       7.8 deg/ppm                                            
  alphaB,S = 8.5E+01,   1.7E+01                                            
   14 spline knots.   Ns = 6(1)                                            
   2 inflections.     1 extrema                                            
  498 points on ppm-axis = NY
      4.000000     3.992357     3.984714     3.977070     3.969427     3.961784     3.954141     3.946497     3.938854     3.931211
      3.923568     3.915925     3.908281     3.900638     3.892995     3.885352     3.877708     3.870065     3.862422     3.854779
      3.847136     3.839492     3.831849     3.824206     3.816563     3.808919     3.801276     3.793633     3.785990     3.778347
      3.770703     3.763060     3.755417     3.747774     3.740130     3.732487     3.724844     3.717201     3.709558     3.701914
      3.694271     3.686628     3.678985     3.671341     3.663698     3.656055     3.648412     3.640769     3.633125     3.625482
      3.617839     3.610196     3.602552     3.594909     3.587266     3.579623     3.571980     3.564336     3.556693     3.549050
      3.541407     3.533763     3.526120     3.518477     3.510834     3.503191     3.495547     3.487904     3.480261     3.472618
      3.464974     3.457331     3.449688     3.442045     3.434402     3.426758     3.419115     3.411472     3.403829     3.396185
      3.388542     3.380899     3.373256     3.365613     3.357969     3.350326     3.342683     3.335040     3.327396     3.319753
      3.312110     3.304467     3.296824     3.289180     3.281537     3.273894     3.266251     3.258607     3.250964     3.243321
      3.235678     3.228034     3.220391     3.212748     3.205105     3.197462     3.189818     3.182175     3.174532     3.166889
      3.159245     3.151602     3.143959     3.136316     3.128673     3.121029     3.113386     3.105743     3.098100     3.090456
      3.082813     3.075170     3.067527     3.059884     3.052240     3.044597     3.036954     3.029311     3.021667     3.014024
      3.006381     2.998738     2.991095     2.983451     2.975808     2.968165     2.960522     2.952878     2.945235     2.937592
      2.929949     2.922306     2.914662     2.907019     2.899376     2.891733     2.884089     2.876446     2.868803     2.861160
      2.853517     2.845873     2.838230     2.830587     2.822944     2.815300     2.807657     2.800014     2.792371     2.784728
      2.777084     2.769441     2.761798     2.754155     2.746511     2.738868     2.731225     2.723582     2.715939     2.708295
      2.700652     2.693009     2.685366     2.677722     2.670079     2.662436     2.654793     2.647150     2.639506     2.631863
      2.624220     2.616577     2.608933     2.601290     2.593647     2.586004     2.578361     2.570717     2.563074     2.555431
      2.547788     2.540144     2.532501     2.524858     2.517215     2.509572     2.501928     2.494285     2.486642     2.478999
      2.471355     2.463712     2.456069     2.448426     2.440783     2.433139     2.425496     2.417853     2.410210     2.402566
      2.394923     2.387280     2.379637     2.371994     2.364350     2.356707     2.349064     2.341421     2.333777     2.326134
      2.318491     2.310848     2.303205     2.295561     2.287918     2.280275     2.272632     2.264988     2.257345     2.249702
      2.242059     2.234416     2.226772     2.219129     2.211486     2.203843     2.196199     2.188556     2.180913     2.173270
      2.165627     2.157983     2.150340     2.142697     2.135054     2.127410     2.119767     2.112124     2.104481     2.096838
      2.089194     2.081551     2.073908     2.066265     2.058621     2.050978     2.043335     2.035692     2.028049     2.020405
      2.012762     2.005119     1.997476     1.989833     1.982190     1.974546     1.966903     1.959260     1.951617     1.943974
      1.936331     1.928688     1.921045     1.913402     1.905759     1.898115     1.890472     1.882829     1.875186     1.867543
      1.859900     1.852257     1.844614     1.836971     1.829327     1.821684     1.814041     1.806398     1.798755     1.791112
      1.783469     1.775826     1.768183     1.760540     1.752896     1.745253     1.737610     1.729967     1.722324     1.714681
      1.707038     1.699395     1.691752     1.684108     1.676465     1.668822     1.661179     1.653536     1.645893     1.638250
      1.630607     1.622964     1.615321     1.607677     1.600034     1.592391     1.584748     1.577105     1.569462     1.561819
      1.554176     1.546533     1.538890     1.531246     1.523603     1.515960     1.508317     1.500674     1.493031     1.485388
      1.477745     1.470102     1.462458     1.454815     1.447172     1.439529     1.431886     1.424243     1.416600     1.408957
      1.401314     1.393671     1.386027     1.378384     1.370741     1.363098     1.355455     1.347812     1.340169     1.332526
      1.324883     1.317240     1.309596     1.301953     1.294310     1.286667     1.279024     1.271381     1.263738     1.256095
      1.248452     1.240808     1.233165     1.225522     1.217879     1.210236     1.202593     1.194950     1.187307     1.179664
      1.172021     1.164377     1.156734     1.149091     1.141448     1.133805     1.126162     1.118519     1.110876     1.103233
      1.095590     1.087946     1.080303     1.072660     1.065017     1.057374     1.049731     1.042088     1.034445     1.026802
      1.019158     1.011515     1.003872     0.996229     0.988586     0.980943     0.973300     0.965657     0.958014     0.950371
      0.942727     0.935084     0.927441     0.919798     0.912155     0.904512     0.896869     0.889226     0.881583     0.873940
      0.866296     0.858653     0.851010     0.843367     0.835724     0.828081     0.820438     0.812795     0.805152     0.797508
      0.789865     0.782222     0.774579     0.766936     0.759293     0.751650     0.744007     0.736364     0.728721     0.721077
      0.713434     0.705791     0.698148     0.690505     0.682862     0.675219     0.667576     0.659933     0.652290     0.644646
      0.637003     0.629360     0.621717     0.614074     0.606431     0.598788     0.591145     0.583502     0.575858     0.568215
      0.560572     0.552929     0.545286     0.537643     0.530000     0.522357     0.514714     0.507071     0.499427     0.491784
      0.484141     0.476498     0.468855     0.461212     0.453569     0.445925     0.438282     0.430639     0.422996     0.415353
      0.407710     0.400067     0.392424     0.384780     0.377137     0.369494     0.361851     0.354208     0.346565     0.338922
      0.331278     0.323635     0.315992     0.308349     0.300706     0.293063     0.285420     0.277777     0.270133     0.262490
      0.254847     0.247204     0.239561     0.231918     0.224275     0.216631     0.208988     0.201345
 NY phased data points follow
   2.00329E+01  2.43557E+01  7.58812E+00  2.75782E+01  2.97392E+01  3.72010E+01  3.48923E+01  3.85886E+01  2.87617E+01  5.16198E+01
   5.79731E+01  6.06989E+01  3.78641E+01  4.41659E+01  1.87903E+01  2.79902E+01  2.59484E+01  3.07445E+01  1.12536E+01  2.25532E+01
   2.03060E+01  3.20066E+01  2.89090E+01  2.82878E+01  2.03763E+01  3.38384E+01  2.89995E+01  3.59195E+01  1.72177E+01  3.94775E+01
   3.02076E+01  3.35725E+01  1.81596E+01  3.31747E+01  2.64420E+01  2.74533E+01  8.83526E+00  1.84444E+01  1.04769E+01  2.15518E+01
   9.26308E+00  2.66326E+01  2.02838E+01  2.48711E+01  2.54162E+01  3.79794E+01  3.12490E+01  3.76071E+01  2.36352E+01  1.58184E+01
   2.59103E+01  3.10902E+01  1.27985E+01  2.53740E+01  1.77337E+01  1.98431E+01  1.56609E+01  2.53648E+01  2.15575E+01  1.06860E+01
   1.36515E+01  2.25942E+01  1.55441E+00 -1.94312E+00 -1.22736E+00  7.51755E+00  2.10054E-01  1.52055E+01  2.46792E+00  1.15067E+01
   1.01018E+01  1.85188E+01 -5.58358E-01  1.20859E+01  2.30705E+00  4.89762E+00  8.20915E+00  2.06944E+01  5.90351E+00  1.39266E+01
   9.76363E+00  4.87206E+00  1.30021E+01 -5.11735E-01  1.89773E+01  9.96159E+00  7.48757E+00  1.24993E+01  8.52386E+00  8.31095E+00
   1.24330E+01  2.12295E+01 -3.29514E+00  1.27237E+01  1.10125E+01  2.32560E+01  1.69688E+01  1.29257E+01  8.38397E+00  2.27467E+01
   4.24140E+01  5.53805E+01  5.57289E+01  6.28593E+01  4.90949E+01  4.21229E+01  2.77600E+01  3.20715E+01  1.92931E+01  1.39134E+01
   2.07572E+01  4.30072E+00  1.92116E+01  1.29787E+01  9.57892E+00  1.06640E+01  1.12399E+01  5.13971E+00  6.01041E-01  8.46721E+00
   1.24533E+01  1.74500E+01  1.37570E+01  3.71097E+01  4.14069E+01  5.55184E+01  8.14367E+01  8.25102E+01  7.30466E+01  5.27045E+01
   3.89920E+01  3.39771E+01  2.89147E+01  1.19742E+01  1.73416E+01  1.66249E+01  5.09437E+00  1.07538E+01  6.32241E+00  1.35518E+01
   7.67487E+00  1.20001E+01  9.19259E+00  1.19162E+01  4.71973E+00  8.70059E+00  3.53490E+00  3.66854E+00  1.20722E+01 -4.77857E+00
   6.82504E+00  5.08664E+00  7.32201E+00  1.59170E+01 -9.43572E-01 -6.82311E+00 -9.44667E+00  2.47460E+00  7.33179E+00  9.31429E+00
   1.72290E+01  9.04843E+00  4.72978E+00  1.36396E+00  2.54921E+00 -1.81116E+00  1.87313E+00  2.33172E+00 -1.16990E+01 -1.02931E+01
  -1.25469E+01  5.38366E-02 -1.63081E+01 -1.09842E+01 -1.77587E+01 -2.04060E+01 -1.91994E+01 -1.83184E+01 -1.93881E+01 -7.90852E+00
  -1.57862E+01 -1.49340E+01 -1.65766E+01 -1.48449E+01 -8.38890E+00 -4.61069E+00 -7.78180E+00 -9.02086E+00 -1.08744E+01  4.04509E+00
   1.06992E+01  1.59757E+00  5.31846E+00 -2.31880E+00 -1.38969E+01  2.81746E+00 -1.21497E+01 -2.43517E+00 -1.03382E+01 -2.28621E+00
  -1.17389E+01 -1.85096E+00  5.27172E+00  7.41814E+00  1.02300E+01  3.69952E+00 -4.45789E+00  3.49007E+00 -4.39169E+00  7.82516E+00
   2.79706E+00  8.92211E+00  1.25644E+01  1.35339E+01  1.78920E+01  3.40229E+01  9.63213E+00  1.23450E+01  1.40426E+01 -2.89847E+00
  -3.48366E+00 -1.53990E+01 -7.83768E+00  7.36267E+00 -1.73941E+00  5.90983E+00  1.68378E+01  2.21655E+01  8.53307E+00  3.55026E+00
   2.05847E+01  9.31310E+00  1.60157E+01  1.15927E+01  9.48298E+00  1.23668E+01  1.82998E+01  1.20119E+01  9.51990E+00  2.11196E+01
   1.03768E+01  1.75651E+01  5.85195E+00  2.27617E+01  1.37916E+01  1.70470E+01  2.50642E+01  2.52546E+01  3.62740E+01  3.69114E+01
   3.01984E+01  3.80533E+01  5.37171E+01  5.49912E+01  5.98314E+01  7.67530E+01  9.56007E+01  1.28278E+02  1.57291E+02  1.65681E+02
   1.84537E+02  1.74609E+02  1.23553E+02  9.70053E+01  5.77987E+01  3.96518E+01  1.93717E+01  2.05560E+01  1.85800E+01  2.28051E+01
   1.94155E+01  4.97492E+00  2.17487E+01  2.93447E+00  1.16460E+01  8.20556E+00 -2.06703E+00 -1.85283E+00  9.09879E+00  4.48341E-01
  -5.06934E+00  5.40388E+00  1.23493E+00  6.23177E+00  4.17522E+00 -1.04635E+00  4.68272E+00 -2.94908E+00 -5.94687E-01  4.33441E+00
   4.28784E+00  2.00295E+00  3.31719E+00  5.98626E+00  3.92236E+00  7.32088E+00  5.79708E+00  1.17064E+01 -1.48858E+00  8.55303E+00
   7.53855E-02  8.69293E+00  7.72666E+00  1.89608E+01  5.72831E+00  3.67381E+00  4.10170E+00  1.48324E+01  2.52145E+01  1.75976E+01
   1.48278E+00  2.02153E+01  1.54471E+01  5.52710E+00  7.66225E+00 -7.01911E+00  6.41640E+00  2.52507E+00 -6.30687E+00  8.61937E+00
   2.51501E+01  1.12674E+01  1.98692E+01  2.25847E+01  2.00513E+01  2.26293E+01  2.80154E+01  3.00002E+01  3.01540E+01  2.38105E+01
   3.43576E+01  3.69482E+01  3.75967E+01  5.25976E+01  4.72495E+01  6.08285E+01  4.93706E+01  5.79614E+01  5.21572E+01  5.53000E+01
   5.25905E+01  5.27424E+01  5.40564E+01  6.49372E+01  6.28193E+01  6.18981E+01  4.72593E+01  5.31080E+01  4.15367E+01  3.63959E+01
   3.14491E+01  3.19614E+01  2.47747E+01  2.65349E+01  3.06191E+01  2.71485E+01  2.27995E+01  3.74719E+01  1.76985E+01  2.64161E+01
   2.72290E+01  2.75131E+01  1.87478E+01  2.50518E+01  2.37696E+01  9.32016E+00  1.01094E+01  5.42445E+00  1.05798E+01  3.39744E+00
   4.63115E+00 -4.53153E-01  6.70279E-01  4.02998E+00  2.88576E+00 -8.58667E+00  4.03894E+00 -4.04191E-01 -5.44180E+00 -1.06089E+01
  -2.14428E+00  2.05874E+00  4.64345E+00  5.76859E+00 -4.35980E+00  8.07211E+00 -1.37612E+01  2.23996E+01 -5.44926E+00 -8.16915E-01
  -7.20995E+00  6.08396E+00 -9.10313E+00  4.14057E+00  5.70152E+00  7.98241E-01  1.27759E+01  1.37910E+01  1.56706E+01  2.22154E+01
   1.27926E+01  1.25798E+01  2.09649E+01  2.07751E+01  1.15636E+01  1.85105E+01  1.49425E+01  2.40978E+01  1.79475E+01  1.55686E+01
   2.43810E+01  2.63548E+01  1.38526E+01 -8.91189E+00  6.37539E+00 -6.46064E-01  1.20016E+01 -2.61755E+00  2.02829E+00 -1.12775E+01
  -3.34255E+00 -2.44351E+00 -4.38252E+00 -6.67988E+00 -5.19560E+00 -1.03134E+01 -4.44815E-01  1.13902E+01 -2.79812E+00 -7.30648E+00
  -8.30177E+00 -1.62268E+00  4.35187E+00 -1.86324E+01 -1.06761E+01 -1.97138E+01 -1.00019E+01 -3.69770E+00 -9.25625E+00 -8.55170E+00
   8.12274E+00 -6.65251E+00  1.21353E+00 -1.91725E+00 -7.36162E+00 -8.59646E+00 -4.35825E+00  1.39793E+00 -1.90304E+00 -1.40817E+01
  -1.33926E+01 -1.34584E+00 -9.94432E+00 -8.33309E+00 -1.33838E+01 -1.26804E+00  4.98394E+00 -8.84205E+00 -1.14911E+01 -1.57397E+01
  -1.57822E+01 -9.47815E+00 -1.74231E+01 -6.27050E+00 -1.38596E+01 -8.04831E+00 -5.18116E+00 -1.45186E+01 -2.75716E+00 -5.32368E+00
  -4.08769E+00 -5.39223E+00  2.67323E+00 -3.02182E+00 -3.62101E-02 -3.02151E+00 -2.63818E+00 -5.72810E+00 -1.26030E+01 -8.42147E+00
  -1.73627E-01 -6.72411E+00 -4.74920E+00 -5.17076E-01 -7.98469E+00 -6.77428E+00 -5.48442E+00 -1.45696E+01 -8.51124E+00  2.21646E+00
  -1.40024E+01 -1.61039E+01 -1.85612E+01 -4.28341E+00 -7.57476E+00  2.90907E+00 -8.71567E+00 -2.23885E+01
 NY points of the fit to the data follow
   1.56225E+01  1.57923E+01  1.65618E+01  1.81929E+01  2.08100E+01  2.50739E+01  3.13715E+01  3.79372E+01  4.54013E+01  5.15922E+01
   5.32947E+01  5.20148E+01  4.74104E+01  3.89994E+01  3.06304E+01  2.52899E+01  2.14892E+01  1.86741E+01  1.80131E+01  1.68926E+01
   1.65030E+01  1.67173E+01  1.67938E+01  1.72761E+01  1.83652E+01  2.02806E+01  2.39707E+01  2.77501E+01  3.15627E+01  3.56531E+01
   3.66254E+01  3.42736E+01  3.12173E+01  2.80026E+01  2.34409E+01  1.88341E+01  1.54538E+01  1.26176E+01  1.13674E+01  1.15895E+01
   1.32766E+01  1.55650E+01  1.85184E+01  2.30076E+01  2.75722E+01  3.07534E+01  3.26865E+01  3.15294E+01  2.65989E+01  2.03282E+01
   1.55290E+01  1.24841E+01  1.09756E+01  1.08871E+01  1.12846E+01  1.23582E+01  1.40906E+01  1.58359E+01  1.72533E+01  1.77554E+01
   1.67994E+01  1.48043E+01  1.25070E+01  1.06445E+01  9.73190E+00  9.97424E+00  1.07910E+01  1.19626E+01  1.31851E+01  1.41313E+01
   1.48123E+01  1.52190E+01  1.50746E+01  1.45114E+01  1.38368E+01  1.33731E+01  1.28512E+01  1.24439E+01  1.20392E+01  1.16098E+01
   1.14272E+01  1.14181E+01  1.14927E+01  1.16796E+01  1.14125E+01  1.06084E+01  9.53868E+00  7.95295E+00  6.50322E+00  6.27365E+00
   7.08152E+00  8.04244E+00  9.02269E+00  9.74500E+00  9.61505E+00  9.45375E+00  9.67145E+00  1.20697E+01  1.74371E+01  2.66532E+01
   3.99632E+01  5.19492E+01  6.05685E+01  6.38172E+01  5.64491E+01  4.20944E+01  2.97760E+01  2.14597E+01  1.51076E+01  1.20244E+01
   1.02512E+01  7.69945E+00  7.21282E+00  7.34138E+00  7.54723E+00  7.74772E+00  7.93262E+00  8.15986E+00  8.53826E+00  9.20952E+00
   1.08057E+01  1.50949E+01  2.26191E+01  3.36907E+01  4.89902E+01  6.32668E+01  7.35058E+01  7.82182E+01  7.15569E+01  5.62419E+01
   4.20883E+01  3.15952E+01  2.27203E+01  1.64008E+01  1.13118E+01  5.99037E+00  4.40095E+00  5.07049E+00  6.80175E+00  8.80538E+00
   1.01029E+01  1.04662E+01  1.01402E+01  9.29423E+00  8.36573E+00  7.72435E+00  6.99542E+00  6.46452E+00  5.86340E+00  5.19831E+00
   4.55225E+00  3.95516E+00  3.56135E+00  3.38141E+00  3.38989E+00  3.51584E+00  3.51304E+00  2.97357E+00  1.91132E+00  8.99207E-01
  -4.27242E-02 -3.68341E-01  3.77885E-01  1.20654E+00  1.45240E+00  8.80587E-01 -6.15341E-01 -2.29106E+00 -3.16685E+00 -3.56783E+00
  -4.06498E+00 -4.52680E+00 -5.39238E+00 -6.64021E+00 -7.40575E+00 -7.64696E+00 -7.45282E+00 -6.53764E+00 -5.70550E+00 -5.67579E+00
  -6.12715E+00 -6.60645E+00 -6.43557E+00 -5.70395E+00 -4.74339E+00 -3.47012E+00 -1.25781E+00  1.66174E+00  5.33437E+00  8.64134E+00
   9.97007E+00  9.49046E+00  7.91823E+00  5.62937E+00  3.66429E+00  2.66190E+00  2.32577E+00  2.76891E+00  4.15196E+00  6.07133E+00
   8.25491E+00  1.03242E+01  1.17937E+01  1.24619E+01  1.14813E+01  8.97965E+00  5.10979E+00  7.91175E-01 -2.39597E+00 -4.26993E+00
  -3.74936E+00 -5.63818E-01  4.60302E+00  1.01946E+01  1.48706E+01  1.76806E+01  1.62410E+01  1.05648E+01  3.07407E+00 -3.95306E+00
  -8.70437E+00 -1.05268E+01 -8.79450E+00 -4.07904E+00  2.68444E+00  8.57614E+00  1.19284E+01  1.33236E+01  1.30912E+01  1.22896E+01
   1.18047E+01  1.21059E+01  1.33377E+01  1.55609E+01  1.75578E+01  1.85712E+01  1.86061E+01  1.73110E+01  1.52153E+01  1.29848E+01
   1.15245E+01  1.17430E+01  1.32393E+01  1.60145E+01  1.96218E+01  2.28131E+01  2.44468E+01  2.49111E+01  2.51554E+01  2.57240E+01
   2.84235E+01  3.32229E+01  4.11265E+01  5.08658E+01  6.34648E+01  8.11392E+01  1.01232E+02  1.27474E+02  1.52631E+02  1.71390E+02
   1.81782E+02  1.66792E+02  1.28995E+02  9.17457E+01  6.58108E+01  4.56864E+01  3.26114E+01  2.65276E+01  1.62679E+01  1.18360E+01
   1.03402E+01  9.60043E+00  9.13541E+00  8.94597E+00  8.59019E+00  7.94373E+00  7.05563E+00  6.14131E+00  5.29165E+00  4.59630E+00
   4.05289E+00  3.63533E+00  3.37761E+00  3.21428E+00  3.05340E+00  2.90373E+00  2.79810E+00  2.71381E+00  2.72742E+00  2.87160E+00
   3.11349E+00  3.45758E+00  3.88855E+00  4.31111E+00  4.71677E+00  5.12677E+00  5.54440E+00  5.97785E+00  6.43467E+00  6.90388E+00
   7.39182E+00  7.86030E+00  8.26892E+00  8.60318E+00  8.84722E+00  8.98485E+00  9.03933E+00  9.00583E+00  8.89419E+00  8.72534E+00
   8.51738E+00  8.29540E+00  8.09126E+00  7.93933E+00  7.87738E+00  7.94597E+00  8.18659E+00  8.64318E+00  9.36384E+00  1.04063E+01
   1.18607E+01  1.38388E+01  1.61755E+01  1.88692E+01  2.15883E+01  2.37904E+01  2.55791E+01  2.67662E+01  2.73227E+01  2.84543E+01
   3.07363E+01  3.38724E+01  3.78497E+01  4.23912E+01  4.68232E+01  5.11053E+01  5.43515E+01  5.59532E+01  5.66269E+01  5.68760E+01
   5.67387E+01  5.67698E+01  5.69016E+01  5.66149E+01  5.62217E+01  5.45868E+01  5.13465E+01  4.67846E+01  4.03650E+01  3.36435E+01
   2.89554E+01  2.64566E+01  2.59932E+01  2.70448E+01  2.89555E+01  3.08558E+01  3.19275E+01  3.07983E+01  2.85383E+01  2.61350E+01
   2.35255E+01  2.11504E+01  1.91424E+01  1.68173E+01  1.47736E+01  1.29682E+01  1.13187E+01  9.80011E+00  8.40423E+00  7.12875E+00
   5.97237E+00  4.93371E+00  4.01027E+00  3.19933E+00  2.49744E+00  1.90116E+00  1.40646E+00  1.00979E+00  7.07970E-01  4.99290E-01
   3.82840E-01  3.58949E-01  4.28377E-01  5.93078E-01  8.55561E-01  1.21925E+00  1.68712E+00  2.26161E+00  2.94344E+00  3.73195E+00
   4.62388E+00  5.61335E+00  6.69034E+00  7.84089E+00  9.04638E+00  1.02846E+01  1.15295E+01  1.27520E+01  1.39204E+01  1.50020E+01
   1.59646E+01  1.67779E+01  1.74155E+01  1.78555E+01  1.80819E+01  1.80854E+01  1.78644E+01  1.74249E+01  1.67798E+01  1.59483E+01
   1.49542E+01  1.38255E+01  1.25924E+01  1.12862E+01  9.93739E+00  8.57448E+00  7.22277E+00  5.90448E+00  4.63770E+00  3.43674E+00
   2.31134E+00  1.26760E+00  3.07961E-01 -5.67392E-01 -1.36070E+00 -2.07565E+00 -2.71767E+00 -3.29271E+00 -3.80726E+00 -4.26729E+00
  -4.67884E+00 -5.04742E+00 -5.37866E+00 -5.67733E+00 -5.94786E+00 -6.19362E+00 -6.41790E+00 -6.62341E+00 -6.81295E+00 -6.98856E+00
  -7.15207E+00 -7.30463E+00 -7.44765E+00 -7.58222E+00 -7.70967E+00 -7.83066E+00 -7.94588E+00 -8.05564E+00 -8.16066E+00 -8.26145E+00
  -8.35869E+00 -8.45249E+00 -8.54313E+00 -8.63063E+00 -8.71553E+00 -8.79807E+00 -8.87865E+00 -8.95713E+00 -9.03368E+00 -9.10828E+00
  -9.18141E+00 -9.25315E+00 -9.32371E+00 -9.39283E+00 -9.46067E+00 -9.52724E+00 -9.59298E+00 -9.65784E+00 -9.72191E+00 -9.78493E+00
  -9.84708E+00 -9.90841E+00 -9.96926E+00 -1.00295E+01 -1.00891E+01 -1.01480E+01 -1.02062E+01 -1.02639E+01 -1.03214E+01 -1.03784E+01
  -1.04350E+01 -1.04909E+01 -1.05465E+01 -1.06017E+01 -1.06569E+01 -1.07116E+01 -1.07660E+01 -1.08198E+01 -1.08736E+01 -1.09272E+01
  -1.09807E+01 -1.10338E+01 -1.10867E+01 -1.11392E+01 -1.11918E+01 -1.12444E+01 -1.12968E+01 -1.13489E+01
 NY background values follow
     8.170E+00    8.128E+00    8.087E+00    8.046E+00    8.005E+00    7.963E+00    7.922E+00    7.881E+00    7.839E+00    7.798E+00
     7.757E+00    7.716E+00    7.674E+00    7.633E+00    7.592E+00    7.550E+00    7.509E+00    7.468E+00    7.426E+00    7.385E+00
     7.344E+00    7.302E+00    7.261E+00    7.220E+00    7.178E+00    7.137E+00    7.096E+00    7.054E+00    7.013E+00    6.971E+00
     6.930E+00    6.889E+00    6.847E+00    6.806E+00    6.764E+00    6.723E+00    6.682E+00    6.640E+00    6.599E+00    6.557E+00
     6.516E+00    6.475E+00    6.433E+00    6.392E+00    6.350E+00    6.309E+00    6.267E+00    6.226E+00    6.184E+00    6.143E+00
     6.101E+00    6.060E+00    6.018E+00    5.977E+00    5.935E+00    5.894E+00    5.852E+00    5.811E+00    5.769E+00    5.728E+00
     5.686E+00    5.645E+00    5.603E+00    5.562E+00    5.520E+00    5.479E+00    5.437E+00    5.396E+00    5.354E+00    5.313E+00
     5.271E+00    5.229E+00    5.188E+00    5.146E+00    5.105E+00    5.063E+00    5.022E+00    4.980E+00    4.938E+00    4.897E+00
     4.855E+00    4.814E+00    4.772E+00    4.730E+00    4.689E+00    4.647E+00    4.606E+00    4.564E+00    4.522E+00    4.481E+00
     4.439E+00    4.397E+00    4.356E+00    4.314E+00    4.273E+00    4.231E+00    4.189E+00    4.148E+00    4.106E+00    4.064E+00
     4.023E+00    3.981E+00    3.939E+00    3.898E+00    3.856E+00    3.814E+00    3.773E+00    3.731E+00    3.689E+00    3.648E+00
     3.606E+00    3.564E+00    3.522E+00    3.481E+00    3.439E+00    3.397E+00    3.356E+00    3.314E+00    3.272E+00    3.231E+00
     3.189E+00    3.147E+00    3.105E+00    3.064E+00    3.022E+00    2.980E+00    2.938E+00    2.897E+00    2.855E+00    2.813E+00
     2.771E+00    2.730E+00    2.688E+00    2.646E+00    2.604E+00    2.563E+00    2.521E+00    2.479E+00    2.437E+00    2.396E+00
     2.354E+00    2.312E+00    2.270E+00    2.229E+00    2.187E+00    2.145E+00    2.103E+00    2.062E+00    2.020E+00    1.978E+00
     1.936E+00    1.894E+00    1.853E+00    1.811E+00    1.769E+00    1.727E+00    1.685E+00    1.644E+00    1.602E+00    1.560E+00
     1.518E+00    1.476E+00    1.435E+00    1.393E+00    1.351E+00    1.309E+00    1.267E+00    1.225E+00    1.184E+00    1.142E+00
     1.100E+00    1.058E+00    1.016E+00    9.746E-01    9.327E-01    8.909E-01    8.491E-01    8.073E-01    7.654E-01    7.236E-01
     6.818E-01    6.399E-01    5.981E-01    5.562E-01    5.144E-01    4.726E-01    4.307E-01    3.889E-01    3.470E-01    3.052E-01
     2.633E-01    2.215E-01    1.796E-01    1.378E-01    9.595E-02    5.410E-02    1.225E-02   -2.961E-02   -7.146E-02   -1.133E-01
    -1.552E-01   -1.970E-01   -2.389E-01   -2.807E-01   -3.226E-01   -3.645E-01   -4.063E-01   -4.482E-01   -4.900E-01   -5.319E-01
    -5.738E-01   -6.156E-01   -6.575E-01   -6.994E-01   -7.412E-01   -7.831E-01   -8.249E-01   -8.668E-01   -9.087E-01   -9.505E-01
    -9.924E-01   -1.034E+00   -1.076E+00   -1.118E+00   -1.160E+00   -1.202E+00   -1.244E+00   -1.286E+00   -1.327E+00   -1.369E+00
    -1.411E+00   -1.453E+00   -1.495E+00   -1.537E+00   -1.579E+00   -1.620E+00   -1.662E+00   -1.704E+00   -1.746E+00   -1.788E+00
    -1.830E+00   -1.872E+00   -1.914E+00   -1.955E+00   -1.997E+00   -2.039E+00   -2.081E+00   -2.123E+00   -2.165E+00   -2.207E+00
    -2.249E+00   -2.290E+00   -2.332E+00   -2.374E+00   -2.416E+00   -2.458E+00   -2.500E+00   -2.542E+00   -2.584E+00   -2.625E+00
    -2.667E+00   -2.709E+00   -2.751E+00   -2.793E+00   -2.835E+00   -2.877E+00   -2.919E+00   -2.960E+00   -3.002E+00   -3.044E+00
    -3.086E+00   -3.128E+00   -3.170E+00   -3.212E+00   -3.253E+00   -3.295E+00   -3.337E+00   -3.379E+00   -3.421E+00   -3.463E+00
    -3.505E+00   -3.547E+00   -3.588E+00   -3.630E+00   -3.672E+00   -3.714E+00   -3.756E+00   -3.798E+00   -3.840E+00   -3.881E+00
    -3.923E+00   -3.965E+00   -4.007E+00   -4.049E+00   -4.091E+00   -4.133E+00   -4.174E+00   -4.216E+00   -4.258E+00   -4.300E+00
    -4.342E+00   -4.384E+00   -4.425E+00   -4.467E+00   -4.509E+00   -4.551E+00   -4.593E+00   -4.635E+00   -4.677E+00   -4.718E+00
    -4.760E+00   -4.802E+00   -4.844E+00   -4.886E+00   -4.928E+00   -4.969E+00   -5.011E+00   -5.053E+00   -5.095E+00   -5.137E+00
    -5.178E+00   -5.220E+00   -5.262E+00   -5.304E+00   -5.346E+00   -5.388E+00   -5.429E+00   -5.471E+00   -5.513E+00   -5.555E+00
    -5.597E+00   -5.638E+00   -5.680E+00   -5.722E+00   -5.764E+00   -5.806E+00   -5.847E+00   -5.889E+00   -5.931E+00   -5.973E+00
    -6.015E+00   -6.056E+00   -6.098E+00   -6.140E+00   -6.182E+00   -6.224E+00   -6.265E+00   -6.307E+00   -6.349E+00   -6.391E+00
    -6.432E+00   -6.474E+00   -6.516E+00   -6.558E+00   -6.600E+00   -6.641E+00   -6.683E+00   -6.725E+00   -6.767E+00   -6.808E+00
    -6.850E+00   -6.892E+00   -6.934E+00   -6.975E+00   -7.017E+00   -7.059E+00   -7.101E+00   -7.142E+00   -7.184E+00   -7.226E+00
    -7.268E+00   -7.309E+00   -7.351E+00   -7.393E+00   -7.434E+00   -7.476E+00   -7.518E+00   -7.560E+00   -7.601E+00   -7.643E+00
    -7.685E+00   -7.726E+00   -7.768E+00   -7.810E+00   -7.852E+00   -7.893E+00   -7.935E+00   -7.977E+00   -8.018E+00   -8.060E+00
    -8.102E+00   -8.143E+00   -8.185E+00   -8.227E+00   -8.268E+00   -8.310E+00   -8.352E+00   -8.393E+00   -8.435E+00   -8.477E+00
    -8.518E+00   -8.560E+00   -8.602E+00   -8.643E+00   -8.685E+00   -8.727E+00   -8.768E+00   -8.810E+00   -8.852E+00   -8.893E+00
    -8.935E+00   -8.976E+00   -9.018E+00   -9.060E+00   -9.101E+00   -9.143E+00   -9.185E+00   -9.226E+00   -9.268E+00   -9.309E+00
    -9.351E+00   -9.393E+00   -9.434E+00   -9.476E+00   -9.517E+00   -9.559E+00   -9.600E+00   -9.642E+00   -9.684E+00   -9.725E+00
    -9.767E+00   -9.808E+00   -9.850E+00   -9.891E+00   -9.933E+00   -9.974E+00   -1.002E+01   -1.006E+01   -1.010E+01   -1.014E+01
    -1.018E+01   -1.022E+01   -1.027E+01   -1.031E+01   -1.035E+01   -1.039E+01   -1.043E+01   -1.047E+01   -1.051E+01   -1.056E+01
    -1.060E+01   -1.064E+01   -1.068E+01   -1.072E+01   -1.076E+01   -1.080E+01   -1.085E+01   -1.089E+01   -1.093E+01   -1.097E+01
    -1.101E+01   -1.105E+01   -1.109E+01   -1.114E+01   -1.118E+01   -1.122E+01   -1.126E+01   -1.130E+01   -1.134E+01   -1.138E+01
    -1.143E+01   -1.147E+01   -1.151E+01   -1.155E+01   -1.159E+01   -1.163E+01   -1.167E+01   -1.172E+01   -1.176E+01   -1.180E+01
    -1.184E+01   -1.188E+01   -1.192E+01   -1.196E+01   -1.201E+01   -1.205E+01   -1.209E+01   -1.213E+01   -1.217E+01   -1.221E+01
    -1.225E+01   -1.230E+01   -1.234E+01   -1.238E+01   -1.242E+01   -1.246E+01   -1.250E+01   -1.254E+01
 Ala      Conc. = 3.49E+02
