 LCModel (Version 6.3-1L) Copyright: S.W. Provencher.          Ref.: Magn. Reson. Med. 30:672-679 (1993).                
 Slice#1 Row#5 Col#3  PD_05_press_2_raw_act
 36 lines in following concentration table = NCONC+1
    Conc.  %SD /Cr+PCr  Metabolite                                         
    0.000 999%   0.000 Ala                                                 
  131.781 350% 9.2E-02 Asp                                                 
 1.25E+03  35%   0.875 Cr                                                  
  179.001 260%   0.125 PCr                                                 
    0.000 999%   0.000 GABA                                                
  257.023 112%   0.180 Glc                                                 
    0.000 999%   0.000 Gln                                                 
 1.58E+03  38%   1.105 Glu                                                 
  512.566  11%   0.358 GPC                                                 
    0.000 999%   0.000 PCh                                                 
  242.280  78%   0.169 GSH                                                 
 2.34E+03  27%   1.636 Ins                                                 
  112.478 263% 7.9E-02 Lac                                                 
    0.000 999%   0.000 NAA                                                 
 2.92E+03   8%   2.042 NAAG                                                
    0.000 999%   0.000 Scyllo                                              
    0.000 999%   0.000 Tau                                                 
 1.39E+03  19%   0.974 -CrCH2                                              
  512.566  11%   0.358 GPC+PCh                                             
 2.92E+03   8%   2.042 NAA+NAAG                                            
 1.43E+03  12%   1.000 Cr+PCr                                              
 1.58E+03  38%   1.105 Glu+Gln                                             
 2.75E+04  20%  19.247 Lip13a                                              
    0.000 999%   0.000 Lip13b                                              
 1.11E+04  17%   7.791 Lip09                                               
    0.000 999%   0.000 MM09                                                
 7.08E+03  23%   4.949 Lip20                                               
 1.43E+04  14%   9.967 MM20                                                
  111.664 999% 7.8E-02 MM12                                                
 8.93E+03  12%   6.244 MM14                                                
 2.61E+03  39%   1.822 MM17                                                
 2.75E+04  20%  19.247 Lip13a+Lip13b                                       
 3.66E+04  12%  25.569 MM14+Lip13a+Lip13b+MM12                             
 1.11E+04  17%   7.791 MM09+Lip09                                          
 2.13E+04   9%  14.916 MM20+Lip20                                          
   6 lines in following misc. output table
  FWHM = 0.054 ppm    S/N =   8                                            
  Data shift = 0.000 ppm                                                   
  Ph: 177 deg      84.3 deg/ppm                                            
  alphaB,S = 2.9E-01,   4.3E+01                                            
   14 spline knots.   Ns = 6(1)                                            
   2 inflections.     1 extrema                                            
  498 points on ppm-axis = NY
      4.000000     3.992357     3.984714     3.977070     3.969427     3.961784     3.954141     3.946497     3.938854     3.931211
      3.923568     3.915925     3.908281     3.900638     3.892995     3.885352     3.877708     3.870065     3.862422     3.854779
      3.847136     3.839492     3.831849     3.824206     3.816563     3.808919     3.801276     3.793633     3.785990     3.778347
      3.770703     3.763060     3.755417     3.747774     3.740130     3.732487     3.724844     3.717201     3.709558     3.701914
      3.694271     3.686628     3.678985     3.671341     3.663698     3.656055     3.648412     3.640769     3.633125     3.625482
      3.617839     3.610196     3.602552     3.594909     3.587266     3.579623     3.571980     3.564336     3.556693     3.549050
      3.541407     3.533763     3.526120     3.518477     3.510834     3.503191     3.495547     3.487904     3.480261     3.472618
      3.464974     3.457331     3.449688     3.442045     3.434402     3.426758     3.419115     3.411472     3.403829     3.396185
      3.388542     3.380899     3.373256     3.365613     3.357969     3.350326     3.342683     3.335040     3.327396     3.319753
      3.312110     3.304467     3.296824     3.289180     3.281537     3.273894     3.266251     3.258607     3.250964     3.243321
      3.235678     3.228034     3.220391     3.212748     3.205105     3.197462     3.189818     3.182175     3.174532     3.166889
      3.159245     3.151602     3.143959     3.136316     3.128673     3.121029     3.113386     3.105743     3.098100     3.090456
      3.082813     3.075170     3.067527     3.059884     3.052240     3.044597     3.036954     3.029311     3.021667     3.014024
      3.006381     2.998738     2.991095     2.983451     2.975808     2.968165     2.960522     2.952878     2.945235     2.937592
      2.929949     2.922306     2.914662     2.907019     2.899376     2.891733     2.884089     2.876446     2.868803     2.861160
      2.853517     2.845873     2.838230     2.830587     2.822944     2.815300     2.807657     2.800014     2.792371     2.784728
      2.777084     2.769441     2.761798     2.754155     2.746511     2.738868     2.731225     2.723582     2.715939     2.708295
      2.700652     2.693009     2.685366     2.677722     2.670079     2.662436     2.654793     2.647150     2.639506     2.631863
      2.624220     2.616577     2.608933     2.601290     2.593647     2.586004     2.578361     2.570717     2.563074     2.555431
      2.547788     2.540144     2.532501     2.524858     2.517215     2.509572     2.501928     2.494285     2.486642     2.478999
      2.471355     2.463712     2.456069     2.448426     2.440783     2.433139     2.425496     2.417853     2.410210     2.402566
      2.394923     2.387280     2.379637     2.371994     2.364350     2.356707     2.349064     2.341421     2.333777     2.326134
      2.318491     2.310848     2.303205     2.295561     2.287918     2.280275     2.272632     2.264988     2.257345     2.249702
      2.242059     2.234416     2.226772     2.219129     2.211486     2.203843     2.196199     2.188556     2.180913     2.173270
      2.165627     2.157983     2.150340     2.142697     2.135054     2.127410     2.119767     2.112124     2.104481     2.096838
      2.089194     2.081551     2.073908     2.066265     2.058621     2.050978     2.043335     2.035692     2.028049     2.020405
      2.012762     2.005119     1.997476     1.989833     1.982190     1.974546     1.966903     1.959260     1.951617     1.943974
      1.936331     1.928688     1.921045     1.913402     1.905759     1.898115     1.890472     1.882829     1.875186     1.867543
      1.859900     1.852257     1.844614     1.836971     1.829327     1.821684     1.814041     1.806398     1.798755     1.791112
      1.783469     1.775826     1.768183     1.760540     1.752896     1.745253     1.737610     1.729967     1.722324     1.714681
      1.707038     1.699395     1.691752     1.684108     1.676465     1.668822     1.661179     1.653536     1.645893     1.638250
      1.630607     1.622964     1.615321     1.607677     1.600034     1.592391     1.584748     1.577105     1.569462     1.561819
      1.554176     1.546533     1.538890     1.531246     1.523603     1.515960     1.508317     1.500674     1.493031     1.485388
      1.477745     1.470102     1.462458     1.454815     1.447172     1.439529     1.431886     1.424243     1.416600     1.408957
      1.401314     1.393671     1.386027     1.378384     1.370741     1.363098     1.355455     1.347812     1.340169     1.332526
      1.324883     1.317240     1.309596     1.301953     1.294310     1.286667     1.279024     1.271381     1.263738     1.256095
      1.248452     1.240808     1.233165     1.225522     1.217879     1.210236     1.202593     1.194950     1.187307     1.179664
      1.172021     1.164377     1.156734     1.149091     1.141448     1.133805     1.126162     1.118519     1.110876     1.103233
      1.095590     1.087946     1.080303     1.072660     1.065017     1.057374     1.049731     1.042088     1.034445     1.026802
      1.019158     1.011515     1.003872     0.996229     0.988586     0.980943     0.973300     0.965657     0.958014     0.950371
      0.942727     0.935084     0.927441     0.919798     0.912155     0.904512     0.896869     0.889226     0.881583     0.873940
      0.866296     0.858653     0.851010     0.843367     0.835724     0.828081     0.820438     0.812795     0.805152     0.797508
      0.789865     0.782222     0.774579     0.766936     0.759293     0.751650     0.744007     0.736364     0.728721     0.721077
      0.713434     0.705791     0.698148     0.690505     0.682862     0.675219     0.667576     0.659933     0.652290     0.644646
      0.637003     0.629360     0.621717     0.614074     0.606431     0.598788     0.591145     0.583502     0.575858     0.568215
      0.560572     0.552929     0.545286     0.537643     0.530000     0.522357     0.514714     0.507071     0.499427     0.491784
      0.484141     0.476498     0.468855     0.461212     0.453569     0.445925     0.438282     0.430639     0.422996     0.415353
      0.407710     0.400067     0.392424     0.384780     0.377137     0.369494     0.361851     0.354208     0.346565     0.338922
      0.331278     0.323635     0.315992     0.308349     0.300706     0.293063     0.285420     0.277777     0.270133     0.262490
      0.254847     0.247204     0.239561     0.231918     0.224275     0.216631     0.208988     0.201345
 NY phased data points follow
   4.31329E+01  5.11354E+01  4.51594E+01  4.29126E+01  3.45772E+01  4.03285E+01  3.83416E+01  4.42075E+01  4.16605E+01  4.50822E+01
   4.77361E+01  5.00380E+01  5.18789E+01  7.12452E+01  7.14217E+01  8.83340E+01  7.14169E+01  6.95780E+01  6.15925E+01  7.43325E+01
   5.14801E+01  6.53860E+01  5.90548E+01  3.97816E+01  5.78411E+01  5.06436E+01  5.59820E+01  4.86107E+01  5.70103E+01  4.99693E+01
   5.37958E+01  5.57013E+01  5.12766E+01  4.52382E+01  5.66240E+01  6.39724E+01  6.01158E+01  5.17606E+01  6.08849E+01  5.03639E+01
   3.92311E+01  4.35853E+01  4.64654E+01  4.31014E+01  4.70588E+01  5.31275E+01  4.02398E+01  5.37750E+01  5.62327E+01  6.76901E+01
   6.22601E+01  7.08201E+01  5.40860E+01  6.77402E+01  5.03635E+01  4.85233E+01  6.45854E+01  6.04674E+01  6.27850E+01  5.95534E+01
   5.28681E+01  4.69461E+01  5.80131E+01  5.16914E+01  4.80433E+01  4.97563E+01  4.03614E+01  4.75372E+01  4.38668E+01  4.26369E+01
   2.90260E+01  3.51437E+01  3.40596E+01  4.49828E+01  3.56273E+01  4.16271E+01  3.18120E+01  3.86403E+01  2.50317E+01  3.64287E+01
   3.47663E+01  2.13806E+01  2.86080E+01  4.71739E+01  3.17241E+01  2.13709E+01  3.05847E+01  3.02054E+01  2.19165E+01  2.23993E+01
   2.73476E+01  1.91422E+01  2.36264E+01  1.94977E+01  1.40974E+01  2.99704E+01  1.56113E+01  2.24369E+01  1.25421E+01  9.33083E+00
   1.47607E+01  4.02393E+01  6.45092E+01  7.83870E+01  9.16328E+01  9.22158E+01  8.72424E+01  7.61186E+01  7.60031E+01  6.70672E+01
   5.86368E+01  5.24214E+01  4.43881E+01  5.51293E+01  4.71544E+01  4.55682E+01  4.80322E+01  2.94076E+01  3.83326E+01  3.48911E+01
   4.37622E+01  2.48065E+01  3.14172E+01  2.60097E+01  4.92656E+01  5.60519E+01  6.49421E+01  7.92741E+01  9.00119E+01  8.95974E+01
   9.60699E+01  7.63903E+01  7.14107E+01  6.12625E+01  6.51070E+01  5.92177E+01  6.06848E+01  4.01438E+01  4.37924E+01  4.00779E+01
   3.85368E+01  4.24421E+01  3.35019E+01  3.77744E+01  3.16863E+01  3.91439E+01  3.14668E+01  4.26639E+01  3.66631E+01  3.27818E+01
   4.42750E+01  2.13929E+01  2.96213E+01  3.48197E+01  2.07247E+01  3.14731E+01  1.59018E+01  1.45173E+01  2.34624E+01  3.18252E+01
   3.05366E+01  2.43992E+01  1.94904E+01  2.16060E+01  6.62590E+00  3.85142E+01  2.54504E+01  1.56754E+01  1.41910E+01  1.29791E+01
   3.10174E+00  1.06293E+01  7.80670E+00  1.09850E+00  5.88681E-01  8.78290E-01 -1.03158E+01 -3.58417E+00 -1.25620E+01 -1.05689E+01
  -7.62048E+00  5.74068E-01  4.94269E+00  5.08730E-01  5.95890E+00 -1.51633E+00  2.81966E+00 -8.31912E-01  1.55979E+01  3.46118E+00
  -1.32738E+01  1.38328E+01  1.27303E+01  8.28275E+00  4.82213E-02  1.57752E+01  3.61476E+00  3.37305E+00  4.26856E+00  2.38140E+00
   2.00859E-01 -1.15578E+00  5.42958E+00  1.64255E+01 -3.44935E+00  6.59771E+00  8.03059E+00  4.75460E+00 -1.00641E+01  6.87137E+00
  -7.76552E+00  7.90425E+00 -7.55707E+00  1.33577E+01  2.76398E+01  1.03880E+01  2.87260E+01  1.87526E+01  1.42811E+01  1.17307E+01
   6.13847E+00 -3.79713E+00 -1.19523E+01  3.68682E+00  5.24212E+00  8.90561E+00  3.40744E+00  1.37720E+01  7.28040E+00  1.44756E+01
   1.63621E+01  1.98079E+01  1.27824E+01  6.70701E+00  9.31934E+00  2.21958E+01  4.62359E+00 -3.06246E-01  9.40314E+00 -3.46764E+00
   5.38834E+00 -2.30595E-01  1.19019E+01  4.98404E+00  9.66893E+00  1.28920E+01  1.34889E+01  1.70998E+01  2.95755E+01  2.05851E+01
   1.74496E+01  3.36935E+01  3.76381E+01  5.05456E+01  5.06896E+01  6.27441E+01  7.98836E+01  9.82866E+01  1.14720E+02  1.37268E+02
   1.30868E+02  1.32023E+02  1.12727E+02  7.41759E+01  3.41503E+01  2.18912E+01  1.82913E+01  5.10671E+00 -1.55054E+01 -3.90098E+00
  -1.45379E+01 -1.73664E+01  1.88262E+00 -1.77864E+01 -1.81540E+01 -2.24109E+01 -1.99067E+01 -2.67407E+01 -3.47232E+01 -1.97836E+01
  -3.97220E+01 -2.24565E+01 -2.98701E+01 -2.52180E+01 -3.60788E+01 -3.55215E+01 -3.73455E+01 -2.15084E+01 -4.56124E+01 -4.08841E+01
  -3.08894E+01 -4.88152E+01 -3.40591E+01 -3.45586E+01 -4.27809E+01 -4.49366E+01 -5.98305E+01 -5.38458E+01 -6.93364E+01 -5.68143E+01
  -6.59633E+01 -6.80732E+01 -5.39388E+01 -7.24752E+01 -6.60892E+01 -7.72571E+01 -7.38566E+01 -7.92200E+01 -7.67643E+01 -8.07234E+01
  -9.21926E+01 -6.63914E+01 -8.09058E+01 -9.61544E+01 -9.85419E+01 -1.04749E+02 -1.11406E+02 -1.02549E+02 -1.09968E+02 -1.11191E+02
  -1.10787E+02 -1.04320E+02 -1.04949E+02 -1.01922E+02 -1.19235E+02 -1.11738E+02 -1.13173E+02 -1.16121E+02 -1.14300E+02 -1.10346E+02
  -8.91228E+01 -9.01607E+01 -7.72393E+01 -8.24382E+01 -7.21257E+01 -6.55271E+01 -7.08895E+01 -6.13246E+01 -5.85683E+01 -5.40861E+01
  -5.22225E+01 -3.06040E+01 -4.79007E+01 -2.42358E+01 -1.59779E+01 -2.07142E+01 -2.11549E+01 -2.16628E+01 -2.19595E+01 -1.57346E+01
  -1.53755E+01 -7.27716E-01 -6.76092E+00 -9.64548E+00 -2.09452E+01 -1.21356E+01 -1.36804E+01 -1.04125E+01 -6.16810E+00  4.14937E+00
  -1.07064E+00 -8.85950E+00 -1.64896E+01 -1.84540E+00 -3.74370E-01 -8.93517E-01 -5.50326E+00 -1.21005E+01 -5.13890E+00 -1.48789E+01
  -1.55386E+01 -1.02589E+01 -1.24338E+01 -9.98997E+00 -1.09553E+01 -9.90332E+00 -1.38284E+01 -6.22129E+00  6.67996E-01 -3.86742E+00
  -6.20671E+00 -1.18923E+01 -2.29451E+01 -8.02971E+00 -1.09289E+01 -1.15330E+01 -3.38452E+00  2.59459E+00 -1.13478E+00 -2.45350E+00
  -1.25645E+00 -1.25709E+00 -5.89555E+00 -8.68656E+00  5.26880E+00  4.37082E+00  3.75068E+00  9.65048E+00  1.05529E+01  2.65525E+00
   2.00838E+00 -9.92004E-01 -1.09447E+01 -1.94822E+01 -1.17754E+01 -5.00551E+00 -6.12967E-01 -2.22438E+00 -2.09380E+01 -9.01952E+00
  -1.01911E+01 -1.35301E+01 -1.99195E+01 -2.15972E+01 -2.33911E+01 -2.30644E+01 -2.07097E+01 -1.09958E+01 -3.01423E+01 -1.83658E+01
  -8.23780E+00 -1.28312E+01 -1.83823E+01 -1.58609E+01 -1.08958E+01 -1.89826E+01 -2.08290E+01 -1.74587E+01 -1.18135E+01 -2.74205E+01
  -2.26885E+01 -2.83978E+01 -1.69624E+01 -2.15526E+01 -1.57037E+01 -9.69570E+00 -1.33321E+01 -2.19469E+01 -1.87557E+01 -2.39830E+01
  -1.29976E+01 -1.83050E+01 -2.83860E+01 -1.17113E+01 -1.11525E+01 -1.31334E+01 -1.36769E+01 -1.58721E+01 -4.52678E+00 -2.29004E+01
  -9.43172E+00 -1.82246E+01 -1.84604E+01 -1.93628E+01 -2.46595E+01 -8.77745E+00 -1.77115E+01 -1.77124E+01 -6.69133E+00 -1.31606E+01
  -1.44122E+01 -1.40467E+01 -1.90613E+01 -1.47387E+01 -7.23767E+00 -8.18246E+00 -1.73725E+01 -7.08123E+00 -5.34589E+00 -1.63010E+01
  -9.13224E+00 -2.02618E+01 -1.93321E+01 -6.28893E+00 -7.03579E+00 -1.21399E+01 -1.26242E+01 -2.03410E+01 -1.55331E+01 -1.72029E+01
  -1.31196E+01 -9.02090E+00 -1.34639E+01 -1.29632E+01 -1.25583E+01 -1.66997E+00 -1.46303E+01 -4.18385E+00 -1.40125E+00 -9.76225E+00
  -2.52910E+00 -6.88875E+00 -4.34686E+00 -4.76634E+00 -1.36380E+01 -1.41841E+01 -9.83133E+00 -7.82458E+00
 NY points of the fit to the data follow
   5.12790E+01  5.00173E+01  4.96548E+01  4.88142E+01  4.58817E+01  4.18647E+01  3.83040E+01  3.80276E+01  4.06248E+01  4.45368E+01
   4.91019E+01  5.47529E+01  6.11035E+01  6.76463E+01  7.35461E+01  7.77166E+01  7.60511E+01  6.79162E+01  5.82574E+01  5.08804E+01
   4.92528E+01  5.02531E+01  5.09780E+01  5.09447E+01  5.05524E+01  5.05672E+01  5.12293E+01  5.21023E+01  5.32048E+01  5.45945E+01
   5.59932E+01  5.69919E+01  5.74843E+01  5.77117E+01  5.74901E+01  5.59701E+01  5.34446E+01  5.07079E+01  4.88623E+01  4.78820E+01
   4.76433E+01  4.77339E+01  4.82001E+01  4.99696E+01  5.28913E+01  5.56647E+01  5.80089E+01  6.00889E+01  6.14372E+01  6.15731E+01
   5.98807E+01  5.66293E+01  5.24855E+01  4.73050E+01  4.15919E+01  3.82090E+01  3.88130E+01  4.14858E+01  4.39378E+01  4.57576E+01
   4.70142E+01  4.75174E+01  4.72276E+01  4.62718E+01  4.49814E+01  4.33728E+01  4.12698E+01  3.96140E+01  3.92263E+01  3.98899E+01
   4.12695E+01  4.27286E+01  4.38933E+01  4.45077E+01  4.44984E+01  4.40675E+01  4.33884E+01  4.25287E+01  4.14820E+01  4.03237E+01
   3.95697E+01  3.91944E+01  3.87784E+01  3.80456E+01  3.68994E+01  3.54818E+01  3.39712E+01  3.25510E+01  3.13478E+01  3.05371E+01
   3.02809E+01  3.07037E+01  3.19892E+01  3.40096E+01  3.63643E+01  3.83313E+01  3.95347E+01  3.95506E+01  3.75844E+01  3.71829E+01
   4.24396E+01  5.07035E+01  5.90876E+01  6.71515E+01  7.49477E+01  8.13642E+01  8.47291E+01  8.40891E+01  7.90994E+01  6.97454E+01
   5.58275E+01  4.00224E+01  3.12576E+01  3.09665E+01  3.21745E+01  3.33500E+01  3.43777E+01  3.52463E+01  3.59973E+01  3.66495E+01
   3.70908E+01  3.69282E+01  3.64310E+01  3.93456E+01  4.66011E+01  5.54460E+01  6.40761E+01  7.22085E+01  7.93270E+01  8.44215E+01
   8.64658E+01  8.46740E+01  7.86762E+01  6.83191E+01  5.43285E+01  4.12597E+01  3.53722E+01  3.42638E+01  3.39561E+01  3.37660E+01
   3.36701E+01  3.38701E+01  3.44495E+01  3.50804E+01  3.55303E+01  3.57405E+01  3.56466E+01  3.53279E+01  3.50227E+01  3.46924E+01
   3.40989E+01  3.32052E+01  3.21558E+01  3.10516E+01  3.02259E+01  2.96236E+01  2.90040E+01  2.83690E+01  2.78036E+01  2.73034E+01
   2.68621E+01  2.64094E+01  2.54988E+01  2.38628E+01  2.19262E+01  1.96337E+01  1.72343E+01  1.55540E+01  1.43796E+01  1.34736E+01
   1.27900E+01  1.20117E+01  1.11891E+01  1.05076E+01  1.00056E+01  9.65098E+00  9.42639E+00  9.00323E+00  7.42034E+00  5.23026E+00
   3.69144E+00  2.97870E+00  2.96011E+00  3.12642E+00  3.01625E+00  3.03349E+00  3.35074E+00  4.17598E+00  5.64339E+00  7.27649E+00
   8.26984E+00  8.13025E+00  7.63871E+00  6.88622E+00  5.56046E+00  4.03896E+00  2.53371E+00  9.76316E-01 -5.77790E-01 -1.74887E+00
  -1.85702E+00 -9.78846E-01  4.40498E-02  1.19594E+00  1.95418E+00  1.70520E+00  2.15791E-01 -2.03822E+00 -4.16615E+00 -6.21701E+00
  -7.63580E+00 -7.72133E+00 -6.64185E+00 -4.61349E+00 -1.79217E+00  1.76953E+00  5.44265E+00  7.18015E+00  6.54329E+00  4.39273E+00
   1.17399E+00 -2.80880E+00 -6.64952E+00 -8.58544E+00 -8.26297E+00 -6.35531E+00 -3.27523E+00  5.18151E-01  4.48695E+00  7.26461E+00
   7.93715E+00  7.45058E+00  7.08106E+00  6.85342E+00  6.96845E+00  7.62296E+00  8.87601E+00  1.04022E+01  1.17007E+01  1.22947E+01
   1.23738E+01  1.20216E+01  1.13368E+01  1.13304E+01  1.26554E+01  1.50537E+01  1.79153E+01  2.09266E+01  2.38839E+01  2.57181E+01
   2.15443E+01  1.71352E+01  2.20988E+01  3.44705E+01  4.95770E+01  6.67088E+01  8.58872E+01  1.04616E+02  1.19835E+02  1.29055E+02
   1.30338E+02  1.22018E+02  1.00668E+02  6.82757E+01  4.29324E+01  3.06619E+01  2.22798E+01  1.50800E+01  8.63127E+00  2.79032E+00
  -2.44792E+00 -6.77625E+00 -1.03354E+01 -1.36781E+01 -1.66862E+01 -1.92615E+01 -2.16135E+01 -2.39661E+01 -2.64677E+01 -2.90520E+01
  -3.14656E+01 -3.35244E+01 -3.51140E+01 -3.60369E+01 -3.62551E+01 -3.62280E+01 -3.63614E+01 -3.67361E+01 -3.73359E+01 -3.82119E+01
  -3.94689E+01 -4.10224E+01 -4.26045E+01 -4.42460E+01 -4.59525E+01 -4.77996E+01 -4.98130E+01 -5.19750E+01 -5.43587E+01 -5.71392E+01
  -6.01549E+01 -6.32016E+01 -6.62085E+01 -6.91259E+01 -7.19094E+01 -7.44984E+01 -7.68641E+01 -7.91266E+01 -8.13705E+01 -8.35535E+01
  -8.56736E+01 -8.77216E+01 -8.96947E+01 -9.15917E+01 -9.34115E+01 -9.51479E+01 -9.67923E+01 -9.83298E+01 -9.97419E+01 -1.01003E+02
  -1.02082E+02 -1.02936E+02 -1.03526E+02 -1.03809E+02 -1.03741E+02 -1.03277E+02 -1.02375E+02 -1.00998E+02 -9.91174E+01 -9.67159E+01
  -9.37888E+01 -9.03449E+01 -8.64105E+01 -8.20268E+01 -7.72534E+01 -7.21625E+01 -6.68401E+01 -6.13793E+01 -5.58799E+01 -5.04423E+01
  -4.51719E+01 -4.01909E+01 -3.54977E+01 -3.09725E+01 -2.67352E+01 -2.29391E+01 -1.96240E+01 -1.67700E+01 -1.43808E+01 -1.25785E+01
  -1.14077E+01 -1.06660E+01 -1.02046E+01 -9.98622E+00 -9.90247E+00 -9.58618E+00 -8.84168E+00 -7.92549E+00 -6.93837E+00 -5.91956E+00
  -4.92081E+00 -4.08866E+00 -3.66858E+00 -3.57485E+00 -3.53466E+00 -3.55177E+00 -3.65911E+00 -3.87174E+00 -4.19567E+00 -4.62695E+00
  -5.15619E+00 -5.76678E+00 -6.43932E+00 -7.14963E+00 -7.87268E+00 -8.58051E+00 -9.24646E+00 -9.84354E+00 -1.03489E+01 -1.07411E+01
  -1.10044E+01 -1.11250E+01 -1.10960E+01 -1.09141E+01 -1.05828E+01 -1.01093E+01 -9.50690E+00 -8.79127E+00 -7.98350E+00 -7.10632E+00
  -6.18622E+00 -5.24932E+00 -4.32327E+00 -3.43340E+00 -2.60539E+00 -1.86127E+00 -1.22179E+00 -7.02428E-01 -3.16298E-01 -7.09839E-02
   2.81583E-02 -1.90031E-02 -2.10430E-01 -5.39123E-01 -9.96688E-01 -1.57118E+00 -2.25070E+00 -3.02075E+00 -3.86753E+00 -4.77541E+00
  -5.73059E+00 -6.71848E+00 -7.72717E+00 -8.74416E+00 -9.75951E+00 -1.07629E+01 -1.17470E+01 -1.27043E+01 -1.36302E+01 -1.45196E+01
  -1.53696E+01 -1.61766E+01 -1.69397E+01 -1.76573E+01 -1.83296E+01 -1.89558E+01 -1.95368E+01 -2.00723E+01 -2.05640E+01 -2.10124E+01
  -2.14194E+01 -2.17853E+01 -2.21120E+01 -2.24000E+01 -2.26516E+01 -2.28674E+01 -2.30494E+01 -2.31980E+01 -2.33150E+01 -2.34008E+01
  -2.34575E+01 -2.34855E+01 -2.34865E+01 -2.34604E+01 -2.34090E+01 -2.33325E+01 -2.32326E+01 -2.31093E+01 -2.29641E+01 -2.27966E+01
  -2.26086E+01 -2.23999E+01 -2.21720E+01 -2.19246E+01 -2.16589E+01 -2.13745E+01 -2.10729E+01 -2.07537E+01 -2.04182E+01 -2.00660E+01
  -1.96980E+01 -1.93138E+01 -1.89147E+01 -1.85004E+01 -1.80719E+01 -1.76286E+01 -1.71715E+01 -1.67001E+01 -1.62157E+01 -1.57177E+01
  -1.52071E+01 -1.46832E+01 -1.41470E+01 -1.35981E+01 -1.30375E+01 -1.24647E+01 -1.18805E+01 -1.12842E+01 -1.06768E+01 -1.00579E+01
  -9.42853E+00 -8.78796E+00 -8.13692E+00 -7.47492E+00 -6.80291E+00 -6.12049E+00 -5.42844E+00 -4.72613E+00 -4.01430E+00 -3.29251E+00
  -2.56170E+00 -1.82142E+00 -1.07242E+00 -3.14081E-01  4.52807E-01  1.22860E+00  2.01234E+00  2.80450E+00
 NY background values follow
     3.116E+01    3.113E+01    3.109E+01    3.105E+01    3.101E+01    3.097E+01    3.092E+01    3.087E+01    3.082E+01    3.077E+01
     3.071E+01    3.065E+01    3.059E+01    3.052E+01    3.046E+01    3.039E+01    3.031E+01    3.024E+01    3.016E+01    3.008E+01
     2.999E+01    2.990E+01    2.981E+01    2.972E+01    2.963E+01    2.953E+01    2.943E+01    2.932E+01    2.922E+01    2.911E+01
     2.900E+01    2.888E+01    2.877E+01    2.865E+01    2.852E+01    2.840E+01    2.827E+01    2.814E+01    2.800E+01    2.787E+01
     2.773E+01    2.759E+01    2.744E+01    2.729E+01    2.714E+01    2.699E+01    2.683E+01    2.668E+01    2.651E+01    2.635E+01
     2.619E+01    2.602E+01    2.585E+01    2.567E+01    2.550E+01    2.532E+01    2.515E+01    2.497E+01    2.479E+01    2.461E+01
     2.442E+01    2.424E+01    2.406E+01    2.387E+01    2.368E+01    2.350E+01    2.331E+01    2.312E+01    2.294E+01    2.275E+01
     2.256E+01    2.238E+01    2.219E+01    2.200E+01    2.182E+01    2.163E+01    2.145E+01    2.127E+01    2.109E+01    2.091E+01
     2.073E+01    2.056E+01    2.038E+01    2.021E+01    2.004E+01    1.988E+01    1.971E+01    1.955E+01    1.939E+01    1.923E+01
     1.908E+01    1.893E+01    1.878E+01    1.864E+01    1.850E+01    1.836E+01    1.823E+01    1.809E+01    1.797E+01    1.784E+01
     1.771E+01    1.759E+01    1.747E+01    1.735E+01    1.723E+01    1.711E+01    1.700E+01    1.689E+01    1.677E+01    1.666E+01
     1.655E+01    1.644E+01    1.633E+01    1.622E+01    1.612E+01    1.601E+01    1.590E+01    1.579E+01    1.568E+01    1.557E+01
     1.546E+01    1.535E+01    1.524E+01    1.513E+01    1.501E+01    1.490E+01    1.478E+01    1.466E+01    1.454E+01    1.442E+01
     1.429E+01    1.417E+01    1.404E+01    1.390E+01    1.377E+01    1.363E+01    1.349E+01    1.334E+01    1.320E+01    1.304E+01
     1.289E+01    1.273E+01    1.257E+01    1.240E+01    1.223E+01    1.206E+01    1.188E+01    1.170E+01    1.152E+01    1.133E+01
     1.114E+01    1.095E+01    1.075E+01    1.055E+01    1.034E+01    1.013E+01    9.915E+00    9.696E+00    9.474E+00    9.248E+00
     9.017E+00    8.783E+00    8.544E+00    8.301E+00    8.054E+00    7.803E+00    7.548E+00    7.288E+00    7.024E+00    6.756E+00
     6.483E+00    6.206E+00    5.925E+00    5.639E+00    5.349E+00    5.054E+00    4.755E+00    4.451E+00    4.143E+00    3.830E+00
     3.513E+00    3.191E+00    2.864E+00    2.533E+00    2.196E+00    1.855E+00    1.508E+00    1.156E+00    7.985E-01    4.352E-01
     6.595E-02   -3.093E-01   -6.907E-01   -1.078E+00   -1.473E+00   -1.873E+00   -2.281E+00   -2.695E+00   -3.116E+00   -3.545E+00
    -3.981E+00   -4.424E+00   -4.875E+00   -5.334E+00   -5.800E+00   -6.274E+00   -6.757E+00   -7.248E+00   -7.747E+00   -8.254E+00
    -8.771E+00   -9.296E+00   -9.829E+00   -1.037E+01   -1.092E+01   -1.149E+01   -1.206E+01   -1.264E+01   -1.323E+01   -1.382E+01
    -1.443E+01   -1.505E+01   -1.568E+01   -1.632E+01   -1.697E+01   -1.763E+01   -1.830E+01   -1.898E+01   -1.967E+01   -2.037E+01
    -2.108E+01   -2.180E+01   -2.252E+01   -2.326E+01   -2.400E+01   -2.476E+01   -2.552E+01   -2.629E+01   -2.706E+01   -2.784E+01
    -2.863E+01   -2.943E+01   -3.023E+01   -3.103E+01   -3.184E+01   -3.266E+01   -3.348E+01   -3.431E+01   -3.514E+01   -3.597E+01
    -3.681E+01   -3.765E+01   -3.849E+01   -3.934E+01   -4.019E+01   -4.104E+01   -4.189E+01   -4.274E+01   -4.360E+01   -4.445E+01
    -4.531E+01   -4.617E+01   -4.702E+01   -4.788E+01   -4.874E+01   -4.959E+01   -5.045E+01   -5.130E+01   -5.215E+01   -5.300E+01
    -5.384E+01   -5.469E+01   -5.553E+01   -5.637E+01   -5.720E+01   -5.803E+01   -5.886E+01   -5.969E+01   -6.051E+01   -6.132E+01
    -6.213E+01   -6.294E+01   -6.374E+01   -6.454E+01   -6.533E+01   -6.612E+01   -6.690E+01   -6.767E+01   -6.844E+01   -6.921E+01
    -6.996E+01   -7.071E+01   -7.146E+01   -7.220E+01   -7.293E+01   -7.365E+01   -7.436E+01   -7.507E+01   -7.577E+01   -7.646E+01
    -7.715E+01   -7.783E+01   -7.849E+01   -7.915E+01   -7.980E+01   -8.045E+01   -8.108E+01   -8.170E+01   -8.232E+01   -8.292E+01
    -8.352E+01   -8.410E+01   -8.468E+01   -8.525E+01   -8.580E+01   -8.635E+01   -8.688E+01   -8.741E+01   -8.792E+01   -8.843E+01
    -8.892E+01   -8.940E+01   -8.987E+01   -9.033E+01   -9.078E+01   -9.122E+01   -9.165E+01   -9.207E+01   -9.248E+01   -9.287E+01
    -9.326E+01   -9.363E+01   -9.399E+01   -9.434E+01   -9.469E+01   -9.502E+01   -9.533E+01   -9.564E+01   -9.594E+01   -9.622E+01
    -9.650E+01   -9.676E+01   -9.701E+01   -9.726E+01   -9.749E+01   -9.770E+01   -9.791E+01   -9.811E+01   -9.829E+01   -9.847E+01
    -9.863E+01   -9.878E+01   -9.892E+01   -9.905E+01   -9.917E+01   -9.928E+01   -9.938E+01   -9.946E+01   -9.954E+01   -9.960E+01
    -9.965E+01   -9.969E+01   -9.972E+01   -9.974E+01   -9.974E+01   -9.974E+01   -9.973E+01   -9.970E+01   -9.966E+01   -9.962E+01
    -9.956E+01   -9.949E+01   -9.941E+01   -9.932E+01   -9.922E+01   -9.911E+01   -9.899E+01   -9.886E+01   -9.872E+01   -9.857E+01
    -9.840E+01   -9.823E+01   -9.805E+01   -9.786E+01   -9.766E+01   -9.745E+01   -9.722E+01   -9.699E+01   -9.675E+01   -9.650E+01
    -9.624E+01   -9.597E+01   -9.569E+01   -9.540E+01   -9.511E+01   -9.480E+01   -9.448E+01   -9.416E+01   -9.382E+01   -9.348E+01
    -9.312E+01   -9.276E+01   -9.239E+01   -9.201E+01   -9.162E+01   -9.122E+01   -9.082E+01   -9.040E+01   -8.998E+01   -8.955E+01
    -8.911E+01   -8.866E+01   -8.820E+01   -8.773E+01   -8.726E+01   -8.678E+01   -8.629E+01   -8.579E+01   -8.528E+01   -8.477E+01
    -8.425E+01   -8.372E+01   -8.318E+01   -8.263E+01   -8.208E+01   -8.152E+01   -8.095E+01   -8.038E+01   -7.979E+01   -7.920E+01
    -7.861E+01   -7.800E+01   -7.739E+01   -7.677E+01   -7.614E+01   -7.551E+01   -7.487E+01   -7.422E+01   -7.357E+01   -7.291E+01
    -7.224E+01   -7.156E+01   -7.088E+01   -7.019E+01   -6.950E+01   -6.880E+01   -6.809E+01   -6.737E+01   -6.665E+01   -6.592E+01
    -6.519E+01   -6.445E+01   -6.370E+01   -6.294E+01   -6.218E+01   -6.141E+01   -6.064E+01   -5.986E+01   -5.907E+01   -5.828E+01
    -5.748E+01   -5.667E+01   -5.586E+01   -5.504E+01   -5.421E+01   -5.338E+01   -5.254E+01   -5.170E+01   -5.084E+01   -4.999E+01
    -4.912E+01   -4.825E+01   -4.737E+01   -4.649E+01   -4.559E+01   -4.470E+01   -4.379E+01   -4.288E+01   -4.196E+01   -4.104E+01
    -4.011E+01   -3.917E+01   -3.823E+01   -3.728E+01   -3.633E+01   -3.536E+01   -3.439E+01   -3.342E+01   -3.244E+01   -3.145E+01
    -3.046E+01   -2.946E+01   -2.845E+01   -2.744E+01   -2.642E+01   -2.539E+01   -2.436E+01   -2.332E+01
 Asp      Conc. = 1.32E+02
