 LCModel (Version 6.3-1L) Copyright: S.W. Provencher.          Ref.: Magn. Reson. Med. 30:672-679 (1993).                
 Slice#3 Row#5 Col#5  PD_05_press_2_raw_act
 36 lines in following concentration table = NCONC+1
    Conc.  %SD /Cr+PCr  Metabolite                                         
    0.000 999%   0.000 Ala                                                 
  429.831  86%   0.219 Asp                                                 
 1.08E+03  40%   0.551 Cr                                                  
  880.718  50%   0.449 PCr                                                 
  172.719 136% 8.8E-02 GABA                                                
  322.184  73%   0.164 Glc                                                 
 1.10E+03  43%   0.561 Gln                                                 
 2.01E+03  27%   1.022 Glu                                                 
  922.833   5%   0.470 GPC                                                 
    0.000 999%   0.000 PCh                                                 
  705.212  22%   0.359 GSH                                                 
 1.29E+03  37%   0.658 Ins                                                 
  256.373  98%   0.131 Lac                                                 
 2.71E+03   8%   1.382 NAA                                                 
  645.059  37%   0.329 NAAG                                                
   62.804  80% 3.2E-02 Scyllo                                              
    0.000 999%   0.000 Tau                                                 
    0.000 999%   0.000 -CrCH2                                              
  922.833   5%   0.470 GPC+PCh                                             
 3.36E+03   5%   1.711 NAA+NAAG                                            
 1.96E+03   6%   1.000 Cr+PCr                                              
 3.11E+03  24%   1.583 Glu+Gln                                             
    0.000 999%   0.000 Lip13a                                              
  359.024  90%   0.183 Lip13b                                              
   23.485 649% 1.2E-02 Lip09                                               
 1.84E+03  20%   0.939 MM09                                                
   63.824 158% 3.3E-02 Lip20                                               
 4.36E+03  15%   2.223 MM20                                                
  538.989  42%   0.275 MM12                                                
   37.229 999% 1.9E-02 MM14                                                
 2.26E+03  12%   1.150 MM17                                                
  359.024  90%   0.183 Lip13a+Lip13b                                       
  935.242  55%   0.476 MM14+Lip13a+Lip13b+MM12                             
 1.87E+03  18%   0.951 MM09+Lip09                                          
 4.43E+03  15%   2.256 MM20+Lip20                                          
   6 lines in following misc. output table
  FWHM = 0.046 ppm    S/N =   7                                            
  Data shift = 0.015 ppm                                                   
  Ph: -12 deg       0.1 deg/ppm                                            
  alphaB,S = 8.5E+01,   9.3E+01                                            
   14 spline knots.   Ns = 6(1)                                            
   2 inflections.     1 extrema                                            
  498 points on ppm-axis = NY
      4.000000     3.992357     3.984714     3.977070     3.969427     3.961784     3.954141     3.946497     3.938854     3.931211
      3.923568     3.915925     3.908281     3.900638     3.892995     3.885352     3.877708     3.870065     3.862422     3.854779
      3.847136     3.839492     3.831849     3.824206     3.816563     3.808919     3.801276     3.793633     3.785990     3.778347
      3.770703     3.763060     3.755417     3.747774     3.740130     3.732487     3.724844     3.717201     3.709558     3.701914
      3.694271     3.686628     3.678985     3.671341     3.663698     3.656055     3.648412     3.640769     3.633125     3.625482
      3.617839     3.610196     3.602552     3.594909     3.587266     3.579623     3.571980     3.564336     3.556693     3.549050
      3.541407     3.533763     3.526120     3.518477     3.510834     3.503191     3.495547     3.487904     3.480261     3.472618
      3.464974     3.457331     3.449688     3.442045     3.434402     3.426758     3.419115     3.411472     3.403829     3.396185
      3.388542     3.380899     3.373256     3.365613     3.357969     3.350326     3.342683     3.335040     3.327396     3.319753
      3.312110     3.304467     3.296824     3.289180     3.281537     3.273894     3.266251     3.258607     3.250964     3.243321
      3.235678     3.228034     3.220391     3.212748     3.205105     3.197462     3.189818     3.182175     3.174532     3.166889
      3.159245     3.151602     3.143959     3.136316     3.128673     3.121029     3.113386     3.105743     3.098100     3.090456
      3.082813     3.075170     3.067527     3.059884     3.052240     3.044597     3.036954     3.029311     3.021667     3.014024
      3.006381     2.998738     2.991095     2.983451     2.975808     2.968165     2.960522     2.952878     2.945235     2.937592
      2.929949     2.922306     2.914662     2.907019     2.899376     2.891733     2.884089     2.876446     2.868803     2.861160
      2.853517     2.845873     2.838230     2.830587     2.822944     2.815300     2.807657     2.800014     2.792371     2.784728
      2.777084     2.769441     2.761798     2.754155     2.746511     2.738868     2.731225     2.723582     2.715939     2.708295
      2.700652     2.693009     2.685366     2.677722     2.670079     2.662436     2.654793     2.647150     2.639506     2.631863
      2.624220     2.616577     2.608933     2.601290     2.593647     2.586004     2.578361     2.570717     2.563074     2.555431
      2.547788     2.540144     2.532501     2.524858     2.517215     2.509572     2.501928     2.494285     2.486642     2.478999
      2.471355     2.463712     2.456069     2.448426     2.440783     2.433139     2.425496     2.417853     2.410210     2.402566
      2.394923     2.387280     2.379637     2.371994     2.364350     2.356707     2.349064     2.341421     2.333777     2.326134
      2.318491     2.310848     2.303205     2.295561     2.287918     2.280275     2.272632     2.264988     2.257345     2.249702
      2.242059     2.234416     2.226772     2.219129     2.211486     2.203843     2.196199     2.188556     2.180913     2.173270
      2.165627     2.157983     2.150340     2.142697     2.135054     2.127410     2.119767     2.112124     2.104481     2.096838
      2.089194     2.081551     2.073908     2.066265     2.058621     2.050978     2.043335     2.035692     2.028049     2.020405
      2.012762     2.005119     1.997476     1.989833     1.982190     1.974546     1.966903     1.959260     1.951617     1.943974
      1.936331     1.928688     1.921045     1.913402     1.905759     1.898115     1.890472     1.882829     1.875186     1.867543
      1.859900     1.852257     1.844614     1.836971     1.829327     1.821684     1.814041     1.806398     1.798755     1.791112
      1.783469     1.775826     1.768183     1.760540     1.752896     1.745253     1.737610     1.729967     1.722324     1.714681
      1.707038     1.699395     1.691752     1.684108     1.676465     1.668822     1.661179     1.653536     1.645893     1.638250
      1.630607     1.622964     1.615321     1.607677     1.600034     1.592391     1.584748     1.577105     1.569462     1.561819
      1.554176     1.546533     1.538890     1.531246     1.523603     1.515960     1.508317     1.500674     1.493031     1.485388
      1.477745     1.470102     1.462458     1.454815     1.447172     1.439529     1.431886     1.424243     1.416600     1.408957
      1.401314     1.393671     1.386027     1.378384     1.370741     1.363098     1.355455     1.347812     1.340169     1.332526
      1.324883     1.317240     1.309596     1.301953     1.294310     1.286667     1.279024     1.271381     1.263738     1.256095
      1.248452     1.240808     1.233165     1.225522     1.217879     1.210236     1.202593     1.194950     1.187307     1.179664
      1.172021     1.164377     1.156734     1.149091     1.141448     1.133805     1.126162     1.118519     1.110876     1.103233
      1.095590     1.087946     1.080303     1.072660     1.065017     1.057374     1.049731     1.042088     1.034445     1.026802
      1.019158     1.011515     1.003872     0.996229     0.988586     0.980943     0.973300     0.965657     0.958014     0.950371
      0.942727     0.935084     0.927441     0.919798     0.912155     0.904512     0.896869     0.889226     0.881583     0.873940
      0.866296     0.858653     0.851010     0.843367     0.835724     0.828081     0.820438     0.812795     0.805152     0.797508
      0.789865     0.782222     0.774579     0.766936     0.759293     0.751650     0.744007     0.736364     0.728721     0.721077
      0.713434     0.705791     0.698148     0.690505     0.682862     0.675219     0.667576     0.659933     0.652290     0.644646
      0.637003     0.629360     0.621717     0.614074     0.606431     0.598788     0.591145     0.583502     0.575858     0.568215
      0.560572     0.552929     0.545286     0.537643     0.530000     0.522357     0.514714     0.507071     0.499427     0.491784
      0.484141     0.476498     0.468855     0.461212     0.453569     0.445925     0.438282     0.430639     0.422996     0.415353
      0.407710     0.400067     0.392424     0.384780     0.377137     0.369494     0.361851     0.354208     0.346565     0.338922
      0.331278     0.323635     0.315992     0.308349     0.300706     0.293063     0.285420     0.277777     0.270133     0.262490
      0.254847     0.247204     0.239561     0.231918     0.224275     0.216631     0.208988     0.201345
 NY phased data points follow
  -1.52041E+01 -2.39035E+01 -1.91729E+01 -1.58878E+01 -1.11632E+01 -8.59641E+00  8.95862E+00  6.46418E+00  2.00031E+01  2.61966E+01
   2.85470E+01  4.47899E+01  3.30141E+01  1.77227E+01  1.38619E+01  1.16058E+01 -4.51180E-01 -1.49928E+01 -1.75440E+01 -1.93412E+01
  -6.66023E+00 -1.06846E+01 -1.42131E+01 -4.69715E+00 -7.24309E+00 -9.62208E+00  7.25010E-01 -3.82329E-02  9.44540E+00  3.02016E-01
  -8.50891E+00 -1.28424E+00  1.18757E+01 -1.29864E+01 -7.27893E+00  1.29602E+00 -1.28601E+01 -7.85187E+00 -9.63088E+00 -3.28806E+00
  -8.29370E+00 -1.99505E+01 -7.93521E+00 -4.69210E+00 -1.59516E+01 -1.09854E+01 -6.51576E+00  8.15324E+00  8.54165E-01 -4.34878E+00
  -1.51068E+01 -6.95501E+00 -7.55211E+00 -9.59994E+00 -2.89775E+00 -2.10287E+01  1.83069E+00 -3.96254E-01 -6.57958E+00 -1.40181E+01
  -1.30598E+01 -2.80921E+01 -1.86483E+01 -2.88545E+01 -2.28560E+01 -2.65248E+01 -1.64932E+01 -2.07510E+01 -2.51385E+01 -2.35797E+01
  -3.09708E+01 -1.12339E+01 -1.40428E+01 -2.07448E+01 -1.47192E+01 -9.65751E+00 -1.69404E+01 -2.00869E+01 -9.92074E+00 -6.16682E+00
  -1.26021E+01 -1.83076E+01 -1.39050E+01 -9.95037E+00 -2.13155E+01 -8.80699E+00 -2.30523E+01 -1.09803E+01 -1.44759E+01 -2.37602E+01
  -1.42784E+01 -3.20995E+00 -2.63087E+01 -8.70771E+00 -1.40883E+01  3.40137E+00 -1.70823E+01 -5.23240E+00  3.38520E+00 -2.74326E+00
   2.99758E+01  3.61266E+01  6.31438E+01  6.56527E+01  8.00251E+01  7.07387E+01  4.79730E+01  4.00865E+01  2.73965E+01  4.83142E+00
  -1.34224E+01 -3.12421E+00 -1.24428E+01 -2.12433E+01 -8.16420E+00 -2.79716E+01 -1.93340E+01 -1.35283E+01 -1.23292E+01 -6.15661E+00
  -1.70629E+01 -1.00146E+01 -1.36203E+01 -4.24886E+00  1.32983E+01  2.44047E+01  3.72029E+01  5.33217E+01  5.82839E+01  5.79982E+01
   3.90186E+01  1.00102E+01  1.60199E+01  6.34723E+00 -4.60822E+00 -1.73611E+01 -1.42724E+01 -1.82587E+01 -2.20853E+01 -2.54486E+01
  -1.59641E+01 -1.38955E+01 -2.40476E+01 -2.49415E+01 -1.04488E+01 -3.45754E+01 -2.91176E+01 -3.30635E+01 -2.92918E+01 -2.40969E+01
  -1.53042E+01 -2.28005E+01 -3.16542E+01 -1.07483E+01 -1.61257E+01 -2.68434E+01 -2.31632E+01 -2.48213E+01 -2.73234E+01 -2.85556E+01
  -1.77594E+01 -5.15371E+00 -2.14455E+01 -2.11886E+01 -1.86303E+01 -1.29367E+01 -1.69975E+01 -2.00991E+01 -2.86439E+00 -2.03549E+01
  -2.33630E+01 -2.97445E+01 -2.73774E+01 -2.03557E+01 -1.97513E+01 -2.04252E+01 -2.60687E+01 -3.66923E+01 -3.16519E+01 -3.46117E+01
  -1.62686E+01 -2.81901E+01 -1.57021E+01 -3.17589E+01 -3.71855E+01 -2.64713E+01 -1.49656E+01 -2.40916E+01 -6.26498E+00 -2.24328E+01
  -7.21866E+00 -2.17821E+01 -1.06948E+01  9.03241E-01 -1.14888E+01  2.06477E+00 -7.85974E+00 -2.25388E+01 -3.37170E+01 -2.49465E+01
  -1.12508E+01 -6.36509E+00 -6.59171E+00 -1.02120E+01 -4.34001E+00 -1.31631E+01 -1.09426E+01 -1.00147E+01 -2.42382E+01 -2.66263E+01
  -1.18621E+01 -2.55022E+01 -2.31946E+01 -1.54317E+01 -6.74942E+00  5.75049E+00  1.11980E+01 -7.47767E+00 -2.31056E+00 -4.20150E+00
  -1.10805E+01 -1.11578E+01 -2.06689E+01 -9.78201E+00 -6.05774E+00 -3.55617E+00 -3.65944E+00 -4.02057E-01 -8.52590E+00 -2.18390E+00
  -7.86725E+00  1.36169E+00  1.23312E+01  3.73497E-01  1.00590E+01  9.80012E+00  4.05054E-01  2.21793E+00 -2.41628E+00  3.92836E+00
  -5.08514E+00 -7.88494E+00 -4.04455E+00 -5.75775E+00 -5.67887E+00  4.70951E+00  7.07052E+00  4.06302E+00  2.74423E+00  5.01197E+00
  -1.48115E+00  5.55935E+00  1.09124E+01  1.93714E+01  3.29707E+01  4.13817E+01  5.29480E+01  4.50988E+01  7.63095E+01  9.01765E+01
   1.22678E+02  1.06907E+02  1.00001E+02  6.91003E+01  4.34045E+01  2.69502E+01  2.31709E+01  1.45152E+01  1.21578E+01 -1.58237E+00
   2.71766E-01 -2.36722E+00  1.97082E+01  1.78244E+01  1.36498E+01  1.15180E+01 -1.18876E+00  7.38833E+00  5.47385E+00 -4.30965E+00
  -2.60081E+00  5.22407E+00  7.41049E-02 -3.66522E+00 -3.01871E+00 -8.48224E+00  1.95189E+00 -3.71433E+00  1.37147E+00 -1.03360E+00
  -2.19464E+00 -8.12938E+00  9.12504E-01 -8.80435E+00  8.06699E+00  2.58866E+00  7.51905E+00  7.20909E+00  2.98679E+00  5.00113E+00
   1.70159E+01  1.49361E+01  1.83219E+01  9.96039E+00  1.37204E+01  1.90071E+01  4.73423E+00  1.86252E+01  1.56023E+01  1.67921E+01
  -1.44997E+00  4.52971E+00  1.37007E+00 -1.06593E+01 -1.03136E+01 -1.69877E+01 -1.46755E+01 -1.05505E+01 -2.04647E+01 -2.48074E+01
  -2.30519E+01 -1.22091E+01 -1.97445E+01 -1.84461E+01 -2.10938E+01 -1.02497E+01 -1.75042E+01 -2.45976E+01 -1.93643E+01 -9.63281E+00
  -6.80747E+00 -1.43658E+01 -1.64745E+00 -9.51457E+00 -4.45948E+00 -1.12869E+01 -7.60022E-01  3.27635E-02 -3.11306E+00 -2.82255E+00
   5.05760E-01 -6.62987E+00 -1.12336E+01 -7.73374E+00 -7.76908E+00 -5.56388E+00  5.12606E+00 -9.01582E+00  3.42925E+00 -1.25755E+01
  -2.36266E+01 -8.85608E+00  2.53278E+00 -6.44435E+00  8.18240E-02  1.03985E+01 -6.63464E-01 -3.08937E-01 -1.27918E+01 -1.12335E+00
  -3.67843E+00 -7.06822E+00  6.63306E+00 -4.21776E+00  3.42850E+00  5.91812E-02 -1.24788E+01 -1.32335E+00  7.84840E+00 -7.76311E+00
  -2.32677E+00 -6.73794E+00 -4.46287E+00 -1.00285E+01 -1.53917E+01 -3.62941E+00 -4.13242E+00 -1.00564E+01 -1.63899E+01  1.30492E+00
  -4.69460E+00 -1.51431E+01 -9.35379E+00 -1.30790E-01  6.25078E+00 -1.18074E+01 -9.94789E+00 -9.78695E+00 -1.42760E+01 -8.13068E+00
  -1.14858E+00  1.47873E+01  1.52843E+00 -2.46214E+00 -1.11120E+01  1.50655E+00 -9.84604E-01  2.99525E-01 -8.39961E+00  4.75549E+00
  -4.06997E+00  4.69879E+00  4.37316E+00 -4.79400E+00 -4.67691E+00 -1.49485E+01  4.79190E+00 -2.59750E+00  1.48989E+01  9.47103E+00
   4.03574E+00  9.57162E-01 -3.76908E+00 -1.46888E+00  4.83685E+00  3.53735E+00 -2.91517E+00  1.91573E+01  2.48185E+00  5.20829E+00
   1.08673E+00 -4.45442E+00 -6.55633E+00 -7.68709E-02  5.93640E+00 -4.44546E+00  1.26185E+01 -6.97948E+00  6.16184E+00  1.44552E+01
   6.72735E+00  4.14049E-01 -9.03480E+00  3.99358E-01  2.87587E+00 -8.25576E+00 -4.23619E-01 -1.24245E+01 -3.09196E-01 -4.80702E+00
  -7.72515E+00  7.57661E+00 -1.15129E+01 -1.97001E+01  2.80246E+00 -3.26840E+00 -1.15872E+00 -4.02029E+00 -2.96814E-01  7.27254E+00
  -1.44423E-01  1.05385E+01  1.91714E+00 -1.77502E+00 -1.25306E+01 -6.95360E+00 -1.59186E+01  1.85360E+00 -1.67530E+01 -6.61451E+00
   1.28051E-01 -3.71428E+00 -4.20150E-01 -6.45723E+00 -1.16130E+01 -8.21001E+00 -7.55000E+00  7.67576E+00 -8.37996E+00 -1.00081E+01
  -1.07092E+01 -9.90993E+00 -1.04386E+01 -1.36011E+01 -1.25061E+01 -3.25211E+00 -3.45170E+00 -3.48007E+00 -5.10154E+00 -8.67704E+00
  -1.17102E+01  4.33049E+00 -7.30865E+00 -9.60161E+00 -2.73028E+00 -6.16388E-01  1.61147E+00 -9.68939E+00  8.55341E-01  6.54954E+00
  -1.10529E+00 -7.35661E+00 -5.17160E+00 -1.22534E+00 -6.34207E+00 -9.88991E+00 -1.08043E+00  2.61868E+00
 NY points of the fit to the data follow
  -1.40273E+01 -1.37351E+01 -1.29463E+01 -1.14002E+01 -8.66696E+00 -4.57535E+00  1.24441E+00  8.61470E+00  1.69342E+01  2.48090E+01
   3.02710E+01  3.15971E+01  2.83041E+01  2.15014E+01  1.31632E+01  4.99690E+00 -2.05988E+00 -7.54649E+00 -1.12363E+01 -1.32530E+01
  -1.36838E+01 -1.36237E+01 -1.35529E+01 -1.32923E+01 -1.25588E+01 -1.13178E+01 -9.27874E+00 -6.29813E+00 -2.70260E+00  7.35561E-01
   3.04919E+00  3.58014E+00  2.24498E+00 -4.90769E-01 -4.09392E+00 -8.24593E+00 -1.22562E+01 -1.48516E+01 -1.57026E+01 -1.56307E+01
  -1.48472E+01 -1.34122E+01 -1.16293E+01 -9.74337E+00 -7.80121E+00 -5.86063E+00 -4.37903E+00 -3.80720E+00 -4.28998E+00 -5.86195E+00
  -8.09915E+00 -1.03007E+01 -1.21346E+01 -1.36811E+01 -1.47830E+01 -1.51165E+01 -1.48277E+01 -1.43286E+01 -1.38149E+01 -1.33772E+01
  -1.32588E+01 -1.36243E+01 -1.44502E+01 -1.54626E+01 -1.63432E+01 -1.69229E+01 -1.71248E+01 -1.69253E+01 -1.63968E+01 -1.56750E+01
  -1.48981E+01 -1.42192E+01 -1.37388E+01 -1.34973E+01 -1.34616E+01 -1.35440E+01 -1.36975E+01 -1.39011E+01 -1.41592E+01 -1.44071E+01
  -1.45176E+01 -1.45121E+01 -1.44194E+01 -1.42495E+01 -1.40859E+01 -1.41206E+01 -1.45204E+01 -1.52458E+01 -1.60366E+01 -1.65767E+01
  -1.66548E+01 -1.62998E+01 -1.56789E+01 -1.48875E+01 -1.39158E+01 -1.28664E+01 -1.15975E+01 -8.79765E+00 -2.54465E+00  7.56093E+00
   2.21880E+01  4.08462E+01  6.02039E+01  7.44257E+01  7.83085E+01  7.06159E+01  5.46992E+01  3.61383E+01  1.90489E+01  4.43607E+00
  -7.46439E+00 -1.47448E+01 -1.66137E+01 -1.66298E+01 -1.63293E+01 -1.59631E+01 -1.55898E+01 -1.52262E+01 -1.48183E+01 -1.42390E+01
  -1.31846E+01 -1.05705E+01 -5.19497E+00  3.05678E+00  1.46234E+01  2.90022E+01  4.35635E+01  5.39790E+01  5.65862E+01  5.08139E+01
   3.93478E+01  2.60677E+01  1.34473E+01  1.86378E+00 -8.31927E+00 -1.50276E+01 -1.74972E+01 -1.80516E+01 -1.75687E+01 -1.64878E+01
  -1.52128E+01 -1.40691E+01 -1.33595E+01 -1.31727E+01 -1.33590E+01 -1.38144E+01 -1.44625E+01 -1.51608E+01 -1.58527E+01 -1.64386E+01
  -1.69544E+01 -1.74354E+01 -1.78480E+01 -1.81335E+01 -1.82666E+01 -1.83253E+01 -1.83950E+01 -1.85943E+01 -1.90310E+01 -1.96404E+01
  -2.02338E+01 -2.05513E+01 -2.04656E+01 -2.00650E+01 -1.96063E+01 -1.93502E+01 -1.93588E+01 -1.95457E+01 -1.98372E+01 -2.02009E+01
  -2.05899E+01 -2.09831E+01 -2.13741E+01 -2.17860E+01 -2.22658E+01 -2.26730E+01 -2.28021E+01 -2.26350E+01 -2.23634E+01 -2.21883E+01
  -2.21421E+01 -2.20843E+01 -2.17975E+01 -2.12644E+01 -2.06358E+01 -1.98336E+01 -1.85650E+01 -1.67301E+01 -1.45134E+01 -1.24252E+01
  -1.09879E+01 -1.05435E+01 -1.10912E+01 -1.23569E+01 -1.39962E+01 -1.56434E+01 -1.67688E+01 -1.69386E+01 -1.59997E+01 -1.40510E+01
  -1.14192E+01 -8.65648E+00 -6.25702E+00 -4.66326E+00 -4.41173E+00 -5.80673E+00 -8.67643E+00 -1.25580E+01 -1.67136E+01 -2.01397E+01
  -2.17223E+01 -2.09285E+01 -1.78748E+01 -1.32322E+01 -8.12419E+00 -3.93042E+00 -1.81240E+00 -2.37444E+00 -5.46608E+00 -9.95929E+00
  -1.44857E+01 -1.80468E+01 -1.97134E+01 -1.89076E+01 -1.57987E+01 -1.17294E+01 -8.04886E+00 -5.39698E+00 -3.89326E+00 -3.41522E+00
  -3.78454E+00 -4.38999E+00 -4.46754E+00 -3.80326E+00 -2.74051E+00 -1.60310E+00 -6.28476E-01 -6.39755E-02 -7.96660E-03 -5.02559E-01
  -1.36628E+00 -2.25108E+00 -2.76449E+00 -2.63218E+00 -1.87851E+00 -6.40121E-01  7.21085E-01  1.81644E+00  2.62992E+00  3.56928E+00
   5.27853E+00  7.87025E+00  1.17438E+01  1.73997E+01  2.57548E+01  3.68271E+01  4.96139E+01  6.42735E+01  8.05520E+01  9.59101E+01
   1.05473E+02  1.04830E+02  9.33609E+01  7.51063E+01  5.59535E+01  3.86564E+01  2.32033E+01  1.01964E+01  2.26813E+00 -8.09278E-01
  -2.34415E+00 -3.24921E+00 -3.69533E+00 -3.87624E+00 -3.99581E+00 -4.15882E+00 -4.44764E+00 -4.86934E+00 -5.37076E+00 -5.87255E+00
  -6.30719E+00 -6.60056E+00 -6.69145E+00 -6.57128E+00 -6.27155E+00 -5.83615E+00 -5.28094E+00 -4.60251E+00 -3.80000E+00 -2.87447E+00
  -1.81142E+00 -6.11204E-01  6.92180E-01  2.04296E+00  3.39228E+00  4.68783E+00  5.88260E+00  6.93849E+00  7.82038E+00  8.50140E+00
   8.97143E+00  9.21371E+00  9.20692E+00  8.94065E+00  8.42041E+00  7.66603E+00  6.70551E+00  5.57258E+00  4.31406E+00  2.97854E+00
   1.61075E+00  2.52528E-01 -1.06036E+00 -2.29909E+00 -3.44139E+00 -4.47203E+00 -5.38259E+00 -6.17073E+00 -6.83920E+00 -7.39462E+00
  -7.84630E+00 -8.20543E+00 -8.48419E+00 -8.69449E+00 -8.84746E+00 -8.95317E+00 -9.02054E+00 -9.05726E+00 -9.06966E+00 -9.06267E+00
  -9.03990E+00 -9.00393E+00 -8.95648E+00 -8.89841E+00 -8.82963E+00 -8.74893E+00 -8.65367E+00 -8.53926E+00 -8.39772E+00 -8.21408E+00
  -7.95466E+00 -7.55732E+00 -7.03489E+00 -6.43158E+00 -5.79826E+00 -5.28130E+00 -5.09921E+00 -5.41410E+00 -6.17446E+00 -7.04316E+00
  -7.64892E+00 -7.73844E+00 -7.21109E+00 -6.08731E+00 -4.48053E+00 -2.66264E+00 -1.14898E+00 -2.97291E-01 -8.89095E-02 -3.39655E-01
  -8.83727E-01 -1.64111E+00 -2.50648E+00 -3.24753E+00 -3.80874E+00 -4.24454E+00 -4.58154E+00 -4.83758E+00 -5.02901E+00 -5.17103E+00
  -5.27685E+00 -5.35699E+00 -5.41904E+00 -5.46779E+00 -5.50571E+00 -5.53350E+00 -5.55069E+00 -5.55593E+00 -5.54737E+00 -5.52272E+00
  -5.47951E+00 -5.41516E+00 -5.32707E+00 -5.21257E+00 -5.06896E+00 -4.89346E+00 -4.68333E+00 -4.43602E+00 -4.14920E+00 -3.82086E+00
  -3.44941E+00 -3.03389E+00 -2.57420E+00 -2.07137E+00 -1.52765E+00 -9.46731E-01 -3.33780E-01  3.04393E-01  9.59311E-01  1.62093E+00
   2.27784E+00  2.91768E+00  3.52744E+00  4.09392E+00  4.60422E+00  5.04632E+00  5.40967E+00  5.68572E+00  5.86825E+00  5.95369E+00
   5.94121E+00  5.83283E+00  5.63330E+00  5.34983E+00  4.99166E+00  4.56956E+00  4.09532E+00  3.58125E+00  3.03970E+00  2.48256E+00
   1.92082E+00  1.36424E+00  8.21209E-01  2.98629E-01 -1.98081E-01 -6.64981E-01 -1.09954E+00 -1.50046E+00 -1.86749E+00 -2.20116E+00
  -2.50261E+00 -2.77350E+00 -3.01585E+00 -3.23187E+00 -3.42380E+00 -3.59386E+00 -3.74417E+00 -3.87676E+00 -3.99356E+00 -4.09633E+00
  -4.18660E+00 -4.26576E+00 -4.33500E+00 -4.39545E+00 -4.44811E+00 -4.49385E+00 -4.53338E+00 -4.56733E+00 -4.59626E+00 -4.62072E+00
  -4.64118E+00 -4.65802E+00 -4.67155E+00 -4.68204E+00 -4.68977E+00 -4.69502E+00 -4.69801E+00 -4.69891E+00 -4.69788E+00 -4.69506E+00
  -4.69061E+00 -4.68469E+00 -4.67742E+00 -4.66885E+00 -4.65907E+00 -4.64815E+00 -4.63622E+00 -4.62337E+00 -4.60965E+00 -4.59509E+00
  -4.57974E+00 -4.56366E+00 -4.54694E+00 -4.52961E+00 -4.51171E+00 -4.49323E+00 -4.47421E+00 -4.45472E+00 -4.43483E+00 -4.41455E+00
  -4.39389E+00 -4.37284E+00 -4.35146E+00 -4.32980E+00 -4.30790E+00 -4.28576E+00 -4.26338E+00 -4.24077E+00 -4.21798E+00 -4.19508E+00
  -4.17207E+00 -4.14896E+00 -4.12574E+00 -4.10246E+00 -4.07918E+00 -4.05594E+00 -4.03275E+00 -4.00963E+00
 NY background values follow
    -2.289E+01   -2.286E+01   -2.283E+01   -2.279E+01   -2.276E+01   -2.273E+01   -2.270E+01   -2.267E+01   -2.263E+01   -2.260E+01
    -2.257E+01   -2.254E+01   -2.250E+01   -2.247E+01   -2.244E+01   -2.241E+01   -2.237E+01   -2.234E+01   -2.231E+01   -2.228E+01
    -2.225E+01   -2.221E+01   -2.218E+01   -2.215E+01   -2.212E+01   -2.208E+01   -2.205E+01   -2.202E+01   -2.198E+01   -2.195E+01
    -2.192E+01   -2.189E+01   -2.185E+01   -2.182E+01   -2.179E+01   -2.176E+01   -2.172E+01   -2.169E+01   -2.166E+01   -2.162E+01
    -2.159E+01   -2.156E+01   -2.153E+01   -2.149E+01   -2.146E+01   -2.143E+01   -2.139E+01   -2.136E+01   -2.133E+01   -2.129E+01
    -2.126E+01   -2.123E+01   -2.120E+01   -2.116E+01   -2.113E+01   -2.110E+01   -2.106E+01   -2.103E+01   -2.100E+01   -2.096E+01
    -2.093E+01   -2.090E+01   -2.086E+01   -2.083E+01   -2.080E+01   -2.076E+01   -2.073E+01   -2.070E+01   -2.066E+01   -2.063E+01
    -2.060E+01   -2.056E+01   -2.053E+01   -2.050E+01   -2.046E+01   -2.043E+01   -2.039E+01   -2.036E+01   -2.033E+01   -2.029E+01
    -2.026E+01   -2.023E+01   -2.019E+01   -2.016E+01   -2.013E+01   -2.009E+01   -2.006E+01   -2.002E+01   -1.999E+01   -1.996E+01
    -1.992E+01   -1.989E+01   -1.985E+01   -1.982E+01   -1.979E+01   -1.975E+01   -1.972E+01   -1.968E+01   -1.965E+01   -1.962E+01
    -1.958E+01   -1.955E+01   -1.951E+01   -1.948E+01   -1.945E+01   -1.941E+01   -1.938E+01   -1.934E+01   -1.931E+01   -1.928E+01
    -1.924E+01   -1.921E+01   -1.917E+01   -1.914E+01   -1.910E+01   -1.907E+01   -1.904E+01   -1.900E+01   -1.897E+01   -1.893E+01
    -1.890E+01   -1.886E+01   -1.883E+01   -1.880E+01   -1.876E+01   -1.873E+01   -1.869E+01   -1.866E+01   -1.862E+01   -1.859E+01
    -1.855E+01   -1.852E+01   -1.849E+01   -1.845E+01   -1.842E+01   -1.838E+01   -1.835E+01   -1.831E+01   -1.828E+01   -1.824E+01
    -1.821E+01   -1.817E+01   -1.814E+01   -1.810E+01   -1.807E+01   -1.804E+01   -1.800E+01   -1.797E+01   -1.793E+01   -1.790E+01
    -1.786E+01   -1.783E+01   -1.779E+01   -1.776E+01   -1.772E+01   -1.769E+01   -1.765E+01   -1.762E+01   -1.758E+01   -1.755E+01
    -1.751E+01   -1.748E+01   -1.744E+01   -1.741E+01   -1.737E+01   -1.734E+01   -1.730E+01   -1.727E+01   -1.723E+01   -1.720E+01
    -1.716E+01   -1.713E+01   -1.709E+01   -1.706E+01   -1.702E+01   -1.699E+01   -1.695E+01   -1.692E+01   -1.688E+01   -1.685E+01
    -1.681E+01   -1.678E+01   -1.674E+01   -1.671E+01   -1.667E+01   -1.663E+01   -1.660E+01   -1.656E+01   -1.653E+01   -1.649E+01
    -1.646E+01   -1.642E+01   -1.639E+01   -1.635E+01   -1.632E+01   -1.628E+01   -1.625E+01   -1.621E+01   -1.618E+01   -1.614E+01
    -1.610E+01   -1.607E+01   -1.603E+01   -1.600E+01   -1.596E+01   -1.593E+01   -1.589E+01   -1.586E+01   -1.582E+01   -1.578E+01
    -1.575E+01   -1.571E+01   -1.568E+01   -1.564E+01   -1.561E+01   -1.557E+01   -1.554E+01   -1.550E+01   -1.546E+01   -1.543E+01
    -1.539E+01   -1.536E+01   -1.532E+01   -1.529E+01   -1.525E+01   -1.521E+01   -1.518E+01   -1.514E+01   -1.511E+01   -1.507E+01
    -1.504E+01   -1.500E+01   -1.496E+01   -1.493E+01   -1.489E+01   -1.486E+01   -1.482E+01   -1.479E+01   -1.475E+01   -1.471E+01
    -1.468E+01   -1.464E+01   -1.461E+01   -1.457E+01   -1.453E+01   -1.450E+01   -1.446E+01   -1.443E+01   -1.439E+01   -1.435E+01
    -1.432E+01   -1.428E+01   -1.425E+01   -1.421E+01   -1.418E+01   -1.414E+01   -1.410E+01   -1.407E+01   -1.403E+01   -1.400E+01
    -1.396E+01   -1.392E+01   -1.389E+01   -1.385E+01   -1.382E+01   -1.378E+01   -1.374E+01   -1.371E+01   -1.367E+01   -1.364E+01
    -1.360E+01   -1.356E+01   -1.353E+01   -1.349E+01   -1.345E+01   -1.342E+01   -1.338E+01   -1.335E+01   -1.331E+01   -1.327E+01
    -1.324E+01   -1.320E+01   -1.317E+01   -1.313E+01   -1.309E+01   -1.306E+01   -1.302E+01   -1.298E+01   -1.295E+01   -1.291E+01
    -1.288E+01   -1.284E+01   -1.280E+01   -1.277E+01   -1.273E+01   -1.270E+01   -1.266E+01   -1.262E+01   -1.259E+01   -1.255E+01
    -1.251E+01   -1.248E+01   -1.244E+01   -1.241E+01   -1.237E+01   -1.233E+01   -1.230E+01   -1.226E+01   -1.222E+01   -1.219E+01
    -1.215E+01   -1.211E+01   -1.208E+01   -1.204E+01   -1.201E+01   -1.197E+01   -1.193E+01   -1.190E+01   -1.186E+01   -1.182E+01
    -1.179E+01   -1.175E+01   -1.172E+01   -1.168E+01   -1.164E+01   -1.161E+01   -1.157E+01   -1.153E+01   -1.150E+01   -1.146E+01
    -1.142E+01   -1.139E+01   -1.135E+01   -1.131E+01   -1.128E+01   -1.124E+01   -1.121E+01   -1.117E+01   -1.113E+01   -1.110E+01
    -1.106E+01   -1.102E+01   -1.099E+01   -1.095E+01   -1.091E+01   -1.088E+01   -1.084E+01   -1.081E+01   -1.077E+01   -1.073E+01
    -1.070E+01   -1.066E+01   -1.062E+01   -1.059E+01   -1.055E+01   -1.051E+01   -1.048E+01   -1.044E+01   -1.040E+01   -1.037E+01
    -1.033E+01   -1.030E+01   -1.026E+01   -1.022E+01   -1.019E+01   -1.015E+01   -1.011E+01   -1.008E+01   -1.004E+01   -1.000E+01
    -9.967E+00   -9.930E+00   -9.894E+00   -9.857E+00   -9.821E+00   -9.785E+00   -9.748E+00   -9.712E+00   -9.675E+00   -9.639E+00
    -9.602E+00   -9.566E+00   -9.529E+00   -9.493E+00   -9.456E+00   -9.420E+00   -9.383E+00   -9.347E+00   -9.310E+00   -9.274E+00
    -9.237E+00   -9.201E+00   -9.164E+00   -9.128E+00   -9.092E+00   -9.055E+00   -9.019E+00   -8.982E+00   -8.946E+00   -8.909E+00
    -8.873E+00   -8.836E+00   -8.800E+00   -8.763E+00   -8.727E+00   -8.690E+00   -8.654E+00   -8.617E+00   -8.581E+00   -8.545E+00
    -8.508E+00   -8.472E+00   -8.435E+00   -8.399E+00   -8.362E+00   -8.326E+00   -8.289E+00   -8.253E+00   -8.216E+00   -8.180E+00
    -8.144E+00   -8.107E+00   -8.071E+00   -8.034E+00   -7.998E+00   -7.961E+00   -7.925E+00   -7.889E+00   -7.852E+00   -7.816E+00
    -7.779E+00   -7.743E+00   -7.706E+00   -7.670E+00   -7.634E+00   -7.597E+00   -7.561E+00   -7.524E+00   -7.488E+00   -7.452E+00
    -7.415E+00   -7.379E+00   -7.343E+00   -7.306E+00   -7.270E+00   -7.233E+00   -7.197E+00   -7.161E+00   -7.124E+00   -7.088E+00
    -7.052E+00   -7.015E+00   -6.979E+00   -6.943E+00   -6.906E+00   -6.870E+00   -6.834E+00   -6.797E+00   -6.761E+00   -6.725E+00
    -6.688E+00   -6.652E+00   -6.616E+00   -6.579E+00   -6.543E+00   -6.507E+00   -6.471E+00   -6.434E+00   -6.398E+00   -6.362E+00
    -6.325E+00   -6.289E+00   -6.253E+00   -6.217E+00   -6.180E+00   -6.144E+00   -6.108E+00   -6.072E+00   -6.036E+00   -5.999E+00
    -5.963E+00   -5.927E+00   -5.891E+00   -5.854E+00   -5.818E+00   -5.782E+00   -5.746E+00   -5.710E+00   -5.674E+00   -5.637E+00
    -5.601E+00   -5.565E+00   -5.529E+00   -5.493E+00   -5.457E+00   -5.421E+00   -5.385E+00   -5.348E+00
 Asp      Conc. = 4.30E+02
