 LCModel (Version 6.3-1L) Copyright: S.W. Provencher.          Ref.: Magn. Reson. Med. 30:672-679 (1993).                
 Slice#2 Row#9 Col#12  PD_05_press_2_raw_act
 36 lines in following concentration table = NCONC+1
    Conc.  %SD /Cr+PCr  Metabolite                                         
    0.000 999%   0.000 Ala                                                 
    6.651 162%   0.951 Asp                                                 
    6.996 134%   1.000 Cr                                                  
    0.000 999%   0.000 PCr                                                 
    4.317 147%   0.617 GABA                                                
    2.645 247%   0.378 Glc                                                 
    0.000 999%   0.000 Gln                                                 
   39.926  85%   5.707 Glu                                                 
   13.641 158%   1.950 GPC                                                 
    0.000 999%   0.000 PCh                                                 
    6.960 150%   0.995 GSH                                                 
   86.367  69%  12.345 Ins                                                 
    0.000 999%   0.000 Lac                                                 
   64.925  62%   9.280 NAA                                                 
   12.192 141%   1.743 NAAG                                                
    2.381  88%   0.340 Scyllo                                              
    4.653 225%   0.665 Tau                                                 
    0.539 611% 7.7E-02 -CrCH2                                              
   13.641  63%   1.950 GPC+PCh                                             
   77.116  69%  11.023 NAA+NAAG                                            
    6.996 134%   1.000 Cr+PCr                                              
   39.926  85%   5.707 Glu+Gln                                             
 6.27E+03  27% 896.835 Lip13a                                              
    0.000 999%   0.000 Lip13b                                              
 3.31E+03  18% 472.504 Lip09                                               
 3.50E+03  18% 500.951 MM09                                                
  750.806  56% 107.318 Lip20                                               
  569.694  80%  81.430 MM20                                                
 3.74E+03  25% 535.249 MM12                                                
 4.70E+03  21% 671.499 MM14                                                
 3.87E+03  21% 552.944 MM17                                                
 6.27E+03  27% 896.835 Lip13a+Lip13b                                       
 1.47E+04  11% 2.1E+03 MM14+Lip13a+Lip13b+MM12                             
 6.81E+03  10% 973.455 MM09+Lip09                                          
 1.32E+03  32% 188.749 MM20+Lip20                                          
   6 lines in following misc. output table
  FWHM = 0.023 ppm    S/N =   6                                            
  Data shift = 0.015 ppm                                                   
  Ph:   3 deg      14.2 deg/ppm                                            
  alphaB,S = 8.0E-01,   1.5E+00                                            
   14 spline knots.   Ns = 5(1)                                            
   3 inflections.     2 extrema                                            
  498 points on ppm-axis = NY
      4.000000     3.992357     3.984714     3.977070     3.969427     3.961784     3.954141     3.946497     3.938854     3.931211
      3.923568     3.915925     3.908281     3.900638     3.892995     3.885352     3.877708     3.870065     3.862422     3.854779
      3.847136     3.839492     3.831849     3.824206     3.816563     3.808919     3.801276     3.793633     3.785990     3.778347
      3.770703     3.763060     3.755417     3.747774     3.740130     3.732487     3.724844     3.717201     3.709558     3.701914
      3.694271     3.686628     3.678985     3.671341     3.663698     3.656055     3.648412     3.640769     3.633125     3.625482
      3.617839     3.610196     3.602552     3.594909     3.587266     3.579623     3.571980     3.564336     3.556693     3.549050
      3.541407     3.533763     3.526120     3.518477     3.510834     3.503191     3.495547     3.487904     3.480261     3.472618
      3.464974     3.457331     3.449688     3.442045     3.434402     3.426758     3.419115     3.411472     3.403829     3.396185
      3.388542     3.380899     3.373256     3.365613     3.357969     3.350326     3.342683     3.335040     3.327396     3.319753
      3.312110     3.304467     3.296824     3.289180     3.281537     3.273894     3.266251     3.258607     3.250964     3.243321
      3.235678     3.228034     3.220391     3.212748     3.205105     3.197462     3.189818     3.182175     3.174532     3.166889
      3.159245     3.151602     3.143959     3.136316     3.128673     3.121029     3.113386     3.105743     3.098100     3.090456
      3.082813     3.075170     3.067527     3.059884     3.052240     3.044597     3.036954     3.029311     3.021667     3.014024
      3.006381     2.998738     2.991095     2.983451     2.975808     2.968165     2.960522     2.952878     2.945235     2.937592
      2.929949     2.922306     2.914662     2.907019     2.899376     2.891733     2.884089     2.876446     2.868803     2.861160
      2.853517     2.845873     2.838230     2.830587     2.822944     2.815300     2.807657     2.800014     2.792371     2.784728
      2.777084     2.769441     2.761798     2.754155     2.746511     2.738868     2.731225     2.723582     2.715939     2.708295
      2.700652     2.693009     2.685366     2.677722     2.670079     2.662436     2.654793     2.647150     2.639506     2.631863
      2.624220     2.616577     2.608933     2.601290     2.593647     2.586004     2.578361     2.570717     2.563074     2.555431
      2.547788     2.540144     2.532501     2.524858     2.517215     2.509572     2.501928     2.494285     2.486642     2.478999
      2.471355     2.463712     2.456069     2.448426     2.440783     2.433139     2.425496     2.417853     2.410210     2.402566
      2.394923     2.387280     2.379637     2.371994     2.364350     2.356707     2.349064     2.341421     2.333777     2.326134
      2.318491     2.310848     2.303205     2.295561     2.287918     2.280275     2.272632     2.264988     2.257345     2.249702
      2.242059     2.234416     2.226772     2.219129     2.211486     2.203843     2.196199     2.188556     2.180913     2.173270
      2.165627     2.157983     2.150340     2.142697     2.135054     2.127410     2.119767     2.112124     2.104481     2.096838
      2.089194     2.081551     2.073908     2.066265     2.058621     2.050978     2.043335     2.035692     2.028049     2.020405
      2.012762     2.005119     1.997476     1.989833     1.982190     1.974546     1.966903     1.959260     1.951617     1.943974
      1.936331     1.928688     1.921045     1.913402     1.905759     1.898115     1.890472     1.882829     1.875186     1.867543
      1.859900     1.852257     1.844614     1.836971     1.829327     1.821684     1.814041     1.806398     1.798755     1.791112
      1.783469     1.775826     1.768183     1.760540     1.752896     1.745253     1.737610     1.729967     1.722324     1.714681
      1.707038     1.699395     1.691752     1.684108     1.676465     1.668822     1.661179     1.653536     1.645893     1.638250
      1.630607     1.622964     1.615321     1.607677     1.600034     1.592391     1.584748     1.577105     1.569462     1.561819
      1.554176     1.546533     1.538890     1.531246     1.523603     1.515960     1.508317     1.500674     1.493031     1.485388
      1.477745     1.470102     1.462458     1.454815     1.447172     1.439529     1.431886     1.424243     1.416600     1.408957
      1.401314     1.393671     1.386027     1.378384     1.370741     1.363098     1.355455     1.347812     1.340169     1.332526
      1.324883     1.317240     1.309596     1.301953     1.294310     1.286667     1.279024     1.271381     1.263738     1.256095
      1.248452     1.240808     1.233165     1.225522     1.217879     1.210236     1.202593     1.194950     1.187307     1.179664
      1.172021     1.164377     1.156734     1.149091     1.141448     1.133805     1.126162     1.118519     1.110876     1.103233
      1.095590     1.087946     1.080303     1.072660     1.065017     1.057374     1.049731     1.042088     1.034445     1.026802
      1.019158     1.011515     1.003872     0.996229     0.988586     0.980943     0.973300     0.965657     0.958014     0.950371
      0.942727     0.935084     0.927441     0.919798     0.912155     0.904512     0.896869     0.889226     0.881583     0.873940
      0.866296     0.858653     0.851010     0.843367     0.835724     0.828081     0.820438     0.812795     0.805152     0.797508
      0.789865     0.782222     0.774579     0.766936     0.759293     0.751650     0.744007     0.736364     0.728721     0.721077
      0.713434     0.705791     0.698148     0.690505     0.682862     0.675219     0.667576     0.659933     0.652290     0.644646
      0.637003     0.629360     0.621717     0.614074     0.606431     0.598788     0.591145     0.583502     0.575858     0.568215
      0.560572     0.552929     0.545286     0.537643     0.530000     0.522357     0.514714     0.507071     0.499427     0.491784
      0.484141     0.476498     0.468855     0.461212     0.453569     0.445925     0.438282     0.430639     0.422996     0.415353
      0.407710     0.400067     0.392424     0.384780     0.377137     0.369494     0.361851     0.354208     0.346565     0.338922
      0.331278     0.323635     0.315992     0.308349     0.300706     0.293063     0.285420     0.277777     0.270133     0.262490
      0.254847     0.247204     0.239561     0.231918     0.224275     0.216631     0.208988     0.201345
 NY phased data points follow
  -5.32401E-01  1.78095E+00 -1.83391E-01  7.93208E+00  6.97824E+00  5.41350E+00  2.23606E+00  2.78890E+00  5.65940E+00  7.09733E+00
   4.88472E+00  5.67377E+00  2.91049E+00  4.54380E+00  3.87389E+00 -7.01130E-01  9.36588E+00  5.20915E+00  9.03719E+00 -7.13330E-01
   2.02498E+00  5.97944E+00  1.69850E+00  5.78360E+00  4.01848E+00  1.52211E+00 -6.63834E-02  3.29659E+00  2.55944E+00  1.38426E+00
   8.07530E+00  1.34780E+00 -2.64540E+00  9.30778E+00  5.45317E+00  4.84701E+00  5.43929E+00  6.89646E+00  5.34870E+00  4.77289E+00
   6.89442E+00  7.67953E+00  4.65830E+00  4.40546E+00  5.08375E+00  2.88653E+00  1.18720E+01  7.56748E+00  8.19248E+00 -1.38622E+00
   3.33192E+00  3.40257E+00  4.78198E+00  6.59434E+00  5.63573E+00  1.78423E+00  6.52033E+00  8.66820E+00  7.07098E+00  1.02112E+01
  -2.72573E-01  5.39002E+00  3.72860E+00  1.86586E+00  4.27022E-01  3.97276E+00  2.50468E+00  6.02109E+00  4.53108E+00  8.12414E+00
   3.75434E+00  2.64565E+00 -2.32010E-01  5.99459E+00  2.51681E+00  3.44435E+00  9.41002E+00  3.18238E+00  4.30747E+00  5.93576E+00
   4.70844E+00  5.72135E+00  6.40121E+00  8.09396E+00  7.92157E+00  6.39408E+00  3.39400E+00  5.94645E+00  3.25384E+00  1.67102E+00
   1.73566E+00  8.07992E+00  4.54637E+00  3.22137E+00  3.90989E+00  6.59172E+00  4.01190E+00  3.64597E+00  2.78362E+00  3.98592E+00
   6.77244E+00  1.72506E+01  8.34532E+00  1.06184E+01  4.66898E+00  4.95264E+00  2.59081E+00  6.96871E-01  5.17689E+00  6.19102E+00
   3.74274E+00  7.68748E-01  9.80746E+00  6.71819E+00  5.81706E+00  6.92566E+00  3.60423E+00  1.06422E+01  5.45966E+00 -1.72386E-01
   3.19034E+00  6.11458E+00  5.06727E+00  6.13962E+00  7.16783E+00  7.65243E+00  4.40723E+00  6.88114E+00  1.17366E+01  4.34713E+00
   6.87607E+00  6.09483E+00  7.34618E+00  2.53603E+00  4.68580E+00  8.52841E+00  3.92009E+00  4.83080E+00  7.20876E+00  6.52012E+00
   5.92662E+00  6.86033E+00  8.08053E+00  6.57998E+00  8.04870E+00  7.91423E+00  6.76237E+00  6.73677E+00  4.20320E+00  5.38241E+00
   6.27996E+00  5.53946E+00  9.88940E+00  6.75255E+00  5.15337E+00  7.33267E+00  8.33080E+00  6.55534E+00  8.98119E+00  4.60189E+00
   6.22881E+00  7.95953E+00  1.16309E+01  4.01016E+00  3.47150E+00  1.15093E+01  4.95982E+00  5.09679E+00  6.30458E+00  8.63422E+00
   4.53994E+00  5.31578E+00  7.09717E+00  8.36381E+00  7.86928E+00  9.30298E+00  5.20997E+00  1.41112E+01  6.91557E+00  7.79896E+00
   9.01085E+00  9.32885E+00  1.28823E+01  5.70848E+00  1.03707E+01  1.12762E+01  1.10080E+01  9.65065E+00  6.41730E+00  1.26001E+01
   9.89252E+00  8.08619E+00  1.08111E+01  6.98537E+00  9.17225E+00  8.65137E+00  1.03775E+01  3.27399E+00  9.72167E+00  1.44637E+01
   8.89550E+00  9.74627E+00  1.12057E+01  1.08217E+01  9.58367E+00  7.82674E+00  7.54877E+00  9.72321E+00  1.05775E+01  1.07627E+01
   9.96776E+00  8.16259E+00  5.47959E+00  6.61504E+00  1.15320E+01  1.26249E+01  1.37827E+01  1.00040E+01  7.63141E+00  7.49004E+00
   6.10213E+00  1.16480E+01  1.13556E+01  9.54526E+00  9.69549E+00  1.21415E+01  1.75950E+01  8.20644E+00  1.34871E+01  1.28559E+01
   1.11096E+01  7.41208E+00  1.16476E+01  1.77524E+01  1.03007E+01  1.41726E+01  1.58145E+01  1.33316E+01  1.16729E+01  1.13490E+01
   6.74545E+00  8.89494E+00  1.43983E+01  9.46316E+00  1.22840E+01  1.08234E+01  1.45636E+01  1.44135E+01  1.49333E+01  1.28741E+01
   1.56574E+01  1.18211E+01  1.44911E+01  1.26027E+01  1.44724E+01  1.39250E+01  2.04860E+01  1.84624E+01  2.28509E+01  2.30631E+01
   2.13533E+01  1.22456E+01  1.36913E+01  6.47066E+00  6.38880E+00  9.99505E+00  8.44435E+00  1.18091E+01  1.43684E+01  1.53187E+01
   1.79397E+01  1.40863E+01  1.88432E+01  2.01245E+01  1.77523E+01  1.86258E+01  1.41166E+01  1.54531E+01  1.49558E+01  1.79020E+01
   1.86914E+01  2.29814E+01  1.72104E+01  1.79553E+01  2.07534E+01  2.28590E+01  1.49859E+01  2.19165E+01  2.14065E+01  2.46088E+01
   1.86836E+01  2.04479E+01  1.94844E+01  2.25224E+01  2.02189E+01  2.21642E+01  2.19841E+01  2.15013E+01  2.21274E+01  1.92946E+01
   2.11243E+01  2.30728E+01  2.38921E+01  2.14981E+01  2.08884E+01  2.59206E+01  2.57236E+01  2.96303E+01  2.94269E+01  2.87519E+01
   2.49027E+01  2.29205E+01  2.78262E+01  2.57047E+01  2.77882E+01  2.61644E+01  2.60935E+01  3.05242E+01  2.59333E+01  3.23030E+01
   3.20446E+01  3.15542E+01  2.86721E+01  2.98994E+01  3.01060E+01  3.58330E+01  3.19210E+01  3.84275E+01  3.54563E+01  3.47988E+01
   3.24067E+01  3.35285E+01  3.00216E+01  2.98404E+01  3.24512E+01  2.74134E+01  3.49615E+01  3.13923E+01  2.96291E+01  3.09688E+01
   3.10866E+01  2.56370E+01  3.07734E+01  3.03655E+01  3.32789E+01  2.82540E+01  2.87293E+01  2.92618E+01  3.00020E+01  2.74048E+01
   3.18678E+01  3.37584E+01  3.53063E+01  2.98576E+01  3.07848E+01  3.20979E+01  3.50799E+01  3.03643E+01  3.50000E+01  3.19064E+01
   2.85057E+01  3.14445E+01  3.28141E+01  3.19562E+01  3.50313E+01  3.52315E+01  3.28417E+01  3.52555E+01  3.09624E+01  3.63874E+01
   3.59672E+01  3.90370E+01  3.46286E+01  3.12745E+01  3.04579E+01  3.34235E+01  3.26137E+01  3.11683E+01  3.14521E+01  3.36443E+01
   3.41510E+01  3.31072E+01  2.95843E+01  2.92411E+01  2.51912E+01  3.13515E+01  3.10794E+01  3.09058E+01  2.72750E+01  2.61287E+01
   2.67331E+01  2.87152E+01  2.56513E+01  2.95711E+01  2.81450E+01  2.81300E+01  2.77911E+01  3.32886E+01  3.24264E+01  2.51337E+01
   2.65621E+01  2.85919E+01  2.42861E+01  2.44723E+01  2.58495E+01  2.08889E+01  2.57452E+01  1.64975E+01  2.37280E+01  2.49255E+01
   2.17259E+01  1.86895E+01  1.41609E+01  2.29738E+01  2.09205E+01  2.18181E+01  1.75213E+01  1.42661E+01  1.50356E+01  1.42959E+01
   1.46638E+01  1.59831E+01  1.47663E+01  1.04932E+01  1.28810E+01  1.02871E+01  5.20864E+00  3.70508E+00  6.39826E+00  5.12189E+00
   7.58250E+00  5.39290E+00  2.24047E+00  5.47960E+00  4.24679E+00  4.61118E+00  2.66695E+00  1.81296E+00 -9.63350E-01 -6.07380E-01
  -5.39761E-01 -2.13124E+00 -2.85933E+00 -1.09960E+00 -4.02694E+00 -6.42288E+00 -1.36489E+01 -1.23457E+01 -5.76370E+00 -3.72552E+00
  -4.25487E+00 -1.02827E+01 -8.54691E+00 -9.11424E+00 -8.28399E+00 -7.02451E+00 -1.12348E+01 -1.39969E+01 -1.24562E+01 -1.00626E+01
  -1.13492E+01 -1.13824E+01 -1.54823E+01 -1.52959E+01 -1.47004E+01 -1.39641E+01 -1.58862E+01 -1.78960E+01 -2.05544E+01 -1.67547E+01
  -1.92773E+01 -2.03276E+01 -1.92125E+01 -2.06503E+01 -1.95419E+01 -2.11765E+01 -2.23537E+01 -2.02282E+01 -1.69185E+01 -1.67447E+01
  -1.88324E+01 -1.79579E+01 -2.53150E+01 -2.46794E+01 -1.75762E+01 -1.97417E+01 -2.12781E+01 -2.19884E+01 -2.67057E+01 -1.79946E+01
  -2.38383E+01 -1.88770E+01 -2.12171E+01 -2.11943E+01 -2.13288E+01 -2.42075E+01 -2.27754E+01 -2.40151E+01
 NY points of the fit to the data follow
   3.06870E+00  3.28787E+00  3.52988E+00  3.70948E+00  3.83701E+00  3.89629E+00  3.85055E+00  3.84715E+00  4.07285E+00  4.42267E+00
   4.59490E+00  4.43808E+00  4.08495E+00  3.77224E+00  3.60032E+00  3.57174E+00  3.63897E+00  3.71641E+00  3.75402E+00  3.79414E+00
   3.87179E+00  3.95338E+00  4.01999E+00  4.11027E+00  4.13423E+00  4.00779E+00  3.94536E+00  4.15583E+00  4.51464E+00  4.78245E+00
   4.88845E+00  4.90856E+00  4.78248E+00  4.48588E+00  4.24360E+00  4.14161E+00  4.02229E+00  3.78047E+00  3.56589E+00  3.58333E+00
   3.81125E+00  4.06294E+00  4.26734E+00  4.72187E+00  5.80040E+00  7.16143E+00  7.83096E+00  7.14503E+00  5.40760E+00  3.49567E+00
   2.17416E+00  1.83023E+00  2.43626E+00  3.49041E+00  4.31731E+00  4.71794E+00  5.00602E+00  5.39196E+00  5.77059E+00  5.84987E+00
   5.49560E+00  4.81846E+00  4.07215E+00  3.58147E+00  3.56185E+00  3.97366E+00  4.54783E+00  4.98250E+00  5.24993E+00  5.40526E+00
   5.44812E+00  5.33983E+00  5.13835E+00  4.94326E+00  4.79244E+00  4.67234E+00  4.61513E+00  4.63077E+00  4.69122E+00  4.75564E+00
   4.83449E+00  4.92009E+00  5.11325E+00  5.35310E+00  5.37376E+00  4.97780E+00  4.36801E+00  3.93950E+00  3.94388E+00  4.32029E+00
   4.91681E+00  5.47194E+00  5.79556E+00  5.83712E+00  5.68337E+00  5.42321E+00  5.12521E+00  4.81301E+00  4.66205E+00  6.05025E+00
   9.06871E+00  1.17470E+01  1.19144E+01  9.48846E+00  6.02230E+00  3.19563E+00  1.71694E+00  1.97517E+00  3.38818E+00  4.79566E+00
   5.43663E+00  5.62057E+00  5.71272E+00  5.76985E+00  5.81369E+00  5.85096E+00  5.87808E+00  5.89713E+00  5.92845E+00  5.98320E+00
   6.05366E+00  6.12817E+00  6.20510E+00  6.48914E+00  7.06106E+00  7.61825E+00  7.76944E+00  7.44178E+00  6.87888E+00  6.39737E+00
   6.17428E+00  6.23896E+00  6.46383E+00  6.63401E+00  6.64169E+00  6.59948E+00  6.66365E+00  6.85804E+00  7.13747E+00  7.38532E+00
   7.51611E+00  7.52649E+00  7.48837E+00  7.45940E+00  7.46058E+00  7.48377E+00  7.51973E+00  7.55809E+00  7.59967E+00  7.64630E+00
   7.69904E+00  7.73861E+00  7.76377E+00  7.79858E+00  7.86685E+00  7.97356E+00  8.07214E+00  8.05117E+00  7.89004E+00  7.70412E+00
   7.65421E+00  7.83426E+00  8.13050E+00  8.34380E+00  8.36117E+00  8.20295E+00  7.97223E+00  7.79451E+00  7.74320E+00  7.81876E+00
   7.94003E+00  8.01200E+00  7.93791E+00  7.74945E+00  7.61937E+00  7.68703E+00  7.92256E+00  8.10689E+00  8.09961E+00  7.95296E+00
   7.82875E+00  7.82740E+00  7.94421E+00  8.02912E+00  8.02142E+00  8.00188E+00  8.10167E+00  8.32251E+00  8.58027E+00  8.74193E+00
   8.72482E+00  8.52951E+00  8.29256E+00  8.19097E+00  8.19983E+00  8.20568E+00  8.19564E+00  8.22884E+00  8.29564E+00  8.38681E+00
   8.56239E+00  8.82361E+00  9.04902E+00  9.11614E+00  9.00595E+00  8.82175E+00  8.61144E+00  8.42881E+00  8.35171E+00  8.35099E+00
   8.43225E+00  8.66386E+00  9.22162E+00  1.00535E+01  1.07262E+01  1.08346E+01  1.03714E+01  9.64454E+00  8.92723E+00  8.33109E+00
   8.08795E+00  8.46618E+00  9.38055E+00  1.04364E+01  1.12598E+01  1.16961E+01  1.17253E+01  1.14116E+01  1.09303E+01  1.05770E+01
   1.05108E+01  1.07018E+01  1.10357E+01  1.14203E+01  1.17576E+01  1.19512E+01  1.19411E+01  1.17584E+01  1.15413E+01  1.13880E+01
   1.13813E+01  1.16044E+01  1.20856E+01  1.26745E+01  1.31729E+01  1.34594E+01  1.35388E+01  1.34317E+01  1.32222E+01  1.30747E+01
   1.31297E+01  1.33809E+01  1.40895E+01  1.52418E+01  1.61583E+01  1.60282E+01  1.64602E+01  1.93612E+01  2.30590E+01  2.40644E+01
   2.11381E+01  1.60769E+01  1.13190E+01  8.24408E+00  7.68087E+00  9.48302E+00  1.18826E+01  1.32864E+01  1.36792E+01  1.38684E+01
   1.40584E+01  1.42915E+01  1.45662E+01  1.48477E+01  1.50868E+01  1.52871E+01  1.54867E+01  1.57176E+01  1.60008E+01  1.63498E+01
   1.67646E+01  1.72231E+01  1.77060E+01  1.82000E+01  1.86971E+01  1.91861E+01  1.96624E+01  2.01260E+01  2.05838E+01  2.10361E+01
   2.14768E+01  2.18929E+01  2.22707E+01  2.26024E+01  2.28888E+01  2.31288E+01  2.33249E+01  2.34848E+01  2.36161E+01  2.37215E+01
   2.38041E+01  2.38682E+01  2.39197E+01  2.39653E+01  2.40144E+01  2.40793E+01  2.41714E+01  2.42996E+01  2.44712E+01  2.46923E+01
   2.49669E+01  2.52974E+01  2.56844E+01  2.61266E+01  2.66207E+01  2.71609E+01  2.77393E+01  2.83460E+01  2.89697E+01  2.95978E+01
   3.02170E+01  3.08139E+01  3.13749E+01  3.18872E+01  3.23393E+01  3.27216E+01  3.30260E+01  3.32472E+01  3.33821E+01  3.34306E+01
   3.33953E+01  3.32814E+01  3.30964E+01  3.28498E+01  3.25527E+01  3.22177E+01  3.18581E+01  3.14876E+01  3.11194E+01  3.07662E+01
   3.04398E+01  3.01509E+01  2.99085E+01  2.97200E+01  2.95908E+01  2.95246E+01  2.95236E+01  2.95880E+01  2.97168E+01  2.99070E+01
   3.01546E+01  3.04542E+01  3.07994E+01  3.11829E+01  3.15964E+01  3.20307E+01  3.24759E+01  3.29216E+01  3.33569E+01  3.37707E+01
   3.41519E+01  3.44892E+01  3.47724E+01  3.49919E+01  3.51395E+01  3.52087E+01  3.51948E+01  3.50955E+01  3.49112E+01  3.46450E+01
   3.43031E+01  3.38938E+01  3.34284E+01  3.29200E+01  3.23837E+01  3.18356E+01  3.12922E+01  3.07697E+01  3.02834E+01  2.98467E+01
   2.94711E+01  2.91647E+01  2.89328E+01  2.87764E+01  2.86934E+01  2.86777E+01  2.87200E+01  2.88078E+01  2.89264E+01  2.90592E+01
   2.91888E+01  2.92979E+01  2.93700E+01  2.93903E+01  2.93463E+01  2.92285E+01  2.90309E+01  2.87512E+01  2.83904E+01  2.79529E+01
   2.74462E+01  2.68799E+01  2.62654E+01  2.56152E+01  2.49416E+01  2.42562E+01  2.35695E+01  2.28900E+01  2.22241E+01  2.15757E+01
   2.09460E+01  2.03339E+01  1.97359E+01  1.91470E+01  1.85606E+01  1.79693E+01  1.73653E+01  1.67412E+01  1.60898E+01  1.54056E+01
   1.46839E+01  1.39220E+01  1.31185E+01  1.22740E+01  1.13907E+01  1.04723E+01  9.52359E+00  8.55045E+00  7.55936E+00  6.55724E+00
   5.55117E+00  4.54807E+00  3.55441E+00  2.57606E+00  1.61820E+00  6.85281E-01 -2.19056E-01 -1.09202E+00 -1.93170E+00 -2.73693E+00
  -3.50720E+00 -4.24251E+00 -4.94337E+00 -5.61074E+00 -6.24592E+00 -6.85044E+00 -7.42594E+00 -7.97409E+00 -8.49664E+00 -8.99540E+00
  -9.47215E+00 -9.92856E+00 -1.03662E+01 -1.07865E+01 -1.11910E+01 -1.15808E+01 -1.19573E+01 -1.23215E+01 -1.26744E+01 -1.30170E+01
  -1.33499E+01 -1.36742E+01 -1.39904E+01 -1.42993E+01 -1.46012E+01 -1.48967E+01 -1.51864E+01 -1.54707E+01 -1.57501E+01 -1.60247E+01
  -1.62949E+01 -1.65611E+01 -1.68234E+01 -1.70823E+01 -1.73379E+01 -1.75904E+01 -1.78399E+01 -1.80866E+01 -1.83308E+01 -1.85727E+01
  -1.88122E+01 -1.90495E+01 -1.92847E+01 -1.95180E+01 -1.97494E+01 -1.99791E+01 -2.02071E+01 -2.04335E+01 -2.06583E+01 -2.08816E+01
  -2.11036E+01 -2.13243E+01 -2.15435E+01 -2.17615E+01 -2.19783E+01 -2.21939E+01 -2.24084E+01 -2.26218E+01
 NY background values follow
     3.346E+00    3.360E+00    3.373E+00    3.386E+00    3.399E+00    3.413E+00    3.426E+00    3.439E+00    3.452E+00    3.465E+00
     3.479E+00    3.492E+00    3.505E+00    3.518E+00    3.531E+00    3.544E+00    3.558E+00    3.571E+00    3.584E+00    3.597E+00
     3.610E+00    3.623E+00    3.637E+00    3.650E+00    3.663E+00    3.676E+00    3.689E+00    3.702E+00    3.716E+00    3.729E+00
     3.742E+00    3.755E+00    3.768E+00    3.782E+00    3.795E+00    3.808E+00    3.821E+00    3.834E+00    3.847E+00    3.861E+00
     3.874E+00    3.887E+00    3.900E+00    3.913E+00    3.927E+00    3.940E+00    3.953E+00    3.966E+00    3.979E+00    3.993E+00
     4.006E+00    4.019E+00    4.033E+00    4.046E+00    4.059E+00    4.073E+00    4.086E+00    4.100E+00    4.113E+00    4.127E+00
     4.140E+00    4.154E+00    4.168E+00    4.182E+00    4.196E+00    4.210E+00    4.224E+00    4.238E+00    4.252E+00    4.266E+00
     4.281E+00    4.295E+00    4.310E+00    4.325E+00    4.339E+00    4.354E+00    4.369E+00    4.384E+00    4.400E+00    4.415E+00
     4.431E+00    4.446E+00    4.462E+00    4.478E+00    4.494E+00    4.510E+00    4.527E+00    4.543E+00    4.560E+00    4.577E+00
     4.594E+00    4.611E+00    4.628E+00    4.646E+00    4.663E+00    4.681E+00    4.699E+00    4.717E+00    4.736E+00    4.754E+00
     4.773E+00    4.792E+00    4.811E+00    4.830E+00    4.849E+00    4.869E+00    4.889E+00    4.909E+00    4.929E+00    4.949E+00
     4.970E+00    4.991E+00    5.011E+00    5.033E+00    5.054E+00    5.075E+00    5.097E+00    5.119E+00    5.141E+00    5.163E+00
     5.185E+00    5.208E+00    5.231E+00    5.254E+00    5.277E+00    5.300E+00    5.324E+00    5.348E+00    5.372E+00    5.396E+00
     5.420E+00    5.445E+00    5.469E+00    5.494E+00    5.520E+00    5.545E+00    5.570E+00    5.596E+00    5.622E+00    5.648E+00
     5.675E+00    5.701E+00    5.728E+00    5.754E+00    5.781E+00    5.808E+00    5.835E+00    5.862E+00    5.889E+00    5.916E+00
     5.943E+00    5.970E+00    5.997E+00    6.024E+00    6.051E+00    6.078E+00    6.104E+00    6.131E+00    6.158E+00    6.184E+00
     6.211E+00    6.237E+00    6.263E+00    6.289E+00    6.314E+00    6.340E+00    6.365E+00    6.390E+00    6.415E+00    6.439E+00
     6.463E+00    6.487E+00    6.511E+00    6.534E+00    6.557E+00    6.580E+00    6.602E+00    6.624E+00    6.645E+00    6.666E+00
     6.687E+00    6.707E+00    6.726E+00    6.746E+00    6.764E+00    6.783E+00    6.800E+00    6.818E+00    6.835E+00    6.851E+00
     6.867E+00    6.882E+00    6.896E+00    6.910E+00    6.924E+00    6.937E+00    6.949E+00    6.961E+00    6.972E+00    6.983E+00
     6.993E+00    7.002E+00    7.011E+00    7.019E+00    7.026E+00    7.033E+00    7.039E+00    7.044E+00    7.049E+00    7.052E+00
     7.056E+00    7.058E+00    7.060E+00    7.061E+00    7.061E+00    7.060E+00    7.059E+00    7.057E+00    7.054E+00    7.050E+00
     7.046E+00    7.040E+00    7.034E+00    7.027E+00    7.019E+00    7.011E+00    7.001E+00    6.991E+00    6.979E+00    6.967E+00
     6.954E+00    6.940E+00    6.925E+00    6.909E+00    6.893E+00    6.875E+00    6.857E+00    6.838E+00    6.818E+00    6.797E+00
     6.775E+00    6.752E+00    6.728E+00    6.704E+00    6.678E+00    6.652E+00    6.624E+00    6.596E+00    6.567E+00    6.537E+00
     6.507E+00    6.475E+00    6.442E+00    6.409E+00    6.374E+00    6.339E+00    6.303E+00    6.266E+00    6.228E+00    6.189E+00
     6.149E+00    6.109E+00    6.067E+00    6.025E+00    5.981E+00    5.937E+00    5.892E+00    5.846E+00    5.799E+00    5.751E+00
     5.702E+00    5.652E+00    5.602E+00    5.550E+00    5.498E+00    5.445E+00    5.390E+00    5.335E+00    5.279E+00    5.222E+00
     5.165E+00    5.106E+00    5.047E+00    4.986E+00    4.925E+00    4.863E+00    4.800E+00    4.736E+00    4.671E+00    4.605E+00
     4.539E+00    4.472E+00    4.403E+00    4.334E+00    4.264E+00    4.194E+00    4.122E+00    4.050E+00    3.976E+00    3.902E+00
     3.827E+00    3.752E+00    3.675E+00    3.597E+00    3.519E+00    3.440E+00    3.360E+00    3.279E+00    3.198E+00    3.115E+00
     3.032E+00    2.948E+00    2.863E+00    2.778E+00    2.691E+00    2.604E+00    2.516E+00    2.427E+00    2.338E+00    2.247E+00
     2.156E+00    2.064E+00    1.972E+00    1.878E+00    1.784E+00    1.689E+00    1.593E+00    1.496E+00    1.399E+00    1.301E+00
     1.202E+00    1.102E+00    1.002E+00    9.006E-01    7.986E-01    6.960E-01    5.925E-01    4.884E-01    3.835E-01    2.778E-01
     1.715E-01    6.435E-02   -4.349E-02   -1.521E-01   -2.614E-01   -3.714E-01   -4.821E-01   -5.936E-01   -7.057E-01   -8.186E-01
    -9.322E-01   -1.047E+00   -1.162E+00   -1.277E+00   -1.394E+00   -1.511E+00   -1.629E+00   -1.747E+00   -1.866E+00   -1.986E+00
    -2.107E+00   -2.228E+00   -2.350E+00   -2.473E+00   -2.596E+00   -2.720E+00   -2.844E+00   -2.970E+00   -3.096E+00   -3.222E+00
    -3.350E+00   -3.478E+00   -3.606E+00   -3.736E+00   -3.866E+00   -3.997E+00   -4.128E+00   -4.260E+00   -4.393E+00   -4.526E+00
    -4.660E+00   -4.795E+00   -4.930E+00   -5.066E+00   -5.203E+00   -5.340E+00   -5.478E+00   -5.617E+00   -5.756E+00   -5.896E+00
    -6.037E+00   -6.178E+00   -6.320E+00   -6.462E+00   -6.606E+00   -6.749E+00   -6.894E+00   -7.039E+00   -7.185E+00   -7.331E+00
    -7.479E+00   -7.626E+00   -7.775E+00   -7.924E+00   -8.074E+00   -8.224E+00   -8.375E+00   -8.527E+00   -8.679E+00   -8.832E+00
    -8.985E+00   -9.139E+00   -9.294E+00   -9.450E+00   -9.606E+00   -9.762E+00   -9.920E+00   -1.008E+01   -1.024E+01   -1.039E+01
    -1.055E+01   -1.071E+01   -1.088E+01   -1.104E+01   -1.120E+01   -1.136E+01   -1.152E+01   -1.169E+01   -1.185E+01   -1.202E+01
    -1.218E+01   -1.235E+01   -1.251E+01   -1.268E+01   -1.285E+01   -1.302E+01   -1.318E+01   -1.335E+01   -1.352E+01   -1.369E+01
    -1.386E+01   -1.403E+01   -1.421E+01   -1.438E+01   -1.455E+01   -1.472E+01   -1.490E+01   -1.507E+01   -1.524E+01   -1.542E+01
    -1.559E+01   -1.577E+01   -1.595E+01   -1.612E+01   -1.630E+01   -1.648E+01   -1.665E+01   -1.683E+01   -1.701E+01   -1.719E+01
    -1.737E+01   -1.755E+01   -1.773E+01   -1.791E+01   -1.809E+01   -1.827E+01   -1.845E+01   -1.863E+01   -1.881E+01   -1.900E+01
    -1.918E+01   -1.936E+01   -1.954E+01   -1.973E+01   -1.991E+01   -2.009E+01   -2.027E+01   -2.046E+01   -2.064E+01   -2.082E+01
    -2.101E+01   -2.119E+01   -2.138E+01   -2.156E+01   -2.174E+01   -2.193E+01   -2.211E+01   -2.230E+01   -2.248E+01   -2.266E+01
    -2.285E+01   -2.303E+01   -2.321E+01   -2.340E+01   -2.358E+01   -2.377E+01   -2.395E+01   -2.413E+01
 Asp      Conc. = 6.65E+00
