 LCModel (Version 6.3-1L) Copyright: S.W. Provencher.          Ref.: Magn. Reson. Med. 30:672-679 (1993).                
 Slice#3 Row#11 Col#10  PD_05_press_2_raw_act
 36 lines in following concentration table = NCONC+1
    Conc.  %SD /Cr+PCr  Metabolite                                         
   65.186 138%   0.473 Ala                                                 
   24.691  77%   0.179 Asp                                                 
    0.000 999%   0.000 Cr                                                  
  137.714  22%   1.000 PCr                                                 
   14.010  81%   0.102 GABA                                                
   14.565  78%   0.106 Glc                                                 
    0.000 999%   0.000 Gln                                                 
  372.159  55%   2.702 Glu                                                 
    0.000 999%   0.000 GPC                                                 
   43.599  27%   0.317 PCh                                                 
  161.189  29%   1.170 GSH                                                 
  308.247  43%   2.238 Ins                                                 
   19.942 510%   0.145 Lac                                                 
  210.795  16%   1.531 NAA                                                 
    0.000 999%   0.000 NAAG                                                
    6.336  59% 4.6E-02 Scyllo                                              
   26.422  71%   0.192 Tau                                                 
    4.155 603% 3.0E-02 -CrCH2                                              
   43.599  27%   0.317 GPC+PCh                                             
  210.795  16%   1.531 NAA+NAAG                                            
  137.714  22%   1.000 Cr+PCr                                              
  372.159  55%   2.702 Glu+Gln                                             
  740.426  23%   5.377 Lip13a                                              
    0.000 999%   0.000 Lip13b                                              
  205.849  26%   1.495 Lip09                                               
   16.417 255%   0.119 MM09                                                
  105.160  34%   0.764 Lip20                                               
    0.000 999%   0.000 MM20                                                
    4.035 571% 2.9E-02 MM12                                                
   32.738 253%   0.238 MM14                                                
    0.000 999%   0.000 MM17                                                
  740.426  23%   5.377 Lip13a+Lip13b                                       
  777.198  20%   5.644 MM14+Lip13a+Lip13b+MM12                             
  222.266  24%   1.614 MM09+Lip09                                          
  105.160  34%   0.764 MM20+Lip20                                          
   6 lines in following misc. output table
  FWHM = 0.084 ppm    S/N =   1                                            
  Data shift = 0.015 ppm                                                   
  Ph:-128 deg      15.1 deg/ppm                                            
  alphaB,S = 8.5E+01,   1.0E+02                                            
   14 spline knots.   Ns = 9(1)                                            
   2 inflections.     1 extrema                                            
  498 points on ppm-axis = NY
      4.000000     3.992357     3.984714     3.977070     3.969427     3.961784     3.954141     3.946497     3.938854     3.931211
      3.923568     3.915925     3.908281     3.900638     3.892995     3.885352     3.877708     3.870065     3.862422     3.854779
      3.847136     3.839492     3.831849     3.824206     3.816563     3.808919     3.801276     3.793633     3.785990     3.778347
      3.770703     3.763060     3.755417     3.747774     3.740130     3.732487     3.724844     3.717201     3.709558     3.701914
      3.694271     3.686628     3.678985     3.671341     3.663698     3.656055     3.648412     3.640769     3.633125     3.625482
      3.617839     3.610196     3.602552     3.594909     3.587266     3.579623     3.571980     3.564336     3.556693     3.549050
      3.541407     3.533763     3.526120     3.518477     3.510834     3.503191     3.495547     3.487904     3.480261     3.472618
      3.464974     3.457331     3.449688     3.442045     3.434402     3.426758     3.419115     3.411472     3.403829     3.396185
      3.388542     3.380899     3.373256     3.365613     3.357969     3.350326     3.342683     3.335040     3.327396     3.319753
      3.312110     3.304467     3.296824     3.289180     3.281537     3.273894     3.266251     3.258607     3.250964     3.243321
      3.235678     3.228034     3.220391     3.212748     3.205105     3.197462     3.189818     3.182175     3.174532     3.166889
      3.159245     3.151602     3.143959     3.136316     3.128673     3.121029     3.113386     3.105743     3.098100     3.090456
      3.082813     3.075170     3.067527     3.059884     3.052240     3.044597     3.036954     3.029311     3.021667     3.014024
      3.006381     2.998738     2.991095     2.983451     2.975808     2.968165     2.960522     2.952878     2.945235     2.937592
      2.929949     2.922306     2.914662     2.907019     2.899376     2.891733     2.884089     2.876446     2.868803     2.861160
      2.853517     2.845873     2.838230     2.830587     2.822944     2.815300     2.807657     2.800014     2.792371     2.784728
      2.777084     2.769441     2.761798     2.754155     2.746511     2.738868     2.731225     2.723582     2.715939     2.708295
      2.700652     2.693009     2.685366     2.677722     2.670079     2.662436     2.654793     2.647150     2.639506     2.631863
      2.624220     2.616577     2.608933     2.601290     2.593647     2.586004     2.578361     2.570717     2.563074     2.555431
      2.547788     2.540144     2.532501     2.524858     2.517215     2.509572     2.501928     2.494285     2.486642     2.478999
      2.471355     2.463712     2.456069     2.448426     2.440783     2.433139     2.425496     2.417853     2.410210     2.402566
      2.394923     2.387280     2.379637     2.371994     2.364350     2.356707     2.349064     2.341421     2.333777     2.326134
      2.318491     2.310848     2.303205     2.295561     2.287918     2.280275     2.272632     2.264988     2.257345     2.249702
      2.242059     2.234416     2.226772     2.219129     2.211486     2.203843     2.196199     2.188556     2.180913     2.173270
      2.165627     2.157983     2.150340     2.142697     2.135054     2.127410     2.119767     2.112124     2.104481     2.096838
      2.089194     2.081551     2.073908     2.066265     2.058621     2.050978     2.043335     2.035692     2.028049     2.020405
      2.012762     2.005119     1.997476     1.989833     1.982190     1.974546     1.966903     1.959260     1.951617     1.943974
      1.936331     1.928688     1.921045     1.913402     1.905759     1.898115     1.890472     1.882829     1.875186     1.867543
      1.859900     1.852257     1.844614     1.836971     1.829327     1.821684     1.814041     1.806398     1.798755     1.791112
      1.783469     1.775826     1.768183     1.760540     1.752896     1.745253     1.737610     1.729967     1.722324     1.714681
      1.707038     1.699395     1.691752     1.684108     1.676465     1.668822     1.661179     1.653536     1.645893     1.638250
      1.630607     1.622964     1.615321     1.607677     1.600034     1.592391     1.584748     1.577105     1.569462     1.561819
      1.554176     1.546533     1.538890     1.531246     1.523603     1.515960     1.508317     1.500674     1.493031     1.485388
      1.477745     1.470102     1.462458     1.454815     1.447172     1.439529     1.431886     1.424243     1.416600     1.408957
      1.401314     1.393671     1.386027     1.378384     1.370741     1.363098     1.355455     1.347812     1.340169     1.332526
      1.324883     1.317240     1.309596     1.301953     1.294310     1.286667     1.279024     1.271381     1.263738     1.256095
      1.248452     1.240808     1.233165     1.225522     1.217879     1.210236     1.202593     1.194950     1.187307     1.179664
      1.172021     1.164377     1.156734     1.149091     1.141448     1.133805     1.126162     1.118519     1.110876     1.103233
      1.095590     1.087946     1.080303     1.072660     1.065017     1.057374     1.049731     1.042088     1.034445     1.026802
      1.019158     1.011515     1.003872     0.996229     0.988586     0.980943     0.973300     0.965657     0.958014     0.950371
      0.942727     0.935084     0.927441     0.919798     0.912155     0.904512     0.896869     0.889226     0.881583     0.873940
      0.866296     0.858653     0.851010     0.843367     0.835724     0.828081     0.820438     0.812795     0.805152     0.797508
      0.789865     0.782222     0.774579     0.766936     0.759293     0.751650     0.744007     0.736364     0.728721     0.721077
      0.713434     0.705791     0.698148     0.690505     0.682862     0.675219     0.667576     0.659933     0.652290     0.644646
      0.637003     0.629360     0.621717     0.614074     0.606431     0.598788     0.591145     0.583502     0.575858     0.568215
      0.560572     0.552929     0.545286     0.537643     0.530000     0.522357     0.514714     0.507071     0.499427     0.491784
      0.484141     0.476498     0.468855     0.461212     0.453569     0.445925     0.438282     0.430639     0.422996     0.415353
      0.407710     0.400067     0.392424     0.384780     0.377137     0.369494     0.361851     0.354208     0.346565     0.338922
      0.331278     0.323635     0.315992     0.308349     0.300706     0.293063     0.285420     0.277777     0.270133     0.262490
      0.254847     0.247204     0.239561     0.231918     0.224275     0.216631     0.208988     0.201345
 NY phased data points follow
  -5.81244E-01 -3.68535E+00  3.85162E-02 -6.90924E-02 -3.11024E-01 -1.72253E+00  2.05267E+00  3.97895E+00  2.56584E+00  2.01910E+00
  -4.99194E-01 -1.55053E+00  3.81104E+00  1.27273E-01  4.37133E+00  8.21315E-01 -1.59268E+00 -2.17204E+00 -2.39904E+00  1.36978E+00
   2.25777E+00 -2.54304E-01 -1.36905E+00 -7.41338E-01 -1.59130E+00 -3.38744E-01  2.26626E+00  1.28621E+00  1.22708E+00  3.66703E+00
   7.75135E-01  3.46718E+00  5.14527E+00  2.07741E-01  7.95646E-02  2.23479E+00  3.25728E+00 -2.25663E+00 -1.22277E+00  1.04371E-01
   8.65414E-01 -4.24239E+00 -1.80095E+00 -6.65419E-01  1.61966E+00 -1.12612E+00  1.79378E-01 -4.50724E-02  3.98567E-01 -2.19546E-01
   1.55100E+00 -8.28916E-01  1.82302E+00 -4.68107E-02  5.60708E+00 -2.19647E+00 -1.34237E+00  1.77135E+00 -9.58351E-01  2.01848E+00
   1.29191E+00  1.93009E+00  2.10867E+00  1.13443E+00 -8.29285E-01 -2.89228E-01 -2.09915E-01  3.12629E-01  9.64251E-01  3.09760E+00
   1.32411E+00  1.60977E+00  7.15522E-01 -1.89836E+00 -3.29732E-01 -2.65152E-01 -4.53006E-03 -2.74821E+00 -2.88025E+00 -7.29537E-01
   1.44351E+00 -4.17755E-01 -1.35964E+00 -7.58626E-01 -3.25873E-01  2.69026E+00  2.37703E+00 -5.89522E-01  1.18354E+00 -2.14693E+00
   4.83606E-01  1.59786E+00 -5.19298E-01  2.06613E+00 -2.49923E+00 -4.26779E+00 -1.54827E+00 -9.31970E-01  1.09382E-01 -3.29197E-01
   1.78235E+00  5.22694E-01 -1.27190E+00  4.32183E+00  1.43663E+00  2.20838E+00  4.17763E+00  2.19935E+00  9.93567E-01  5.23021E-01
   5.16474E-01 -5.99734E-01 -8.31957E-01  2.37263E+00  6.76553E-01 -2.52156E+00  8.25279E-01 -2.96849E-01 -6.51536E+00 -7.59941E-01
   8.57772E-01  1.37944E-01  7.88027E-01  4.36055E-02  2.11484E+00  2.37951E+00  6.25731E+00  4.52457E-01  1.71807E+00 -1.80287E+00
   4.80971E+00  5.04896E+00 -2.07796E-01  1.55267E+00  2.15991E+00 -1.00156E+00 -2.62365E+00  1.27466E+00  3.96827E-02 -1.19527E+00
  -3.95167E+00 -3.02869E+00  7.96558E-01 -4.69699E+00 -1.73464E+00  1.59465E+00 -2.50174E-01 -2.36301E+00  7.20894E-01  7.62964E-01
   2.32396E+00 -4.09793E-01  3.78303E+00 -2.25705E+00  1.51188E+00 -3.16868E+00  1.22355E-01  1.42874E-01 -2.64050E+00 -2.44498E+00
  -1.96378E-01 -1.42726E+00 -1.67877E+00 -1.57866E+00 -3.52762E+00 -3.92297E+00  3.62350E-02 -9.27878E-01  8.90902E-01 -2.41296E-01
   5.26296E-01 -2.43361E+00  5.91428E-01 -1.81726E+00  5.52470E-01  9.18081E-01 -1.49359E+00 -2.87260E-01 -1.39406E+00 -2.87592E+00
  -2.18351E+00 -3.13656E+00  5.61543E-01 -1.69700E+00 -3.23383E+00 -1.84352E+00 -5.29520E+00  4.25841E-01 -1.14277E+00  2.73616E+00
  -9.45160E-02 -1.25818E+00 -1.52660E+00 -3.30330E+00  1.67182E+00  3.38062E+00  1.27508E+00  6.65722E-01  1.36431E-03  3.34413E+00
  -1.39125E+00 -3.30738E+00 -2.60478E+00  6.57102E-02 -7.96645E-01 -7.05764E-01 -9.50099E-01 -1.41933E+00 -3.52262E+00  2.06005E+00
  -2.80458E-01  2.06331E+00  8.40292E-01 -4.79421E-01  3.23368E+00  3.50997E+00  2.92844E+00  2.51975E+00  1.14308E+00 -2.19802E+00
   9.61242E-01 -1.83422E+00 -1.72546E+00 -1.00303E+00 -2.50824E+00 -9.15289E-01  1.05698E+00 -2.27089E+00  1.54626E+00 -3.21013E-01
  -2.28127E-01 -4.63561E-01 -1.47277E+00 -2.40110E-01 -5.41030E-01  2.57765E-01  1.12000E+00  2.53286E+00 -5.22936E-01 -9.92271E-01
   3.15603E+00 -1.56174E+00 -2.50869E+00  1.24912E+00 -2.05502E+00 -3.12390E+00 -5.15405E-01 -3.18803E-01  2.45301E+00  1.22557E+00
   1.43943E+00  2.61393E+00 -4.44243E+00  2.63000E+00  1.01300E+00  2.49946E-01  5.81452E+00  5.93462E+00  5.67079E+00  2.66230E+00
   1.42580E+00  4.96753E+00  3.07359E+00  8.25479E+00  7.67120E+00  1.76683E+00  6.33589E+00  1.47427E+00  2.48866E+00  4.81747E-01
  -1.09354E+00 -1.74656E+00 -8.37163E-01 -1.58968E+00  1.17588E+00  8.77439E-01  5.27941E-01 -4.92146E+00 -6.74769E-01 -1.92267E+00
   5.49497E-01 -1.09098E+00  3.81975E+00  1.76254E+00  2.51333E+00  4.55891E-01 -2.35865E+00 -1.67278E+00 -2.52538E+00  4.60564E-01
  -2.67792E+00 -4.91860E+00  8.93086E-01 -1.11898E+00 -1.64002E+00  4.68163E-01 -1.80812E+00 -1.67783E-01 -1.40056E+00  1.34252E+00
  -4.61392E+00 -1.93469E+00  1.32674E+00 -3.31161E+00 -2.69536E-03 -4.32628E-01  5.78243E-01 -1.32448E+00  2.17451E-01 -1.13769E+00
  -9.24517E-01  2.10040E+00  9.36047E-01  3.14262E-01  1.06927E+00 -2.73248E+00  1.34654E+00 -5.11415E+00  8.40135E-03  1.00133E+00
   2.45233E+00 -2.38697E+00  1.15911E+00 -3.92090E-01 -8.01625E-01 -7.13183E-02  3.04203E+00 -1.37849E+00 -2.27073E+00  1.25531E+00
   8.85049E-01 -7.45995E-01 -1.35372E+00  3.33031E+00  2.21966E+00  1.92366E+00  3.11299E+00  4.88975E+00  4.17302E+00  4.10644E+00
   3.97476E+00  4.43051E+00  6.15515E+00  2.93242E+00  3.53126E+00  3.01419E+00  1.61920E+00  5.73810E+00  3.46232E+00  4.95319E+00
   3.34960E+00  4.93164E+00  3.39376E+00  3.24497E+00  2.88276E+00  2.15636E+00  2.36414E+00  2.33749E+00  3.89609E-01  2.02262E+00
   4.76297E+00  9.35683E-01  1.24582E+00  1.87840E+00  1.47854E+00  2.93746E+00  1.65776E+00  2.94012E+00  6.38295E-01  4.29332E-01
   3.06126E+00  2.84370E+00  4.40506E+00  1.16176E+00 -1.98041E+00  9.29237E-01  2.18246E+00  3.32955E+00 -5.85100E-02  3.84141E+00
   1.35345E+00  2.36135E+00  5.91584E+00  3.64757E+00 -2.50551E+00  2.05676E+00  2.55147E+00  4.32660E+00  1.30214E+00  4.17616E+00
   3.50528E+00  6.53754E-01  3.41533E+00  5.01094E-01  2.42539E+00  2.34255E-01  7.70496E-01  2.37813E-01  3.19366E-01  1.38381E+00
   4.55558E+00 -3.50027E-01  5.16984E+00  5.76024E+00  4.06150E+00  4.35976E+00 -1.51203E-01  3.95263E-01  8.04931E-01  2.62229E+00
  -2.49059E+00 -1.30622E+00 -1.35673E+00  1.84171E+00  8.48916E-01  4.04401E+00  2.08331E+00  2.95998E+00  2.02148E+00 -7.60841E-01
   8.21708E-01 -1.39324E+00  3.42962E+00  1.95326E+00  1.54767E+00 -1.22975E+00  1.52637E+00 -1.60291E+00  4.06006E-01  4.01796E+00
   1.77957E+00  7.48184E-01 -1.78716E+00  2.10825E+00 -1.87011E+00 -1.89787E+00  1.39936E+00  2.25334E+00  6.03904E-01  1.03639E+00
   3.80782E+00  3.56953E+00  2.04388E+00  3.18451E+00  7.13629E+00 -8.08485E-01 -1.48910E+00  4.66779E-01  1.03518E-01  2.76704E+00
  -7.88241E-01  2.25166E+00  4.17345E-01 -2.15810E+00 -2.65888E+00  1.25088E+00  1.98202E+00  2.60313E+00  2.73038E+00  3.28231E+00
  -1.25765E+00  1.09260E+00  3.41570E+00  2.51323E+00 -1.09200E+00  2.96844E+00 -6.73547E-01 -5.72269E-01 -2.32294E+00 -3.34333E+00
   5.53987E-01  1.47563E+00  2.82037E+00  5.51895E-01  4.65476E-02 -5.10836E-01  2.19601E+00 -2.25495E+00  2.06998E+00 -5.35810E-01
  -4.57982E-01  2.86973E+00 -1.00984E+00  7.25771E-01  2.38960E+00 -5.04694E-01  5.10433E-01  1.36968E+00  8.16905E-01  5.24632E+00
   1.51048E+00 -1.02098E+00  1.70258E+00  8.36841E-01  1.00122E-01 -1.18798E+00 -2.54122E+00 -3.68294E-01
 NY points of the fit to the data follow
  -1.75560E-01 -3.33862E-01 -3.61369E-01 -2.41079E-01  9.83184E-04  3.02283E-01  6.00601E-01  8.53884E-01  1.04123E+00  1.16405E+00
   1.22850E+00  1.22669E+00  1.13329E+00  9.29628E-01  6.29869E-01  2.79497E-01 -6.54866E-02 -3.48051E-01 -5.26935E-01 -5.92286E-01
  -5.83375E-01 -5.85446E-01 -5.72686E-01 -4.53948E-01 -1.99020E-01  1.78517E-01  6.41974E-01  1.13139E+00  1.57498E+00  1.92670E+00
   2.18127E+00  2.34451E+00  2.41686E+00  2.37679E+00  2.19574E+00  1.86476E+00  1.40464E+00  8.60631E-01  3.01266E-01 -1.80288E-01
  -4.77579E-01 -5.29116E-01 -3.79286E-01 -1.16656E-01  1.79795E-01  4.38762E-01  6.14844E-01  7.00039E-01  7.16435E-01  6.83794E-01
   5.96284E-01  4.42841E-01  2.27197E-01 -2.34856E-02 -2.60882E-01 -4.35480E-01 -5.16414E-01 -5.01928E-01 -4.17671E-01 -3.07073E-01
  -2.13468E-01 -1.53183E-01 -1.23172E-01 -1.22492E-01 -1.45946E-01 -1.85928E-01 -2.34384E-01 -2.77248E-01 -2.97029E-01 -2.82653E-01
  -2.32613E-01 -1.59114E-01 -8.41438E-02 -2.66647E-02  1.52038E-03 -1.32569E-03 -3.14247E-02 -8.13346E-02 -1.34838E-01 -1.82605E-01
  -2.27824E-01 -2.82024E-01 -3.53427E-01 -4.40855E-01 -5.38434E-01 -6.35194E-01 -7.19036E-01 -7.85345E-01 -8.35399E-01 -8.70825E-01
  -8.93779E-01 -9.01137E-01 -8.88939E-01 -8.58214E-01 -8.26236E-01 -7.78553E-01 -6.22152E-01 -3.15090E-01  1.13890E-01  6.02027E-01
   1.07526E+00  1.47371E+00  1.76979E+00  1.96903E+00  2.09181E+00  2.14711E+00  2.11078E+00  1.94014E+00  1.61431E+00  1.15816E+00
   6.34977E-01  1.31132E-01 -2.73838E-01 -5.40473E-01 -6.68986E-01 -7.02201E-01 -7.10748E-01 -7.23741E-01 -7.40320E-01 -6.54582E-01
  -3.85295E-01  6.18059E-02  6.26455E-01  1.22041E+00  1.75928E+00  2.19883E+00  2.55043E+00  2.83431E+00  3.04112E+00  3.12286E+00
   3.00479E+00  2.64036E+00  2.06313E+00  1.36385E+00  6.72483E-01  1.07860E-01 -2.73019E-01 -4.78115E-01 -5.52711E-01 -5.75677E-01
  -5.71807E-01 -5.28141E-01 -4.35436E-01 -3.05703E-01 -1.69813E-01 -6.63893E-02 -2.84840E-02 -6.13261E-02 -1.46116E-01 -2.54735E-01
  -3.58335E-01 -4.37828E-01 -4.90408E-01 -5.23453E-01 -5.52244E-01 -5.83437E-01 -6.16865E-01 -6.44476E-01 -6.59856E-01 -6.63055E-01
  -6.58309E-01 -6.52987E-01 -6.52988E-01 -6.59608E-01 -6.69578E-01 -6.77419E-01 -6.79219E-01 -6.75251E-01 -6.74266E-01 -6.88814E-01
  -7.20946E-01 -7.64281E-01 -8.08765E-01 -8.47440E-01 -8.79931E-01 -9.09239E-01 -9.35435E-01 -9.60111E-01 -9.84596E-01 -1.01092E+00
  -1.04074E+00 -1.07144E+00 -1.09403E+00 -1.09208E+00 -1.04787E+00 -9.53471E-01 -8.17563E-01 -6.59052E-01 -4.96134E-01 -3.42646E-01
  -2.24449E-01 -1.54177E-01 -1.24472E-01 -1.23778E-01 -1.47176E-01 -1.93741E-01 -2.56689E-01 -3.21238E-01 -3.64619E-01 -3.70006E-01
  -3.27988E-01 -2.34245E-01 -1.07838E-01  1.82050E-02  1.13075E-01  1.51874E-01  1.28173E-01  5.43600E-02 -7.66306E-03 -4.82731E-03
   7.82776E-02  2.19844E-01  3.79198E-01  5.18304E-01  5.91488E-01  5.54668E-01  4.03889E-01  1.77368E-01 -9.08530E-02 -3.74436E-01
  -6.53423E-01 -9.08384E-01 -1.10894E+00 -1.22863E+00 -1.25055E+00 -1.15679E+00 -9.44735E-01 -6.38381E-01 -2.98083E-01  2.84586E-02
   3.16110E-01  5.40654E-01  6.77599E-01  7.17395E-01  6.82232E-01  5.99531E-01  4.85628E-01  3.56430E-01  2.39848E-01  1.47187E-01
   7.41520E-02  1.17643E-02 -4.85379E-02 -1.03467E-01 -1.37962E-01 -1.32553E-01 -7.08632E-02  4.99888E-02  2.10250E-01  3.74346E-01
   4.89670E-01  5.01398E-01  4.79574E-01  6.29200E-01  1.05673E+00  1.75079E+00  2.61944E+00  3.51820E+00  4.30613E+00  4.90673E+00
   5.30796E+00  5.53270E+00  5.59379E+00  5.45564E+00  5.05821E+00  4.38571E+00  3.49894E+00  2.51559E+00  1.58940E+00  8.55680E-01
   3.80359E-01  1.58370E-01  1.00893E-01  9.38410E-02  1.04219E-01  1.23974E-01  1.46395E-01  1.66896E-01  1.82830E-01  1.90070E-01
   1.86511E-01  1.73244E-01  1.54384E-01  1.35134E-01  1.20618E-01  1.13423E-01  1.12994E-01  1.17802E-01  1.25931E-01  1.35226E-01
   1.44096E-01  1.51744E-01  1.58221E-01  1.64263E-01  1.70360E-01  1.76935E-01  1.84382E-01  1.92899E-01  2.02481E-01  2.13029E-01
   2.24512E-01  2.36896E-01  2.50084E-01  2.64069E-01  2.78942E-01  2.94758E-01  3.11587E-01  3.29493E-01  3.48573E-01  3.68977E-01
   3.90916E-01  4.14662E-01  4.40544E-01  4.68943E-01  5.00313E-01  5.35171E-01  5.74104E-01  6.17531E-01  6.68728E-01  7.46078E-01
   8.54033E-01  9.73067E-01  1.07865E+00  1.15058E+00  1.17836E+00  1.16175E+00  1.09931E+00  1.00516E+00  9.11977E-01  8.43102E-01
   8.08429E-01  8.12748E-01  8.60314E-01  9.54367E-01  1.09828E+00  1.29440E+00  1.53823E+00  1.81471E+00  2.09776E+00  2.35598E+00
   2.57283E+00  2.74004E+00  2.85468E+00  2.92503E+00  2.96758E+00  2.99884E+00  3.03070E+00  3.06576E+00  3.10249E+00  3.14102E+00
   3.17932E+00  3.21434E+00  3.24412E+00  3.26820E+00  3.28741E+00  3.30323E+00  3.31545E+00  3.32022E+00  3.30997E+00  3.27458E+00
   3.20839E+00  3.11282E+00  2.99244E+00  2.85490E+00  2.70918E+00  2.56306E+00  2.42255E+00  2.28848E+00  2.15972E+00  2.03656E+00
   1.91978E+00  1.81014E+00  1.70834E+00  1.61489E+00  1.53015E+00  1.45433E+00  1.38752E+00  1.32970E+00  1.28078E+00  1.24059E+00
   1.20895E+00  1.18565E+00  1.17046E+00  1.16317E+00  1.16353E+00  1.17133E+00  1.18629E+00  1.20813E+00  1.23651E+00  1.27100E+00
   1.31110E+00  1.35620E+00  1.40555E+00  1.45826E+00  1.51333E+00  1.56960E+00  1.62580E+00  1.68058E+00  1.73252E+00  1.78020E+00
   1.82222E+00  1.85729E+00  1.88426E+00  1.90217E+00  1.91033E+00  1.90828E+00  1.89590E+00  1.87334E+00  1.84105E+00  1.79976E+00
   1.75043E+00  1.69419E+00  1.63233E+00  1.56619E+00  1.49714E+00  1.42652E+00  1.35557E+00  1.28543E+00  1.21708E+00  1.15137E+00
   1.08892E+00  1.03025E+00  9.75655E-01  9.25331E-01  8.79327E-01  8.37590E-01  7.99986E-01  7.66315E-01  7.36334E-01  7.09769E-01
   6.86338E-01  6.65753E-01  6.47737E-01  6.32024E-01  6.18365E-01  6.06529E-01  5.96311E-01  5.87524E-01  5.80003E-01  5.73600E-01
   5.68185E-01  5.63644E-01  5.59878E-01  5.56802E-01  5.54338E-01  5.52422E-01  5.50993E-01  5.50002E-01  5.49404E-01  5.49161E-01
   5.49238E-01  5.49606E-01  5.50237E-01  5.51108E-01  5.52199E-01  5.53492E-01  5.54968E-01  5.56613E-01  5.58413E-01  5.60357E-01
   5.62434E-01  5.64634E-01  5.66948E-01  5.69366E-01  5.71881E-01  5.74488E-01  5.77180E-01  5.79952E-01  5.82799E-01  5.85715E-01
   5.88698E-01  5.91744E-01  5.94850E-01  5.98012E-01  6.01226E-01  6.04490E-01  6.07803E-01  6.11163E-01  6.14568E-01  6.18014E-01
   6.21500E-01  6.25024E-01  6.28587E-01  6.32187E-01  6.35823E-01  6.39494E-01  6.43198E-01  6.46936E-01  6.50709E-01  6.54517E-01
   6.58359E-01  6.62235E-01  6.66145E-01  6.70092E-01  6.74078E-01  6.78104E-01  6.82171E-01  6.86282E-01
 NY background values follow
    -1.345E+00   -1.341E+00   -1.337E+00   -1.333E+00   -1.329E+00   -1.325E+00   -1.321E+00   -1.317E+00   -1.312E+00   -1.308E+00
    -1.304E+00   -1.300E+00   -1.296E+00   -1.292E+00   -1.288E+00   -1.284E+00   -1.279E+00   -1.275E+00   -1.271E+00   -1.267E+00
    -1.263E+00   -1.259E+00   -1.255E+00   -1.251E+00   -1.246E+00   -1.242E+00   -1.238E+00   -1.234E+00   -1.230E+00   -1.226E+00
    -1.222E+00   -1.218E+00   -1.213E+00   -1.209E+00   -1.205E+00   -1.201E+00   -1.197E+00   -1.193E+00   -1.189E+00   -1.185E+00
    -1.180E+00   -1.176E+00   -1.172E+00   -1.168E+00   -1.164E+00   -1.160E+00   -1.156E+00   -1.152E+00   -1.147E+00   -1.143E+00
    -1.139E+00   -1.135E+00   -1.131E+00   -1.127E+00   -1.123E+00   -1.119E+00   -1.114E+00   -1.110E+00   -1.106E+00   -1.102E+00
    -1.098E+00   -1.094E+00   -1.090E+00   -1.086E+00   -1.081E+00   -1.077E+00   -1.073E+00   -1.069E+00   -1.065E+00   -1.061E+00
    -1.057E+00   -1.053E+00   -1.048E+00   -1.044E+00   -1.040E+00   -1.036E+00   -1.032E+00   -1.028E+00   -1.024E+00   -1.020E+00
    -1.015E+00   -1.011E+00   -1.007E+00   -1.003E+00   -9.990E-01   -9.948E-01   -9.907E-01   -9.866E-01   -9.825E-01   -9.783E-01
    -9.742E-01   -9.701E-01   -9.660E-01   -9.618E-01   -9.577E-01   -9.536E-01   -9.495E-01   -9.454E-01   -9.412E-01   -9.371E-01
    -9.330E-01   -9.289E-01   -9.247E-01   -9.206E-01   -9.165E-01   -9.124E-01   -9.083E-01   -9.041E-01   -9.000E-01   -8.959E-01
    -8.918E-01   -8.876E-01   -8.835E-01   -8.794E-01   -8.753E-01   -8.712E-01   -8.670E-01   -8.629E-01   -8.588E-01   -8.547E-01
    -8.506E-01   -8.464E-01   -8.423E-01   -8.382E-01   -8.341E-01   -8.299E-01   -8.258E-01   -8.217E-01   -8.176E-01   -8.135E-01
    -8.093E-01   -8.052E-01   -8.011E-01   -7.970E-01   -7.929E-01   -7.887E-01   -7.846E-01   -7.805E-01   -7.764E-01   -7.723E-01
    -7.681E-01   -7.640E-01   -7.599E-01   -7.558E-01   -7.517E-01   -7.475E-01   -7.434E-01   -7.393E-01   -7.352E-01   -7.311E-01
    -7.269E-01   -7.228E-01   -7.187E-01   -7.146E-01   -7.105E-01   -7.063E-01   -7.022E-01   -6.981E-01   -6.940E-01   -6.899E-01
    -6.857E-01   -6.816E-01   -6.775E-01   -6.734E-01   -6.693E-01   -6.651E-01   -6.610E-01   -6.569E-01   -6.528E-01   -6.487E-01
    -6.446E-01   -6.404E-01   -6.363E-01   -6.322E-01   -6.281E-01   -6.240E-01   -6.198E-01   -6.157E-01   -6.116E-01   -6.075E-01
    -6.034E-01   -5.993E-01   -5.951E-01   -5.910E-01   -5.869E-01   -5.828E-01   -5.787E-01   -5.745E-01   -5.704E-01   -5.663E-01
    -5.622E-01   -5.581E-01   -5.540E-01   -5.498E-01   -5.457E-01   -5.416E-01   -5.375E-01   -5.334E-01   -5.293E-01   -5.251E-01
    -5.210E-01   -5.169E-01   -5.128E-01   -5.087E-01   -5.046E-01   -5.004E-01   -4.963E-01   -4.922E-01   -4.881E-01   -4.840E-01
    -4.799E-01   -4.757E-01   -4.716E-01   -4.675E-01   -4.634E-01   -4.593E-01   -4.552E-01   -4.510E-01   -4.469E-01   -4.428E-01
    -4.387E-01   -4.346E-01   -4.305E-01   -4.263E-01   -4.222E-01   -4.181E-01   -4.140E-01   -4.099E-01   -4.058E-01   -4.017E-01
    -3.975E-01   -3.934E-01   -3.893E-01   -3.852E-01   -3.811E-01   -3.770E-01   -3.729E-01   -3.687E-01   -3.646E-01   -3.605E-01
    -3.564E-01   -3.523E-01   -3.482E-01   -3.441E-01   -3.399E-01   -3.358E-01   -3.317E-01   -3.276E-01   -3.235E-01   -3.194E-01
    -3.153E-01   -3.111E-01   -3.070E-01   -3.029E-01   -2.988E-01   -2.947E-01   -2.906E-01   -2.865E-01   -2.823E-01   -2.782E-01
    -2.741E-01   -2.700E-01   -2.659E-01   -2.618E-01   -2.577E-01   -2.536E-01   -2.494E-01   -2.453E-01   -2.412E-01   -2.371E-01
    -2.330E-01   -2.289E-01   -2.248E-01   -2.207E-01   -2.166E-01   -2.124E-01   -2.083E-01   -2.042E-01   -2.001E-01   -1.960E-01
    -1.919E-01   -1.878E-01   -1.837E-01   -1.795E-01   -1.754E-01   -1.713E-01   -1.672E-01   -1.631E-01   -1.590E-01   -1.549E-01
    -1.508E-01   -1.467E-01   -1.425E-01   -1.384E-01   -1.343E-01   -1.302E-01   -1.261E-01   -1.220E-01   -1.179E-01   -1.138E-01
    -1.097E-01   -1.056E-01   -1.014E-01   -9.734E-02   -9.323E-02   -8.912E-02   -8.501E-02   -8.090E-02   -7.679E-02   -7.268E-02
    -6.857E-02   -6.447E-02   -6.036E-02   -5.625E-02   -5.214E-02   -4.803E-02   -4.392E-02   -3.981E-02   -3.570E-02   -3.160E-02
    -2.749E-02   -2.338E-02   -1.927E-02   -1.516E-02   -1.106E-02   -6.948E-03   -2.840E-03    1.268E-03    5.375E-03    9.483E-03
     1.359E-02    1.770E-02    2.180E-02    2.591E-02    3.002E-02    3.413E-02    3.823E-02    4.234E-02    4.645E-02    5.055E-02
     5.466E-02    5.877E-02    6.287E-02    6.698E-02    7.109E-02    7.519E-02    7.930E-02    8.340E-02    8.751E-02    9.162E-02
     9.572E-02    9.983E-02    1.039E-01    1.080E-01    1.121E-01    1.162E-01    1.204E-01    1.245E-01    1.286E-01    1.327E-01
     1.368E-01    1.409E-01    1.450E-01    1.491E-01    1.532E-01    1.573E-01    1.614E-01    1.655E-01    1.696E-01    1.737E-01
     1.778E-01    1.819E-01    1.860E-01    1.901E-01    1.942E-01    1.983E-01    2.024E-01    2.065E-01    2.106E-01    2.147E-01
     2.188E-01    2.230E-01    2.271E-01    2.312E-01    2.353E-01    2.394E-01    2.435E-01    2.476E-01    2.517E-01    2.558E-01
     2.599E-01    2.640E-01    2.681E-01    2.722E-01    2.763E-01    2.804E-01    2.845E-01    2.886E-01    2.927E-01    2.968E-01
     3.009E-01    3.050E-01    3.091E-01    3.132E-01    3.173E-01    3.214E-01    3.255E-01    3.296E-01    3.337E-01    3.378E-01
     3.419E-01    3.460E-01    3.501E-01    3.542E-01    3.583E-01    3.624E-01    3.665E-01    3.706E-01    3.747E-01    3.788E-01
     3.829E-01    3.870E-01    3.911E-01    3.952E-01    3.993E-01    4.034E-01    4.075E-01    4.116E-01    4.157E-01    4.198E-01
     4.239E-01    4.280E-01    4.321E-01    4.362E-01    4.403E-01    4.444E-01    4.485E-01    4.526E-01    4.567E-01    4.608E-01
     4.648E-01    4.689E-01    4.730E-01    4.771E-01    4.812E-01    4.853E-01    4.894E-01    4.935E-01    4.976E-01    5.017E-01
     5.058E-01    5.099E-01    5.140E-01    5.181E-01    5.222E-01    5.263E-01    5.304E-01    5.345E-01    5.386E-01    5.427E-01
     5.468E-01    5.509E-01    5.550E-01    5.590E-01    5.631E-01    5.672E-01    5.713E-01    5.754E-01    5.795E-01    5.836E-01
     5.877E-01    5.918E-01    5.959E-01    6.000E-01    6.041E-01    6.082E-01    6.123E-01    6.164E-01    6.205E-01    6.245E-01
     6.286E-01    6.327E-01    6.368E-01    6.409E-01    6.450E-01    6.491E-01    6.532E-01    6.573E-01    6.614E-01    6.655E-01
     6.696E-01    6.736E-01    6.777E-01    6.818E-01    6.859E-01    6.900E-01    6.941E-01    6.982E-01
 Ala      Conc. = 6.52E+01
