 LCModel (Version 6.3-1L) Copyright: S.W. Provencher.          Ref.: Magn. Reson. Med. 30:672-679 (1993).                
 Slice#2 Row#10 Col#1  PD_05_press_2_raw_act
 36 lines in following concentration table = NCONC+1
    Conc.  %SD /Cr+PCr  Metabolite                                         
 3.79E+03  40%   0.000 Ala                                                 
    0.000 999%   0.000 Asp                                                 
    0.000 999%   0.000 Cr                                                  
    0.000 999%   0.000 PCr                                                 
  339.901 134%   0.000 GABA                                                
  674.320  64%   0.000 Glc                                                 
 2.70E+04  13%   0.000 Gln                                                 
    0.000 999%   0.000 Glu                                                 
  498.231  19%   0.000 GPC                                                 
    0.000 999%   0.000 PCh                                                 
    0.000 999%   0.000 GSH                                                 
 4.49E+03  22%   0.000 Ins                                                 
  961.762 252%   0.000 Lac                                                 
    0.000 999%   0.000 NAA                                                 
 7.29E+03  14%   0.000 NAAG                                                
  642.118  15%   0.000+Scyllo                                              
 3.04E+03  21%   0.000+Tau                                                 
    0.000 999%   0.000 -CrCH2                                              
  498.231  19%   0.000 GPC+PCh                                             
 7.29E+03  14%   0.000 NAA+NAAG                                            
    0.000 999%   0.000 Cr+PCr                                              
 2.70E+04  13%   0.000 Glu+Gln                                             
 8.13E+04  10%   0.000 Lip13a                                              
    0.000 999%   0.000 Lip13b                                              
 1.55E+04  26%   0.000 Lip09                                               
 4.17E+03  33%   0.000 MM09                                                
 3.95E+04   8%   0.000+Lip20                                               
 4.58E+04  11%   0.000+MM20                                                
    0.000 999%   0.000 MM12                                                
 4.12E+04   3%   0.000 MM14                                                
 4.10E+04  11%   0.000+MM17                                                
 8.13E+04  10%   0.000 Lip13a+Lip13b                                       
 1.23E+05   6%   0.000 MM14+Lip13a+Lip13b+MM12                             
 1.96E+04  20%   0.000 MM09+Lip09                                          
 8.53E+04   6%   0.000 MM20+Lip20                                          
   6 lines in following misc. output table
  FWHM = 0.138 ppm    S/N =  30                                            
  Data shift =-0.038 ppm                                                   
  Ph:-155 deg      37.2 deg/ppm                                            
  alphaB,S = 8.1E+00,   1.8E+02                                            
    6 spline knots.   Ns = 9(2)                                            
  (13) 5 infls.   ( 3) 1 extrs.                                            
  498 points on ppm-axis = NY
      4.000000     3.992357     3.984714     3.977070     3.969427     3.961784     3.954141     3.946497     3.938854     3.931211
      3.923568     3.915925     3.908281     3.900638     3.892995     3.885352     3.877708     3.870065     3.862422     3.854779
      3.847136     3.839492     3.831849     3.824206     3.816563     3.808919     3.801276     3.793633     3.785990     3.778347
      3.770703     3.763060     3.755417     3.747774     3.740130     3.732487     3.724844     3.717201     3.709558     3.701914
      3.694271     3.686628     3.678985     3.671341     3.663698     3.656055     3.648412     3.640769     3.633125     3.625482
      3.617839     3.610196     3.602552     3.594909     3.587266     3.579623     3.571980     3.564336     3.556693     3.549050
      3.541407     3.533763     3.526120     3.518477     3.510834     3.503191     3.495547     3.487904     3.480261     3.472618
      3.464974     3.457331     3.449688     3.442045     3.434402     3.426758     3.419115     3.411472     3.403829     3.396185
      3.388542     3.380899     3.373256     3.365613     3.357969     3.350326     3.342683     3.335040     3.327396     3.319753
      3.312110     3.304467     3.296824     3.289180     3.281537     3.273894     3.266251     3.258607     3.250964     3.243321
      3.235678     3.228034     3.220391     3.212748     3.205105     3.197462     3.189818     3.182175     3.174532     3.166889
      3.159245     3.151602     3.143959     3.136316     3.128673     3.121029     3.113386     3.105743     3.098100     3.090456
      3.082813     3.075170     3.067527     3.059884     3.052240     3.044597     3.036954     3.029311     3.021667     3.014024
      3.006381     2.998738     2.991095     2.983451     2.975808     2.968165     2.960522     2.952878     2.945235     2.937592
      2.929949     2.922306     2.914662     2.907019     2.899376     2.891733     2.884089     2.876446     2.868803     2.861160
      2.853517     2.845873     2.838230     2.830587     2.822944     2.815300     2.807657     2.800014     2.792371     2.784728
      2.777084     2.769441     2.761798     2.754155     2.746511     2.738868     2.731225     2.723582     2.715939     2.708295
      2.700652     2.693009     2.685366     2.677722     2.670079     2.662436     2.654793     2.647150     2.639506     2.631863
      2.624220     2.616577     2.608933     2.601290     2.593647     2.586004     2.578361     2.570717     2.563074     2.555431
      2.547788     2.540144     2.532501     2.524858     2.517215     2.509572     2.501928     2.494285     2.486642     2.478999
      2.471355     2.463712     2.456069     2.448426     2.440783     2.433139     2.425496     2.417853     2.410210     2.402566
      2.394923     2.387280     2.379637     2.371994     2.364350     2.356707     2.349064     2.341421     2.333777     2.326134
      2.318491     2.310848     2.303205     2.295561     2.287918     2.280275     2.272632     2.264988     2.257345     2.249702
      2.242059     2.234416     2.226772     2.219129     2.211486     2.203843     2.196199     2.188556     2.180913     2.173270
      2.165627     2.157983     2.150340     2.142697     2.135054     2.127410     2.119767     2.112124     2.104481     2.096838
      2.089194     2.081551     2.073908     2.066265     2.058621     2.050978     2.043335     2.035692     2.028049     2.020405
      2.012762     2.005119     1.997476     1.989833     1.982190     1.974546     1.966903     1.959260     1.951617     1.943974
      1.936331     1.928688     1.921045     1.913402     1.905759     1.898115     1.890472     1.882829     1.875186     1.867543
      1.859900     1.852257     1.844614     1.836971     1.829327     1.821684     1.814041     1.806398     1.798755     1.791112
      1.783469     1.775826     1.768183     1.760540     1.752896     1.745253     1.737610     1.729967     1.722324     1.714681
      1.707038     1.699395     1.691752     1.684108     1.676465     1.668822     1.661179     1.653536     1.645893     1.638250
      1.630607     1.622964     1.615321     1.607677     1.600034     1.592391     1.584748     1.577105     1.569462     1.561819
      1.554176     1.546533     1.538890     1.531246     1.523603     1.515960     1.508317     1.500674     1.493031     1.485388
      1.477745     1.470102     1.462458     1.454815     1.447172     1.439529     1.431886     1.424243     1.416600     1.408957
      1.401314     1.393671     1.386027     1.378384     1.370741     1.363098     1.355455     1.347812     1.340169     1.332526
      1.324883     1.317240     1.309596     1.301953     1.294310     1.286667     1.279024     1.271381     1.263738     1.256095
      1.248452     1.240808     1.233165     1.225522     1.217879     1.210236     1.202593     1.194950     1.187307     1.179664
      1.172021     1.164377     1.156734     1.149091     1.141448     1.133805     1.126162     1.118519     1.110876     1.103233
      1.095590     1.087946     1.080303     1.072660     1.065017     1.057374     1.049731     1.042088     1.034445     1.026802
      1.019158     1.011515     1.003872     0.996229     0.988586     0.980943     0.973300     0.965657     0.958014     0.950371
      0.942727     0.935084     0.927441     0.919798     0.912155     0.904512     0.896869     0.889226     0.881583     0.873940
      0.866296     0.858653     0.851010     0.843367     0.835724     0.828081     0.820438     0.812795     0.805152     0.797508
      0.789865     0.782222     0.774579     0.766936     0.759293     0.751650     0.744007     0.736364     0.728721     0.721077
      0.713434     0.705791     0.698148     0.690505     0.682862     0.675219     0.667576     0.659933     0.652290     0.644646
      0.637003     0.629360     0.621717     0.614074     0.606431     0.598788     0.591145     0.583502     0.575858     0.568215
      0.560572     0.552929     0.545286     0.537643     0.530000     0.522357     0.514714     0.507071     0.499427     0.491784
      0.484141     0.476498     0.468855     0.461212     0.453569     0.445925     0.438282     0.430639     0.422996     0.415353
      0.407710     0.400067     0.392424     0.384780     0.377137     0.369494     0.361851     0.354208     0.346565     0.338922
      0.331278     0.323635     0.315992     0.308349     0.300706     0.293063     0.285420     0.277777     0.270133     0.262490
      0.254847     0.247204     0.239561     0.231918     0.224275     0.216631     0.208988     0.201345
 NY phased data points follow
   1.00649E+02  1.02698E+02  1.00010E+02  1.03758E+02  9.54100E+01  9.85543E+01  9.54735E+01  9.83166E+01  9.14805E+01  9.76759E+01
   8.75339E+01  8.90255E+01  8.28611E+01  8.70898E+01  8.58957E+01  7.67238E+01  7.62147E+01  7.58176E+01  7.93855E+01  8.26596E+01
   7.39170E+01  7.41828E+01  6.62477E+01  7.30091E+01  6.62327E+01  7.06366E+01  6.45523E+01  6.48760E+01  6.25554E+01  6.42273E+01
   5.43060E+01  5.68160E+01  5.54593E+01  5.45094E+01  5.27988E+01  5.45066E+01  4.64896E+01  4.88858E+01  4.58827E+01  5.19385E+01
   4.13202E+01  4.78598E+01  3.87089E+01  3.95864E+01  3.89757E+01  3.85045E+01  3.42062E+01  3.85221E+01  3.79545E+01  3.50195E+01
   3.42351E+01  3.66098E+01  2.84302E+01  2.99853E+01  2.83293E+01  3.85792E+01  2.99591E+01  3.10153E+01  2.55905E+01  2.77951E+01
   2.67617E+01  2.75776E+01  1.72820E+01  2.28986E+01  1.87501E+01  1.92743E+01  1.83010E+01  1.44499E+01  1.74225E+01  1.57520E+01
   1.23643E+01  1.29907E+01  1.02270E+01  1.44314E+01  9.25985E+00  1.26958E+01  1.22830E+01  5.22170E+00  3.37020E+00  6.70769E+00
   4.20823E+00  1.91809E+00  1.39217E+00  5.98770E+00 -3.55738E+00  2.66255E+00 -2.24598E-01 -4.42908E+00 -4.82943E+00 -3.97838E+00
  -9.81325E+00 -9.71301E+00 -9.56060E+00 -9.68671E+00 -1.19285E+01 -8.60205E+00 -1.93220E+01 -1.59512E+01 -1.46148E+01 -2.09658E+01
  -1.45458E+01 -2.39024E+01 -2.25926E+01 -2.27606E+01 -2.41067E+01 -2.80630E+01 -2.83682E+01 -2.57871E+01 -3.04200E+01 -3.19319E+01
  -3.42439E+01 -3.21575E+01 -3.21237E+01 -3.25558E+01 -3.46552E+01 -3.72268E+01 -4.38417E+01 -4.00058E+01 -4.22344E+01 -4.37546E+01
  -3.74056E+01 -4.67230E+01 -4.96920E+01 -4.84042E+01 -5.13498E+01 -5.38570E+01 -5.01456E+01 -4.76270E+01 -5.73288E+01 -5.97620E+01
  -6.08030E+01 -6.38637E+01 -6.63303E+01 -6.55595E+01 -6.08719E+01 -6.20761E+01 -5.90307E+01 -5.68520E+01 -5.51728E+01 -5.51767E+01
  -5.71247E+01 -5.55591E+01 -5.32507E+01 -4.78253E+01 -4.70479E+01 -4.58367E+01 -4.75302E+01 -3.73408E+01 -4.31992E+01 -4.09731E+01
  -3.54272E+01 -3.41876E+01 -3.63167E+01 -3.68344E+01 -3.07622E+01 -2.73022E+01 -3.21013E+01 -3.19000E+01 -3.09010E+01 -3.46718E+01
  -3.42731E+01 -3.99904E+01 -3.89646E+01 -4.14869E+01 -4.23959E+01 -4.35624E+01 -4.59260E+01 -4.18016E+01 -4.67605E+01 -4.84169E+01
  -5.24898E+01 -5.39218E+01 -5.91370E+01 -5.89292E+01 -6.40955E+01 -6.26826E+01 -6.52774E+01 -6.93412E+01 -7.08831E+01 -7.87846E+01
  -7.93399E+01 -8.92079E+01 -8.41596E+01 -8.85816E+01 -9.34694E+01 -9.69765E+01 -1.01185E+02 -9.40574E+01 -1.08098E+02 -1.06012E+02
  -1.15173E+02 -1.12438E+02 -1.21042E+02 -1.17995E+02 -1.17613E+02 -1.24727E+02 -1.27943E+02 -1.18380E+02 -1.23248E+02 -1.21438E+02
  -1.17043E+02 -1.18642E+02 -1.18250E+02 -1.08682E+02 -1.09387E+02 -1.05170E+02 -9.90194E+01 -9.17951E+01 -8.39195E+01 -7.28814E+01
  -7.55388E+01 -5.85728E+01 -5.10651E+01 -4.39069E+01 -2.99258E+01 -2.67424E+01 -2.29260E+01 -1.22187E+01 -7.99518E+00 -6.11252E-01
   3.54649E+00  1.07036E+01  1.81270E+01  2.68508E+01  3.23124E+01  3.65394E+01  4.18710E+01  5.16504E+01  5.67374E+01  6.57370E+01
   6.95431E+01  8.58870E+01  8.62512E+01  1.05442E+02  1.11758E+02  1.20548E+02  1.28722E+02  1.41035E+02  1.51205E+02  1.58639E+02
   1.74271E+02  1.76141E+02  1.91434E+02  2.05091E+02  2.09205E+02  2.17415E+02  2.28283E+02  2.38032E+02  2.34429E+02  2.40962E+02
   2.42472E+02  2.49268E+02  2.50409E+02  2.53876E+02  2.48086E+02  2.48123E+02  2.44437E+02  2.48132E+02  2.40785E+02  2.40067E+02
   2.31192E+02  2.25588E+02  2.23434E+02  2.14312E+02  2.13562E+02  2.14217E+02  2.09931E+02  2.06939E+02  1.99840E+02  1.94879E+02
   1.90100E+02  1.86885E+02  1.74292E+02  1.76543E+02  1.68185E+02  1.66484E+02  1.59539E+02  1.54212E+02  1.46523E+02  1.43383E+02
   1.35791E+02  1.26035E+02  1.24711E+02  1.15572E+02  1.12670E+02  1.07960E+02  1.01524E+02  9.31085E+01  8.68459E+01  7.85239E+01
   6.67357E+01  6.43758E+01  5.90139E+01  5.15428E+01  4.38154E+01  4.22210E+01  3.01003E+01  2.82403E+01  2.18358E+01  1.32193E+01
   6.11068E+00  4.18758E+00  9.88390E-01 -1.92651E+00 -3.73830E+00 -1.36678E+01 -1.83814E+01 -1.49321E+01 -2.14926E+01 -1.86820E+01
  -2.43320E+01 -2.33785E+01 -2.91086E+01 -2.41679E+01 -2.49261E+01 -2.87008E+01 -1.46684E+01 -1.56127E+01 -1.18668E+01 -5.88194E+00
  -2.57005E+00  9.15326E+00  1.21922E+01  2.19057E+01  3.87472E+01  5.26258E+01  6.70367E+01  8.86247E+01  1.10380E+02  1.33472E+02
   1.62871E+02  1.90833E+02  2.12772E+02  2.45281E+02  2.65446E+02  2.95973E+02  3.17198E+02  3.35852E+02  3.52378E+02  3.72607E+02
   3.79225E+02  3.83179E+02  3.87849E+02  3.90847E+02  3.84708E+02  3.86927E+02  3.74588E+02  3.60838E+02  3.56419E+02  3.48128E+02
   3.32330E+02  3.24284E+02  3.11354E+02  2.95974E+02  2.86761E+02  2.75187E+02  2.61744E+02  2.56488E+02  2.40052E+02  2.36481E+02
   2.28254E+02  2.17694E+02  2.11059E+02  2.06986E+02  2.06042E+02  1.96765E+02  1.83323E+02  1.80473E+02  1.72932E+02  1.68404E+02
   1.59304E+02  1.57042E+02  1.49115E+02  1.47984E+02  1.40131E+02  1.37249E+02  1.30684E+02  1.25480E+02  1.26979E+02  1.19109E+02
   1.13432E+02  1.15182E+02  1.08002E+02  1.07956E+02  1.07272E+02  1.02500E+02  9.80906E+01  1.04008E+02  9.96559E+01  9.99558E+01
   1.00023E+02  9.78884E+01  9.73661E+01  9.31302E+01  9.76037E+01  9.48676E+01  9.27091E+01  9.69758E+01  9.01374E+01  9.79525E+01
   9.21604E+01  9.33768E+01  9.25202E+01  9.25140E+01  8.99685E+01  8.74769E+01  8.82434E+01  8.98126E+01  9.24219E+01  7.91160E+01
   8.37858E+01  8.33994E+01  8.00296E+01  7.79954E+01  7.80812E+01  7.49102E+01  7.16196E+01  7.19584E+01  6.98677E+01  7.32889E+01
   7.28971E+01  7.09958E+01  6.74254E+01  6.96198E+01  6.34536E+01  6.94528E+01  6.30883E+01  6.12573E+01  6.18488E+01  6.19908E+01
   6.10562E+01  5.56630E+01  5.84678E+01  5.75363E+01  6.08332E+01  5.34725E+01  5.60830E+01  5.48069E+01  5.10820E+01  5.17200E+01
   5.23297E+01  4.82883E+01  4.84510E+01  5.06262E+01  4.52887E+01  4.80194E+01  4.50536E+01  4.71207E+01  4.34580E+01  4.83133E+01
   4.55460E+01  4.76440E+01  4.09767E+01  4.41205E+01  4.62715E+01  4.47320E+01  4.27712E+01  4.16137E+01  3.92846E+01  4.40790E+01
   3.65670E+01  4.16467E+01  3.82215E+01  3.73271E+01  3.42231E+01  3.66667E+01  3.16737E+01  3.59376E+01  3.67178E+01  3.20953E+01
   3.15279E+01  3.31917E+01  3.27849E+01  3.19487E+01  3.79419E+01  3.58022E+01  3.50863E+01  3.04846E+01  3.34598E+01  3.20858E+01
   3.11811E+01  2.88822E+01  2.79058E+01  2.70740E+01  3.03595E+01  2.64125E+01  2.55209E+01  2.32030E+01  3.15747E+01  2.68806E+01
   2.49705E+01  2.73497E+01  2.51454E+01  2.20395E+01  2.45225E+01  2.67700E+01  2.98016E+01  2.63107E+01
 NY points of the fit to the data follow
   9.63882E+01  9.48575E+01  9.33632E+01  9.25016E+01  9.17126E+01  9.17275E+01  9.19244E+01  9.22096E+01  8.84109E+01  8.71288E+01
   8.26017E+01  8.15961E+01  7.77622E+01  7.98193E+01  8.08246E+01  8.25373E+01  8.17223E+01  8.11196E+01  7.85246E+01  7.58510E+01
   7.39605E+01  7.35125E+01  7.23397E+01  7.21393E+01  7.15288E+01  7.09610E+01  6.94549E+01  6.86525E+01  6.59197E+01  6.54618E+01
   6.29396E+01  6.42016E+01  6.11216E+01  6.23727E+01  5.88433E+01  6.00018E+01  5.60793E+01  5.68215E+01  5.29156E+01  5.31017E+01
   4.92221E+01  4.89982E+01  4.56944E+01  4.50329E+01  4.25738E+01  4.17325E+01  4.03170E+01  3.94517E+01  3.74224E+01  3.55567E+01
   3.24756E+01  3.04912E+01  2.60362E+01  2.54515E+01  2.32263E+01  2.42063E+01  2.20202E+01  2.40973E+01  2.14821E+01  2.22647E+01
   1.91528E+01  2.01510E+01  1.66165E+01  1.78698E+01  1.47611E+01  1.59716E+01  1.29117E+01  1.40892E+01  1.29578E+01  1.36866E+01
   1.20206E+01  1.23301E+01  1.03617E+01  1.04402E+01  8.68176E+00  8.27718E+00  6.11322E+00  5.56608E+00  3.03219E+00  2.64146E+00
   1.63358E-01 -8.86573E-02 -3.41586E+00 -2.64733E+00 -3.92306E+00 -3.46251E+00 -5.16983E+00 -4.74508E+00 -6.45959E+00 -6.00769E+00
  -7.20057E+00 -6.99034E+00 -7.99452E+00 -8.42252E+00 -9.36232E+00 -1.04369E+01 -1.15878E+01 -1.26393E+01 -1.39581E+01 -1.53730E+01
  -1.72186E+01 -1.89096E+01 -2.10471E+01 -2.27737E+01 -2.50817E+01 -2.68738E+01 -2.93587E+01 -3.07253E+01 -3.17978E+01 -3.26386E+01
  -3.34107E+01 -3.39911E+01 -3.43591E+01 -3.45881E+01 -3.45695E+01 -3.49062E+01 -3.51385E+01 -3.56699E+01 -3.60790E+01 -3.69472E+01
  -3.75503E+01 -3.86602E+01 -4.00504E+01 -4.09997E+01 -4.17377E+01 -4.29254E+01 -4.38700E+01 -4.52103E+01 -4.63516E+01 -4.76614E+01
  -4.87854E+01 -5.00337E+01 -5.10797E+01 -5.21743E+01 -5.31144E+01 -5.42373E+01 -5.50019E+01 -5.56314E+01 -5.59036E+01 -5.58065E+01
  -5.54385E+01 -5.51121E+01 -5.43419E+01 -5.36466E+01 -5.24114E+01 -5.13013E+01 -4.96129E+01 -4.81543E+01 -4.61337E+01 -4.45181E+01
  -4.24717E+01 -4.10580E+01 -3.87024E+01 -3.71791E+01 -3.49361E+01 -3.37374E+01 -3.22950E+01 -3.17557E+01 -3.07849E+01 -3.09070E+01
  -3.06159E+01 -3.15367E+01 -3.21268E+01 -3.40691E+01 -3.55809E+01 -3.77743E+01 -3.99271E+01 -4.24834E+01 -4.52834E+01 -4.81678E+01
  -5.14007E+01 -5.44199E+01 -5.77548E+01 -6.04277E+01 -6.40442E+01 -6.73078E+01 -7.23437E+01 -7.58839E+01 -8.26235E+01 -8.66062E+01
  -9.28971E+01 -9.62339E+01 -1.01452E+02 -1.01656E+02 -1.03537E+02 -1.01951E+02 -1.03288E+02 -9.94016E+01 -1.00933E+02 -9.78904E+01
  -1.01500E+02 -1.02422E+02 -1.12739E+02 -1.10595E+02 -1.16494E+02 -1.11958E+02 -1.16839E+02 -1.11849E+02 -1.17251E+02 -1.12554E+02
  -1.17890E+02 -1.12910E+02 -1.16634E+02 -1.10551E+02 -1.10931E+02 -1.03002E+02 -9.98413E+01 -9.07006E+01 -8.47894E+01 -7.57730E+01
  -6.88320E+01 -5.99973E+01 -5.23418E+01 -4.35024E+01 -3.51529E+01 -2.65354E+01 -1.82489E+01 -1.18198E+01 -9.21210E+00 -3.29199E+00
  -6.66929E-01  6.87762E+00  1.13239E+01  2.26407E+01  2.80021E+01  3.64663E+01  4.26235E+01  5.05065E+01  5.84254E+01  6.60700E+01
   7.61752E+01  8.07571E+01  8.94108E+01  9.38216E+01  1.04626E+02  1.07892E+02  1.23183E+02  1.35452E+02  1.48703E+02  1.59418E+02
   1.69601E+02  1.79520E+02  1.87788E+02  1.99458E+02  2.06075E+02  2.18797E+02  2.22952E+02  2.35702E+02  2.36673E+02  2.46984E+02
   2.45408E+02  2.52570E+02  2.49058E+02  2.53066E+02  2.49590E+02  2.51633E+02  2.49192E+02  2.48338E+02  2.43400E+02  2.39295E+02
   2.33895E+02  2.28919E+02  2.24073E+02  2.20572E+02  2.16222E+02  2.12980E+02  2.08690E+02  2.05513E+02  2.00274E+02  1.96431E+02
   1.90393E+02  1.85797E+02  1.78666E+02  1.72772E+02  1.65106E+02  1.57278E+02  1.51722E+02  1.47752E+02  1.43187E+02  1.39664E+02
   1.34900E+02  1.30916E+02  1.25691E+02  1.21110E+02  1.15247E+02  1.09836E+02  1.03197E+02  9.69809E+01  8.96323E+01  8.26690E+01
   7.48148E+01  6.73545E+01  5.93395E+01  5.18290E+01  4.40533E+01  3.68590E+01  2.96830E+01  2.30399E+01  1.65660E+01  1.06611E+01
   5.03423E+00 -6.22802E-03 -4.69157E+00 -8.79188E+00 -1.24074E+01 -1.54308E+01 -1.78519E+01 -1.94250E+01 -1.96814E+01 -1.84427E+01
  -2.00768E+01 -1.91771E+01 -2.13324E+01 -2.00267E+01 -2.21627E+01 -2.03299E+01 -2.26518E+01 -1.66865E+01 -1.58456E+01 -7.34220E+00
  -4.10849E+00  6.65970E+00  1.29767E+01  2.68165E+01  3.74416E+01  5.49856E+01  7.08765E+01  9.25783E+01  1.13832E+02  1.39187E+02
   1.63679E+02  1.90171E+02  2.16224E+02  2.42154E+02  2.67326E+02  2.90845E+02  3.13039E+02  3.33534E+02  3.50933E+02  3.66051E+02
   3.76777E+02  3.85365E+02  3.88982E+02  3.90976E+02  3.87715E+02  3.83749E+02  3.75402E+02  3.67238E+02  3.56532E+02  3.46729E+02
   3.34210E+02  3.23232E+02  3.10585E+02  2.99231E+02  2.87096E+02  2.75553E+02  2.63832E+02  2.53933E+02  2.44007E+02  2.35456E+02
   2.26940E+02  2.19462E+02  2.12023E+02  2.05292E+02  1.98519E+02  1.92206E+02  1.85899E+02  1.79887E+02  1.74104E+02  1.68617E+02
   1.63041E+02  1.57784E+02  1.52436E+02  1.47319E+02  1.42202E+02  1.37080E+02  1.32236E+02  1.27662E+02  1.23365E+02  1.19363E+02
   1.15676E+02  1.12321E+02  1.09310E+02  1.06650E+02  1.04342E+02  1.02382E+02  1.00756E+02  9.94455E+01  9.84239E+01  9.76588E+01
   9.71124E+01  9.67425E+01  9.65041E+01  9.63508E+01  9.62372E+01  9.61201E+01  9.59606E+01  9.57251E+01  9.53873E+01  9.49281E+01
   9.43368E+01  9.36104E+01  9.27532E+01  9.17755E+01  9.06931E+01  8.95250E+01  8.82926E+01  8.70176E+01  8.57209E+01  8.44215E+01
   8.31354E+01  8.18755E+01  8.06508E+01  7.94667E+01  7.83252E+01  7.72252E+01  7.61631E+01  7.51335E+01  7.41299E+01  7.31447E+01
   7.21706E+01  7.12003E+01  7.02275E+01  6.92466E+01  6.82532E+01  6.72441E+01  6.62174E+01  6.51721E+01  6.41086E+01  6.30281E+01
   6.19327E+01  6.08249E+01  5.97080E+01  5.85856E+01  5.74613E+01  5.63391E+01  5.52228E+01  5.41162E+01  5.30227E+01  5.19457E+01
   5.08881E+01  4.98529E+01  4.88421E+01  4.78581E+01  4.69022E+01  4.59761E+01  4.50808E+01  4.42171E+01  4.33855E+01  4.25863E+01
   4.18195E+01  4.10851E+01  4.03828E+01  3.97121E+01  3.90725E+01  3.84633E+01  3.78839E+01  3.73335E+01  3.68112E+01  3.63160E+01
   3.58473E+01  3.54039E+01  3.49850E+01  3.45897E+01  3.42171E+01  3.38662E+01  3.35361E+01  3.32259E+01  3.29349E+01  3.26621E+01
   3.24068E+01  3.21681E+01  3.19453E+01  3.17376E+01  3.15444E+01  3.13648E+01  3.11983E+01  3.10440E+01  3.09015E+01  3.07700E+01
   3.06489E+01  3.05377E+01  3.04357E+01  3.03424E+01  3.02570E+01  3.01791E+01  3.01081E+01  3.00433E+01  2.99840E+01  2.99296E+01
   2.98795E+01  2.98328E+01  2.97887E+01  2.97464E+01  2.97047E+01  2.96624E+01  2.96180E+01  2.95698E+01
 NY background values follow
     4.486E+01    4.346E+01    4.207E+01    4.068E+01    3.929E+01    3.790E+01    3.651E+01    3.511E+01    3.372E+01    3.233E+01
     3.094E+01    2.955E+01    2.816E+01    2.677E+01    2.538E+01    2.400E+01    2.261E+01    2.122E+01    1.984E+01    1.845E+01
     1.707E+01    1.569E+01    1.431E+01    1.293E+01    1.155E+01    1.018E+01    8.800E+00    7.427E+00    6.055E+00    4.685E+00
     3.317E+00    1.950E+00    5.857E-01   -7.768E-01   -2.137E+00   -3.496E+00   -4.852E+00   -6.205E+00   -7.557E+00   -8.906E+00
    -1.025E+01   -1.160E+01   -1.294E+01   -1.428E+01   -1.561E+01   -1.694E+01   -1.827E+01   -1.960E+01   -2.092E+01   -2.224E+01
    -2.356E+01   -2.488E+01   -2.619E+01   -2.749E+01   -2.880E+01   -3.010E+01   -3.139E+01   -3.268E+01   -3.397E+01   -3.526E+01
    -3.654E+01   -3.781E+01   -3.909E+01   -4.036E+01   -4.162E+01   -4.288E+01   -4.413E+01   -4.538E+01   -4.663E+01   -4.787E+01
    -4.911E+01   -5.034E+01   -5.157E+01   -5.279E+01   -5.401E+01   -5.522E+01   -5.642E+01   -5.763E+01   -5.882E+01   -6.001E+01
    -6.120E+01   -6.238E+01   -6.355E+01   -6.472E+01   -6.588E+01   -6.704E+01   -6.819E+01   -6.933E+01   -7.047E+01   -7.161E+01
    -7.273E+01   -7.385E+01   -7.497E+01   -7.607E+01   -7.717E+01   -7.827E+01   -7.935E+01   -8.044E+01   -8.151E+01   -8.258E+01
    -8.364E+01   -8.469E+01   -8.574E+01   -8.677E+01   -8.781E+01   -8.883E+01   -8.985E+01   -9.086E+01   -9.186E+01   -9.285E+01
    -9.384E+01   -9.482E+01   -9.579E+01   -9.675E+01   -9.770E+01   -9.865E+01   -9.959E+01   -1.005E+02   -1.014E+02   -1.024E+02
    -1.033E+02   -1.042E+02   -1.050E+02   -1.059E+02   -1.068E+02   -1.077E+02   -1.085E+02   -1.094E+02   -1.102E+02   -1.110E+02
    -1.118E+02   -1.126E+02   -1.134E+02   -1.142E+02   -1.150E+02   -1.158E+02   -1.165E+02   -1.173E+02   -1.180E+02   -1.188E+02
    -1.195E+02   -1.202E+02   -1.209E+02   -1.216E+02   -1.223E+02   -1.229E+02   -1.236E+02   -1.243E+02   -1.249E+02   -1.255E+02
    -1.261E+02   -1.268E+02   -1.274E+02   -1.279E+02   -1.285E+02   -1.291E+02   -1.296E+02   -1.302E+02   -1.307E+02   -1.312E+02
    -1.317E+02   -1.322E+02   -1.327E+02   -1.332E+02   -1.337E+02   -1.341E+02   -1.346E+02   -1.350E+02   -1.354E+02   -1.358E+02
    -1.362E+02   -1.366E+02   -1.370E+02   -1.373E+02   -1.377E+02   -1.380E+02   -1.383E+02   -1.386E+02   -1.390E+02   -1.392E+02
    -1.395E+02   -1.398E+02   -1.401E+02   -1.403E+02   -1.406E+02   -1.408E+02   -1.410E+02   -1.412E+02   -1.414E+02   -1.416E+02
    -1.418E+02   -1.419E+02   -1.421E+02   -1.422E+02   -1.424E+02   -1.425E+02   -1.426E+02   -1.427E+02   -1.428E+02   -1.429E+02
    -1.430E+02   -1.431E+02   -1.431E+02   -1.432E+02   -1.432E+02   -1.432E+02   -1.433E+02   -1.433E+02   -1.433E+02   -1.433E+02
    -1.433E+02   -1.432E+02   -1.432E+02   -1.432E+02   -1.431E+02   -1.431E+02   -1.430E+02   -1.429E+02   -1.428E+02   -1.427E+02
    -1.426E+02   -1.425E+02   -1.424E+02   -1.423E+02   -1.422E+02   -1.420E+02   -1.419E+02   -1.417E+02   -1.416E+02   -1.414E+02
    -1.412E+02   -1.410E+02   -1.408E+02   -1.406E+02   -1.404E+02   -1.402E+02   -1.400E+02   -1.397E+02   -1.395E+02   -1.393E+02
    -1.390E+02   -1.388E+02   -1.385E+02   -1.382E+02   -1.380E+02   -1.377E+02   -1.374E+02   -1.371E+02   -1.368E+02   -1.365E+02
    -1.362E+02   -1.358E+02   -1.355E+02   -1.352E+02   -1.349E+02   -1.345E+02   -1.342E+02   -1.338E+02   -1.334E+02   -1.331E+02
    -1.327E+02   -1.323E+02   -1.320E+02   -1.316E+02   -1.312E+02   -1.308E+02   -1.304E+02   -1.300E+02   -1.296E+02   -1.292E+02
    -1.287E+02   -1.283E+02   -1.279E+02   -1.275E+02   -1.270E+02   -1.266E+02   -1.261E+02   -1.257E+02   -1.252E+02   -1.248E+02
    -1.243E+02   -1.238E+02   -1.234E+02   -1.229E+02   -1.224E+02   -1.220E+02   -1.215E+02   -1.210E+02   -1.205E+02   -1.200E+02
    -1.195E+02   -1.190E+02   -1.185E+02   -1.180E+02   -1.175E+02   -1.170E+02   -1.165E+02   -1.160E+02   -1.155E+02   -1.149E+02
    -1.144E+02   -1.139E+02   -1.134E+02   -1.128E+02   -1.123E+02   -1.118E+02   -1.113E+02   -1.107E+02   -1.102E+02   -1.097E+02
    -1.091E+02   -1.086E+02   -1.080E+02   -1.075E+02   -1.069E+02   -1.064E+02   -1.059E+02   -1.053E+02   -1.048E+02   -1.042E+02
    -1.037E+02   -1.031E+02   -1.026E+02   -1.020E+02   -1.015E+02   -1.009E+02   -1.004E+02   -9.980E+01   -9.925E+01   -9.870E+01
    -9.814E+01   -9.759E+01   -9.704E+01   -9.649E+01   -9.593E+01   -9.538E+01   -9.483E+01   -9.428E+01   -9.373E+01   -9.318E+01
    -9.263E+01   -9.208E+01   -9.153E+01   -9.098E+01   -9.043E+01   -8.988E+01   -8.933E+01   -8.878E+01   -8.823E+01   -8.769E+01
    -8.714E+01   -8.659E+01   -8.605E+01   -8.550E+01   -8.495E+01   -8.441E+01   -8.387E+01   -8.332E+01   -8.278E+01   -8.223E+01
    -8.169E+01   -8.115E+01   -8.061E+01   -8.007E+01   -7.952E+01   -7.898E+01   -7.844E+01   -7.791E+01   -7.737E+01   -7.683E+01
    -7.629E+01   -7.576E+01   -7.522E+01   -7.468E+01   -7.415E+01   -7.361E+01   -7.308E+01   -7.255E+01   -7.201E+01   -7.148E+01
    -7.095E+01   -7.042E+01   -6.989E+01   -6.936E+01   -6.883E+01   -6.831E+01   -6.778E+01   -6.725E+01   -6.673E+01   -6.621E+01
    -6.568E+01   -6.516E+01   -6.464E+01   -6.412E+01   -6.359E+01   -6.308E+01   -6.256E+01   -6.204E+01   -6.152E+01   -6.101E+01
    -6.049E+01   -5.998E+01   -5.946E+01   -5.895E+01   -5.844E+01   -5.793E+01   -5.742E+01   -5.691E+01   -5.640E+01   -5.589E+01
    -5.539E+01   -5.488E+01   -5.438E+01   -5.387E+01   -5.337E+01   -5.287E+01   -5.237E+01   -5.187E+01   -5.137E+01   -5.088E+01
    -5.038E+01   -4.989E+01   -4.939E+01   -4.890E+01   -4.841E+01   -4.792E+01   -4.743E+01   -4.694E+01   -4.645E+01   -4.597E+01
    -4.548E+01   -4.500E+01   -4.452E+01   -4.404E+01   -4.356E+01   -4.308E+01   -4.260E+01   -4.212E+01   -4.165E+01   -4.117E+01
    -4.070E+01   -4.023E+01   -3.976E+01   -3.929E+01   -3.882E+01   -3.835E+01   -3.789E+01   -3.742E+01   -3.696E+01   -3.650E+01
    -3.604E+01   -3.558E+01   -3.512E+01   -3.467E+01   -3.421E+01   -3.376E+01   -3.331E+01   -3.286E+01   -3.241E+01   -3.196E+01
    -3.151E+01   -3.107E+01   -3.062E+01   -3.018E+01   -2.974E+01   -2.930E+01   -2.886E+01   -2.843E+01   -2.799E+01   -2.756E+01
    -2.712E+01   -2.669E+01   -2.626E+01   -2.584E+01   -2.541E+01   -2.498E+01   -2.456E+01   -2.414E+01   -2.372E+01   -2.330E+01
    -2.288E+01   -2.247E+01   -2.205E+01   -2.164E+01   -2.123E+01   -2.082E+01   -2.041E+01   -2.000E+01   -1.960E+01   -1.920E+01
    -1.880E+01   -1.840E+01   -1.800E+01   -1.760E+01   -1.720E+01   -1.681E+01   -1.642E+01   -1.603E+01
 Ala      Conc. = 3.79E+03
