 LCModel (Version 6.3-1L) Copyright: S.W. Provencher.          Ref.: Magn. Reson. Med. 30:672-679 (1993).                
 Slice#2 Row#5 Col#12  PD_05_press_2_raw_act
 36 lines in following concentration table = NCONC+1
    Conc.  %SD /Cr+PCr  Metabolite                                         
 1.83E+04   7%  99.054 Ala                                                 
   27.759 131%   0.151 Asp                                                 
  184.314  58%   1.000 Cr                                                  
    0.000 999%   0.000 PCr                                                 
   17.179 127% 9.3E-02 GABA                                                
   16.960 129% 9.2E-02 Glc                                                 
 1.21E+03  90%   6.586 Gln                                                 
 2.32E+03  61%  12.568 Glu                                                 
    0.000 999%   0.000 GPC                                                 
    0.000 999%   0.000 PCh                                                 
  322.516  69%   1.750 GSH                                                 
  884.291  49%   4.798 Ins                                                 
 4.44E+03  25%  24.067 Lac                                                 
    0.000 999%   0.000 NAA                                                 
  407.993  44%   2.214 NAAG                                                
    5.623 129% 3.1E-02 Scyllo                                              
   23.657 153%   0.128 Tau                                                 
   12.410 302% 6.7E-02 -CrCH2                                              
    0.000 999%   0.000 GPC+PCh                                             
  407.993  44%   2.214 NAA+NAAG                                            
  184.314  58%   1.000 Cr+PCr                                              
 3.53E+03  57%  19.153 Glu+Gln                                             
    0.000 999%   0.000 Lip13a                                              
   74.727 245%   0.405 Lip13b                                              
    0.000 999%   0.000 Lip09                                               
 1.57E+03  14%   8.500 MM09                                                
    0.000 999%   0.000 Lip20                                               
  892.395  55%   4.842 MM20                                                
  522.815  32%   2.837 MM12                                                
 3.49E+03  16%  18.912 MM14                                                
 2.13E+03  11%  11.530 MM17                                                
   74.727 245%   0.405 Lip13a+Lip13b                                       
 4.08E+03  16%  22.154 MM14+Lip13a+Lip13b+MM12                             
 1.57E+03  14%   8.500 MM09+Lip09                                          
  892.395  55%   4.842 MM20+Lip20                                          
   6 lines in following misc. output table
  FWHM = 0.168 ppm    S/N =   6                                            
  Data shift = 0.015 ppm                                                   
  Ph:   2 deg      -7.3 deg/ppm                                            
  alphaB,S = 8.5E+01,   8.2E+02                                            
    7 spline knots.   Ns = 9(2)                                            
   2 inflections.     1 extrema                                            
  498 points on ppm-axis = NY
      4.000000     3.992357     3.984714     3.977070     3.969427     3.961784     3.954141     3.946497     3.938854     3.931211
      3.923568     3.915925     3.908281     3.900638     3.892995     3.885352     3.877708     3.870065     3.862422     3.854779
      3.847136     3.839492     3.831849     3.824206     3.816563     3.808919     3.801276     3.793633     3.785990     3.778347
      3.770703     3.763060     3.755417     3.747774     3.740130     3.732487     3.724844     3.717201     3.709558     3.701914
      3.694271     3.686628     3.678985     3.671341     3.663698     3.656055     3.648412     3.640769     3.633125     3.625482
      3.617839     3.610196     3.602552     3.594909     3.587266     3.579623     3.571980     3.564336     3.556693     3.549050
      3.541407     3.533763     3.526120     3.518477     3.510834     3.503191     3.495547     3.487904     3.480261     3.472618
      3.464974     3.457331     3.449688     3.442045     3.434402     3.426758     3.419115     3.411472     3.403829     3.396185
      3.388542     3.380899     3.373256     3.365613     3.357969     3.350326     3.342683     3.335040     3.327396     3.319753
      3.312110     3.304467     3.296824     3.289180     3.281537     3.273894     3.266251     3.258607     3.250964     3.243321
      3.235678     3.228034     3.220391     3.212748     3.205105     3.197462     3.189818     3.182175     3.174532     3.166889
      3.159245     3.151602     3.143959     3.136316     3.128673     3.121029     3.113386     3.105743     3.098100     3.090456
      3.082813     3.075170     3.067527     3.059884     3.052240     3.044597     3.036954     3.029311     3.021667     3.014024
      3.006381     2.998738     2.991095     2.983451     2.975808     2.968165     2.960522     2.952878     2.945235     2.937592
      2.929949     2.922306     2.914662     2.907019     2.899376     2.891733     2.884089     2.876446     2.868803     2.861160
      2.853517     2.845873     2.838230     2.830587     2.822944     2.815300     2.807657     2.800014     2.792371     2.784728
      2.777084     2.769441     2.761798     2.754155     2.746511     2.738868     2.731225     2.723582     2.715939     2.708295
      2.700652     2.693009     2.685366     2.677722     2.670079     2.662436     2.654793     2.647150     2.639506     2.631863
      2.624220     2.616577     2.608933     2.601290     2.593647     2.586004     2.578361     2.570717     2.563074     2.555431
      2.547788     2.540144     2.532501     2.524858     2.517215     2.509572     2.501928     2.494285     2.486642     2.478999
      2.471355     2.463712     2.456069     2.448426     2.440783     2.433139     2.425496     2.417853     2.410210     2.402566
      2.394923     2.387280     2.379637     2.371994     2.364350     2.356707     2.349064     2.341421     2.333777     2.326134
      2.318491     2.310848     2.303205     2.295561     2.287918     2.280275     2.272632     2.264988     2.257345     2.249702
      2.242059     2.234416     2.226772     2.219129     2.211486     2.203843     2.196199     2.188556     2.180913     2.173270
      2.165627     2.157983     2.150340     2.142697     2.135054     2.127410     2.119767     2.112124     2.104481     2.096838
      2.089194     2.081551     2.073908     2.066265     2.058621     2.050978     2.043335     2.035692     2.028049     2.020405
      2.012762     2.005119     1.997476     1.989833     1.982190     1.974546     1.966903     1.959260     1.951617     1.943974
      1.936331     1.928688     1.921045     1.913402     1.905759     1.898115     1.890472     1.882829     1.875186     1.867543
      1.859900     1.852257     1.844614     1.836971     1.829327     1.821684     1.814041     1.806398     1.798755     1.791112
      1.783469     1.775826     1.768183     1.760540     1.752896     1.745253     1.737610     1.729967     1.722324     1.714681
      1.707038     1.699395     1.691752     1.684108     1.676465     1.668822     1.661179     1.653536     1.645893     1.638250
      1.630607     1.622964     1.615321     1.607677     1.600034     1.592391     1.584748     1.577105     1.569462     1.561819
      1.554176     1.546533     1.538890     1.531246     1.523603     1.515960     1.508317     1.500674     1.493031     1.485388
      1.477745     1.470102     1.462458     1.454815     1.447172     1.439529     1.431886     1.424243     1.416600     1.408957
      1.401314     1.393671     1.386027     1.378384     1.370741     1.363098     1.355455     1.347812     1.340169     1.332526
      1.324883     1.317240     1.309596     1.301953     1.294310     1.286667     1.279024     1.271381     1.263738     1.256095
      1.248452     1.240808     1.233165     1.225522     1.217879     1.210236     1.202593     1.194950     1.187307     1.179664
      1.172021     1.164377     1.156734     1.149091     1.141448     1.133805     1.126162     1.118519     1.110876     1.103233
      1.095590     1.087946     1.080303     1.072660     1.065017     1.057374     1.049731     1.042088     1.034445     1.026802
      1.019158     1.011515     1.003872     0.996229     0.988586     0.980943     0.973300     0.965657     0.958014     0.950371
      0.942727     0.935084     0.927441     0.919798     0.912155     0.904512     0.896869     0.889226     0.881583     0.873940
      0.866296     0.858653     0.851010     0.843367     0.835724     0.828081     0.820438     0.812795     0.805152     0.797508
      0.789865     0.782222     0.774579     0.766936     0.759293     0.751650     0.744007     0.736364     0.728721     0.721077
      0.713434     0.705791     0.698148     0.690505     0.682862     0.675219     0.667576     0.659933     0.652290     0.644646
      0.637003     0.629360     0.621717     0.614074     0.606431     0.598788     0.591145     0.583502     0.575858     0.568215
      0.560572     0.552929     0.545286     0.537643     0.530000     0.522357     0.514714     0.507071     0.499427     0.491784
      0.484141     0.476498     0.468855     0.461212     0.453569     0.445925     0.438282     0.430639     0.422996     0.415353
      0.407710     0.400067     0.392424     0.384780     0.377137     0.369494     0.361851     0.354208     0.346565     0.338922
      0.331278     0.323635     0.315992     0.308349     0.300706     0.293063     0.285420     0.277777     0.270133     0.262490
      0.254847     0.247204     0.239561     0.231918     0.224275     0.216631     0.208988     0.201345
 NY phased data points follow
   1.02283E+01  5.55955E+00  6.04153E+00  9.00362E+00  6.49554E+00  8.14983E+00  6.98174E+00  4.33958E+00  1.28407E+01  6.88136E+00
   1.08328E+01  1.17184E+01  4.76567E+00  2.78324E+00  4.73000E+00  1.02926E+01  4.29427E+00  1.01156E+01  5.03835E+00  5.31276E+00
   5.74089E+00  2.36400E+00  2.79090E+00  1.16389E+01  8.60920E+00  7.91924E+00  7.95014E+00  6.98453E+00  7.34022E+00  7.72716E-01
   2.50544E+00  1.60894E+01  6.60024E+00  1.50083E+01  2.94397E+00  4.78743E+00  1.02074E+01  7.72522E+00  1.08211E+00  9.96752E+00
   2.72681E+00  1.16796E+00  3.99145E+00  5.60949E+00  6.30261E+00  4.63338E+00 -4.53307E+00  8.79312E+00  1.21889E+01  1.35172E+01
   3.79270E+00  9.53095E+00  4.28458E+00  6.97383E+00  3.26649E-01  3.54739E+00  1.06781E+01  6.03271E+00  1.24705E+01  9.67948E+00
   7.11676E+00  6.02154E+00  1.50717E+00  6.73358E+00  1.12684E+00  3.26711E+00  3.01209E+00  4.14800E+00  5.54616E+00 -5.45174E-01
   5.32093E+00  7.36939E-01  8.61017E+00  9.42465E+00  2.91757E-01  6.08274E+00  6.28196E+00  1.00444E+00  1.21876E+00 -1.25772E+00
   1.16882E+01  5.80082E+00  2.60108E+00  2.86832E+00 -3.26086E+00  2.16172E+00  9.19501E+00  3.03601E+00  1.85936E+00  2.77907E+00
   2.24681E+00  9.33164E+00  3.15010E+00  3.37377E+00  4.61684E-01  5.62041E-01  1.33769E+00  8.81802E-01 -7.62109E-01  1.36355E+00
  -6.09801E-02  3.80567E+00  7.42461E+00  2.86225E-01  1.31851E-02  2.82794E+00 -8.79107E-02 -1.75665E+00 -1.96213E-01 -1.35916E-02
  -8.71740E-01  5.14741E+00  1.05847E+00  5.34933E+00  2.66544E+00  5.01335E+00  1.03844E+00  1.91113E-01  6.83416E+00  7.89803E-01
  -5.83560E+00 -1.52392E+00 -2.03201E-01  1.38961E+00  4.53894E+00  6.00509E+00  1.31625E+01  1.39593E+01  1.00265E+01  2.41847E+00
   5.29934E+00 -1.21761E-01  6.76870E+00  2.55881E+00  5.39487E+00  8.31694E+00  1.72794E+00  3.34270E+00  3.47347E+00  4.24968E+00
   9.86560E+00  2.03308E+00  1.58740E-01  1.04188E+01 -2.00649E+00  7.26671E+00  5.53638E+00  2.99153E+00  1.00582E+01  5.85415E-02
   1.31672E+00 -1.11681E+00  4.29365E+00  3.17657E+00  8.41192E+00 -7.92265E+00  1.38442E+00 -2.04683E-01  2.51545E+00  3.93331E+00
   7.04922E-01  9.18154E+00  3.05703E+00  6.47688E+00  7.31301E+00  1.06630E+01  6.44156E+00  9.05944E-01  2.81951E+00 -3.83082E+00
   1.64262E+00  1.28169E+00  1.48078E+00  4.26484E+00 -9.54660E-01  1.62016E+00 -3.82348E+00  3.26713E+00  1.06639E+00  1.85411E+00
   5.56089E+00  3.59239E+00  1.27729E+00  7.47379E+00  3.62439E+00  1.00185E+00 -5.82379E-01 -1.52224E+00  1.95879E+00  1.83275E+00
   9.27665E+00  5.26105E+00  1.22008E+00  4.68108E-01  5.47512E+00  1.11061E+00 -9.16766E-01  6.77961E+00 -4.02538E+00  4.40859E+00
  -8.29248E-01 -7.32942E-01 -2.24826E+00 -1.80435E-01 -2.95093E+00  3.72338E+00  6.96768E+00  7.95274E-01  2.87389E+00  1.90252E+00
   9.00149E-01  5.65239E+00  4.50598E+00 -1.60585E+00  6.78814E+00  7.12541E+00  4.15134E+00  2.10077E+00  6.26288E+00  6.06213E+00
  -1.43203E+00  3.16479E+00 -1.25963E+00  4.09795E-01 -9.83752E-01  1.28782E+01  2.35903E+00  5.29095E+00  1.28253E+00  9.27121E-01
   4.53821E-01 -7.19097E-01  3.38063E+00  7.46038E+00 -8.11040E-01 -3.34847E+00 -1.45649E+00 -1.08466E+00  3.85650E+00  6.66731E+00
   2.11342E+00  5.54095E+00  2.50384E+00  2.06251E+00  1.20970E+00  2.91520E+00  6.12628E+00  8.79006E+00  4.47340E+00  1.05751E+01
   8.30353E+00  1.21018E+01  1.78845E+00  4.96065E+00  1.18366E+01  9.78418E+00  1.27871E+01  1.81984E+01  1.37144E+01  1.82739E+01
   2.73935E+01  1.85523E+01  2.17798E+01  3.93701E+00 -1.83918E+00  3.99019E+00 -2.43487E-01  7.94123E+00  4.43159E+00  3.70710E+00
   4.08788E+00  4.41522E+00  5.77713E+00  3.90822E+00  9.98831E+00  3.62706E+00 -5.15255E-01  1.10989E+01  1.43429E+00  1.34873E+01
   1.17141E+01  1.18942E+01  1.08759E+01  1.24244E+01  4.29457E+00  1.29069E+01  9.30936E+00  6.69633E+00  7.55761E+00  8.82631E+00
   1.87225E+01  1.28754E+01  1.94037E+01  1.62587E+01  2.14861E+01  2.32860E+01  1.80264E+01  1.94324E+01  2.50040E+01  2.70305E+01
   3.43546E+01  3.41463E+01  3.41598E+01  2.57961E+01  3.52137E+01  3.37001E+01  3.25377E+01  3.63134E+01  3.44065E+01  3.55512E+01
   4.88755E+01  4.77858E+01  4.70677E+01  4.96693E+01  5.75903E+01  5.09190E+01  4.77125E+01  5.46854E+01  4.98196E+01  5.29480E+01
   5.48031E+01  5.80761E+01  5.56291E+01  5.57692E+01  5.47293E+01  5.99468E+01  5.42034E+01  5.55243E+01  4.68345E+01  4.94907E+01
   5.12278E+01  5.11499E+01  4.71006E+01  4.75698E+01  4.46180E+01  4.65303E+01  4.80852E+01  4.72013E+01  5.60334E+01  4.17162E+01
   5.04439E+01  5.13097E+01  4.43517E+01  4.74775E+01  5.49700E+01  5.09174E+01  5.48283E+01  4.68048E+01  5.56388E+01  4.82088E+01
   4.55812E+01  4.19344E+01  3.90747E+01  4.57177E+01  4.12604E+01  3.29432E+01  3.26764E+01  2.62108E+01  3.34725E+01  3.26530E+01
   2.46878E+01  1.95670E+01  1.86877E+01  1.79020E+01  1.90512E+01  1.53332E+01  1.97190E+01  1.42681E+01  2.05371E+01  1.88920E+01
   2.34045E+01  1.96964E+01  1.83925E+01  1.42145E+01  1.39994E+01  1.75628E+01  1.98222E+01  1.87877E+01  2.02230E+01  1.94968E+01
   1.03557E+01  1.71388E+01  1.91017E+01  1.72103E+01  8.28907E+00  1.55535E+01  1.49426E+01  1.44067E+01  1.03243E+01  8.09837E+00
   1.18249E+01  8.90082E+00  1.30371E+01  1.58078E+01  1.73800E+01  1.19899E+01  1.88870E+01  1.98498E+01  1.27620E+01  1.55377E+01
   1.70704E+01  1.27444E+01  1.76180E+01  1.74727E+01  1.12763E+01  1.33906E+01  6.02958E+00  6.67797E+00  1.24713E+01  9.90440E+00
   1.37651E+01  8.96770E+00  8.46559E+00  7.48899E+00  5.13820E-03  6.63489E+00  6.57890E+00  9.88898E+00  1.24766E+01  1.46367E+01
   1.31623E+01  6.78484E+00  7.15211E+00  3.52137E+00  9.20373E+00  9.26046E+00  5.24647E+00  8.74741E+00  4.54919E+00  2.89175E+00
   2.59078E-01  3.19772E+00  7.63745E+00 -2.90590E+00  3.54966E+00  9.27038E+00 -6.76127E-01  4.14703E+00  7.80969E+00  8.17384E+00
   3.35600E+00 -2.46931E+00  4.67241E+00  5.49750E+00  3.51456E+00 -2.54625E+00  5.07314E+00  2.91960E+00  1.77354E+00  1.88043E+00
   1.09171E+00  1.86986E+00  3.51147E-01  6.88263E+00 -2.11312E+00  3.20405E+00  8.63643E+00 -2.81593E+00  6.14063E-02  9.63055E-01
   6.70431E-01  3.82942E+00  7.05280E+00 -9.75322E-01  5.63621E+00 -3.13986E+00  7.51746E+00  2.50426E-01 -1.12583E+00  2.26447E+00
   5.04163E+00 -3.56284E+00 -4.99626E-01 -3.14957E-01  7.17153E-02  1.00807E+00  4.79976E-03  8.59795E-01 -4.35301E-01  6.73914E-01
   3.34598E+00  6.77630E+00  2.56328E+00 -4.39367E-01  5.59446E-01  6.31825E+00  3.11566E+00 -3.31900E+00  5.32207E+00  2.06751E+00
   1.38296E+00  6.86716E+00 -2.18421E+00  2.52728E+00  3.37209E+00  3.78361E+00  3.39602E-01 -3.33127E+00
 NY points of the fit to the data follow
   5.95851E+00  6.42617E+00  5.58241E+00  6.06936E+00  5.36608E+00  6.08392E+00  5.72477E+00  6.93572E+00  6.44804E+00  7.75483E+00
   6.75921E+00  7.95204E+00  6.38422E+00  7.52785E+00  5.36353E+00  6.95708E+00  4.77775E+00  6.90953E+00  4.85424E+00  7.34084E+00
   5.29269E+00  7.89305E+00  5.69552E+00  8.00189E+00  5.72980E+00  7.56950E+00  5.46000E+00  6.86223E+00  5.24695E+00  6.31522E+00
   5.44315E+00  6.20138E+00  6.08115E+00  6.39705E+00  6.85087E+00  6.51526E+00  7.33632E+00  6.33830E+00  7.39367E+00  5.87446E+00
   7.06840E+00  5.46048E+00  7.03772E+00  5.56793E+00  7.41720E+00  6.18490E+00  8.07917E+00  7.08110E+00  8.27785E+00  6.92991E+00
   7.50843E+00  6.07974E+00  6.30880E+00  5.08713E+00  5.17513E+00  4.66343E+00  5.12843E+00  4.96099E+00  5.42216E+00  5.36743E+00
   5.70775E+00  5.63906E+00  5.74561E+00  5.52280E+00  5.59397E+00  5.35696E+00  5.44235E+00  5.22710E+00  5.34685E+00  5.16767E+00
   5.31727E+00  5.11399E+00  5.22031E+00  4.97203E+00  5.03818E+00  4.76279E+00  4.80218E+00  4.51698E+00  4.54690E+00  4.26597E+00
   4.28207E+00  4.01368E+00  4.02400E+00  3.76000E+00  3.75402E+00  3.48324E+00  3.45268E+00  3.18862E+00  3.14651E+00  2.90936E+00
   2.87129E+00  2.67050E+00  2.64171E+00  2.47606E+00  2.46371E+00  2.32918E+00  2.32098E+00  2.21470E+00  2.21100E+00  2.13334E+00
   2.13619E+00  2.08671E+00  2.09587E+00  2.07073E+00  2.08655E+00  2.07943E+00  2.10063E+00  2.10839E+00  2.14652E+00  2.22458E+00
   2.30388E+00  2.43023E+00  2.55891E+00  2.71958E+00  2.89828E+00  3.09230E+00  3.33200E+00  3.53285E+00  3.80296E+00  3.98294E+00
   4.24886E+00  4.39147E+00  4.65934E+00  4.75258E+00  5.03773E+00  5.06101E+00  5.35655E+00  5.28697E+00  5.58140E+00  5.40385E+00
   5.68205E+00  5.40232E+00  5.65712E+00  5.29185E+00  5.52124E+00  5.09006E+00  5.28957E+00  4.80748E+00  4.97928E+00  4.47152E+00
   4.61841E+00  4.11289E+00  4.22527E+00  3.74422E+00  3.82023E+00  3.38840E+00  3.43417E+00  3.07939E+00  3.11136E+00  2.86920E+00
   2.89524E+00  2.69303E+00  2.68567E+00  2.52464E+00  2.49199E+00  2.37557E+00  2.32543E+00  2.22622E+00  2.13498E+00  2.05207E+00
   1.93578E+00  1.87529E+00  1.76405E+00  1.72431E+00  1.62769E+00  1.59564E+00  1.51547E+00  1.48459E+00  1.41906E+00  1.38895E+00
   1.33809E+00  1.31154E+00  1.28589E+00  1.27366E+00  1.28592E+00  1.28349E+00  1.30532E+00  1.30493E+00  1.30374E+00  1.29771E+00
   1.24895E+00  1.25799E+00  1.18175E+00  1.25183E+00  1.18651E+00  1.33770E+00  1.28250E+00  1.54074E+00  1.48075E+00  1.81413E+00
   1.68479E+00  2.02689E+00  1.67614E+00  2.07689E+00  1.54236E+00  2.05115E+00  1.40731E+00  2.09381E+00  1.50308E+00  2.39716E+00
   1.79200E+00  2.82652E+00  2.11732E+00  3.19000E+00  2.24462E+00  3.23363E+00  2.13385E+00  3.12576E+00  1.97143E+00  3.02939E+00
   1.92140E+00  3.04261E+00  2.01846E+00  3.12966E+00  2.14332E+00  3.17335E+00  2.17198E+00  3.07488E+00  2.04514E+00  2.88853E+00
   1.93569E+00  2.80576E+00  2.03622E+00  2.97438E+00  2.37087E+00  3.25276E+00  2.76277E+00  3.54038E+00  3.12903E+00  3.72688E+00
   3.35489E+00  3.77775E+00  3.42867E+00  3.76732E+00  3.59111E+00  3.88220E+00  3.94702E+00  4.25211E+00  4.74459E+00  4.97577E+00
   5.64793E+00  5.66189E+00  6.45957E+00  6.24230E+00  7.13031E+00  6.72656E+00  7.81655E+00  7.38995E+00  8.62537E+00  8.17593E+00
   9.48511E+00  8.98511E+00  1.02666E+01  9.68586E+00  1.08343E+01  1.01999E+01  1.11643E+01  1.05041E+01  1.12170E+01  1.06035E+01
   1.10774E+01  1.05174E+01  1.07362E+01  1.02117E+01  1.01785E+01  9.64576E+00  9.43203E+00  8.95289E+00  8.61862E+00  8.20580E+00
   7.80214E+00  7.47294E+00  7.03823E+00  6.80525E+00  6.40655E+00  6.30445E+00  6.03060E+00  6.07573E+00  6.03694E+00  6.16434E+00
   6.24772E+00  6.45442E+00  6.73520E+00  7.09825E+00  7.62153E+00  8.19058E+00  8.98953E+00  9.80872E+00  1.08749E+01  1.19690E+01
   1.32924E+01  1.46277E+01  1.61479E+01  1.76458E+01  1.92562E+01  2.07964E+01  2.23670E+01  2.38066E+01  2.51913E+01  2.64007E+01
   2.75063E+01  2.84373E+01  2.92722E+01  2.99988E+01  3.07278E+01  3.15218E+01  3.25679E+01  3.41198E+01  3.68041E+01  4.08684E+01
   4.32445E+01  4.79280E+01  4.87940E+01  5.30384E+01  5.17403E+01  5.46475E+01  5.05325E+01  5.44276E+01  4.99007E+01  5.50255E+01
   5.05904E+01  5.62693E+01  5.15972E+01  5.68877E+01  5.18043E+01  5.60976E+01  5.07263E+01  5.36988E+01  4.89255E+01  5.13415E+01
   4.78951E+01  4.93547E+01  4.77313E+01  4.81556E+01  4.84551E+01  4.73308E+01  4.89880E+01  4.67456E+01  4.96831E+01  4.64244E+01
   5.03438E+01  4.64301E+01  5.11059E+01  4.69195E+01  5.21133E+01  4.79594E+01  5.32316E+01  4.93406E+01  5.41119E+01  5.06420E+01
   5.23911E+01  4.71743E+01  4.66445E+01  4.08604E+01  3.88425E+01  3.33381E+01  3.08011E+01  2.76987E+01  2.68694E+01  2.46705E+01
   2.43765E+01  2.26508E+01  2.26153E+01  2.13002E+01  2.14281E+01  2.04826E+01  2.06938E+01  2.00638E+01  2.02680E+01  1.98913E+01
   1.96155E+01  1.85869E+01  1.79260E+01  1.65876E+01  1.57129E+01  1.43884E+01  1.35252E+01  1.29552E+01  1.25532E+01  1.22725E+01
   1.20885E+01  1.19885E+01  1.19627E+01  1.20049E+01  1.21086E+01  1.22686E+01  1.24777E+01  1.27297E+01  1.30157E+01  1.33275E+01
   1.36543E+01  1.39860E+01  1.43103E+01  1.46160E+01  1.48908E+01  1.51241E+01  1.53049E+01  1.54251E+01  1.54766E+01  1.54552E+01
   1.53572E+01  1.51831E+01  1.49341E+01  1.46151E+01  1.42317E+01  1.37923E+01  1.33054E+01  1.27818E+01  1.22309E+01  1.16636E+01
   1.10890E+01  1.05167E+01  9.95391E+00  9.40810E+00  8.88395E+00  8.38628E+00  7.91729E+00  7.47942E+00  7.07275E+00  6.69785E+00
   6.35324E+00  6.03829E+00  5.75066E+00  5.48911E+00  5.25093E+00  5.03471E+00  4.83771E+00  4.65868E+00  4.49508E+00  4.34595E+00
   4.20902E+00  4.08362E+00  3.96778E+00  3.86114E+00  3.76202E+00  3.67028E+00  3.58446E+00  3.50461E+00  3.42945E+00  3.35919E+00
   3.29269E+00  3.23028E+00  3.17088E+00  3.11492E+00  3.06141E+00  3.01084E+00  2.96229E+00  2.91629E+00  2.87194E+00  2.82980E+00
   2.78904E+00  2.75025E+00  2.71261E+00  2.67672E+00  2.64177E+00  2.60841E+00  2.57584E+00  2.54471E+00  2.51425E+00  2.48510E+00
   2.45650E+00  2.42911E+00  2.40218E+00  2.37638E+00  2.35097E+00  2.32660E+00  2.30254E+00  2.27948E+00  2.25667E+00  2.23480E+00
   2.21314E+00  2.19237E+00  2.17176E+00  2.15200E+00  2.13238E+00  2.11358E+00  2.09488E+00  2.07696E+00  2.05914E+00  2.04208E+00
   2.02510E+00  2.00887E+00  1.99270E+00  1.97727E+00  1.96191E+00  1.94730E+00  1.93276E+00  1.91897E+00  1.90528E+00  1.89237E+00
   1.87960E+00  1.86766E+00  1.85593E+00  1.84513E+00  1.83464E+00  1.82526E+00  1.81641E+00  1.80896E+00
 NY background values follow
     3.680E+00    3.676E+00    3.672E+00    3.668E+00    3.663E+00    3.659E+00    3.655E+00    3.651E+00    3.647E+00    3.643E+00
     3.639E+00    3.634E+00    3.630E+00    3.626E+00    3.622E+00    3.618E+00    3.614E+00    3.609E+00    3.605E+00    3.601E+00
     3.597E+00    3.593E+00    3.589E+00    3.584E+00    3.580E+00    3.576E+00    3.572E+00    3.568E+00    3.564E+00    3.559E+00
     3.555E+00    3.551E+00    3.547E+00    3.543E+00    3.539E+00    3.534E+00    3.530E+00    3.526E+00    3.522E+00    3.518E+00
     3.513E+00    3.509E+00    3.505E+00    3.501E+00    3.497E+00    3.492E+00    3.488E+00    3.484E+00    3.480E+00    3.476E+00
     3.471E+00    3.467E+00    3.463E+00    3.459E+00    3.455E+00    3.450E+00    3.446E+00    3.442E+00    3.438E+00    3.434E+00
     3.429E+00    3.425E+00    3.421E+00    3.417E+00    3.412E+00    3.408E+00    3.404E+00    3.400E+00    3.396E+00    3.391E+00
     3.387E+00    3.383E+00    3.379E+00    3.374E+00    3.370E+00    3.366E+00    3.362E+00    3.357E+00    3.353E+00    3.349E+00
     3.345E+00    3.340E+00    3.336E+00    3.332E+00    3.328E+00    3.323E+00    3.319E+00    3.315E+00    3.311E+00    3.306E+00
     3.302E+00    3.298E+00    3.294E+00    3.289E+00    3.285E+00    3.281E+00    3.277E+00    3.272E+00    3.268E+00    3.264E+00
     3.260E+00    3.255E+00    3.251E+00    3.247E+00    3.243E+00    3.238E+00    3.234E+00    3.230E+00    3.225E+00    3.221E+00
     3.217E+00    3.213E+00    3.208E+00    3.204E+00    3.200E+00    3.195E+00    3.191E+00    3.187E+00    3.183E+00    3.178E+00
     3.174E+00    3.170E+00    3.165E+00    3.161E+00    3.157E+00    3.153E+00    3.148E+00    3.144E+00    3.140E+00    3.135E+00
     3.131E+00    3.127E+00    3.123E+00    3.118E+00    3.114E+00    3.110E+00    3.105E+00    3.101E+00    3.097E+00    3.092E+00
     3.088E+00    3.084E+00    3.080E+00    3.075E+00    3.071E+00    3.067E+00    3.062E+00    3.058E+00    3.054E+00    3.049E+00
     3.045E+00    3.041E+00    3.036E+00    3.032E+00    3.028E+00    3.023E+00    3.019E+00    3.015E+00    3.010E+00    3.006E+00
     3.002E+00    2.997E+00    2.993E+00    2.989E+00    2.984E+00    2.980E+00    2.976E+00    2.971E+00    2.967E+00    2.963E+00
     2.958E+00    2.954E+00    2.950E+00    2.945E+00    2.941E+00    2.937E+00    2.932E+00    2.928E+00    2.924E+00    2.919E+00
     2.915E+00    2.911E+00    2.906E+00    2.902E+00    2.898E+00    2.893E+00    2.889E+00    2.885E+00    2.880E+00    2.876E+00
     2.872E+00    2.867E+00    2.863E+00    2.858E+00    2.854E+00    2.850E+00    2.845E+00    2.841E+00    2.837E+00    2.832E+00
     2.828E+00    2.824E+00    2.819E+00    2.815E+00    2.810E+00    2.806E+00    2.802E+00    2.797E+00    2.793E+00    2.789E+00
     2.784E+00    2.780E+00    2.775E+00    2.771E+00    2.767E+00    2.762E+00    2.758E+00    2.754E+00    2.749E+00    2.745E+00
     2.740E+00    2.736E+00    2.732E+00    2.727E+00    2.723E+00    2.718E+00    2.714E+00    2.710E+00    2.705E+00    2.701E+00
     2.697E+00    2.692E+00    2.688E+00    2.683E+00    2.679E+00    2.675E+00    2.670E+00    2.666E+00    2.661E+00    2.657E+00
     2.653E+00    2.648E+00    2.644E+00    2.639E+00    2.635E+00    2.630E+00    2.626E+00    2.622E+00    2.617E+00    2.613E+00
     2.608E+00    2.604E+00    2.600E+00    2.595E+00    2.591E+00    2.586E+00    2.582E+00    2.577E+00    2.573E+00    2.569E+00
     2.564E+00    2.560E+00    2.555E+00    2.551E+00    2.547E+00    2.542E+00    2.538E+00    2.533E+00    2.529E+00    2.524E+00
     2.520E+00    2.515E+00    2.511E+00    2.507E+00    2.502E+00    2.498E+00    2.493E+00    2.489E+00    2.484E+00    2.480E+00
     2.476E+00    2.471E+00    2.467E+00    2.462E+00    2.458E+00    2.453E+00    2.449E+00    2.444E+00    2.440E+00    2.435E+00
     2.431E+00    2.427E+00    2.422E+00    2.418E+00    2.413E+00    2.409E+00    2.404E+00    2.400E+00    2.395E+00    2.391E+00
     2.386E+00    2.382E+00    2.377E+00    2.373E+00    2.368E+00    2.364E+00    2.360E+00    2.355E+00    2.351E+00    2.346E+00
     2.342E+00    2.337E+00    2.333E+00    2.328E+00    2.324E+00    2.319E+00    2.315E+00    2.310E+00    2.306E+00    2.301E+00
     2.297E+00    2.292E+00    2.288E+00    2.283E+00    2.279E+00    2.274E+00    2.270E+00    2.265E+00    2.261E+00    2.256E+00
     2.252E+00    2.247E+00    2.243E+00    2.238E+00    2.234E+00    2.229E+00    2.225E+00    2.220E+00    2.216E+00    2.211E+00
     2.207E+00    2.202E+00    2.198E+00    2.193E+00    2.189E+00    2.184E+00    2.180E+00    2.175E+00    2.171E+00    2.166E+00
     2.162E+00    2.157E+00    2.153E+00    2.148E+00    2.143E+00    2.139E+00    2.134E+00    2.130E+00    2.125E+00    2.121E+00
     2.116E+00    2.112E+00    2.107E+00    2.103E+00    2.098E+00    2.094E+00    2.089E+00    2.084E+00    2.080E+00    2.075E+00
     2.071E+00    2.066E+00    2.062E+00    2.057E+00    2.053E+00    2.048E+00    2.044E+00    2.039E+00    2.034E+00    2.030E+00
     2.025E+00    2.021E+00    2.016E+00    2.012E+00    2.007E+00    2.002E+00    1.998E+00    1.993E+00    1.989E+00    1.984E+00
     1.980E+00    1.975E+00    1.970E+00    1.966E+00    1.961E+00    1.957E+00    1.952E+00    1.948E+00    1.943E+00    1.938E+00
     1.934E+00    1.929E+00    1.925E+00    1.920E+00    1.915E+00    1.911E+00    1.906E+00    1.902E+00    1.897E+00    1.893E+00
     1.888E+00    1.883E+00    1.879E+00    1.874E+00    1.870E+00    1.865E+00    1.860E+00    1.856E+00    1.851E+00    1.847E+00
     1.842E+00    1.837E+00    1.833E+00    1.828E+00    1.824E+00    1.819E+00    1.814E+00    1.810E+00    1.805E+00    1.801E+00
     1.796E+00    1.791E+00    1.787E+00    1.782E+00    1.777E+00    1.773E+00    1.768E+00    1.764E+00    1.759E+00    1.754E+00
     1.750E+00    1.745E+00    1.741E+00    1.736E+00    1.731E+00    1.727E+00    1.722E+00    1.717E+00    1.713E+00    1.708E+00
     1.704E+00    1.699E+00    1.694E+00    1.690E+00    1.685E+00    1.680E+00    1.676E+00    1.671E+00    1.667E+00    1.662E+00
     1.657E+00    1.653E+00    1.648E+00    1.643E+00    1.639E+00    1.634E+00    1.630E+00    1.625E+00    1.620E+00    1.616E+00
     1.611E+00    1.606E+00    1.602E+00    1.597E+00    1.593E+00    1.588E+00    1.583E+00    1.579E+00    1.574E+00    1.569E+00
     1.565E+00    1.560E+00    1.555E+00    1.551E+00    1.546E+00    1.542E+00    1.537E+00    1.532E+00    1.528E+00    1.523E+00
     1.518E+00    1.514E+00    1.509E+00    1.504E+00    1.500E+00    1.495E+00    1.491E+00    1.486E+00
 Ala      Conc. = 1.83E+04
