 LCModel (Version 6.3-1L) Copyright: S.W. Provencher.          Ref.: Magn. Reson. Med. 30:672-679 (1993).                
 Slice#2 Row#6 Col#2  PD_05_press_2_raw_act
 36 lines in following concentration table = NCONC+1
    Conc.  %SD /Cr+PCr  Metabolite                                         
  553.814  47%   0.164 Ala                                                 
    0.000 999%   0.000 Asp                                                 
 2.88E+03  17%   0.850 Cr                                                  
  507.499  97%   0.150 PCr                                                 
  240.715 155% 7.1E-02 GABA                                                
    0.000 999%   0.000 Glc                                                 
 1.01E+03  55%   0.299 Gln                                                 
 3.41E+03  19%   1.008 Glu                                                 
 1.03E+03   5%   0.304 GPC                                                 
    0.000 999%   0.000 PCh                                                 
 1.36E+03  13%   0.403 GSH                                                 
 2.49E+03  24%   0.736 Ins                                                 
    0.000 999%   0.000 Lac                                                 
 5.79E+03   5%   1.711 NAA                                                 
 1.01E+03  32%   0.300 NAAG                                                
  121.388  49% 3.6E-02 Scyllo                                              
    0.000 999%   0.000 Tau                                                 
    0.000 999%   0.000 -CrCH2                                              
 1.03E+03   5%   0.304 GPC+PCh                                             
 6.80E+03   3%   2.010 NAA+NAAG                                            
 3.38E+03   4%   1.000 Cr+PCr                                              
 4.42E+03  21%   1.307 Glu+Gln                                             
 3.17E+03  31%   0.937 Lip13a                                              
  491.221  83%   0.145 Lip13b                                              
    0.000 999%   0.000 Lip09                                               
 2.36E+03  17%   0.697 MM09                                                
 1.07E+03  38%   0.318 Lip20                                               
 5.38E+03  13%   1.589 MM20                                                
  744.688  27%   0.220 MM12                                                
  784.426  71%   0.232 MM14                                                
  912.100  39%   0.270 MM17                                                
 3.66E+03  22%   1.082 Lip13a+Lip13b                                       
 5.19E+03  15%   1.535 MM14+Lip13a+Lip13b+MM12                             
 2.36E+03  17%   0.697 MM09+Lip09                                          
 6.45E+03  11%   1.907 MM20+Lip20                                          
   6 lines in following misc. output table
  FWHM = 0.054 ppm    S/N =  14                                            
  Data shift = 0.008 ppm                                                   
  Ph: -14 deg      -0.9 deg/ppm                                            
  alphaB,S = 1.1E+00,   1.0E+02                                            
   14 spline knots.   Ns = 7(1)                                            
  (13) 5 infls.   (13) 1 extrs.                                            
  498 points on ppm-axis = NY
      4.000000     3.992357     3.984714     3.977070     3.969427     3.961784     3.954141     3.946497     3.938854     3.931211
      3.923568     3.915925     3.908281     3.900638     3.892995     3.885352     3.877708     3.870065     3.862422     3.854779
      3.847136     3.839492     3.831849     3.824206     3.816563     3.808919     3.801276     3.793633     3.785990     3.778347
      3.770703     3.763060     3.755417     3.747774     3.740130     3.732487     3.724844     3.717201     3.709558     3.701914
      3.694271     3.686628     3.678985     3.671341     3.663698     3.656055     3.648412     3.640769     3.633125     3.625482
      3.617839     3.610196     3.602552     3.594909     3.587266     3.579623     3.571980     3.564336     3.556693     3.549050
      3.541407     3.533763     3.526120     3.518477     3.510834     3.503191     3.495547     3.487904     3.480261     3.472618
      3.464974     3.457331     3.449688     3.442045     3.434402     3.426758     3.419115     3.411472     3.403829     3.396185
      3.388542     3.380899     3.373256     3.365613     3.357969     3.350326     3.342683     3.335040     3.327396     3.319753
      3.312110     3.304467     3.296824     3.289180     3.281537     3.273894     3.266251     3.258607     3.250964     3.243321
      3.235678     3.228034     3.220391     3.212748     3.205105     3.197462     3.189818     3.182175     3.174532     3.166889
      3.159245     3.151602     3.143959     3.136316     3.128673     3.121029     3.113386     3.105743     3.098100     3.090456
      3.082813     3.075170     3.067527     3.059884     3.052240     3.044597     3.036954     3.029311     3.021667     3.014024
      3.006381     2.998738     2.991095     2.983451     2.975808     2.968165     2.960522     2.952878     2.945235     2.937592
      2.929949     2.922306     2.914662     2.907019     2.899376     2.891733     2.884089     2.876446     2.868803     2.861160
      2.853517     2.845873     2.838230     2.830587     2.822944     2.815300     2.807657     2.800014     2.792371     2.784728
      2.777084     2.769441     2.761798     2.754155     2.746511     2.738868     2.731225     2.723582     2.715939     2.708295
      2.700652     2.693009     2.685366     2.677722     2.670079     2.662436     2.654793     2.647150     2.639506     2.631863
      2.624220     2.616577     2.608933     2.601290     2.593647     2.586004     2.578361     2.570717     2.563074     2.555431
      2.547788     2.540144     2.532501     2.524858     2.517215     2.509572     2.501928     2.494285     2.486642     2.478999
      2.471355     2.463712     2.456069     2.448426     2.440783     2.433139     2.425496     2.417853     2.410210     2.402566
      2.394923     2.387280     2.379637     2.371994     2.364350     2.356707     2.349064     2.341421     2.333777     2.326134
      2.318491     2.310848     2.303205     2.295561     2.287918     2.280275     2.272632     2.264988     2.257345     2.249702
      2.242059     2.234416     2.226772     2.219129     2.211486     2.203843     2.196199     2.188556     2.180913     2.173270
      2.165627     2.157983     2.150340     2.142697     2.135054     2.127410     2.119767     2.112124     2.104481     2.096838
      2.089194     2.081551     2.073908     2.066265     2.058621     2.050978     2.043335     2.035692     2.028049     2.020405
      2.012762     2.005119     1.997476     1.989833     1.982190     1.974546     1.966903     1.959260     1.951617     1.943974
      1.936331     1.928688     1.921045     1.913402     1.905759     1.898115     1.890472     1.882829     1.875186     1.867543
      1.859900     1.852257     1.844614     1.836971     1.829327     1.821684     1.814041     1.806398     1.798755     1.791112
      1.783469     1.775826     1.768183     1.760540     1.752896     1.745253     1.737610     1.729967     1.722324     1.714681
      1.707038     1.699395     1.691752     1.684108     1.676465     1.668822     1.661179     1.653536     1.645893     1.638250
      1.630607     1.622964     1.615321     1.607677     1.600034     1.592391     1.584748     1.577105     1.569462     1.561819
      1.554176     1.546533     1.538890     1.531246     1.523603     1.515960     1.508317     1.500674     1.493031     1.485388
      1.477745     1.470102     1.462458     1.454815     1.447172     1.439529     1.431886     1.424243     1.416600     1.408957
      1.401314     1.393671     1.386027     1.378384     1.370741     1.363098     1.355455     1.347812     1.340169     1.332526
      1.324883     1.317240     1.309596     1.301953     1.294310     1.286667     1.279024     1.271381     1.263738     1.256095
      1.248452     1.240808     1.233165     1.225522     1.217879     1.210236     1.202593     1.194950     1.187307     1.179664
      1.172021     1.164377     1.156734     1.149091     1.141448     1.133805     1.126162     1.118519     1.110876     1.103233
      1.095590     1.087946     1.080303     1.072660     1.065017     1.057374     1.049731     1.042088     1.034445     1.026802
      1.019158     1.011515     1.003872     0.996229     0.988586     0.980943     0.973300     0.965657     0.958014     0.950371
      0.942727     0.935084     0.927441     0.919798     0.912155     0.904512     0.896869     0.889226     0.881583     0.873940
      0.866296     0.858653     0.851010     0.843367     0.835724     0.828081     0.820438     0.812795     0.805152     0.797508
      0.789865     0.782222     0.774579     0.766936     0.759293     0.751650     0.744007     0.736364     0.728721     0.721077
      0.713434     0.705791     0.698148     0.690505     0.682862     0.675219     0.667576     0.659933     0.652290     0.644646
      0.637003     0.629360     0.621717     0.614074     0.606431     0.598788     0.591145     0.583502     0.575858     0.568215
      0.560572     0.552929     0.545286     0.537643     0.530000     0.522357     0.514714     0.507071     0.499427     0.491784
      0.484141     0.476498     0.468855     0.461212     0.453569     0.445925     0.438282     0.430639     0.422996     0.415353
      0.407710     0.400067     0.392424     0.384780     0.377137     0.369494     0.361851     0.354208     0.346565     0.338922
      0.331278     0.323635     0.315992     0.308349     0.300706     0.293063     0.285420     0.277777     0.270133     0.262490
      0.254847     0.247204     0.239561     0.231918     0.224275     0.216631     0.208988     0.201345
 NY phased data points follow
   2.29204E+01  3.26028E+01  1.85415E+01  4.76505E+01  3.65005E+01  4.91202E+01  4.83857E+01  6.89177E+01  7.00527E+01  8.72550E+01
   9.24419E+01  1.07274E+02  9.41496E+01  9.43037E+01  8.47875E+01  6.93268E+01  6.16006E+01  6.13348E+01  4.04505E+01  5.06232E+01
   3.59871E+01  4.45067E+01  3.24614E+01  4.91316E+01  3.80800E+01  4.88286E+01  4.27131E+01  5.38732E+01  4.68468E+01  4.78529E+01
   4.88583E+01  4.98682E+01  4.44973E+01  5.80291E+01  3.28413E+01  3.10383E+01  4.15245E+01  3.75242E+01  2.88208E+01  2.96528E+01
   3.13426E+01  4.09333E+01  3.49176E+01  3.85309E+01  4.50301E+01  4.32511E+01  4.80806E+01  3.93204E+01  4.66839E+01  3.74348E+01
   3.62327E+01  3.93096E+01  2.42232E+01  3.08733E+01  3.24405E+01  3.73845E+01  3.45575E+01  3.23562E+01  3.41846E+01  2.69346E+01
   1.90130E+01  1.74194E+01  1.50533E+01  1.57828E+01 -1.31520E+00  1.00342E+01  2.17049E+00  1.15938E+01  8.01705E+00  4.99295E+00
   3.12950E+00  1.28447E+01  1.65948E+01  7.17451E+00  5.05430E+00  2.50313E+00  1.35487E+01  1.32542E+01  6.29967E+00  1.07172E+01
   7.78763E+00  4.30832E+00 -4.97478E+00  1.13275E+01  8.06992E+00  1.37445E+01  1.89571E+01  1.11278E+01  1.15638E+01  1.30843E+01
   7.78092E+00  9.52165E+00  1.22748E+01  1.71490E+01  1.40122E+01  1.07835E+01  1.84152E+01  3.06009E+01  2.95744E+01  4.64326E+01
   5.45460E+01  7.71350E+01  9.07160E+01  9.34781E+01  8.94703E+01  8.89058E+01  5.90673E+01  5.82275E+01  3.27314E+01  3.07930E+01
   1.41054E+01  2.07739E+01  1.36296E+01  2.22567E+01  1.57866E+01  1.71314E+01  7.56110E+00  2.23769E+01 -4.66345E-01  1.56691E+01
   1.70618E+01  2.20086E+01  3.09760E+01  3.27103E+01  6.90187E+01  8.84586E+01  1.01258E+02  1.09449E+02  1.03894E+02  1.05636E+02
   8.33710E+01  7.17320E+01  4.47805E+01  3.36167E+01  3.38008E+01  2.99666E+01  1.54257E+01  1.15460E+01  1.11967E+01  5.17822E+00
   1.25611E+01  4.93474E+00  8.87744E+00  7.10072E+00 -1.51129E+00  8.30749E+00  1.49964E+01  7.65968E+00  6.29801E-01  5.38241E+00
   8.32435E+00  9.63904E+00  1.74479E+00  4.10069E+00 -1.59306E+00  1.18822E+00 -9.37564E+00 -8.40738E-02 -3.68608E-01 -7.96246E+00
  -2.57983E+00 -1.21374E+01 -7.82775E+00 -2.17103E+00 -8.20459E+00  6.49210E+00 -8.44874E+00 -7.26636E+00 -7.70390E+00 -5.40012E+00
  -2.02466E+01 -1.28861E+01 -2.60480E+01 -2.60490E+01 -2.79773E+01 -4.16325E+01 -3.28321E+01 -3.79857E+01 -3.64635E+01 -2.79020E+01
  -3.60140E+01 -3.17864E+01 -3.60701E+01 -3.33023E+01 -2.60495E+01 -2.31122E+01 -3.75605E+01 -1.58229E+01 -1.23352E+01 -5.40402E+00
  -7.02116E+00  8.32121E+00  1.00138E+01  7.03362E+00  3.71241E+00  5.45383E+00  3.63707E+00 -2.40649E-01 -5.79797E+00 -2.91565E+00
  -1.79553E+01 -2.21033E+00 -3.06341E+00 -7.98687E+00 -7.26215E+00  3.60333E+00 -2.68208E+00 -1.12928E+01 -7.64257E+00 -7.46567E+00
  -1.47079E+01 -6.73716E+00 -5.07880E+00  1.77880E+00  9.81713E-01  2.10342E+01  7.89809E+00  1.47636E+01  1.77562E+01  6.93315E+00
   2.22653E+00 -6.93242E+00 -1.21916E+01 -8.77029E+00  1.73180E+00  1.32906E+00  1.24984E+01  7.30636E+00  8.34015E+00  1.22356E+01
   1.31987E+01  1.20872E+01  9.41346E+00  1.29503E+01  2.50188E+01  1.62798E+01  1.27033E+01  1.73394E+01  1.29154E+01  6.62823E+00
   1.45307E+01  1.34394E+01  3.76154E+00  3.94955E+00  2.04298E+01  1.25450E+01  2.13448E+01  2.71458E+01  3.86833E+01  2.99858E+01
   4.30938E+01  3.93363E+01  4.75466E+01  6.93616E+01  7.43816E+01  9.87324E+01  1.10265E+02  1.43506E+02  1.74098E+02  1.92805E+02
   2.18939E+02  2.04335E+02  1.74602E+02  1.33371E+02  1.07121E+02  7.44016E+01  4.89446E+01  4.59384E+01  1.52430E+01  1.96105E+01
   1.56009E+01  2.02900E+01  1.90845E+01  4.08327E+00  1.17718E+01  8.00602E+00  2.75976E+00 -3.19658E+00  3.18228E+00  1.10022E+01
   3.19221E+00 -9.02336E-01 -8.18933E+00 -9.93467E+00  4.11745E+00 -5.16998E+00 -7.16987E+00 -1.55178E+00 -1.41751E+01 -4.78275E+00
  -3.39838E+00 -3.39570E+00  2.60056E+00 -6.41162E+00  4.27929E+00  4.71265E+00 -7.34433E+00 -1.61691E+00 -7.33952E+00  8.27543E-01
  -3.83554E+00 -7.20290E+00  3.75072E-01 -6.28959E+00 -2.86175E+00 -4.74564E+00  6.93511E+00  5.69890E+00  1.48598E+00  3.67037E-01
  -2.05476E+00  3.54467E-01 -6.99673E-01  2.76396E+00  3.99490E+00 -5.66367E+00  2.83836E-01 -8.66484E-02 -2.57138E+00 -8.36994E+00
   7.30864E+00  7.35955E+00 -8.16026E-01 -8.67566E+00 -4.74898E+00 -4.84198E+00 -4.24644E+00 -5.22475E+00 -1.31661E+01 -1.49739E+00
  -7.11141E+00 -7.59180E+00 -1.08697E+01 -8.90285E-03 -2.11702E+00  1.92815E+00  2.61722E+00  2.68579E+00  1.17066E+01  1.22166E+01
   9.27237E+00  1.08241E+01  2.86193E+00  3.79446E+00  4.43253E+00  9.33795E+00  6.82248E+00  3.81129E+00  8.29605E+00  1.37572E+01
   1.29432E+01  1.94550E+01  1.51381E+01  1.17038E+01  2.34821E+01  2.01606E+01  1.92690E+01  1.81590E+01  2.25280E+01  1.63881E+01
   2.44075E+01  2.15295E+01  1.17882E+01  1.38207E+01  1.11416E+01  9.61596E+00  1.37112E+01  8.96776E+00  9.41010E+00  1.53496E+01
   1.26658E+01  1.08513E+01  1.01667E+01  8.24181E+00  2.09838E+00 -8.42036E-01 -2.91598E+00  1.75822E+01  1.04790E+00  1.28380E+01
   1.00989E+01  1.44911E+01  5.37790E+00  1.32427E+01  7.53491E+00  1.19417E+01  5.63777E+00  3.23990E+00 -5.42354E-01 -1.08810E+00
   7.94283E+00  3.60100E+00  9.22597E+00  1.51847E+00  6.69730E+00  1.63861E+00 -1.47916E-01  1.37144E+01 -5.53867E-01  1.15109E+01
   4.88183E+00  1.14353E+00  3.04589E+00  8.64009E+00 -2.13625E-01  4.28972E+00 -2.15121E+00  6.54585E+00  5.29482E+00  7.43714E-01
  -3.01810E+00  2.46465E+00  4.36961E+00  6.71002E+00  2.54419E+00 -1.78122E+00 -7.15348E-01  3.27798E+00  4.54146E+00  5.71377E+00
  -2.36998E-01  8.94128E+00 -7.05788E+00  2.28434E+00  2.78327E+00  7.19020E+00 -4.16264E+00  1.72022E+00  4.27063E+00 -2.24168E+00
   4.74929E+00 -1.01457E-01  4.54792E+00  1.80327E+00 -9.84625E+00 -4.74271E+00 -5.52515E+00  4.27956E+00 -3.69251E+00  9.40057E-02
  -4.43871E+00  3.96807E+00 -1.79966E+00  5.55361E-01  4.13940E+00 -1.94310E+00  3.13407E+00  1.07142E+00 -1.07768E+01  6.91983E+00
   5.34822E+00  2.22137E-01  5.14231E+00 -3.85699E+00 -7.38283E-01 -2.18852E+00  1.82240E+00  8.79351E+00 -1.27539E+01 -1.70838E+00
   9.31454E+00  6.74708E+00  5.61424E+00 -1.31258E+00 -4.23121E+00 -3.06905E+00  2.71832E+00 -3.10275E+00  2.97547E+00  2.78694E-01
   4.44209E+00 -2.12875E+00 -4.92947E+00 -2.16668E+00  8.49020E+00  8.89711E+00  2.70114E+00  9.02681E+00 -3.07359E+00 -2.02240E+00
  -6.67825E-01 -7.38681E+00  1.97173E+00  7.60887E+00 -1.93878E+00  1.56516E+00  3.51782E+00  7.34054E-01  1.40378E+01  7.40501E-01
   2.36899E+00 -2.72628E+00 -1.19150E+00  1.19712E+01 -1.70524E+00  1.85419E+00  4.08763E+00 -2.56232E+00
 NY points of the fit to the data follow
   3.14482E+01  3.09662E+01  3.16853E+01  3.32140E+01  3.66113E+01  4.35811E+01  5.17850E+01  6.06414E+01  7.12680E+01  8.29172E+01
   9.28942E+01  9.83692E+01  9.77158E+01  9.13430E+01  8.13613E+01  7.04593E+01  6.04315E+01  5.23137E+01  4.63884E+01  4.08944E+01
   3.58266E+01  3.31694E+01  3.23698E+01  3.32496E+01  3.42931E+01  3.57534E+01  3.89054E+01  4.36857E+01  4.89282E+01  5.31485E+01
   5.54564E+01  5.54676E+01  5.32128E+01  4.94374E+01  4.49246E+01  4.01710E+01  3.56756E+01  3.10950E+01  2.71154E+01  2.57822E+01
   2.66615E+01  2.84655E+01  3.05436E+01  3.32355E+01  3.65146E+01  3.93809E+01  4.10317E+01  4.08003E+01  3.85214E+01  3.49194E+01
   3.08499E+01  2.71583E+01  2.46660E+01  2.32436E+01  2.21999E+01  2.14904E+01  2.16374E+01  2.24299E+01  2.31132E+01  2.32681E+01
   2.27684E+01  2.15964E+01  1.99956E+01  1.83033E+01  1.70772E+01  1.65433E+01  1.64357E+01  1.65869E+01  1.69791E+01  1.74449E+01
   1.78430E+01  1.79921E+01  1.78001E+01  1.73045E+01  1.65984E+01  1.58177E+01  1.50999E+01  1.45083E+01  1.40427E+01  1.36817E+01
   1.35250E+01  1.32995E+01  1.30863E+01  1.30147E+01  1.29242E+01  1.25804E+01  1.19033E+01  1.09625E+01  9.99231E+00  9.31360E+00
   8.99903E+00  9.01587E+00  9.27633E+00  9.56979E+00  9.76832E+00  1.08648E+01  1.61480E+01  2.42439E+01  3.26913E+01  4.40716E+01
   5.99039E+01  7.73442E+01  9.14135E+01  9.76275E+01  9.41362E+01  8.26897E+01  6.72515E+01  5.18204E+01  3.90847E+01  2.98451E+01
   2.20967E+01  1.42193E+01  9.23610E+00  7.73814E+00  7.23268E+00  7.02249E+00  6.92480E+00  6.96472E+00  7.32548E+00  8.70347E+00
   1.37794E+01  2.34738E+01  3.41161E+01  4.68931E+01  6.42295E+01  8.43726E+01  1.02375E+02  1.12913E+02  1.12674E+02  1.02570E+02
   8.64858E+01  6.87355E+01  5.25189E+01  3.92380E+01  2.79256E+01  1.67724E+01  8.16223E+00  5.13131E+00  5.16584E+00  6.42455E+00
   7.82800E+00  8.69563E+00  9.02404E+00  8.86979E+00  8.21810E+00  7.35856E+00  6.41617E+00  5.32636E+00  4.21649E+00  3.12437E+00
   2.15336E+00  1.36466E+00  7.38486E-01  2.37127E-01 -2.92222E-01 -7.49060E-01 -1.08928E+00 -1.54148E+00 -2.19115E+00 -3.19069E+00
  -4.33323E+00 -5.03774E+00 -5.11033E+00 -4.93311E+00 -4.94886E+00 -5.46879E+00 -6.61039E+00 -8.14623E+00 -9.64489E+00 -1.09030E+01
  -1.20154E+01 -1.29000E+01 -1.39262E+01 -1.52764E+01 -1.65692E+01 -1.73900E+01 -1.74830E+01 -1.70343E+01 -1.66404E+01 -1.66188E+01
  -1.69768E+01 -1.72507E+01 -1.69511E+01 -1.60837E+01 -1.47376E+01 -1.29767E+01 -1.07860E+01 -7.83056E+00 -4.17748E+00 -5.27674E-01
   2.01172E+00  2.74327E+00  2.07030E+00  5.24340E-01 -1.35139E+00 -2.93044E+00 -3.89803E+00 -3.84291E+00 -2.70463E+00 -8.22228E-01
   1.53248E+00  3.92031E+00  5.81526E+00  6.49620E+00  5.87265E+00  3.99105E+00  6.54593E-01 -3.57610E+00 -7.34275E+00 -9.63982E+00
  -9.91784E+00 -8.75485E+00 -6.01923E+00 -1.59476E+00  3.44604E+00  7.32401E+00  8.56030E+00  7.00413E+00  3.43162E+00 -1.82542E+00
  -7.43231E+00 -1.14784E+01 -1.30205E+01 -1.19586E+01 -9.02823E+00 -4.91953E+00 -2.09547E-01  3.54719E+00  5.66544E+00  6.52581E+00
   7.34575E+00  8.56141E+00  9.69714E+00  1.09315E+01  1.25532E+01  1.40023E+01  1.45082E+01  1.39666E+01  1.28132E+01  1.13485E+01
   9.65592E+00  8.36707E+00  8.39143E+00  9.99369E+00  1.26224E+01  1.55134E+01  1.84186E+01  2.10717E+01  2.36945E+01  2.71964E+01
   3.09257E+01  3.55508E+01  4.29843E+01  5.81598E+01  8.06088E+01  1.01445E+02  1.22407E+02  1.47999E+02  1.75899E+02  1.98464E+02
   2.07928E+02  1.99966E+02  1.76176E+02  1.42811E+02  1.08291E+02  7.95037E+01  5.83390E+01  4.16276E+01  2.47441E+01  1.17302E+01
   6.87325E+00  4.93822E+00  3.84373E+00  3.18505E+00  2.75171E+00  2.24398E+00  1.61706E+00  9.02181E-01  1.21030E-01 -6.54399E-01
  -1.32620E+00 -1.88520E+00 -2.36133E+00 -2.73294E+00 -2.97800E+00 -3.12466E+00 -3.22604E+00 -3.30818E+00 -3.34276E+00 -3.29625E+00
  -3.19263E+00 -3.05237E+00 -2.87884E+00 -2.69207E+00 -2.51492E+00 -2.35047E+00 -2.19582E+00 -2.03881E+00 -1.86844E+00 -1.69024E+00
  -1.51078E+00 -1.32655E+00 -1.14894E+00 -9.96293E-01 -8.81520E-01 -8.08355E-01 -7.71367E-01 -7.69420E-01 -8.06148E-01 -8.70215E-01
  -9.52344E-01 -1.04548E+00 -1.14048E+00 -1.22573E+00 -1.28945E+00 -1.31890E+00 -1.29888E+00 -1.20778E+00 -1.00766E+00 -6.11862E-01
   7.65160E-02  6.90635E-01  1.12514E+00  1.60578E+00  1.97126E+00  1.78191E+00  7.28266E-01 -1.18057E+00 -3.28305E+00 -4.97367E+00
  -6.11237E+00 -6.38668E+00 -5.49980E+00 -3.56818E+00 -1.10983E+00  1.42220E+00  3.81715E+00  5.59135E+00  6.54383E+00  6.94613E+00
   7.12689E+00  7.36784E+00  7.66416E+00  7.79831E+00  7.99398E+00  8.52316E+00  9.28757E+00  1.02327E+01  1.13354E+01  1.25724E+01
   1.39071E+01  1.52856E+01  1.66349E+01  1.78684E+01  1.88943E+01  1.96290E+01  2.00104E+01  2.00089E+01  1.96320E+01  1.89225E+01
   1.79496E+01  1.67967E+01  1.55488E+01  1.42808E+01  1.30500E+01  1.18931E+01  1.08277E+01  9.85739E+00  8.97733E+00  8.17910E+00
   7.45420E+00  6.79594E+00  6.20030E+00  5.66618E+00  5.19482E+00  4.78878E+00  4.45080E+00  4.18310E+00  3.98730E+00  3.86445E+00
   3.81500E+00  3.83837E+00  3.93268E+00  4.09480E+00  4.32067E+00  4.60547E+00  4.94348E+00  5.32768E+00  5.74968E+00  6.19997E+00
   6.66829E+00  7.14390E+00  7.61544E+00  8.07097E+00  8.49828E+00  8.88552E+00  9.22184E+00  9.49763E+00  9.70460E+00  9.83592E+00
   9.88667E+00  9.85425E+00  9.73866E+00  9.54218E+00  9.26898E+00  8.92494E+00  8.51758E+00  8.05591E+00  7.55009E+00  7.01062E+00
   6.44786E+00  5.87174E+00  5.29171E+00  4.71666E+00  4.15449E+00  3.61178E+00  3.09362E+00  2.60385E+00  2.14535E+00  1.72018E+00
   1.32937E+00  9.72913E-01  6.49966E-01  3.59255E-01  9.93662E-02 -1.31279E-01 -3.34574E-01 -5.12724E-01 -6.68002E-01 -8.02448E-01
  -9.17797E-01 -1.01567E+00 -1.09777E+00 -1.16585E+00 -1.22149E+00 -1.26588E+00 -1.29996E+00 -1.32463E+00 -1.34095E+00 -1.34995E+00
  -1.35241E+00 -1.34882E+00 -1.33955E+00 -1.32513E+00 -1.30618E+00 -1.28329E+00 -1.25678E+00 -1.22677E+00 -1.19343E+00 -1.15712E+00
  -1.11828E+00 -1.07719E+00 -1.03391E+00 -9.88434E-01 -9.40857E-01 -8.91482E-01 -8.40612E-01 -7.88348E-01 -7.34616E-01 -6.79372E-01
  -6.22765E-01 -5.65063E-01 -5.06444E-01 -4.46868E-01 -3.86207E-01 -3.24457E-01 -2.61813E-01 -1.98500E-01 -1.34575E-01 -6.99144E-02
  -4.39962E-03  6.19048E-02  1.28789E-01  1.96106E-01  2.63907E-01  3.32351E-01  4.01493E-01  4.71198E-01  5.41270E-01  6.11650E-01
   6.82469E-01  7.53875E-01  8.25851E-01  8.98222E-01  9.70848E-01  1.04378E+00  1.11718E+00  1.19115E+00  1.26560E+00  1.34037E+00
   1.41539E+00  1.49080E+00  1.56678E+00  1.64337E+00  1.72043E+00  1.79787E+00  1.87573E+00  1.95423E+00
 NY background values follow
     2.517E+01    2.496E+01    2.475E+01    2.454E+01    2.432E+01    2.411E+01    2.390E+01    2.369E+01    2.348E+01    2.326E+01
     2.305E+01    2.284E+01    2.263E+01    2.241E+01    2.220E+01    2.199E+01    2.177E+01    2.156E+01    2.135E+01    2.114E+01
     2.092E+01    2.071E+01    2.050E+01    2.029E+01    2.008E+01    1.986E+01    1.965E+01    1.944E+01    1.923E+01    1.902E+01
     1.880E+01    1.859E+01    1.838E+01    1.817E+01    1.796E+01    1.775E+01    1.754E+01    1.733E+01    1.712E+01    1.691E+01
     1.670E+01    1.649E+01    1.628E+01    1.607E+01    1.586E+01    1.565E+01    1.544E+01    1.523E+01    1.502E+01    1.481E+01
     1.461E+01    1.440E+01    1.419E+01    1.398E+01    1.378E+01    1.357E+01    1.336E+01    1.316E+01    1.295E+01    1.275E+01
     1.254E+01    1.234E+01    1.214E+01    1.193E+01    1.173E+01    1.153E+01    1.132E+01    1.112E+01    1.092E+01    1.072E+01
     1.052E+01    1.032E+01    1.012E+01    9.926E+00    9.728E+00    9.531E+00    9.335E+00    9.139E+00    8.944E+00    8.749E+00
     8.555E+00    8.362E+00    8.170E+00    7.978E+00    7.787E+00    7.596E+00    7.407E+00    7.218E+00    7.030E+00    6.842E+00
     6.656E+00    6.470E+00    6.285E+00    6.101E+00    5.918E+00    5.735E+00    5.554E+00    5.373E+00    5.193E+00    5.014E+00
     4.836E+00    4.659E+00    4.482E+00    4.306E+00    4.132E+00    3.958E+00    3.785E+00    3.613E+00    3.442E+00    3.271E+00
     3.102E+00    2.934E+00    2.766E+00    2.599E+00    2.434E+00    2.269E+00    2.105E+00    1.942E+00    1.780E+00    1.619E+00
     1.459E+00    1.300E+00    1.142E+00    9.849E-01    8.287E-01    6.735E-01    5.194E-01    3.662E-01    2.140E-01    6.280E-02
    -8.738E-02   -2.365E-01   -3.847E-01   -5.318E-01   -6.779E-01   -8.230E-01   -9.670E-01   -1.110E+00   -1.252E+00   -1.393E+00
    -1.532E+00   -1.671E+00   -1.809E+00   -1.945E+00   -2.080E+00   -2.215E+00   -2.348E+00   -2.479E+00   -2.610E+00   -2.739E+00
    -2.868E+00   -2.995E+00   -3.121E+00   -3.245E+00   -3.368E+00   -3.490E+00   -3.611E+00   -3.731E+00   -3.849E+00   -3.966E+00
    -4.081E+00   -4.195E+00   -4.308E+00   -4.420E+00   -4.530E+00   -4.639E+00   -4.746E+00   -4.852E+00   -4.956E+00   -5.059E+00
    -5.161E+00   -5.261E+00   -5.360E+00   -5.457E+00   -5.553E+00   -5.647E+00   -5.740E+00   -5.831E+00   -5.920E+00   -6.008E+00
    -6.095E+00   -6.180E+00   -6.263E+00   -6.345E+00   -6.425E+00   -6.504E+00   -6.581E+00   -6.656E+00   -6.731E+00   -6.803E+00
    -6.875E+00   -6.945E+00   -7.013E+00   -7.080E+00   -7.146E+00   -7.210E+00   -7.273E+00   -7.335E+00   -7.395E+00   -7.455E+00
    -7.512E+00   -7.569E+00   -7.625E+00   -7.679E+00   -7.732E+00   -7.784E+00   -7.834E+00   -7.884E+00   -7.932E+00   -7.980E+00
    -8.026E+00   -8.071E+00   -8.116E+00   -8.159E+00   -8.201E+00   -8.242E+00   -8.282E+00   -8.322E+00   -8.360E+00   -8.398E+00
    -8.434E+00   -8.470E+00   -8.505E+00   -8.539E+00   -8.572E+00   -8.604E+00   -8.636E+00   -8.666E+00   -8.696E+00   -8.726E+00
    -8.754E+00   -8.782E+00   -8.809E+00   -8.835E+00   -8.861E+00   -8.885E+00   -8.909E+00   -8.933E+00   -8.956E+00   -8.977E+00
    -8.999E+00   -9.019E+00   -9.039E+00   -9.058E+00   -9.077E+00   -9.095E+00   -9.112E+00   -9.129E+00   -9.145E+00   -9.160E+00
    -9.174E+00   -9.188E+00   -9.202E+00   -9.215E+00   -9.227E+00   -9.238E+00   -9.249E+00   -9.260E+00   -9.269E+00   -9.278E+00
    -9.287E+00   -9.295E+00   -9.302E+00   -9.309E+00   -9.316E+00   -9.321E+00   -9.326E+00   -9.331E+00   -9.335E+00   -9.339E+00
    -9.342E+00   -9.344E+00   -9.347E+00   -9.348E+00   -9.349E+00   -9.350E+00   -9.350E+00   -9.349E+00   -9.348E+00   -9.346E+00
    -9.344E+00   -9.342E+00   -9.338E+00   -9.335E+00   -9.331E+00   -9.326E+00   -9.321E+00   -9.315E+00   -9.308E+00   -9.301E+00
    -9.294E+00   -9.286E+00   -9.278E+00   -9.268E+00   -9.259E+00   -9.249E+00   -9.238E+00   -9.227E+00   -9.215E+00   -9.203E+00
    -9.190E+00   -9.176E+00   -9.162E+00   -9.148E+00   -9.132E+00   -9.117E+00   -9.100E+00   -9.084E+00   -9.066E+00   -9.048E+00
    -9.030E+00   -9.011E+00   -8.991E+00   -8.971E+00   -8.950E+00   -8.928E+00   -8.906E+00   -8.884E+00   -8.860E+00   -8.837E+00
    -8.812E+00   -8.787E+00   -8.762E+00   -8.736E+00   -8.709E+00   -8.682E+00   -8.654E+00   -8.626E+00   -8.597E+00   -8.568E+00
    -8.538E+00   -8.507E+00   -8.476E+00   -8.445E+00   -8.413E+00   -8.380E+00   -8.347E+00   -8.313E+00   -8.279E+00   -8.244E+00
    -8.209E+00   -8.173E+00   -8.136E+00   -8.099E+00   -8.062E+00   -8.024E+00   -7.986E+00   -7.947E+00   -7.907E+00   -7.867E+00
    -7.827E+00   -7.786E+00   -7.744E+00   -7.702E+00   -7.660E+00   -7.617E+00   -7.574E+00   -7.530E+00   -7.485E+00   -7.440E+00
    -7.395E+00   -7.349E+00   -7.303E+00   -7.256E+00   -7.209E+00   -7.161E+00   -7.113E+00   -7.065E+00   -7.015E+00   -6.966E+00
    -6.916E+00   -6.865E+00   -6.814E+00   -6.763E+00   -6.711E+00   -6.659E+00   -6.606E+00   -6.553E+00   -6.499E+00   -6.445E+00
    -6.390E+00   -6.335E+00   -6.279E+00   -6.223E+00   -6.167E+00   -6.110E+00   -6.053E+00   -5.995E+00   -5.937E+00   -5.878E+00
    -5.819E+00   -5.759E+00   -5.699E+00   -5.639E+00   -5.578E+00   -5.516E+00   -5.455E+00   -5.392E+00   -5.330E+00   -5.267E+00
    -5.203E+00   -5.139E+00   -5.075E+00   -5.010E+00   -4.944E+00   -4.879E+00   -4.813E+00   -4.746E+00   -4.679E+00   -4.612E+00
    -4.544E+00   -4.475E+00   -4.407E+00   -4.338E+00   -4.268E+00   -4.199E+00   -4.128E+00   -4.058E+00   -3.987E+00   -3.916E+00
    -3.844E+00   -3.772E+00   -3.700E+00   -3.628E+00   -3.555E+00   -3.482E+00   -3.409E+00   -3.335E+00   -3.261E+00   -3.187E+00
    -3.112E+00   -3.038E+00   -2.963E+00   -2.888E+00   -2.812E+00   -2.737E+00   -2.661E+00   -2.585E+00   -2.509E+00   -2.433E+00
    -2.356E+00   -2.280E+00   -2.203E+00   -2.126E+00   -2.049E+00   -1.971E+00   -1.894E+00   -1.817E+00   -1.739E+00   -1.661E+00
    -1.584E+00   -1.506E+00   -1.428E+00   -1.350E+00   -1.272E+00   -1.194E+00   -1.115E+00   -1.037E+00   -9.588E-01   -8.805E-01
    -8.020E-01   -7.236E-01   -6.450E-01   -5.664E-01   -4.878E-01   -4.091E-01   -3.304E-01   -2.517E-01   -1.729E-01   -9.405E-02
    -1.518E-02    6.371E-02    1.426E-01    2.216E-01    3.006E-01    3.796E-01    4.586E-01    5.377E-01    6.167E-01    6.958E-01
     7.749E-01    8.540E-01    9.331E-01    1.012E+00    1.091E+00    1.170E+00    1.250E+00    1.329E+00    1.408E+00    1.487E+00
     1.566E+00    1.645E+00    1.724E+00    1.803E+00    1.883E+00    1.962E+00    2.041E+00    2.120E+00
 Ala      Conc. = 5.54E+02
