 LCModel (Version 6.3-1L) Copyright: S.W. Provencher.          Ref.: Magn. Reson. Med. 30:672-679 (1993).                
 Slice#2 Row#9 Col#4  PD_05_press_2_raw_act
 36 lines in following concentration table = NCONC+1
    Conc.  %SD /Cr+PCr  Metabolite                                         
  342.652  75% 9.1E-02 Ala                                                 
    0.000 999%   0.000 Asp                                                 
 1.75E+03  27%   0.466 Cr                                                  
 2.01E+03  24%   0.534 PCr                                                 
    0.000 999%   0.000 GABA                                                
    0.000 999%   0.000 Glc                                                 
 2.26E+03  24%   0.603 Gln                                                 
 4.25E+03  14%   1.132 Glu                                                 
 1.25E+03   4%   0.332 GPC                                                 
    0.000 999%   0.000 PCh                                                 
 1.47E+03  11%   0.391 GSH                                                 
 2.73E+03  20%   0.726 Ins                                                 
  174.762 161% 4.7E-02 Lac                                                 
 6.85E+03   5%   1.824 NAA                                                 
  622.276  61%   0.166 NAAG                                                
  234.428  25% 6.2E-02 Scyllo                                              
    0.000 999%   0.000 Tau                                                 
    0.000 999%   0.000 -CrCH2                                              
 1.25E+03   4%   0.332 GPC+PCh                                             
 7.47E+03   3%   1.990 NAA+NAAG                                            
 3.75E+03   3%   1.000 Cr+PCr                                              
 6.51E+03  14%   1.736 Glu+Gln                                             
 2.88E+03  29%   0.767 Lip13a                                              
    0.000 999%   0.000 Lip13b                                              
    0.000 999%   0.000 Lip09                                               
 3.69E+03  12%   0.982 MM09                                                
  428.542  86%   0.114 Lip20                                               
 8.93E+03   9%   2.380 MM20                                                
 1.19E+03  30%   0.316 MM12                                                
 4.33E+03  20%   1.153 MM14                                                
 4.54E+03  15%   1.209 MM17                                                
 2.88E+03  29%   0.767 Lip13a+Lip13b                                       
 8.39E+03  11%   2.236 MM14+Lip13a+Lip13b+MM12                             
 3.69E+03  12%   0.982 MM09+Lip09                                          
 9.36E+03   9%   2.494 MM20+Lip20                                          
   6 lines in following misc. output table
  FWHM = 0.054 ppm    S/N =  18                                            
  Data shift = 0.008 ppm                                                   
  Ph: -17 deg      -4.8 deg/ppm                                            
  alphaB,S = 1.4E+00,   2.0E+02                                            
   14 spline knots.   Ns = 8(1)                                            
  (13) 3 infls.   ( 7) 1 extrs.                                            
  498 points on ppm-axis = NY
      4.000000     3.992357     3.984714     3.977070     3.969427     3.961784     3.954141     3.946497     3.938854     3.931211
      3.923568     3.915925     3.908281     3.900638     3.892995     3.885352     3.877708     3.870065     3.862422     3.854779
      3.847136     3.839492     3.831849     3.824206     3.816563     3.808919     3.801276     3.793633     3.785990     3.778347
      3.770703     3.763060     3.755417     3.747774     3.740130     3.732487     3.724844     3.717201     3.709558     3.701914
      3.694271     3.686628     3.678985     3.671341     3.663698     3.656055     3.648412     3.640769     3.633125     3.625482
      3.617839     3.610196     3.602552     3.594909     3.587266     3.579623     3.571980     3.564336     3.556693     3.549050
      3.541407     3.533763     3.526120     3.518477     3.510834     3.503191     3.495547     3.487904     3.480261     3.472618
      3.464974     3.457331     3.449688     3.442045     3.434402     3.426758     3.419115     3.411472     3.403829     3.396185
      3.388542     3.380899     3.373256     3.365613     3.357969     3.350326     3.342683     3.335040     3.327396     3.319753
      3.312110     3.304467     3.296824     3.289180     3.281537     3.273894     3.266251     3.258607     3.250964     3.243321
      3.235678     3.228034     3.220391     3.212748     3.205105     3.197462     3.189818     3.182175     3.174532     3.166889
      3.159245     3.151602     3.143959     3.136316     3.128673     3.121029     3.113386     3.105743     3.098100     3.090456
      3.082813     3.075170     3.067527     3.059884     3.052240     3.044597     3.036954     3.029311     3.021667     3.014024
      3.006381     2.998738     2.991095     2.983451     2.975808     2.968165     2.960522     2.952878     2.945235     2.937592
      2.929949     2.922306     2.914662     2.907019     2.899376     2.891733     2.884089     2.876446     2.868803     2.861160
      2.853517     2.845873     2.838230     2.830587     2.822944     2.815300     2.807657     2.800014     2.792371     2.784728
      2.777084     2.769441     2.761798     2.754155     2.746511     2.738868     2.731225     2.723582     2.715939     2.708295
      2.700652     2.693009     2.685366     2.677722     2.670079     2.662436     2.654793     2.647150     2.639506     2.631863
      2.624220     2.616577     2.608933     2.601290     2.593647     2.586004     2.578361     2.570717     2.563074     2.555431
      2.547788     2.540144     2.532501     2.524858     2.517215     2.509572     2.501928     2.494285     2.486642     2.478999
      2.471355     2.463712     2.456069     2.448426     2.440783     2.433139     2.425496     2.417853     2.410210     2.402566
      2.394923     2.387280     2.379637     2.371994     2.364350     2.356707     2.349064     2.341421     2.333777     2.326134
      2.318491     2.310848     2.303205     2.295561     2.287918     2.280275     2.272632     2.264988     2.257345     2.249702
      2.242059     2.234416     2.226772     2.219129     2.211486     2.203843     2.196199     2.188556     2.180913     2.173270
      2.165627     2.157983     2.150340     2.142697     2.135054     2.127410     2.119767     2.112124     2.104481     2.096838
      2.089194     2.081551     2.073908     2.066265     2.058621     2.050978     2.043335     2.035692     2.028049     2.020405
      2.012762     2.005119     1.997476     1.989833     1.982190     1.974546     1.966903     1.959260     1.951617     1.943974
      1.936331     1.928688     1.921045     1.913402     1.905759     1.898115     1.890472     1.882829     1.875186     1.867543
      1.859900     1.852257     1.844614     1.836971     1.829327     1.821684     1.814041     1.806398     1.798755     1.791112
      1.783469     1.775826     1.768183     1.760540     1.752896     1.745253     1.737610     1.729967     1.722324     1.714681
      1.707038     1.699395     1.691752     1.684108     1.676465     1.668822     1.661179     1.653536     1.645893     1.638250
      1.630607     1.622964     1.615321     1.607677     1.600034     1.592391     1.584748     1.577105     1.569462     1.561819
      1.554176     1.546533     1.538890     1.531246     1.523603     1.515960     1.508317     1.500674     1.493031     1.485388
      1.477745     1.470102     1.462458     1.454815     1.447172     1.439529     1.431886     1.424243     1.416600     1.408957
      1.401314     1.393671     1.386027     1.378384     1.370741     1.363098     1.355455     1.347812     1.340169     1.332526
      1.324883     1.317240     1.309596     1.301953     1.294310     1.286667     1.279024     1.271381     1.263738     1.256095
      1.248452     1.240808     1.233165     1.225522     1.217879     1.210236     1.202593     1.194950     1.187307     1.179664
      1.172021     1.164377     1.156734     1.149091     1.141448     1.133805     1.126162     1.118519     1.110876     1.103233
      1.095590     1.087946     1.080303     1.072660     1.065017     1.057374     1.049731     1.042088     1.034445     1.026802
      1.019158     1.011515     1.003872     0.996229     0.988586     0.980943     0.973300     0.965657     0.958014     0.950371
      0.942727     0.935084     0.927441     0.919798     0.912155     0.904512     0.896869     0.889226     0.881583     0.873940
      0.866296     0.858653     0.851010     0.843367     0.835724     0.828081     0.820438     0.812795     0.805152     0.797508
      0.789865     0.782222     0.774579     0.766936     0.759293     0.751650     0.744007     0.736364     0.728721     0.721077
      0.713434     0.705791     0.698148     0.690505     0.682862     0.675219     0.667576     0.659933     0.652290     0.644646
      0.637003     0.629360     0.621717     0.614074     0.606431     0.598788     0.591145     0.583502     0.575858     0.568215
      0.560572     0.552929     0.545286     0.537643     0.530000     0.522357     0.514714     0.507071     0.499427     0.491784
      0.484141     0.476498     0.468855     0.461212     0.453569     0.445925     0.438282     0.430639     0.422996     0.415353
      0.407710     0.400067     0.392424     0.384780     0.377137     0.369494     0.361851     0.354208     0.346565     0.338922
      0.331278     0.323635     0.315992     0.308349     0.300706     0.293063     0.285420     0.277777     0.270133     0.262490
      0.254847     0.247204     0.239561     0.231918     0.224275     0.216631     0.208988     0.201345
 NY phased data points follow
   9.89321E+00  9.03610E+00  1.92213E+01  1.55278E+01  2.79603E+01  3.74316E+01  4.62889E+01  5.97077E+01  6.99488E+01  7.12868E+01
   7.87123E+01  7.41068E+01  6.38736E+01  6.59198E+01  4.77118E+01  4.23904E+01  2.45664E+01  1.85087E+01  1.25229E+01  1.66255E+01
   2.34659E+00  4.34415E+00  9.83840E+00  1.66316E+01  1.23415E+01  1.64925E+01  1.85656E+01  1.61161E+01  2.09344E+01  2.62462E+01
   3.58831E+01  3.09214E+01  3.11541E+01  3.03919E+01  1.44060E+01  2.48316E+01  2.12489E+01  1.75205E+01  1.50610E+01  1.86960E+01
   1.65444E+01  2.15516E+01  8.36781E+00  1.53932E+01  1.12659E+01  2.25707E+01  2.84850E+01  2.42299E+01  3.08830E+01  2.13706E+01
   1.56215E+01  7.65351E+00  1.27519E+01  3.59892E+00  3.13474E-01  6.87061E+00  1.02042E+01  2.52223E+00  9.97692E+00  5.19264E+00
   1.80195E+00  3.91996E+00 -1.11291E+01 -7.23366E+00 -9.07075E+00 -1.15838E+01 -1.73547E+01 -8.42654E+00 -8.29958E+00 -3.84073E+00
  -1.08793E+01 -1.58171E+01 -1.64774E+01 -2.31331E+00 -2.64787E+00 -3.03631E+00 -3.63514E+00  1.93349E+00 -2.50296E+00 -7.23400E+00
  -8.19536E+00 -1.38018E+00 -6.88780E+00  3.71171E+00  1.17194E+00  5.98318E+00 -3.45946E+00  4.21917E+00 -1.56685E-01 -3.28647E+00
   8.23999E+00  4.53790E+00  1.34253E+01  7.94947E+00  1.54635E+01  8.60859E+00  2.10257E+01  2.29811E+01  2.92569E+01  3.63299E+01
   5.66638E+01  7.32551E+01  9.47168E+01  1.02050E+02  9.05141E+01  7.49094E+01  5.86631E+01  4.49559E+01  3.98589E+01  2.27712E+01
   1.70651E+01  1.42564E+01  7.76142E+00  8.36977E+00  1.93410E+00  5.64247E+00 -1.01975E-01  1.22547E+01  1.39629E+01  1.85965E+01
   1.98850E+01  2.32352E+01  3.19777E+01  4.31030E+01  6.47618E+01  8.39703E+01  1.06588E+02  1.11661E+02  9.87357E+01  9.45936E+01
   8.44804E+01  5.50429E+01  3.51825E+01  2.17308E+01  2.49960E+01  6.53051E+00  6.74768E-01  7.83711E+00 -3.92726E+00 -7.18295E+00
   1.72176E+00  6.26666E+00 -2.94763E+00 -9.17475E+00 -3.73055E+00 -2.01027E+00 -5.09949E+00 -1.08357E+01  9.58910E-01 -6.14731E+00
  -5.38195E+00 -2.63354E+00 -6.29074E+00 -1.34558E+01 -1.30608E+01 -1.01117E+01 -1.18260E+01 -9.83443E+00 -1.12278E+01 -1.49772E+01
  -1.20658E+01 -1.81566E+01 -1.60423E+01 -1.25483E+01 -1.05194E+01 -9.57950E+00 -1.75674E+01 -1.28905E+01 -7.10905E+00 -2.84267E+01
  -1.87862E+01 -2.44361E+01 -3.05685E+01 -2.35605E+01 -2.59715E+01 -3.51103E+01 -3.62410E+01 -3.77377E+01 -3.47776E+01 -4.17434E+01
  -3.43364E+01 -3.86166E+01 -3.53575E+01 -3.66149E+01 -2.47646E+01 -2.47091E+01 -2.17907E+01 -2.03273E+01 -8.43843E+00 -6.67825E+00
  -3.67902E+00  4.23866E+00  3.71611E+00 -2.87062E+00 -1.68318E+00 -4.56529E+00  3.83507E+00 -1.09805E+01 -6.41655E+00 -9.62972E+00
  -8.43495E+00 -1.40450E+00 -9.72072E+00 -5.60324E+00 -5.68064E+00 -2.36492E-01 -3.42149E+00 -7.59684E+00 -9.79882E+00 -1.57828E+01
  -1.03488E+01 -1.35671E+01 -7.96877E+00 -4.57962E-01  8.95474E+00  1.59815E+01  3.05561E+01  2.41938E+01  2.47827E+01  7.69296E+00
   1.88854E+00 -6.35919E+00 -1.70248E+01  7.80445E-01 -2.95097E+00  6.26785E+00  7.01089E+00  1.13790E+01  1.67101E+01  1.28287E+01
   1.56040E+01  1.71621E+01  1.36082E+01  1.64864E+01  1.80560E+01  1.99874E+01  1.44599E+01  1.11226E+01  1.46387E+01  1.18955E+01
   5.29175E+00  3.38735E+00 -1.36143E+00  4.40691E+00  1.92934E+01  2.16801E+01  2.28479E+01  2.71222E+01  3.95946E+01  3.95824E+01
   4.05964E+01  4.87126E+01  5.75724E+01  7.46433E+01  8.14108E+01  9.75178E+01  1.24497E+02  1.57507E+02  1.81272E+02  2.11975E+02
   2.44565E+02  2.40436E+02  2.22334E+02  1.76129E+02  1.42263E+02  1.03834E+02  7.40956E+01  5.98173E+01  4.21733E+01  2.90678E+01
   3.22718E+01  2.61774E+01  1.94507E+01  1.89659E+01  2.46862E+01  1.22283E+01  5.32462E+00  8.78153E+00  1.08247E+01  7.19801E+00
   1.04725E+01  2.03808E+01  7.78676E+00  1.50660E+01  1.00197E+01  2.95741E+00  4.62927E+00  1.37386E+01  9.39216E+00  8.60366E+00
   1.07406E+01  1.37098E+01  1.32811E+01  1.19473E+01  8.35061E+00  1.44607E+01  6.51388E+00  1.69212E+01  1.35825E+01  8.59329E+00
   1.37810E+01  1.99805E+01  1.00473E+01  1.90105E+01  2.39043E+01  2.57032E+01  2.61586E+01  1.99717E+01  3.53306E+01  3.01192E+01
   3.14192E+01  3.01287E+01  2.93693E+01  3.67755E+01  2.93449E+01  3.03556E+01  3.03378E+01  3.12298E+01  2.82840E+01  3.14984E+01
   2.98192E+01  2.44001E+01  2.73835E+01  2.86302E+01  1.90896E+01  2.79058E+01  2.71411E+01  2.11580E+01  2.21560E+01  2.37743E+01
   2.18143E+01  2.19298E+01  1.69550E+01  2.35066E+01  1.62425E+01  1.44213E+01  2.60092E+01  2.12704E+01  2.14896E+01  1.55582E+01
   1.78385E+01  1.77630E+01  2.64591E+01  2.59921E+01  3.16285E+01  2.73470E+01  3.29306E+01  2.73308E+01  2.31509E+01  2.14638E+01
   2.09423E+01  2.20469E+01  1.53966E+01  2.79054E+01  2.82734E+01  2.04742E+01  2.12220E+01  2.04350E+01  2.50452E+01  2.18843E+01
   1.76415E+01  1.83389E+01  1.99380E+01  1.04053E+01  2.44682E+01  1.92376E+01  1.61078E+01  2.15667E+01  1.91738E+01  1.56661E+01
   1.14183E+01  2.04436E+01  1.74193E+01  8.15193E+00  9.16986E+00  1.14689E+01  1.13022E+01  1.58522E+01  9.70159E+00  6.17113E+00
   5.70747E+00  4.64826E+00  1.14969E+01  3.48410E+00  1.44011E+00  4.87788E+00  2.05644E+01  7.80660E+00  6.83135E+00  1.35013E+01
   1.02233E+01  6.33132E+00  1.09240E+01  8.69819E+00  1.30283E+01  1.16477E+01  1.16779E+01  1.79012E+01  1.88629E+01  2.54329E+01
   2.54590E+01  2.14542E+01  1.45207E+01  2.59082E+01  2.64788E+01  2.28557E+01  2.63378E+01  1.85029E+01  2.38511E+01  2.02786E+01
   3.07100E+01  2.21541E+01  2.83704E+01  2.50323E+01  1.61472E+01  1.23080E+01  1.91938E+01  1.53449E+01  1.56053E+01  7.39565E+00
   1.33893E+01  1.69702E+01  1.41476E+01  9.39298E+00  4.23341E+00 -8.64632E-01  6.09857E+00  9.59505E+00 -3.64892E+00 -5.42566E-01
   2.23655E+00  2.21566E+00  8.41282E-01  7.04511E+00  5.06948E+00 -2.46450E-01  8.56534E+00  5.68347E+00  3.17386E+00  3.97662E+00
  -2.50941E+00  3.27833E+00  4.34964E+00  1.04078E+01 -7.20387E+00  7.72982E+00  2.65233E+00 -3.31516E-01 -9.77705E+00 -5.25402E+00
  -2.06105E+00  6.72103E+00  2.77681E+00  1.19802E+00  2.40090E+00  3.62384E+00  3.38631E+00  2.45481E+00 -1.03242E+00  3.09806E+00
  -2.05335E+00  4.31787E+00  1.19158E+00  6.86345E+00  1.99805E+00  3.91014E+00  6.97836E+00 -2.73498E+00  2.30240E+00  1.96372E+00
   3.32064E+00  3.14905E-01  7.87915E+00 -6.31009E+00  6.01551E-01 -1.30181E+01 -3.00072E+00 -1.22726E+00 -3.28437E+00 -4.14026E+00
  -5.57705E-01 -5.54796E+00  2.53562E+00  2.31472E-01  1.67894E+00 -1.12271E+00 -5.81729E+00  3.22288E+00  2.46552E+00  1.89056E-02
  -4.25145E+00  1.16510E+00  6.36370E+00 -3.23068E+00  4.01603E+00  1.24991E+00  5.58000E+00 -2.73374E-02
 NY points of the fit to the data follow
   9.96305E+00  1.22533E+01  1.56518E+01  2.05379E+01  2.72224E+01  3.53233E+01  4.49390E+01  5.57310E+01  6.61659E+01  7.38873E+01
   7.69283E+01  7.45427E+01  6.73540E+01  5.71851E+01  4.63109E+01  3.64141E+01  2.80547E+01  2.11678E+01  1.58999E+01  1.24382E+01
   9.71150E+00  8.30731E+00  8.97080E+00  1.00791E+01  1.08578E+01  1.20966E+01  1.48373E+01  1.93643E+01  2.50361E+01  3.09148E+01
   3.54527E+01  3.70103E+01  3.53109E+01  3.10388E+01  2.52603E+01  1.92088E+01  1.37831E+01  9.44374E+00  6.40040E+00  5.24616E+00
   6.16290E+00  7.98004E+00  1.01153E+01  1.26325E+01  1.55552E+01  1.84841E+01  2.05883E+01  2.11990E+01  1.99170E+01  1.67885E+01
   1.26813E+01  8.70449E+00  5.57761E+00  3.56141E+00  2.35185E+00  1.58709E+00  1.35285E+00  1.81302E+00  2.66935E+00  3.37362E+00
   3.51276E+00  2.93266E+00  1.71022E+00  2.48500E-01 -9.90586E-01 -1.74667E+00 -1.93880E+00 -1.69311E+00 -1.17785E+00 -5.10147E-01
   1.39703E-01  6.25649E-01  8.11278E-01  6.46346E-01  2.12556E-01 -3.56892E-01 -9.16330E-01 -1.33065E+00 -1.48225E+00 -1.16910E+00
  -8.64344E-01 -6.73458E-01 -2.61910E-01  5.28961E-01  1.60227E+00  2.69785E+00  3.44206E+00  3.44239E+00  2.67197E+00  1.40950E+00
   1.32687E-01 -7.04235E-01 -8.54087E-01 -1.85669E-01  2.28165E+00  8.37225E+00  1.54168E+01  2.21048E+01  3.04497E+01  4.25957E+01
   5.86196E+01  7.62083E+01  9.10316E+01  9.80795E+01  9.46585E+01  8.21397E+01  6.47237E+01  4.69367E+01  3.19176E+01  2.06337E+01
   1.20330E+01  4.66867E+00 -1.02157E+00 -3.29901E+00 -3.57075E+00 -3.27700E+00 -2.65181E+00 -1.47188E+00  1.70067E+00  8.94763E+00
   1.74275E+01  2.55235E+01  3.54601E+01  4.94327E+01  6.73470E+01  8.67560E+01  1.03006E+02  1.10621E+02  1.06994E+02  9.39229E+01
   7.58381E+01  5.74321E+01  4.16462E+01  2.90401E+01  1.83203E+01  8.21954E+00 -1.49102E-02 -3.88832E+00 -4.53084E+00 -3.63816E+00
  -2.11490E+00 -7.43835E-01 -2.96330E-02  2.62994E-02 -3.87789E-01 -1.16490E+00 -2.12678E+00 -3.13723E+00 -4.13637E+00 -5.08554E+00
  -5.98847E+00 -6.78135E+00 -7.48673E+00 -8.30394E+00 -8.99750E+00 -9.39484E+00 -9.59052E+00 -9.77947E+00 -1.04036E+01 -1.14712E+01
  -1.25630E+01 -1.32257E+01 -1.32751E+01 -1.28810E+01 -1.25253E+01 -1.27294E+01 -1.36882E+01 -1.52563E+01 -1.70899E+01 -1.85813E+01
  -1.94451E+01 -2.01717E+01 -2.11552E+01 -2.25395E+01 -2.38230E+01 -2.44341E+01 -2.43599E+01 -2.38749E+01 -2.33412E+01 -2.31336E+01
  -2.30553E+01 -2.27906E+01 -2.22292E+01 -2.13129E+01 -2.00158E+01 -1.84490E+01 -1.65417E+01 -1.39228E+01 -1.04273E+01 -6.62463E+00
  -3.63160E+00 -2.02313E+00 -1.78219E+00 -2.62628E+00 -4.06932E+00 -5.41430E+00 -5.94644E+00 -5.60481E+00 -4.21323E+00 -1.80963E+00
   1.03456E+00  3.62852E+00  5.50092E+00  6.33163E+00  5.40389E+00  2.25153E+00 -2.35507E+00 -7.28222E+00 -1.13275E+01 -1.34917E+01
  -1.36729E+01 -1.16788E+01 -7.62233E+00 -2.05163E+00  3.90507E+00  8.68265E+00  1.13691E+01  1.14273E+01  8.29887E+00  2.44854E+00
  -4.40363E+00 -1.01315E+01 -1.33064E+01 -1.34870E+01 -1.07801E+01 -5.87065E+00  4.81772E-02  5.37473E+00  9.06641E+00  1.12993E+01
   1.24822E+01  1.30542E+01  1.34989E+01  1.40267E+01  1.49606E+01  1.65876E+01  1.85807E+01  2.03067E+01  2.10632E+01  2.03341E+01
   1.83516E+01  1.59016E+01  1.40484E+01  1.37261E+01  1.51662E+01  1.79605E+01  2.14851E+01  2.52784E+01  2.92076E+01  3.26576E+01
   3.56680E+01  4.03300E+01  5.28269E+01  7.10139E+01  8.79089E+01  1.05209E+02  1.27429E+02  1.55913E+02  1.88127E+02  2.18075E+02
   2.36550E+02  2.35875E+02  2.15585E+02  1.82127E+02  1.44422E+02  1.10146E+02  8.34161E+01  6.31668E+01  4.57065E+01  3.01641E+01
   2.07848E+01  1.71914E+01  1.52818E+01  1.39975E+01  1.30872E+01  1.23513E+01  1.15596E+01  1.06921E+01  9.78591E+00  8.89585E+00
   8.08516E+00  7.39587E+00  6.81989E+00  6.35176E+00  6.01473E+00  5.80421E+00  5.68672E+00  5.64578E+00  5.70249E+00  5.89044E+00
   6.22449E+00  6.69461E+00  7.30688E+00  8.06472E+00  8.95566E+00  9.96331E+00  1.10815E+01  1.23067E+01  1.36351E+01  1.50583E+01
   1.65599E+01  1.81153E+01  1.96967E+01  2.12668E+01  2.27856E+01  2.42144E+01  2.55197E+01  2.66737E+01  2.76526E+01  2.84367E+01
   2.90174E+01  2.93934E+01  2.95690E+01  2.95578E+01  2.93814E+01  2.90681E+01  2.86527E+01  2.81781E+01  2.77050E+01  2.73235E+01
   2.69692E+01  2.65112E+01  2.60669E+01  2.57401E+01  2.54796E+01  2.51242E+01  2.44766E+01  2.34872E+01  2.23095E+01  2.10135E+01
   1.97895E+01  1.89269E+01  1.86464E+01  1.90115E+01  1.99270E+01  2.11613E+01  2.24343E+01  2.35460E+01  2.43312E+01  2.47315E+01
   2.48300E+01  2.47317E+01  2.46120E+01  2.45241E+01  2.43805E+01  2.41406E+01  2.38313E+01  2.34289E+01  2.29137E+01  2.22994E+01
   2.17158E+01  2.13254E+01  2.12283E+01  2.14304E+01  2.18437E+01  2.23065E+01  2.26628E+01  2.28325E+01  2.27514E+01  2.24003E+01
   2.18605E+01  2.12157E+01  2.05063E+01  1.97218E+01  1.88540E+01  1.79696E+01  1.71069E+01  1.62518E+01  1.54027E+01  1.45651E+01
   1.37468E+01  1.29563E+01  1.22017E+01  1.14908E+01  1.08305E+01  1.02274E+01  9.68759E+00  9.21637E+00  8.81856E+00  8.49840E+00
   8.25989E+00  8.10704E+00  8.04373E+00  8.07362E+00  8.20002E+00  8.42592E+00  8.75400E+00  9.18642E+00  9.72433E+00  1.03674E+01
   1.11134E+01  1.19580E+01  1.28944E+01  1.39131E+01  1.50014E+01  1.61429E+01  1.73181E+01  1.85049E+01  1.96783E+01  2.08119E+01
   2.18782E+01  2.28493E+01  2.36990E+01  2.44032E+01  2.49414E+01  2.52977E+01  2.54609E+01  2.54257E+01  2.51927E+01  2.47685E+01
   2.41654E+01  2.34000E+01  2.24930E+01  2.14678E+01  2.03496E+01  1.91645E+01  1.79378E+01  1.66935E+01  1.54532E+01  1.42359E+01
   1.30577E+01  1.19315E+01  1.08669E+01  9.87020E+00  8.94513E+00  8.09306E+00  7.31349E+00  6.60437E+00  5.96229E+00  5.38299E+00
   4.86174E+00  4.39371E+00  3.97413E+00  3.59825E+00  3.26144E+00  2.95936E+00  2.68811E+00  2.44431E+00  2.22491E+00  2.02712E+00
   1.84837E+00  1.68643E+00  1.53944E+00  1.40589E+00  1.28438E+00  1.17358E+00  1.07228E+00  9.79469E-01  8.94402E-01  8.16443E-01
   7.44941E-01  6.79210E-01  6.18650E-01  5.62837E-01  5.11487E-01  4.64311E-01  4.20933E-01  3.80947E-01  3.44039E-01  3.10049E-01
   2.78868E-01  2.50322E-01  2.24137E-01  2.00061E-01  1.77960E-01  1.57799E-01  1.39530E-01  1.22997E-01  1.07985E-01  9.43403E-02
   8.20349E-02  7.10972E-02  6.14817E-02  5.30366E-02  4.55972E-02  3.90997E-02  3.35776E-02  2.90578E-02  2.54607E-02  2.26306E-02
   2.04538E-02  1.89355E-02  1.81392E-02  1.80663E-02  1.86061E-02  1.96191E-02  2.10540E-02  2.29622E-02  2.53980E-02  2.83158E-02
   3.15807E-02  3.50833E-02  3.88260E-02  4.28795E-02  4.72619E-02  5.18756E-02  5.65786E-02  6.13031E-02
 NY background values follow
    -5.556E+00   -5.607E+00   -5.659E+00   -5.710E+00   -5.761E+00   -5.812E+00   -5.864E+00   -5.915E+00   -5.966E+00   -6.018E+00
    -6.069E+00   -6.120E+00   -6.172E+00   -6.223E+00   -6.275E+00   -6.326E+00   -6.378E+00   -6.429E+00   -6.480E+00   -6.532E+00
    -6.583E+00   -6.634E+00   -6.686E+00   -6.737E+00   -6.788E+00   -6.839E+00   -6.890E+00   -6.941E+00   -6.992E+00   -7.043E+00
    -7.094E+00   -7.145E+00   -7.196E+00   -7.247E+00   -7.297E+00   -7.348E+00   -7.398E+00   -7.448E+00   -7.499E+00   -7.549E+00
    -7.599E+00   -7.649E+00   -7.698E+00   -7.748E+00   -7.798E+00   -7.847E+00   -7.896E+00   -7.946E+00   -7.995E+00   -8.043E+00
    -8.092E+00   -8.141E+00   -8.189E+00   -8.237E+00   -8.286E+00   -8.334E+00   -8.381E+00   -8.429E+00   -8.476E+00   -8.523E+00
    -8.570E+00   -8.617E+00   -8.664E+00   -8.710E+00   -8.756E+00   -8.802E+00   -8.848E+00   -8.893E+00   -8.939E+00   -8.984E+00
    -9.028E+00   -9.073E+00   -9.117E+00   -9.161E+00   -9.205E+00   -9.248E+00   -9.292E+00   -9.335E+00   -9.377E+00   -9.420E+00
    -9.462E+00   -9.504E+00   -9.545E+00   -9.586E+00   -9.627E+00   -9.668E+00   -9.708E+00   -9.748E+00   -9.787E+00   -9.827E+00
    -9.866E+00   -9.904E+00   -9.942E+00   -9.980E+00   -1.002E+01   -1.006E+01   -1.009E+01   -1.013E+01   -1.016E+01   -1.020E+01
    -1.024E+01   -1.027E+01   -1.030E+01   -1.034E+01   -1.037E+01   -1.041E+01   -1.044E+01   -1.047E+01   -1.050E+01   -1.054E+01
    -1.057E+01   -1.060E+01   -1.063E+01   -1.066E+01   -1.069E+01   -1.072E+01   -1.075E+01   -1.077E+01   -1.080E+01   -1.083E+01
    -1.086E+01   -1.088E+01   -1.091E+01   -1.093E+01   -1.096E+01   -1.098E+01   -1.101E+01   -1.103E+01   -1.105E+01   -1.108E+01
    -1.110E+01   -1.112E+01   -1.114E+01   -1.116E+01   -1.118E+01   -1.120E+01   -1.122E+01   -1.124E+01   -1.126E+01   -1.128E+01
    -1.129E+01   -1.131E+01   -1.132E+01   -1.134E+01   -1.135E+01   -1.137E+01   -1.138E+01   -1.139E+01   -1.141E+01   -1.142E+01
    -1.143E+01   -1.144E+01   -1.145E+01   -1.146E+01   -1.146E+01   -1.147E+01   -1.148E+01   -1.148E+01   -1.149E+01   -1.149E+01
    -1.150E+01   -1.150E+01   -1.150E+01   -1.150E+01   -1.150E+01   -1.150E+01   -1.150E+01   -1.150E+01   -1.150E+01   -1.149E+01
    -1.149E+01   -1.148E+01   -1.148E+01   -1.147E+01   -1.146E+01   -1.145E+01   -1.144E+01   -1.143E+01   -1.142E+01   -1.141E+01
    -1.139E+01   -1.138E+01   -1.136E+01   -1.134E+01   -1.133E+01   -1.131E+01   -1.129E+01   -1.127E+01   -1.125E+01   -1.123E+01
    -1.120E+01   -1.118E+01   -1.115E+01   -1.113E+01   -1.110E+01   -1.108E+01   -1.105E+01   -1.102E+01   -1.099E+01   -1.096E+01
    -1.093E+01   -1.090E+01   -1.087E+01   -1.084E+01   -1.081E+01   -1.077E+01   -1.074E+01   -1.070E+01   -1.067E+01   -1.063E+01
    -1.060E+01   -1.056E+01   -1.053E+01   -1.049E+01   -1.045E+01   -1.041E+01   -1.038E+01   -1.034E+01   -1.030E+01   -1.026E+01
    -1.022E+01   -1.018E+01   -1.014E+01   -1.010E+01   -1.006E+01   -1.002E+01   -9.980E+00   -9.939E+00   -9.898E+00   -9.857E+00
    -9.815E+00   -9.774E+00   -9.732E+00   -9.691E+00   -9.649E+00   -9.607E+00   -9.565E+00   -9.523E+00   -9.481E+00   -9.439E+00
    -9.397E+00   -9.354E+00   -9.312E+00   -9.270E+00   -9.227E+00   -9.185E+00   -9.142E+00   -9.100E+00   -9.058E+00   -9.015E+00
    -8.973E+00   -8.931E+00   -8.888E+00   -8.846E+00   -8.804E+00   -8.762E+00   -8.720E+00   -8.678E+00   -8.636E+00   -8.594E+00
    -8.553E+00   -8.511E+00   -8.470E+00   -8.429E+00   -8.387E+00   -8.346E+00   -8.306E+00   -8.265E+00   -8.224E+00   -8.184E+00
    -8.144E+00   -8.104E+00   -8.064E+00   -8.025E+00   -7.985E+00   -7.946E+00   -7.907E+00   -7.869E+00   -7.830E+00   -7.792E+00
    -7.754E+00   -7.716E+00   -7.679E+00   -7.641E+00   -7.604E+00   -7.567E+00   -7.530E+00   -7.494E+00   -7.458E+00   -7.422E+00
    -7.386E+00   -7.350E+00   -7.315E+00   -7.280E+00   -7.245E+00   -7.211E+00   -7.176E+00   -7.142E+00   -7.108E+00   -7.075E+00
    -7.041E+00   -7.008E+00   -6.976E+00   -6.943E+00   -6.911E+00   -6.879E+00   -6.847E+00   -6.815E+00   -6.784E+00   -6.753E+00
    -6.722E+00   -6.692E+00   -6.662E+00   -6.632E+00   -6.602E+00   -6.573E+00   -6.544E+00   -6.515E+00   -6.487E+00   -6.458E+00
    -6.430E+00   -6.403E+00   -6.375E+00   -6.348E+00   -6.321E+00   -6.294E+00   -6.268E+00   -6.242E+00   -6.216E+00   -6.190E+00
    -6.164E+00   -6.139E+00   -6.114E+00   -6.089E+00   -6.064E+00   -6.040E+00   -6.016E+00   -5.991E+00   -5.967E+00   -5.944E+00
    -5.920E+00   -5.897E+00   -5.874E+00   -5.850E+00   -5.828E+00   -5.805E+00   -5.782E+00   -5.760E+00   -5.737E+00   -5.715E+00
    -5.693E+00   -5.671E+00   -5.649E+00   -5.628E+00   -5.606E+00   -5.585E+00   -5.563E+00   -5.542E+00   -5.521E+00   -5.500E+00
    -5.479E+00   -5.458E+00   -5.437E+00   -5.416E+00   -5.396E+00   -5.375E+00   -5.354E+00   -5.334E+00   -5.313E+00   -5.293E+00
    -5.272E+00   -5.252E+00   -5.232E+00   -5.211E+00   -5.191E+00   -5.171E+00   -5.150E+00   -5.130E+00   -5.110E+00   -5.090E+00
    -5.069E+00   -5.049E+00   -5.029E+00   -5.008E+00   -4.988E+00   -4.967E+00   -4.947E+00   -4.927E+00   -4.906E+00   -4.885E+00
    -4.865E+00   -4.844E+00   -4.823E+00   -4.802E+00   -4.781E+00   -4.760E+00   -4.739E+00   -4.718E+00   -4.697E+00   -4.675E+00
    -4.654E+00   -4.632E+00   -4.611E+00   -4.589E+00   -4.567E+00   -4.545E+00   -4.522E+00   -4.500E+00   -4.477E+00   -4.455E+00
    -4.432E+00   -4.409E+00   -4.386E+00   -4.363E+00   -4.340E+00   -4.316E+00   -4.293E+00   -4.269E+00   -4.245E+00   -4.221E+00
    -4.197E+00   -4.173E+00   -4.149E+00   -4.125E+00   -4.100E+00   -4.076E+00   -4.051E+00   -4.026E+00   -4.001E+00   -3.977E+00
    -3.952E+00   -3.926E+00   -3.901E+00   -3.876E+00   -3.851E+00   -3.825E+00   -3.800E+00   -3.774E+00   -3.749E+00   -3.723E+00
    -3.697E+00   -3.671E+00   -3.646E+00   -3.620E+00   -3.594E+00   -3.568E+00   -3.542E+00   -3.515E+00   -3.489E+00   -3.463E+00
    -3.437E+00   -3.410E+00   -3.384E+00   -3.358E+00   -3.331E+00   -3.305E+00   -3.278E+00   -3.252E+00   -3.225E+00   -3.199E+00
    -3.172E+00   -3.146E+00   -3.119E+00   -3.092E+00   -3.066E+00   -3.039E+00   -3.012E+00   -2.985E+00   -2.959E+00   -2.932E+00
    -2.905E+00   -2.878E+00   -2.851E+00   -2.824E+00   -2.797E+00   -2.770E+00   -2.744E+00   -2.717E+00   -2.690E+00   -2.663E+00
    -2.636E+00   -2.609E+00   -2.582E+00   -2.555E+00   -2.527E+00   -2.500E+00   -2.473E+00   -2.446E+00   -2.419E+00   -2.392E+00
    -2.365E+00   -2.338E+00   -2.311E+00   -2.284E+00   -2.256E+00   -2.229E+00   -2.202E+00   -2.175E+00
 Ala      Conc. = 3.43E+02
