 LCModel (Version 6.3-1L) Copyright: S.W. Provencher.          Ref.: Magn. Reson. Med. 30:672-679 (1993).                
 Slice#2 Row#2 Col#4  PD_05_press_2_raw_act
 36 lines in following concentration table = NCONC+1
    Conc.  %SD /Cr+PCr  Metabolite                                         
    0.000 999%   0.000 Ala                                                 
  109.565  75%   0.178 Asp                                                 
    0.000 999%   0.000 Cr                                                  
  615.842  22%   1.000 PCr                                                 
   61.376  80%   0.100 GABA                                                
   63.333  78%   0.103 Glc                                                 
 2.04E+03  52%   3.307 Gln                                                 
 1.74E+03  68%   2.821 Glu                                                 
  127.398  38%   0.207 GPC                                                 
    0.000 999%   0.000 PCh                                                 
    0.000 999%   0.000 GSH                                                 
    0.000 999%   0.000 Ins                                                 
    0.000 999%   0.000 Lac                                                 
 1.09E+03  32%   1.765 NAA                                                 
   28.832 999% 4.7E-02 NAAG                                                
   17.314  93% 2.8E-02 Scyllo                                              
   90.508  89%   0.147 Tau                                                 
    0.202 999% 3.3E-04 -CrCH2                                              
  127.398  38%   0.207 GPC+PCh                                             
 1.12E+03  14%   1.812 NAA+NAAG                                            
  615.842  22%   1.000 Cr+PCr                                              
 3.77E+03  50%   6.129 Glu+Gln                                             
    0.000 999%   0.000 Lip13a                                              
    0.000 999%   0.000 Lip13b                                              
    0.000 999%   0.000 Lip09                                               
    0.000 999%   0.000 MM09                                                
 6.92E-04 999% 1.1E-06 Lip20                                               
 1.81E-02 999% 2.9E-05 MM20                                                
    0.000 999%   0.000 MM12                                                
 1.29E-02 999% 2.1E-05 MM14                                                
    0.000 999%   0.000 MM17                                                
    0.000 999%   0.000 Lip13a+Lip13b                                       
 1.29E-02 999% 2.1E-05 MM14+Lip13a+Lip13b+MM12                             
    0.000 999%   0.000 MM09+Lip09                                          
 1.88E-02 999% 3.1E-05 MM20+Lip20                                          
   6 lines in following misc. output table
  FWHM = 0.084 ppm    S/N =   1                                            
  Data shift = 0.023 ppm                                                   
  Ph: -28 deg     -16.8 deg/ppm                                            
  alphaB,S = 8.5E+01,   2.0E+02                                            
   14 spline knots.   Ns =10(1)                                            
   2 inflections.     1 extrema                                            
  498 points on ppm-axis = NY
      4.000000     3.992357     3.984714     3.977070     3.969427     3.961784     3.954141     3.946497     3.938854     3.931211
      3.923568     3.915925     3.908281     3.900638     3.892995     3.885352     3.877708     3.870065     3.862422     3.854779
      3.847136     3.839492     3.831849     3.824206     3.816563     3.808919     3.801276     3.793633     3.785990     3.778347
      3.770703     3.763060     3.755417     3.747774     3.740130     3.732487     3.724844     3.717201     3.709558     3.701914
      3.694271     3.686628     3.678985     3.671341     3.663698     3.656055     3.648412     3.640769     3.633125     3.625482
      3.617839     3.610196     3.602552     3.594909     3.587266     3.579623     3.571980     3.564336     3.556693     3.549050
      3.541407     3.533763     3.526120     3.518477     3.510834     3.503191     3.495547     3.487904     3.480261     3.472618
      3.464974     3.457331     3.449688     3.442045     3.434402     3.426758     3.419115     3.411472     3.403829     3.396185
      3.388542     3.380899     3.373256     3.365613     3.357969     3.350326     3.342683     3.335040     3.327396     3.319753
      3.312110     3.304467     3.296824     3.289180     3.281537     3.273894     3.266251     3.258607     3.250964     3.243321
      3.235678     3.228034     3.220391     3.212748     3.205105     3.197462     3.189818     3.182175     3.174532     3.166889
      3.159245     3.151602     3.143959     3.136316     3.128673     3.121029     3.113386     3.105743     3.098100     3.090456
      3.082813     3.075170     3.067527     3.059884     3.052240     3.044597     3.036954     3.029311     3.021667     3.014024
      3.006381     2.998738     2.991095     2.983451     2.975808     2.968165     2.960522     2.952878     2.945235     2.937592
      2.929949     2.922306     2.914662     2.907019     2.899376     2.891733     2.884089     2.876446     2.868803     2.861160
      2.853517     2.845873     2.838230     2.830587     2.822944     2.815300     2.807657     2.800014     2.792371     2.784728
      2.777084     2.769441     2.761798     2.754155     2.746511     2.738868     2.731225     2.723582     2.715939     2.708295
      2.700652     2.693009     2.685366     2.677722     2.670079     2.662436     2.654793     2.647150     2.639506     2.631863
      2.624220     2.616577     2.608933     2.601290     2.593647     2.586004     2.578361     2.570717     2.563074     2.555431
      2.547788     2.540144     2.532501     2.524858     2.517215     2.509572     2.501928     2.494285     2.486642     2.478999
      2.471355     2.463712     2.456069     2.448426     2.440783     2.433139     2.425496     2.417853     2.410210     2.402566
      2.394923     2.387280     2.379637     2.371994     2.364350     2.356707     2.349064     2.341421     2.333777     2.326134
      2.318491     2.310848     2.303205     2.295561     2.287918     2.280275     2.272632     2.264988     2.257345     2.249702
      2.242059     2.234416     2.226772     2.219129     2.211486     2.203843     2.196199     2.188556     2.180913     2.173270
      2.165627     2.157983     2.150340     2.142697     2.135054     2.127410     2.119767     2.112124     2.104481     2.096838
      2.089194     2.081551     2.073908     2.066265     2.058621     2.050978     2.043335     2.035692     2.028049     2.020405
      2.012762     2.005119     1.997476     1.989833     1.982190     1.974546     1.966903     1.959260     1.951617     1.943974
      1.936331     1.928688     1.921045     1.913402     1.905759     1.898115     1.890472     1.882829     1.875186     1.867543
      1.859900     1.852257     1.844614     1.836971     1.829327     1.821684     1.814041     1.806398     1.798755     1.791112
      1.783469     1.775826     1.768183     1.760540     1.752896     1.745253     1.737610     1.729967     1.722324     1.714681
      1.707038     1.699395     1.691752     1.684108     1.676465     1.668822     1.661179     1.653536     1.645893     1.638250
      1.630607     1.622964     1.615321     1.607677     1.600034     1.592391     1.584748     1.577105     1.569462     1.561819
      1.554176     1.546533     1.538890     1.531246     1.523603     1.515960     1.508317     1.500674     1.493031     1.485388
      1.477745     1.470102     1.462458     1.454815     1.447172     1.439529     1.431886     1.424243     1.416600     1.408957
      1.401314     1.393671     1.386027     1.378384     1.370741     1.363098     1.355455     1.347812     1.340169     1.332526
      1.324883     1.317240     1.309596     1.301953     1.294310     1.286667     1.279024     1.271381     1.263738     1.256095
      1.248452     1.240808     1.233165     1.225522     1.217879     1.210236     1.202593     1.194950     1.187307     1.179664
      1.172021     1.164377     1.156734     1.149091     1.141448     1.133805     1.126162     1.118519     1.110876     1.103233
      1.095590     1.087946     1.080303     1.072660     1.065017     1.057374     1.049731     1.042088     1.034445     1.026802
      1.019158     1.011515     1.003872     0.996229     0.988586     0.980943     0.973300     0.965657     0.958014     0.950371
      0.942727     0.935084     0.927441     0.919798     0.912155     0.904512     0.896869     0.889226     0.881583     0.873940
      0.866296     0.858653     0.851010     0.843367     0.835724     0.828081     0.820438     0.812795     0.805152     0.797508
      0.789865     0.782222     0.774579     0.766936     0.759293     0.751650     0.744007     0.736364     0.728721     0.721077
      0.713434     0.705791     0.698148     0.690505     0.682862     0.675219     0.667576     0.659933     0.652290     0.644646
      0.637003     0.629360     0.621717     0.614074     0.606431     0.598788     0.591145     0.583502     0.575858     0.568215
      0.560572     0.552929     0.545286     0.537643     0.530000     0.522357     0.514714     0.507071     0.499427     0.491784
      0.484141     0.476498     0.468855     0.461212     0.453569     0.445925     0.438282     0.430639     0.422996     0.415353
      0.407710     0.400067     0.392424     0.384780     0.377137     0.369494     0.361851     0.354208     0.346565     0.338922
      0.331278     0.323635     0.315992     0.308349     0.300706     0.293063     0.285420     0.277777     0.270133     0.262490
      0.254847     0.247204     0.239561     0.231918     0.224275     0.216631     0.208988     0.201345
 NY phased data points follow
  -1.50632E-01 -2.41375E+01 -2.46743E+01  8.99311E-01  9.35462E+00  2.51872E+01 -6.71610E+00 -1.67098E+00 -2.55351E+00  1.16043E+01
   1.97676E+01  2.11369E+01  1.51638E+01  8.52855E+00 -9.69930E-02  9.27834E-01 -1.18155E+01  1.16158E+00  6.82272E-02 -1.66928E+00
  -1.12804E+01  3.41257E+00 -1.10029E+01 -1.66158E+00  1.74659E+00  7.47247E+00  6.32273E+00  5.12648E+00 -8.68782E+00 -1.72763E+01
  -4.39193E+00  1.38193E+01 -4.00272E-01  4.04853E+00 -1.45354E+00 -4.74585E+00 -1.35947E+01 -3.14666E-01 -3.33346E+00  1.72838E+00
   8.81194E-01  1.22622E+01  1.15614E+00 -3.02097E+00 -1.74426E+01 -7.92387E+00 -8.16027E+00 -3.31306E+00 -9.12650E+00  4.98438E+00
  -4.70572E-01  6.05621E+00 -1.33925E+01 -1.91029E+00  7.97442E+00  5.42789E+00 -3.29497E-01 -4.23062E+00  3.02348E+00 -2.07849E+00
  -1.03921E+01 -6.79948E+00 -3.67450E+00  3.76666E+00 -6.70924E+00 -5.56463E-01 -1.19841E+01 -2.55052E+00  7.02551E-01  6.27393E+00
   1.09340E+00  1.84431E+00 -1.35425E+00 -3.81446E+00 -4.62090E+00 -2.15053E+00 -2.04825E+01 -3.59948E-01 -9.08550E+00  3.13647E+00
  -1.18338E+01  7.80510E+00 -9.53005E+00 -8.86190E+00  1.87027E+00 -1.95859E-01 -1.29906E+01 -3.21286E+00  1.46941E+00 -8.04833E+00
  -1.54521E+00 -1.17182E+01 -1.79328E+01 -3.08795E+00 -1.03087E+01 -1.46839E+00 -9.62336E-01 -6.95116E+00 -9.77494E+00  4.78126E+00
  -4.29938E+00  8.91485E+00  2.07560E+01  7.98578E+00  7.38707E+00  4.76711E+00 -8.88472E+00  5.45442E+00  2.19596E+00  1.08568E+01
  -1.57588E+01  4.78739E-01 -7.39723E+00 -6.11709E+00 -7.15132E+00 -1.66771E+01 -1.34109E+01 -5.32645E+00 -5.99055E+00 -7.38663E+00
  -9.43467E+00 -8.94864E+00 -6.50091E+00  1.37439E+01  2.03075E+00 -3.79203E+00  1.21342E+00  1.32082E+01  1.02664E+01  5.94766E+00
   1.47553E+01 -4.27423E+00  1.23145E+01  2.92001E+00  1.92667E+00  7.54823E+00  2.43904E+00  1.06140E+01 -4.54474E-01  1.08776E+01
  -4.10071E+00 -5.79617E+00  5.63006E+00 -3.07339E+00 -4.76752E+00 -8.82311E+00 -5.37722E+00  5.14235E+00 -4.18210E+00 -8.54097E+00
  -1.14987E+01 -1.58963E+01 -1.44826E+00 -1.12964E+01 -1.92562E+01 -1.32975E+01 -6.00381E+00  3.81788E+00  1.04392E-01  1.61614E+00
  -3.54752E+00 -2.50568E+00 -8.61574E+00 -4.00497E+00 -3.89606E+00 -6.29002E+00  4.13775E+00 -8.66066E-01 -1.96138E+01 -8.58753E+00
  -1.20706E+01 -2.09993E+00 -6.30945E+00 -1.97949E+00 -2.00528E+00  1.36779E+00 -2.01737E+01 -4.14319E+00  1.03439E+00 -1.41729E+01
  -3.25721E+00  9.77912E+00 -6.83257E+00 -1.75467E+01  8.19593E+00 -9.85625E+00  1.26610E+01  2.17251E+00  1.79567E+00 -7.78830E+00
  -4.02272E+00  7.47934E+00 -2.04940E+00 -6.54693E+00 -3.09409E-01 -2.20809E+01  7.39975E+00 -8.89087E+00  7.59783E+00  5.85328E-01
  -2.36389E+01 -7.05295E+00 -9.93591E+00  1.45165E+00 -1.42930E+01  8.15365E-01  3.51665E+00 -9.28975E+00 -1.87379E+01 -1.57252E+01
  -8.64895E+00 -1.24106E+01 -1.37802E+01  2.64222E+00  1.15466E+01  1.89157E+00  5.66859E+00 -4.76613E-01 -4.82665E+00  3.88326E+00
  -5.93818E-01  5.00872E+00  5.86956E+00 -4.26900E+00 -1.09680E+01 -4.96037E+00 -6.47051E+00  6.29607E+00  7.80175E+00 -3.40682E+00
   1.49937E+00 -3.06420E+00  3.09744E+00  1.08544E+01  4.94848E+00 -7.88220E+00 -1.07119E+01  2.26736E+01 -1.21581E+01 -1.28397E+01
   8.35525E+00 -1.34746E+01 -6.08411E+00  5.76888E+00 -4.74295E+00  6.26754E+00 -1.12108E+00 -2.48905E+00 -1.36544E+01 -3.83387E+00
  -5.13777E-01  4.34037E+00 -1.33152E+01  2.23138E+00  1.70017E+01  8.83486E-01  1.53348E+01  5.18779E+00  1.85084E+01  1.28687E+01
   1.55984E+01  2.23324E+01  2.29243E+01  1.12176E+01  1.84752E+01  2.83466E+01  2.32967E+01  1.23674E+01  1.82085E+01  1.42200E+01
   7.00985E+00  6.67530E-01 -1.38946E+01 -3.90512E+00 -1.39202E+01 -6.27201E-01  8.68457E+00 -5.02707E+00 -6.12319E-01  8.91032E-01
  -1.12690E+01  1.05401E+01  7.89811E+00 -6.36855E+00 -5.61331E+00 -6.98059E+00 -3.41546E+00  7.09443E-01  1.55917E+01  4.37460E+00
   7.18638E+00  9.03897E-01 -6.97560E+00 -8.62724E-01  3.67604E+00  4.18190E+00 -1.06992E+01 -1.39679E+01 -9.66552E+00  6.45888E+00
   4.10125E+00 -6.75051E+00 -3.62137E+00 -4.07479E+00 -5.72618E+00 -5.25556E+00  1.10379E+00 -1.31516E+01  1.06835E+01 -3.24277E+00
  -3.23182E+00 -1.52615E+01 -4.66753E+00  9.80069E+00  2.88695E+00 -8.50985E+00 -3.04238E+00 -1.17824E+01 -4.99031E+00  1.52923E+00
  -1.02406E+00 -1.47822E+01 -9.28549E+00  1.51397E+01 -2.60212E-01 -1.07557E+01  4.12995E+00  1.19453E+01 -2.54196E+00  1.64487E+01
   2.83335E+00  5.24633E+00  7.36991E+00  4.07284E-01 -8.43499E+00  1.84651E+00 -2.38264E+00 -8.21001E+00 -8.47633E+00  5.69690E+00
  -1.61819E+01 -5.52350E-01  3.46018E+00 -1.91313E+01 -3.17835E+00  7.43428E-01  1.20181E+00  6.20831E+00  4.46708E+00  2.97733E+00
  -1.03427E+01 -1.46947E+01  1.94549E+00 -3.85470E+00 -5.16623E+00 -1.38648E+01 -3.42405E+00 -5.24493E+00 -2.45236E+01 -1.80709E+01
   3.68992E+00 -6.21849E+00  4.57767E+00  4.49607E+00 -1.28899E+01 -1.36061E+01  7.64385E+00 -1.13784E+01 -1.72722E+00  2.23974E-01
  -1.00532E+01 -9.75569E+00 -1.66161E+01 -9.04916E+00 -1.21640E+01 -4.68131E+00 -4.85500E+00 -8.42061E+00  1.61775E+00 -5.76634E+00
  -6.43920E+00  3.44515E+00  4.14730E+00  8.95350E+00  7.57701E+00 -4.53999E+00  1.83754E+00 -5.74983E+00 -5.73890E-01 -7.33265E+00
   9.68280E+00 -4.44103E+00 -3.63605E+00  1.22590E-01  8.00747E+00  2.63957E+00  2.21577E+00 -1.43810E+01  9.55272E+00  4.45816E+00
   1.80017E+00 -2.36936E+01 -2.58182E+00 -1.64814E+01 -8.53489E+00 -2.01444E+01 -1.18751E+01 -1.28716E+01 -8.38778E+00 -6.44022E+00
  -1.17055E+01 -1.15798E+00  1.22311E+01  4.55876E-02  7.87616E+00  3.28342E+00  5.17182E+00 -1.66357E+01 -1.59123E+01 -1.01603E+01
  -2.49869E+00 -7.59426E+00 -7.40258E+00  3.39050E+00 -4.37631E+00  2.52189E+00 -1.10861E+01 -6.49655E+00 -1.31306E+01 -3.89928E+00
  -1.00113E+01 -2.96263E+00  7.83947E-01  1.84281E+00 -4.49110E-01 -3.24536E+00 -1.77315E+00  6.45679E+00 -3.96573E+00 -1.66231E+00
  -1.27496E+01 -9.78440E+00 -1.52188E+01 -6.92798E+00  1.08070E+01  2.36360E+00 -1.29530E+01 -5.48333E+00 -2.38351E+00 -3.62779E+00
  -3.19758E+00 -5.37617E+00 -1.63013E+01 -2.26641E+01 -6.32584E+00 -7.77330E+00 -1.04393E+01  1.25618E+01 -1.15513E+01 -7.60540E+00
  -1.84599E+01  8.06066E+00  1.29583E+01 -2.00977E+00  1.98644E+01 -9.66165E-01  2.74493E+00 -1.16336E+00  2.79997E+00 -1.41529E+01
   9.12909E+00  1.00434E+01  5.95500E+00  8.55983E+00 -4.43558E+00 -4.66866E+00 -7.24902E-01  4.03989E+00 -1.25261E+00 -2.29847E-01
  -3.31896E+00 -1.26332E+00  6.56094E-01  4.13464E+00  7.11398E+00 -2.81133E+00 -3.52015E+00 -6.35146E+00  3.15365E+00 -1.85124E+00
  -4.83545E+00 -2.74891E+00  8.95662E+00 -5.92665E+00 -6.76199E+00  1.67100E+00 -1.12386E+01 -6.02307E+00
 NY points of the fit to the data follow
  -4.23137E+00 -3.69398E+00 -2.95114E+00 -2.01961E+00 -9.30525E-01  2.79740E-01  1.56452E+00  2.85417E+00  4.04103E+00  4.99938E+00
   5.62682E+00  5.87909E+00  5.78397E+00  5.41731E+00  4.85775E+00  4.16360E+00  3.36186E+00  2.46969E+00  1.50709E+00  5.44672E-01
  -2.84153E-01 -8.43776E-01 -1.17787E+00 -1.41793E+00 -1.59221E+00 -1.70088E+00 -1.74218E+00 -1.70002E+00 -1.55915E+00 -1.30300E+00
  -9.44959E-01 -5.58649E-01 -2.46309E-01 -8.86109E-02 -1.11222E-01 -2.62303E-01 -4.37633E-01 -5.70518E-01 -7.03812E-01 -9.05496E-01
  -1.22231E+00 -1.63089E+00 -2.03769E+00 -2.27814E+00 -2.20274E+00 -1.88770E+00 -1.50512E+00 -1.19090E+00 -1.06045E+00 -1.15524E+00
  -1.42453E+00 -1.73517E+00 -2.00163E+00 -2.22226E+00 -2.40712E+00 -2.56335E+00 -2.70345E+00 -2.83108E+00 -2.94481E+00 -3.05035E+00
  -3.15111E+00 -3.24054E+00 -3.31197E+00 -3.36928E+00 -3.41716E+00 -3.45642E+00 -3.48428E+00 -3.50043E+00 -3.50763E+00 -3.50916E+00
  -3.50762E+00 -3.50363E+00 -3.49704E+00 -3.48922E+00 -3.48412E+00 -3.48523E+00 -3.48921E+00 -3.49060E+00 -3.48585E+00 -3.47154E+00
  -3.44734E+00 -3.41304E+00 -3.37312E+00 -3.33224E+00 -3.29529E+00 -3.26954E+00 -3.26076E+00 -3.26917E+00 -3.29736E+00 -3.35058E+00
  -3.42788E+00 -3.52126E+00 -3.59241E+00 -3.54151E+00 -3.31703E+00 -2.90233E+00 -2.29309E+00 -1.50153E+00 -5.49596E-01  5.12526E-01
   1.61597E+00  2.67813E+00  3.58972E+00  4.24063E+00  4.55373E+00  4.50868E+00  4.14777E+00  3.54305E+00  2.75180E+00  1.81143E+00
   7.61111E-01 -3.53579E-01 -1.46659E+00 -2.45385E+00 -3.15362E+00 -3.49543E+00 -3.62326E+00 -3.51809E+00 -3.11549E+00 -2.40732E+00
  -1.39698E+00 -1.18900E-01  1.37958E+00  3.04260E+00  4.79456E+00  6.51839E+00  8.04207E+00  9.17707E+00  9.78293E+00  9.81514E+00
   9.33301E+00  8.44962E+00  7.25865E+00  5.81593E+00  4.17262E+00  2.39662E+00  5.98277E-01 -1.03123E+00 -2.23323E+00 -2.83921E+00
  -3.08528E+00 -3.22309E+00 -3.31291E+00 -3.37344E+00 -3.41679E+00 -3.45223E+00 -3.48609E+00 -3.52085E+00 -3.55532E+00 -3.58933E+00
  -3.62297E+00 -3.66065E+00 -3.70933E+00 -3.77318E+00 -3.85340E+00 -3.94131E+00 -4.02910E+00 -4.11449E+00 -4.19652E+00 -4.27708E+00
  -4.35431E+00 -4.42093E+00 -4.47126E+00 -4.50622E+00 -4.53495E+00 -4.57059E+00 -4.62590E+00 -4.70569E+00 -4.79983E+00 -4.89823E+00
  -4.99696E+00 -5.10469E+00 -5.23566E+00 -5.39369E+00 -5.55736E+00 -5.69336E+00 -5.78054E+00 -5.81671E+00 -5.82090E+00 -5.80441E+00
  -5.76615E+00 -5.70001E+00 -5.59834E+00 -5.46158E+00 -5.30623E+00 -5.14934E+00 -5.01686E+00 -4.93091E+00 -4.90577E+00 -4.94169E+00
  -5.02470E+00 -5.14297E+00 -5.26714E+00 -5.35536E+00 -5.34692E+00 -5.16514E+00 -4.76958E+00 -4.17140E+00 -3.41985E+00 -2.60343E+00
  -1.87599E+00 -1.34936E+00 -1.10199E+00 -1.20490E+00 -1.68061E+00 -2.49691E+00 -3.54279E+00 -4.67677E+00 -5.75813E+00 -6.59785E+00
  -7.04516E+00 -7.04064E+00 -6.61587E+00 -5.86570E+00 -4.92992E+00 -3.96199E+00 -3.08079E+00 -2.35384E+00 -1.87185E+00 -1.70874E+00
  -1.89677E+00 -2.45211E+00 -3.28658E+00 -4.04848E+00 -4.51442E+00 -4.69096E+00 -4.60893E+00 -4.26055E+00 -3.66980E+00 -3.00438E+00
  -2.39054E+00 -1.85883E+00 -1.46289E+00 -1.31364E+00 -1.44213E+00 -1.72567E+00 -1.97798E+00 -2.11942E+00 -2.19366E+00 -2.27498E+00
  -2.45592E+00 -2.78725E+00 -3.25991E+00 -3.82096E+00 -4.37990E+00 -4.85110E+00 -5.22197E+00 -5.54244E+00 -5.81358E+00 -5.87137E+00
  -5.45869E+00 -4.32403E+00 -2.45172E+00  5.86772E-02  2.98069E+00  6.08373E+00  9.30374E+00  1.25445E+01  1.56545E+01  1.84199E+01
   2.05593E+01  2.17924E+01  2.19829E+01  2.12078E+01  1.96852E+01  1.76413E+01  1.52078E+01  1.24575E+01  9.46851E+00  6.35341E+00
   3.35004E+00  8.86817E-01 -5.76455E-01 -1.12226E+00 -1.33662E+00 -1.43587E+00 -1.47658E+00 -1.50057E+00 -1.52926E+00 -1.55770E+00
  -1.59322E+00 -1.64310E+00 -1.71074E+00 -1.79471E+00 -1.88841E+00 -1.97546E+00 -2.04346E+00 -2.09251E+00 -2.12629E+00 -2.14854E+00
  -2.16399E+00 -2.17763E+00 -2.19432E+00 -2.21633E+00 -2.24111E+00 -2.26695E+00 -2.29271E+00 -2.31691E+00 -2.33843E+00 -2.35745E+00
  -2.37451E+00 -2.38947E+00 -2.40211E+00 -2.41305E+00 -2.42265E+00 -2.43108E+00 -2.43900E+00 -2.44664E+00 -2.45408E+00 -2.46142E+00
  -2.46879E+00 -2.47630E+00 -2.48392E+00 -2.49158E+00 -2.49915E+00 -2.50638E+00 -2.51323E+00 -2.51972E+00 -2.52583E+00 -2.53160E+00
  -2.53707E+00 -2.54225E+00 -2.54716E+00 -2.55181E+00 -2.55623E+00 -2.56043E+00 -2.56443E+00 -2.56822E+00 -2.57181E+00 -2.57522E+00
  -2.57846E+00 -2.58153E+00 -2.58443E+00 -2.58716E+00 -2.58974E+00 -2.59217E+00 -2.59447E+00 -2.59663E+00 -2.59865E+00 -2.60054E+00
  -2.60231E+00 -2.60396E+00 -2.60551E+00 -2.60695E+00 -2.60829E+00 -2.60952E+00 -2.61067E+00 -2.61173E+00 -2.61270E+00 -2.61360E+00
  -2.61440E+00 -2.61513E+00 -2.61579E+00 -2.61638E+00 -2.61690E+00 -2.61734E+00 -2.61771E+00 -2.61801E+00 -2.61825E+00 -2.61843E+00
  -2.61854E+00 -2.61859E+00 -2.61858E+00 -2.61851E+00 -2.61838E+00 -2.61821E+00 -2.61798E+00 -2.61769E+00 -2.61735E+00 -2.61697E+00
  -2.61655E+00 -2.61607E+00 -2.61555E+00 -2.61498E+00 -2.61437E+00 -2.61372E+00 -2.61303E+00 -2.61230E+00 -2.61153E+00 -2.61072E+00
  -2.60987E+00 -2.60899E+00 -2.60807E+00 -2.60711E+00 -2.60612E+00 -2.60509E+00 -2.60403E+00 -2.60294E+00 -2.60182E+00 -2.60067E+00
  -2.59948E+00 -2.59826E+00 -2.59702E+00 -2.59575E+00 -2.59445E+00 -2.59312E+00 -2.59176E+00 -2.59038E+00 -2.58897E+00 -2.58754E+00
  -2.58608E+00 -2.58459E+00 -2.58308E+00 -2.58155E+00 -2.58000E+00 -2.57842E+00 -2.57681E+00 -2.57518E+00 -2.57354E+00 -2.57187E+00
  -2.57018E+00 -2.56847E+00 -2.56673E+00 -2.56497E+00 -2.56320E+00 -2.56141E+00 -2.55961E+00 -2.55777E+00 -2.55592E+00 -2.55406E+00
  -2.55217E+00 -2.55027E+00 -2.54835E+00 -2.54640E+00 -2.54444E+00 -2.54246E+00 -2.54047E+00 -2.53846E+00 -2.53643E+00 -2.53439E+00
  -2.53233E+00 -2.53025E+00 -2.52817E+00 -2.52607E+00 -2.52395E+00 -2.52182E+00 -2.51967E+00 -2.51752E+00 -2.51534E+00 -2.51315E+00
  -2.51094E+00 -2.50871E+00 -2.50647E+00 -2.50422E+00 -2.50195E+00 -2.49966E+00 -2.49736E+00 -2.49504E+00 -2.49272E+00 -2.49038E+00
  -2.48802E+00 -2.48565E+00 -2.48327E+00 -2.48088E+00 -2.47848E+00 -2.47607E+00 -2.47364E+00 -2.47120E+00 -2.46875E+00 -2.46628E+00
  -2.46380E+00 -2.46130E+00 -2.45879E+00 -2.45626E+00 -2.45371E+00 -2.45115E+00 -2.44857E+00 -2.44598E+00 -2.44337E+00 -2.44074E+00
  -2.43809E+00 -2.43543E+00 -2.43275E+00 -2.43005E+00 -2.42733E+00 -2.42460E+00 -2.42184E+00 -2.41907E+00 -2.41627E+00 -2.41344E+00
  -2.41059E+00 -2.40772E+00 -2.40482E+00 -2.40190E+00 -2.39894E+00 -2.39595E+00 -2.39293E+00 -2.38988E+00 -2.38679E+00 -2.38365E+00
  -2.38046E+00 -2.37723E+00 -2.37394E+00 -2.37059E+00 -2.36717E+00 -2.36367E+00 -2.36009E+00 -2.35641E+00
 NY background values follow
    -4.086E+00   -4.083E+00   -4.080E+00   -4.077E+00   -4.074E+00   -4.071E+00   -4.068E+00   -4.064E+00   -4.061E+00   -4.058E+00
    -4.055E+00   -4.052E+00   -4.049E+00   -4.046E+00   -4.043E+00   -4.040E+00   -4.036E+00   -4.033E+00   -4.030E+00   -4.027E+00
    -4.024E+00   -4.021E+00   -4.018E+00   -4.015E+00   -4.012E+00   -4.008E+00   -4.005E+00   -4.002E+00   -3.999E+00   -3.996E+00
    -3.993E+00   -3.990E+00   -3.986E+00   -3.983E+00   -3.980E+00   -3.977E+00   -3.974E+00   -3.971E+00   -3.968E+00   -3.964E+00
    -3.961E+00   -3.958E+00   -3.955E+00   -3.952E+00   -3.949E+00   -3.946E+00   -3.942E+00   -3.939E+00   -3.936E+00   -3.933E+00
    -3.930E+00   -3.927E+00   -3.923E+00   -3.920E+00   -3.917E+00   -3.914E+00   -3.911E+00   -3.908E+00   -3.904E+00   -3.901E+00
    -3.898E+00   -3.895E+00   -3.892E+00   -3.889E+00   -3.885E+00   -3.882E+00   -3.879E+00   -3.876E+00   -3.873E+00   -3.869E+00
    -3.866E+00   -3.863E+00   -3.860E+00   -3.857E+00   -3.853E+00   -3.850E+00   -3.847E+00   -3.844E+00   -3.841E+00   -3.837E+00
    -3.834E+00   -3.831E+00   -3.828E+00   -3.825E+00   -3.821E+00   -3.818E+00   -3.815E+00   -3.812E+00   -3.809E+00   -3.805E+00
    -3.802E+00   -3.799E+00   -3.796E+00   -3.793E+00   -3.789E+00   -3.786E+00   -3.783E+00   -3.780E+00   -3.776E+00   -3.773E+00
    -3.770E+00   -3.767E+00   -3.763E+00   -3.760E+00   -3.757E+00   -3.754E+00   -3.751E+00   -3.747E+00   -3.744E+00   -3.741E+00
    -3.738E+00   -3.734E+00   -3.731E+00   -3.728E+00   -3.725E+00   -3.721E+00   -3.718E+00   -3.715E+00   -3.712E+00   -3.708E+00
    -3.705E+00   -3.702E+00   -3.699E+00   -3.695E+00   -3.692E+00   -3.689E+00   -3.686E+00   -3.682E+00   -3.679E+00   -3.676E+00
    -3.673E+00   -3.669E+00   -3.666E+00   -3.663E+00   -3.659E+00   -3.656E+00   -3.653E+00   -3.650E+00   -3.646E+00   -3.643E+00
    -3.640E+00   -3.637E+00   -3.633E+00   -3.630E+00   -3.627E+00   -3.623E+00   -3.620E+00   -3.617E+00   -3.614E+00   -3.610E+00
    -3.607E+00   -3.604E+00   -3.600E+00   -3.597E+00   -3.594E+00   -3.591E+00   -3.587E+00   -3.584E+00   -3.581E+00   -3.577E+00
    -3.574E+00   -3.571E+00   -3.567E+00   -3.564E+00   -3.561E+00   -3.558E+00   -3.554E+00   -3.551E+00   -3.548E+00   -3.544E+00
    -3.541E+00   -3.538E+00   -3.534E+00   -3.531E+00   -3.528E+00   -3.524E+00   -3.521E+00   -3.518E+00   -3.514E+00   -3.511E+00
    -3.508E+00   -3.504E+00   -3.501E+00   -3.498E+00   -3.495E+00   -3.491E+00   -3.488E+00   -3.485E+00   -3.481E+00   -3.478E+00
    -3.475E+00   -3.471E+00   -3.468E+00   -3.465E+00   -3.461E+00   -3.458E+00   -3.455E+00   -3.451E+00   -3.448E+00   -3.444E+00
    -3.441E+00   -3.438E+00   -3.434E+00   -3.431E+00   -3.428E+00   -3.424E+00   -3.421E+00   -3.418E+00   -3.414E+00   -3.411E+00
    -3.408E+00   -3.404E+00   -3.401E+00   -3.398E+00   -3.394E+00   -3.391E+00   -3.388E+00   -3.384E+00   -3.381E+00   -3.377E+00
    -3.374E+00   -3.371E+00   -3.367E+00   -3.364E+00   -3.361E+00   -3.357E+00   -3.354E+00   -3.351E+00   -3.347E+00   -3.344E+00
    -3.340E+00   -3.337E+00   -3.334E+00   -3.330E+00   -3.327E+00   -3.324E+00   -3.320E+00   -3.317E+00   -3.313E+00   -3.310E+00
    -3.307E+00   -3.303E+00   -3.300E+00   -3.296E+00   -3.293E+00   -3.290E+00   -3.286E+00   -3.283E+00   -3.280E+00   -3.276E+00
    -3.273E+00   -3.269E+00   -3.266E+00   -3.263E+00   -3.259E+00   -3.256E+00   -3.252E+00   -3.249E+00   -3.246E+00   -3.242E+00
    -3.239E+00   -3.235E+00   -3.232E+00   -3.229E+00   -3.225E+00   -3.222E+00   -3.218E+00   -3.215E+00   -3.212E+00   -3.208E+00
    -3.205E+00   -3.201E+00   -3.198E+00   -3.195E+00   -3.191E+00   -3.188E+00   -3.184E+00   -3.181E+00   -3.177E+00   -3.174E+00
    -3.171E+00   -3.167E+00   -3.164E+00   -3.160E+00   -3.157E+00   -3.153E+00   -3.150E+00   -3.147E+00   -3.143E+00   -3.140E+00
    -3.136E+00   -3.133E+00   -3.130E+00   -3.126E+00   -3.123E+00   -3.119E+00   -3.116E+00   -3.112E+00   -3.109E+00   -3.105E+00
    -3.102E+00   -3.099E+00   -3.095E+00   -3.092E+00   -3.088E+00   -3.085E+00   -3.081E+00   -3.078E+00   -3.075E+00   -3.071E+00
    -3.068E+00   -3.064E+00   -3.061E+00   -3.057E+00   -3.054E+00   -3.050E+00   -3.047E+00   -3.044E+00   -3.040E+00   -3.037E+00
    -3.033E+00   -3.030E+00   -3.026E+00   -3.023E+00   -3.019E+00   -3.016E+00   -3.012E+00   -3.009E+00   -3.006E+00   -3.002E+00
    -2.999E+00   -2.995E+00   -2.992E+00   -2.988E+00   -2.985E+00   -2.981E+00   -2.978E+00   -2.974E+00   -2.971E+00   -2.968E+00
    -2.964E+00   -2.961E+00   -2.957E+00   -2.954E+00   -2.950E+00   -2.947E+00   -2.943E+00   -2.940E+00   -2.936E+00   -2.933E+00
    -2.929E+00   -2.926E+00   -2.922E+00   -2.919E+00   -2.915E+00   -2.912E+00   -2.909E+00   -2.905E+00   -2.902E+00   -2.898E+00
    -2.895E+00   -2.891E+00   -2.888E+00   -2.884E+00   -2.881E+00   -2.877E+00   -2.874E+00   -2.870E+00   -2.867E+00   -2.863E+00
    -2.860E+00   -2.856E+00   -2.853E+00   -2.849E+00   -2.846E+00   -2.842E+00   -2.839E+00   -2.835E+00   -2.832E+00   -2.828E+00
    -2.825E+00   -2.821E+00   -2.818E+00   -2.814E+00   -2.811E+00   -2.807E+00   -2.804E+00   -2.800E+00   -2.797E+00   -2.793E+00
    -2.790E+00   -2.786E+00   -2.783E+00   -2.779E+00   -2.776E+00   -2.772E+00   -2.769E+00   -2.765E+00   -2.762E+00   -2.758E+00
    -2.755E+00   -2.751E+00   -2.748E+00   -2.744E+00   -2.741E+00   -2.737E+00   -2.734E+00   -2.730E+00   -2.727E+00   -2.723E+00
    -2.720E+00   -2.716E+00   -2.713E+00   -2.709E+00   -2.706E+00   -2.702E+00   -2.699E+00   -2.695E+00   -2.692E+00   -2.688E+00
    -2.685E+00   -2.681E+00   -2.678E+00   -2.674E+00   -2.671E+00   -2.667E+00   -2.664E+00   -2.660E+00   -2.657E+00   -2.653E+00
    -2.649E+00   -2.646E+00   -2.642E+00   -2.639E+00   -2.635E+00   -2.632E+00   -2.628E+00   -2.625E+00   -2.621E+00   -2.618E+00
    -2.614E+00   -2.611E+00   -2.607E+00   -2.604E+00   -2.600E+00   -2.597E+00   -2.593E+00   -2.590E+00   -2.586E+00   -2.582E+00
    -2.579E+00   -2.575E+00   -2.572E+00   -2.568E+00   -2.565E+00   -2.561E+00   -2.558E+00   -2.554E+00   -2.551E+00   -2.547E+00
    -2.544E+00   -2.540E+00   -2.537E+00   -2.533E+00   -2.529E+00   -2.526E+00   -2.522E+00   -2.519E+00   -2.515E+00   -2.512E+00
    -2.508E+00   -2.505E+00   -2.501E+00   -2.498E+00   -2.494E+00   -2.491E+00   -2.487E+00   -2.483E+00   -2.480E+00   -2.476E+00
    -2.473E+00   -2.469E+00   -2.466E+00   -2.462E+00   -2.459E+00   -2.455E+00   -2.452E+00   -2.448E+00   -2.444E+00   -2.441E+00
    -2.437E+00   -2.434E+00   -2.430E+00   -2.427E+00   -2.423E+00   -2.420E+00   -2.416E+00   -2.412E+00
 Asp      Conc. = 1.10E+02
