 LCModel (Version 6.3-1L) Copyright: S.W. Provencher.          Ref.: Magn. Reson. Med. 30:672-679 (1993).                
 Slice#1 Row#3 Col#9  PD_05_press_2_raw_act
 36 lines in following concentration table = NCONC+1
    Conc.  %SD /Cr+PCr  Metabolite                                         
    0.000 999%   0.000 Ala                                                 
    0.000 999%   0.000 Asp                                                 
 1.58E+03  12%   1.000 Cr                                                  
    0.000 999%   0.000 PCr                                                 
  222.915 102%   0.141 GABA                                                
  138.722 161% 8.8E-02 Glc                                                 
 3.95E+03  41%   2.507 Gln                                                 
 2.16E+03  86%   1.369 Glu                                                 
  763.241   9%   0.484 GPC                                                 
    0.000 999%   0.000 PCh                                                 
 1.05E+03  30%   0.665 GSH                                                 
 2.98E+03  26%   1.889 Ins                                                 
    0.000 999%   0.000 Lac                                                 
 2.70E+03  10%   1.714 NAA                                                 
    0.000 999%   0.000 NAAG                                                
  159.822  39%   0.101 Scyllo                                              
  388.596  88%   0.246 Tau                                                 
  335.386  99%   0.213 -CrCH2                                              
  763.241   9%   0.484 GPC+PCh                                             
 2.70E+03  10%   1.714 NAA+NAAG                                            
 1.58E+03  12%   1.000 Cr+PCr                                              
 6.11E+03  50%   3.876 Glu+Gln                                             
    0.000 999%   0.000 Lip13a                                              
    0.000 999%   0.000 Lip13b                                              
 1.26E-02 999% 8.0E-06 Lip09                                               
 2.87E+03  13%   1.823 MM09                                                
 3.64E-03 999% 2.3E-06 Lip20                                               
 3.33E+03  26%   2.110 MM20                                                
  340.742  97%   0.216 MM12                                                
 5.26E+03  13%   3.334 MM14                                                
 1.54E+03  33%   0.979 MM17                                                
    0.000 999%   0.000 Lip13a+Lip13b                                       
 5.60E+03  12%   3.550 MM14+Lip13a+Lip13b+MM12                             
 2.87E+03  13%   1.823 MM09+Lip09                                          
 3.33E+03  26%   2.110 MM20+Lip20                                          
   6 lines in following misc. output table
  FWHM = 0.107 ppm    S/N =   3                                            
  Data shift = 0.023 ppm                                                   
  Ph: -51 deg      -4.0 deg/ppm                                            
  alphaB,S = 8.5E+01,   1.0E+02                                            
   14 spline knots.   Ns = 6(2)                                            
   2 inflections.     1 extrema                                            
  498 points on ppm-axis = NY
      4.000000     3.992357     3.984714     3.977070     3.969427     3.961784     3.954141     3.946497     3.938854     3.931211
      3.923568     3.915925     3.908281     3.900638     3.892995     3.885352     3.877708     3.870065     3.862422     3.854779
      3.847136     3.839492     3.831849     3.824206     3.816563     3.808919     3.801276     3.793633     3.785990     3.778347
      3.770703     3.763060     3.755417     3.747774     3.740130     3.732487     3.724844     3.717201     3.709558     3.701914
      3.694271     3.686628     3.678985     3.671341     3.663698     3.656055     3.648412     3.640769     3.633125     3.625482
      3.617839     3.610196     3.602552     3.594909     3.587266     3.579623     3.571980     3.564336     3.556693     3.549050
      3.541407     3.533763     3.526120     3.518477     3.510834     3.503191     3.495547     3.487904     3.480261     3.472618
      3.464974     3.457331     3.449688     3.442045     3.434402     3.426758     3.419115     3.411472     3.403829     3.396185
      3.388542     3.380899     3.373256     3.365613     3.357969     3.350326     3.342683     3.335040     3.327396     3.319753
      3.312110     3.304467     3.296824     3.289180     3.281537     3.273894     3.266251     3.258607     3.250964     3.243321
      3.235678     3.228034     3.220391     3.212748     3.205105     3.197462     3.189818     3.182175     3.174532     3.166889
      3.159245     3.151602     3.143959     3.136316     3.128673     3.121029     3.113386     3.105743     3.098100     3.090456
      3.082813     3.075170     3.067527     3.059884     3.052240     3.044597     3.036954     3.029311     3.021667     3.014024
      3.006381     2.998738     2.991095     2.983451     2.975808     2.968165     2.960522     2.952878     2.945235     2.937592
      2.929949     2.922306     2.914662     2.907019     2.899376     2.891733     2.884089     2.876446     2.868803     2.861160
      2.853517     2.845873     2.838230     2.830587     2.822944     2.815300     2.807657     2.800014     2.792371     2.784728
      2.777084     2.769441     2.761798     2.754155     2.746511     2.738868     2.731225     2.723582     2.715939     2.708295
      2.700652     2.693009     2.685366     2.677722     2.670079     2.662436     2.654793     2.647150     2.639506     2.631863
      2.624220     2.616577     2.608933     2.601290     2.593647     2.586004     2.578361     2.570717     2.563074     2.555431
      2.547788     2.540144     2.532501     2.524858     2.517215     2.509572     2.501928     2.494285     2.486642     2.478999
      2.471355     2.463712     2.456069     2.448426     2.440783     2.433139     2.425496     2.417853     2.410210     2.402566
      2.394923     2.387280     2.379637     2.371994     2.364350     2.356707     2.349064     2.341421     2.333777     2.326134
      2.318491     2.310848     2.303205     2.295561     2.287918     2.280275     2.272632     2.264988     2.257345     2.249702
      2.242059     2.234416     2.226772     2.219129     2.211486     2.203843     2.196199     2.188556     2.180913     2.173270
      2.165627     2.157983     2.150340     2.142697     2.135054     2.127410     2.119767     2.112124     2.104481     2.096838
      2.089194     2.081551     2.073908     2.066265     2.058621     2.050978     2.043335     2.035692     2.028049     2.020405
      2.012762     2.005119     1.997476     1.989833     1.982190     1.974546     1.966903     1.959260     1.951617     1.943974
      1.936331     1.928688     1.921045     1.913402     1.905759     1.898115     1.890472     1.882829     1.875186     1.867543
      1.859900     1.852257     1.844614     1.836971     1.829327     1.821684     1.814041     1.806398     1.798755     1.791112
      1.783469     1.775826     1.768183     1.760540     1.752896     1.745253     1.737610     1.729967     1.722324     1.714681
      1.707038     1.699395     1.691752     1.684108     1.676465     1.668822     1.661179     1.653536     1.645893     1.638250
      1.630607     1.622964     1.615321     1.607677     1.600034     1.592391     1.584748     1.577105     1.569462     1.561819
      1.554176     1.546533     1.538890     1.531246     1.523603     1.515960     1.508317     1.500674     1.493031     1.485388
      1.477745     1.470102     1.462458     1.454815     1.447172     1.439529     1.431886     1.424243     1.416600     1.408957
      1.401314     1.393671     1.386027     1.378384     1.370741     1.363098     1.355455     1.347812     1.340169     1.332526
      1.324883     1.317240     1.309596     1.301953     1.294310     1.286667     1.279024     1.271381     1.263738     1.256095
      1.248452     1.240808     1.233165     1.225522     1.217879     1.210236     1.202593     1.194950     1.187307     1.179664
      1.172021     1.164377     1.156734     1.149091     1.141448     1.133805     1.126162     1.118519     1.110876     1.103233
      1.095590     1.087946     1.080303     1.072660     1.065017     1.057374     1.049731     1.042088     1.034445     1.026802
      1.019158     1.011515     1.003872     0.996229     0.988586     0.980943     0.973300     0.965657     0.958014     0.950371
      0.942727     0.935084     0.927441     0.919798     0.912155     0.904512     0.896869     0.889226     0.881583     0.873940
      0.866296     0.858653     0.851010     0.843367     0.835724     0.828081     0.820438     0.812795     0.805152     0.797508
      0.789865     0.782222     0.774579     0.766936     0.759293     0.751650     0.744007     0.736364     0.728721     0.721077
      0.713434     0.705791     0.698148     0.690505     0.682862     0.675219     0.667576     0.659933     0.652290     0.644646
      0.637003     0.629360     0.621717     0.614074     0.606431     0.598788     0.591145     0.583502     0.575858     0.568215
      0.560572     0.552929     0.545286     0.537643     0.530000     0.522357     0.514714     0.507071     0.499427     0.491784
      0.484141     0.476498     0.468855     0.461212     0.453569     0.445925     0.438282     0.430639     0.422996     0.415353
      0.407710     0.400067     0.392424     0.384780     0.377137     0.369494     0.361851     0.354208     0.346565     0.338922
      0.331278     0.323635     0.315992     0.308349     0.300706     0.293063     0.285420     0.277777     0.270133     0.262490
      0.254847     0.247204     0.239561     0.231918     0.224275     0.216631     0.208988     0.201345
 NY phased data points follow
   9.63943E+00  1.49422E+01  9.03259E-01  4.98111E+00 -7.45840E+00  2.67565E+01 -2.64549E+00  1.79859E+01  3.25420E+01  1.10690E+01
   2.39100E+01  1.85163E+01  2.21345E+01  2.07253E+01  1.33833E+01  2.68586E+01  3.47161E+01  7.38796E+00  2.26754E+01  8.93159E+00
   6.30147E+00  1.29127E+01  2.42005E+01 -7.45428E-01  1.35015E+01  5.55448E+00  2.62926E+01  1.31351E+01  2.56754E+01  2.54333E+01
   8.64680E+00  1.44748E+01  1.76968E+01  2.01148E+01  2.38777E+01  1.59965E+01  1.52604E+01  1.15255E+01  3.43876E+01  1.08315E+01
   7.34847E+00  2.67014E+01  2.80256E+00  1.00885E+01  1.40055E+01  1.38497E+01  1.41032E+01  2.45182E+01  1.68238E+01  6.82462E+00
   1.44572E+01  2.05873E+01  1.32908E+01  1.44431E+01  2.12532E+01  4.61588E+00  2.85470E+01  1.53217E+01  4.10257E+00  2.07174E+01
   1.34155E+01  8.72726E+00  1.86795E+01  1.04935E+01  1.37779E+01  1.36451E+01 -1.61147E+00 -4.41053E+00  4.80622E+00 -5.81290E-01
  -1.95618E+00  1.26165E+01  5.62090E+00 -6.18798E-01  6.29378E+00 -1.14495E+00  3.19619E+00  3.14466E+00  2.70480E-01  1.91224E+01
  -1.68821E+00  9.03101E-01  8.69880E+00  8.90041E+00  3.45762E+00  8.25734E+00  1.40751E+01  2.58641E+00  9.35837E+00  1.30575E+01
   3.42843E-01  1.61020E+01  4.43959E+00  2.05145E+01  1.36390E+01  3.00898E+01  1.51703E+01  2.71803E+01  3.74402E+01  3.11947E+01
   1.82115E+01  3.62346E+01  3.34334E+01  4.64799E+01  4.51127E+01  5.06782E+01  3.96467E+01  1.96952E+01  1.40385E+01  3.98259E+00
   2.56968E+01  8.66640E+00  1.01537E+00  1.60018E+01  1.08138E+01 -8.18394E+00  4.05032E+00  1.42004E+01  2.61656E+01  7.95556E+00
   1.78270E+01  2.30482E+01  2.15120E+01  2.58069E+01  1.39690E+01  2.40599E+01  2.55768E+01  4.54437E+01  3.26756E+01  3.92375E+01
   3.36174E+01  2.06803E+01  3.91999E+01  2.29874E+00  5.33741E+00  1.18036E+01  1.19060E+01 -3.17233E+00 -3.11109E+00  2.64827E+00
   1.47622E+01  1.87283E+01 -5.33460E-01  8.79447E+00  9.79076E+00  7.83149E+00  1.96428E+01  6.05403E+00  1.41666E+01 -2.94310E+00
   1.07820E+01  9.63830E+00  1.05120E+00  1.01388E+01  2.80219E+00 -3.89922E+00  1.04526E+01 -4.25839E-01  1.78966E+01  1.06563E+01
   1.52030E+01 -1.20634E+00 -6.33876E+00 -1.28548E+01  2.69690E+00  2.94896E+00 -2.27647E+01  4.50044E+00  1.38703E+01 -1.57073E+01
   4.02470E+00 -9.04565E+00 -6.03605E+00 -1.01713E+01 -1.92338E+01 -2.85589E+01 -2.31970E+00 -2.90811E+00 -1.69325E+01 -5.88696E+00
  -1.06563E+01 -2.40967E+01 -2.10493E+00 -2.40878E+01 -1.11220E+01 -1.06084E+01 -1.84680E+00 -1.02485E+01 -1.78902E+00 -7.73164E+00
  -2.06593E+01 -1.56501E+01 -1.56683E+01 -6.94327E+00 -3.11874E+00  1.70216E+00  3.43848E+00 -3.34715E+00 -1.18654E+01 -1.30773E+01
  -1.58381E+01 -9.57195E+00  4.74641E-01 -1.00901E+00 -6.37879E+00 -3.90984E+00  2.20666E+00 -6.84986E+00  1.26604E+01 -1.28428E-01
  -1.93922E+01 -5.85889E+00 -1.31104E+01  2.37108E+00  7.16427E+00 -6.46790E-01  4.72662E+00 -2.37106E+00  6.25585E+00  6.27935E+00
   2.08661E-01 -1.68364E+00  1.02957E+01 -6.89435E+00 -5.48166E+00 -9.86761E+00 -3.79439E-01  1.41916E+01  1.09876E+01  5.00654E+00
   1.49520E+01  1.49987E+01  1.18277E+01  1.67436E+01  2.97838E+00 -5.74615E+00  6.75856E+00  3.72482E+00  1.88597E+01  1.02934E+01
   1.10773E+01  4.24358E+00  3.23540E+00 -4.97481E+00  2.94458E+00  1.19593E+00  6.90205E+00  9.78541E+00  1.65011E+01  1.47736E+01
   3.53596E+01  4.40711E+01  4.02283E+01  2.39503E+01  3.15129E+01  2.97246E+01  5.77050E+01  6.63672E+01  5.33433E+01  4.73336E+01
   5.64423E+01  6.52848E+01  6.21496E+01  7.04876E+01  5.15914E+01  3.14201E+01  3.57507E+01  2.28582E+01  1.55062E+00  9.04014E+00
   9.99956E+00  1.34883E+01 -1.29631E+00  2.06432E+00 -2.00213E+00  4.16406E+00 -7.88506E+00  5.52926E+00  1.09008E+01 -4.46097E+00
  -6.49393E+00 -6.89101E+00 -1.02947E+00  6.61251E+00 -2.98074E+00  1.19723E+00 -8.18661E+00  1.32776E+00 -7.67185E+00 -3.90200E+00
  -5.42349E+00 -4.68848E+00 -1.48288E+00 -2.59503E+00  1.61730E+01  1.85514E-01  8.95382E+00 -8.20650E+00 -8.77947E+00  1.43913E+01
  -1.10241E+01  1.28358E+01  1.18323E+01  8.84404E+00  2.62161E+01  3.98996E+00  1.48620E+01  5.37022E+00  7.01112E+00  8.93845E+00
   1.21765E+01  1.94153E+01  1.28474E+01  2.39288E+01 -7.85011E-01  6.09131E+00  1.88728E+01  1.50709E+01  2.66908E+01  1.33841E+01
  -2.92536E+00  8.49376E-01  1.72094E+01  1.41823E+01  1.73685E+01  1.22560E+01  1.90434E+01  2.45099E+01  3.46137E+01  3.61797E+01
   2.88593E+01  2.73177E+01  4.63800E+01  3.16983E+01  3.33664E+01  2.70848E+01  3.65503E+01  2.65210E+01  2.50384E+01  4.24855E+01
   3.60970E+01  2.12908E+01  2.60290E+01  2.25421E+01  3.46482E+01  1.74448E+01  1.25888E+01  2.71331E+01  2.86811E+01  2.02248E+01
   1.91879E+01  2.13257E+01  1.22690E+01  1.11659E+01  1.24557E+00  1.66481E+01  2.04758E+00  9.48365E+00  9.11485E-02  5.71177E-01
  -2.29643E+01 -1.03946E+01 -1.17992E+01 -9.17770E+00 -1.65471E+00  1.81263E+01  1.02988E+00  6.76040E+00  4.55491E+00 -9.32278E+00
  -1.97372E+01  1.13341E+01 -4.69223E+00 -1.12312E+01  2.97790E+00  2.92068E+00 -1.92633E+01 -3.96954E+00 -9.97354E-01 -6.85590E+00
   2.62518E+00  7.58293E+00 -6.39261E+00  1.20232E+01 -1.33492E+01  1.81702E+01  4.77064E+00  8.46735E+00  1.18488E+01 -5.23213E+00
   3.37397E+00  1.68578E-01  6.37759E+00  1.19044E+01  4.12416E+00  1.74444E+01  1.40232E+01  6.29202E+00  3.83073E+01  2.62142E+01
   2.13948E+01  1.61299E+01  1.31305E+01  9.25012E+00  3.35263E+01  1.83228E+01  9.24121E+00  1.88547E+01  1.90273E+01  1.90856E+01
   2.73950E+01  9.23351E+00  2.51866E+01  6.34528E+00  1.68627E+01  3.55681E+00  9.10351E+00  1.79249E+01  6.88569E+00  2.16769E+01
   1.47366E+01  8.72277E+00  4.14935E+00  1.85522E+00  2.31611E+01  3.73327E+00  6.78588E+00 -4.87448E-01  1.87259E+00 -1.85910E+00
  -9.17419E-01  3.65980E+00  8.31595E+00  6.72995E+00  1.43306E+01 -4.56974E+00  4.06835E-01 -4.31114E+00  5.77110E+00  1.45091E+01
  -4.64534E+00 -7.80185E+00 -3.59836E+00 -7.07401E+00 -1.13995E+01 -1.18890E+01  5.30485E-01 -6.00482E+00  9.22865E+00 -2.42683E+00
  -3.76361E+00  6.26649E+00  7.05494E+00  1.49200E+01  3.91734E+00 -1.76248E+01 -4.63602E+00  4.33972E+00 -3.98138E+00 -9.75828E+00
  -1.18312E+01 -9.36164E+00  9.25141E-01 -1.27259E+00  1.80839E+00  1.93901E+00 -3.08341E-01 -9.32660E+00  5.42755E+00  3.15478E+00
  -1.58469E+01 -3.54245E+00 -9.26742E-04  1.60497E+01  6.91548E+00 -1.35750E+01 -9.71731E+00  4.43314E+00  2.84009E+00  3.58012E+00
  -9.88632E+00  8.11585E-01  5.07010E-01 -3.61179E+00  3.77227E+00 -3.00659E+00  1.04377E+01 -2.60046E+00 -1.53495E+01  2.41657E+00
  -8.99644E+00 -5.55508E+00 -9.74162E-01 -1.70457E+01  7.79537E+00 -5.91381E+00  1.25668E+01 -8.32194E+00
 NY points of the fit to the data follow
   8.01040E+00  8.91422E+00  9.57441E+00  1.03767E+01  1.14900E+01  1.24051E+01  1.40439E+01  1.51095E+01  1.70972E+01  1.77910E+01
   1.99382E+01  2.01145E+01  2.19641E+01  2.11013E+01  2.17276E+01  1.89950E+01  1.80705E+01  1.49403E+01  1.46665E+01  1.22974E+01
   1.38332E+01  1.25549E+01  1.49110E+01  1.38434E+01  1.62947E+01  1.51189E+01  1.77817E+01  1.65539E+01  1.95790E+01  1.82250E+01
   2.13590E+01  1.99047E+01  2.19458E+01  2.02014E+01  2.01808E+01  1.88330E+01  1.75692E+01  1.67361E+01  1.51794E+01  1.48262E+01
   1.39983E+01  1.40156E+01  1.42369E+01  1.44823E+01  1.53969E+01  1.54368E+01  1.63362E+01  1.61210E+01  1.67474E+01  1.60011E+01
   1.59629E+01  1.43132E+01  1.34806E+01  1.14132E+01  1.04120E+01  8.75286E+00  8.23854E+00  7.35142E+00  7.35808E+00  6.92891E+00
   7.42517E+00  7.05640E+00  7.70806E+00  7.17300E+00  7.66622E+00  6.93739E+00  7.25221E+00  6.56866E+00  6.87427E+00  6.41083E+00
   6.85969E+00  6.50712E+00  7.03761E+00  6.67900E+00  7.47274E+00  7.05921E+00  7.46849E+00  6.80011E+00  6.69759E+00  5.93082E+00
   5.67278E+00  5.02996E+00  4.81407E+00  4.32096E+00  4.10734E+00  3.70175E+00  3.37725E+00  3.01369E+00  2.30945E+00  2.13479E+00
   2.62622E+00  6.61660E+00  7.34757E+00  1.39614E+01  1.36887E+01  2.10884E+01  1.97980E+01  2.80665E+01  2.57526E+01  3.48880E+01
   3.12345E+01  4.01633E+01  3.51398E+01  4.28840E+01  3.61833E+01  4.05006E+01  3.24882E+01  3.21506E+01  2.44444E+01  2.12157E+01
   1.53589E+01  1.17290E+01  8.17852E+00  5.73634E+00  4.59197E+00  6.02763E+00  6.69398E+00  1.03722E+01  1.14522E+01  1.54656E+01
   1.64443E+01  2.08841E+01  2.18580E+01  2.63644E+01  2.69402E+01  3.05708E+01  3.03670E+01  3.28214E+01  3.16794E+01  3.17012E+01
   2.95780E+01  2.64375E+01  2.37353E+01  1.89461E+01  1.64938E+01  1.19033E+01  1.02926E+01  6.92225E+00  6.23286E+00  4.11315E+00
   4.24111E+00  3.22936E+00  3.80958E+00  3.14991E+00  3.66827E+00  2.93820E+00  3.10262E+00  2.37424E+00  2.17718E+00  1.37864E+00
   1.02653E+00  2.66076E-01  2.81416E-02 -5.14359E-01 -7.03277E-01 -1.13576E+00 -1.30937E+00 -1.71811E+00 -1.87440E+00 -2.23682E+00
  -2.42085E+00 -2.72903E+00 -2.99365E+00 -3.26756E+00 -3.73738E+00 -3.88141E+00 -4.41126E+00 -4.50395E+00 -5.05579E+00 -5.37107E+00
  -5.81956E+00 -6.28991E+00 -6.50705E+00 -7.10950E+00 -7.15189E+00 -7.96207E+00 -7.68006E+00 -8.44603E+00 -7.60236E+00 -8.09055E+00
  -6.77630E+00 -7.17838E+00 -5.92378E+00 -6.32289E+00 -5.43287E+00 -5.96893E+00 -5.55581E+00 -5.86167E+00 -5.65462E+00 -5.24207E+00
  -4.82093E+00 -3.68698E+00 -3.33061E+00 -1.74649E+00 -1.78136E+00 -3.80149E-01 -8.14438E-01 -1.20640E-01 -1.74408E+00 -1.04196E+00
  -2.35064E+00 -1.34102E+00 -1.68539E+00 -7.09278E-01 -4.95013E-01 -5.79560E-01 -6.34547E-01 -2.08091E+00 -2.22860E+00 -4.51634E+00
  -4.35444E+00 -6.32594E+00 -4.28657E+00 -5.15533E+00 -1.25745E+00 -1.41755E+00  2.69034E+00  2.29970E+00  4.97757E+00  3.88134E+00
   4.68114E+00  3.63280E+00  3.49841E+00  3.05327E+00  2.28893E+00  3.01483E+00  2.63385E+00  4.09053E+00  4.06482E+00  5.85708E+00
   5.64988E+00  6.37714E+00  6.00135E+00  5.77702E+00  5.71767E+00  5.05095E+00  5.60146E+00  4.51000E+00  5.85626E+00  4.29757E+00
   6.41120E+00  4.38550E+00  6.77471E+00  4.30802E+00  6.56799E+00  4.20553E+00  6.34191E+00  5.96581E+00  1.26585E+01  1.51120E+01
   2.31608E+01  2.68236E+01  3.36852E+01  3.72063E+01  4.32186E+01  4.62713E+01  5.15670E+01  5.36942E+01  5.72570E+01  5.81680E+01
   5.95182E+01  5.89374E+01  5.61658E+01  5.35707E+01  4.61838E+01  4.20440E+01  3.29803E+01  2.87078E+01  2.10798E+01  1.77769E+01
   1.28663E+01  1.07512E+01  7.94975E+00  6.78396E+00  5.66141E+00  5.09143E+00  4.63368E+00  4.25211E+00  3.90025E+00  3.52709E+00
   3.20459E+00  2.85079E+00  2.57246E+00  2.28987E+00  2.09619E+00  1.92719E+00  1.84149E+00  1.80315E+00  1.82935E+00  1.91373E+00
   2.04604E+00  2.24466E+00  2.48136E+00  2.79291E+00  3.13768E+00  3.56071E+00  4.01524E+00  4.53796E+00  5.08676E+00  5.68048E+00
   6.28699E+00  6.90392E+00  7.51140E+00  8.09324E+00  8.63989E+00  9.12961E+00  9.56375E+00  9.92190E+00  1.02164E+01  1.04349E+01
   1.06001E+01  1.07105E+01  1.07977E+01  1.08706E+01  1.09666E+01  1.11013E+01  1.13137E+01  1.16202E+01  1.20558E+01  1.26312E+01
   1.33722E+01  1.42780E+01  1.53608E+01  1.66046E+01  1.80049E+01  1.95294E+01  2.11577E+01  2.28431E+01  2.45525E+01  2.62294E+01
   2.78343E+01  2.93085E+01  3.06139E+01  3.16981E+01  3.25327E+01  3.30790E+01  3.33251E+01  3.32516E+01  3.28668E+01  3.21717E+01
   3.11943E+01  2.99539E+01  2.84936E+01  2.68454E+01  2.50608E+01  2.31764E+01  2.12445E+01  1.92990E+01  1.73861E+01  1.55314E+01
   1.37705E+01  1.21174E+01  1.05956E+01  9.20730E+00  7.96452E+00  6.85954E+00  5.89558E+00  5.05787E+00  4.34405E+00  3.73569E+00
   3.22805E+00  2.80183E+00  2.45230E+00  2.16129E+00  1.92570E+00  1.72973E+00  1.57272E+00  1.44160E+00  1.33819E+00  1.25207E+00
   1.18739E+00  1.13609E+00  1.10421E+00  1.08557E+00  1.08763E+00  1.10575E+00  1.14861E+00  1.21288E+00  1.30821E+00  1.43238E+00
   1.59592E+00  1.79767E+00  2.04897E+00  2.34952E+00  2.71108E+00  3.13366E+00  3.62873E+00  4.19574E+00  4.84468E+00  5.57288E+00
   6.38701E+00  7.28033E+00  8.25427E+00  9.29615E+00  1.04004E+01  1.15472E+01  1.27232E+01  1.39013E+01  1.50619E+01  1.61726E+01
   1.72103E+01  1.81416E+01  1.89445E+01  1.95895E+01  2.00611E+01  2.03390E+01  2.04185E+01  2.02917E+01  1.99666E+01  1.94486E+01
   1.87580E+01  1.79109E+01  1.69362E+01  1.58563E+01  1.47038E+01  1.35024E+01  1.22830E+01  1.10657E+01  9.87609E+00  8.72781E+00
   7.63900E+00  6.61594E+00  5.66940E+00  4.79891E+00  4.00915E+00  3.29467E+00  2.65611E+00  2.08511E+00  1.58012E+00  1.13159E+00
   7.37289E-01  3.87776E-01  8.11676E-02 -1.91193E-01 -4.30430E-01 -6.44184E-01 -8.32703E-01 -1.00254E+00 -1.15312E+00 -1.29009E+00
  -1.41226E+00 -1.52456E+00 -1.62533E+00 -1.71891E+00 -1.80331E+00 -1.88243E+00 -1.95412E+00 -2.02197E+00 -2.08370E+00 -2.14259E+00
  -2.19630E+00 -2.24795E+00 -2.29518E+00 -2.34096E+00 -2.38288E+00 -2.42376E+00 -2.46123E+00 -2.49801E+00 -2.53178E+00 -2.56513E+00
  -2.59576E+00 -2.62615E+00 -2.65406E+00 -2.68193E+00 -2.70755E+00 -2.73324E+00 -2.75684E+00 -2.78060E+00 -2.80243E+00 -2.82452E+00
  -2.84484E+00 -2.86546E+00 -2.88440E+00 -2.90367E+00 -2.92140E+00 -2.93951E+00 -2.95618E+00 -2.97321E+00 -2.98887E+00 -3.00491E+00
  -3.01968E+00 -3.03486E+00 -3.04882E+00 -3.06314E+00 -3.07631E+00 -3.08984E+00 -3.10231E+00 -3.11512E+00 -3.12688E+00 -3.13893E+00
  -3.14998E+00 -3.16132E+00 -3.17169E+00 -3.18229E+00 -3.19190E+00 -3.20165E+00 -3.21043E+00 -3.21929E+00
 NY background values follow
    -1.614E+00   -1.618E+00   -1.622E+00   -1.625E+00   -1.629E+00   -1.633E+00   -1.637E+00   -1.640E+00   -1.644E+00   -1.648E+00
    -1.652E+00   -1.655E+00   -1.659E+00   -1.663E+00   -1.667E+00   -1.670E+00   -1.674E+00   -1.678E+00   -1.682E+00   -1.685E+00
    -1.689E+00   -1.693E+00   -1.697E+00   -1.701E+00   -1.704E+00   -1.708E+00   -1.712E+00   -1.716E+00   -1.719E+00   -1.723E+00
    -1.727E+00   -1.731E+00   -1.734E+00   -1.738E+00   -1.742E+00   -1.746E+00   -1.749E+00   -1.753E+00   -1.757E+00   -1.761E+00
    -1.765E+00   -1.768E+00   -1.772E+00   -1.776E+00   -1.780E+00   -1.783E+00   -1.787E+00   -1.791E+00   -1.795E+00   -1.798E+00
    -1.802E+00   -1.806E+00   -1.810E+00   -1.813E+00   -1.817E+00   -1.821E+00   -1.825E+00   -1.829E+00   -1.832E+00   -1.836E+00
    -1.840E+00   -1.844E+00   -1.847E+00   -1.851E+00   -1.855E+00   -1.859E+00   -1.862E+00   -1.866E+00   -1.870E+00   -1.874E+00
    -1.878E+00   -1.881E+00   -1.885E+00   -1.889E+00   -1.893E+00   -1.896E+00   -1.900E+00   -1.904E+00   -1.908E+00   -1.911E+00
    -1.915E+00   -1.919E+00   -1.923E+00   -1.927E+00   -1.930E+00   -1.934E+00   -1.938E+00   -1.942E+00   -1.945E+00   -1.949E+00
    -1.953E+00   -1.957E+00   -1.960E+00   -1.964E+00   -1.968E+00   -1.972E+00   -1.976E+00   -1.979E+00   -1.983E+00   -1.987E+00
    -1.991E+00   -1.994E+00   -1.998E+00   -2.002E+00   -2.006E+00   -2.009E+00   -2.013E+00   -2.017E+00   -2.021E+00   -2.025E+00
    -2.028E+00   -2.032E+00   -2.036E+00   -2.040E+00   -2.043E+00   -2.047E+00   -2.051E+00   -2.055E+00   -2.058E+00   -2.062E+00
    -2.066E+00   -2.070E+00   -2.074E+00   -2.077E+00   -2.081E+00   -2.085E+00   -2.089E+00   -2.092E+00   -2.096E+00   -2.100E+00
    -2.104E+00   -2.107E+00   -2.111E+00   -2.115E+00   -2.119E+00   -2.123E+00   -2.126E+00   -2.130E+00   -2.134E+00   -2.138E+00
    -2.141E+00   -2.145E+00   -2.149E+00   -2.153E+00   -2.156E+00   -2.160E+00   -2.164E+00   -2.168E+00   -2.172E+00   -2.175E+00
    -2.179E+00   -2.183E+00   -2.187E+00   -2.190E+00   -2.194E+00   -2.198E+00   -2.202E+00   -2.206E+00   -2.209E+00   -2.213E+00
    -2.217E+00   -2.221E+00   -2.224E+00   -2.228E+00   -2.232E+00   -2.236E+00   -2.239E+00   -2.243E+00   -2.247E+00   -2.251E+00
    -2.255E+00   -2.258E+00   -2.262E+00   -2.266E+00   -2.270E+00   -2.273E+00   -2.277E+00   -2.281E+00   -2.285E+00   -2.288E+00
    -2.292E+00   -2.296E+00   -2.300E+00   -2.304E+00   -2.307E+00   -2.311E+00   -2.315E+00   -2.319E+00   -2.322E+00   -2.326E+00
    -2.330E+00   -2.334E+00   -2.337E+00   -2.341E+00   -2.345E+00   -2.349E+00   -2.353E+00   -2.356E+00   -2.360E+00   -2.364E+00
    -2.368E+00   -2.371E+00   -2.375E+00   -2.379E+00   -2.383E+00   -2.386E+00   -2.390E+00   -2.394E+00   -2.398E+00   -2.401E+00
    -2.405E+00   -2.409E+00   -2.413E+00   -2.417E+00   -2.420E+00   -2.424E+00   -2.428E+00   -2.432E+00   -2.435E+00   -2.439E+00
    -2.443E+00   -2.447E+00   -2.450E+00   -2.454E+00   -2.458E+00   -2.462E+00   -2.465E+00   -2.469E+00   -2.473E+00   -2.477E+00
    -2.481E+00   -2.484E+00   -2.488E+00   -2.492E+00   -2.496E+00   -2.499E+00   -2.503E+00   -2.507E+00   -2.511E+00   -2.514E+00
    -2.518E+00   -2.522E+00   -2.526E+00   -2.529E+00   -2.533E+00   -2.537E+00   -2.541E+00   -2.545E+00   -2.548E+00   -2.552E+00
    -2.556E+00   -2.560E+00   -2.563E+00   -2.567E+00   -2.571E+00   -2.575E+00   -2.578E+00   -2.582E+00   -2.586E+00   -2.590E+00
    -2.593E+00   -2.597E+00   -2.601E+00   -2.605E+00   -2.608E+00   -2.612E+00   -2.616E+00   -2.620E+00   -2.623E+00   -2.627E+00
    -2.631E+00   -2.635E+00   -2.639E+00   -2.642E+00   -2.646E+00   -2.650E+00   -2.654E+00   -2.657E+00   -2.661E+00   -2.665E+00
    -2.669E+00   -2.672E+00   -2.676E+00   -2.680E+00   -2.684E+00   -2.687E+00   -2.691E+00   -2.695E+00   -2.699E+00   -2.702E+00
    -2.706E+00   -2.710E+00   -2.714E+00   -2.717E+00   -2.721E+00   -2.725E+00   -2.729E+00   -2.732E+00   -2.736E+00   -2.740E+00
    -2.744E+00   -2.747E+00   -2.751E+00   -2.755E+00   -2.759E+00   -2.762E+00   -2.766E+00   -2.770E+00   -2.774E+00   -2.777E+00
    -2.781E+00   -2.785E+00   -2.789E+00   -2.792E+00   -2.796E+00   -2.800E+00   -2.804E+00   -2.807E+00   -2.811E+00   -2.815E+00
    -2.819E+00   -2.822E+00   -2.826E+00   -2.830E+00   -2.834E+00   -2.837E+00   -2.841E+00   -2.845E+00   -2.849E+00   -2.852E+00
    -2.856E+00   -2.860E+00   -2.864E+00   -2.867E+00   -2.871E+00   -2.875E+00   -2.879E+00   -2.882E+00   -2.886E+00   -2.890E+00
    -2.893E+00   -2.897E+00   -2.901E+00   -2.905E+00   -2.908E+00   -2.912E+00   -2.916E+00   -2.920E+00   -2.923E+00   -2.927E+00
    -2.931E+00   -2.935E+00   -2.938E+00   -2.942E+00   -2.946E+00   -2.950E+00   -2.953E+00   -2.957E+00   -2.961E+00   -2.965E+00
    -2.968E+00   -2.972E+00   -2.976E+00   -2.979E+00   -2.983E+00   -2.987E+00   -2.991E+00   -2.994E+00   -2.998E+00   -3.002E+00
    -3.006E+00   -3.009E+00   -3.013E+00   -3.017E+00   -3.021E+00   -3.024E+00   -3.028E+00   -3.032E+00   -3.035E+00   -3.039E+00
    -3.043E+00   -3.047E+00   -3.050E+00   -3.054E+00   -3.058E+00   -3.062E+00   -3.065E+00   -3.069E+00   -3.073E+00   -3.076E+00
    -3.080E+00   -3.084E+00   -3.088E+00   -3.091E+00   -3.095E+00   -3.099E+00   -3.103E+00   -3.106E+00   -3.110E+00   -3.114E+00
    -3.117E+00   -3.121E+00   -3.125E+00   -3.129E+00   -3.132E+00   -3.136E+00   -3.140E+00   -3.144E+00   -3.147E+00   -3.151E+00
    -3.155E+00   -3.158E+00   -3.162E+00   -3.166E+00   -3.170E+00   -3.173E+00   -3.177E+00   -3.181E+00   -3.184E+00   -3.188E+00
    -3.192E+00   -3.196E+00   -3.199E+00   -3.203E+00   -3.207E+00   -3.210E+00   -3.214E+00   -3.218E+00   -3.222E+00   -3.225E+00
    -3.229E+00   -3.233E+00   -3.236E+00   -3.240E+00   -3.244E+00   -3.248E+00   -3.251E+00   -3.255E+00   -3.259E+00   -3.262E+00
    -3.266E+00   -3.270E+00   -3.274E+00   -3.277E+00   -3.281E+00   -3.285E+00   -3.288E+00   -3.292E+00   -3.296E+00   -3.300E+00
    -3.303E+00   -3.307E+00   -3.311E+00   -3.314E+00   -3.318E+00   -3.322E+00   -3.325E+00   -3.329E+00   -3.333E+00   -3.337E+00
    -3.340E+00   -3.344E+00   -3.348E+00   -3.351E+00   -3.355E+00   -3.359E+00   -3.362E+00   -3.366E+00   -3.370E+00   -3.374E+00
    -3.377E+00   -3.381E+00   -3.385E+00   -3.388E+00   -3.392E+00   -3.396E+00   -3.399E+00   -3.403E+00   -3.407E+00   -3.411E+00
    -3.414E+00   -3.418E+00   -3.422E+00   -3.425E+00   -3.429E+00   -3.433E+00   -3.436E+00   -3.440E+00   -3.444E+00   -3.447E+00
    -3.451E+00   -3.455E+00   -3.459E+00   -3.462E+00   -3.466E+00   -3.470E+00   -3.473E+00   -3.477E+00
 Cr       Conc. = 1.58E+03
