 LCModel (Version 6.3-1L) Copyright: S.W. Provencher.          Ref.: Magn. Reson. Med. 30:672-679 (1993).                
 Slice#2 Row#5 Col#7  PD_05_press_2_raw_act
 36 lines in following concentration table = NCONC+1
    Conc.  %SD /Cr+PCr  Metabolite                                         
  792.078 108%   0.323 Ala                                                 
  141.966 367% 5.8E-02 Asp                                                 
 1.39E+03  55%   0.567 Cr                                                  
 1.06E+03  71%   0.433 PCr                                                 
  235.265 143% 9.6E-02 GABA                                                
  213.146 153% 8.7E-02 Glc                                                 
  884.550 170%   0.360 Gln                                                 
    0.000 999%   0.000 Glu                                                 
    0.000 999%   0.000 GPC                                                 
 1.13E+03   8%   0.459 PCh                                                 
    0.000 999%   0.000 GSH                                                 
 3.24E+03  34%   1.320 Ins                                                 
 1.07E+03  89%   0.436 Lac                                                 
 4.12E+03   7%   1.679 NAA                                                 
    0.000 999%   0.000 NAAG                                                
  272.390  31%   0.111 Scyllo                                              
  554.417  89%   0.226 Tau                                                 
 2.92E+03  13%   1.188 -CrCH2                                              
 1.13E+03   8%   0.459 GPC+PCh                                             
 4.12E+03   7%   1.679 NAA+NAAG                                            
 2.46E+03  10%   1.000 Cr+PCr                                              
  884.550 170%   0.360 Glu+Gln                                             
    0.000 999%   0.000 Lip13a                                              
 1.45E+03  31%   0.591 Lip13b                                              
  246.197 183%   0.100 Lip09                                               
 1.45E+03  37%   0.589 MM09                                                
  341.694  97%   0.139 Lip20                                               
 2.34E+03  41%   0.952 MM20                                                
  492.745  61%   0.201 MM12                                                
  251.145 286%   0.102 MM14                                                
 1.56E+03  28%   0.635 MM17                                                
 1.45E+03  31%   0.591 Lip13a+Lip13b                                       
 2.20E+03  41%   0.894 MM14+Lip13a+Lip13b+MM12                             
 1.69E+03  25%   0.689 MM09+Lip09                                          
 2.68E+03  36%   1.091 MM20+Lip20                                          
   6 lines in following misc. output table
  FWHM = 0.107 ppm    S/N =   4                                            
  Data shift = 0.023 ppm                                                   
  Ph: -45 deg      -7.7 deg/ppm                                            
  alphaB,S = 2.5E+00,   6.8E+01                                            
   14 spline knots.   Ns = 6(2)                                            
  ( 6) 2 infls.   ( 5) 1 extrs.                                            
  498 points on ppm-axis = NY
      4.000000     3.992357     3.984714     3.977070     3.969427     3.961784     3.954141     3.946497     3.938854     3.931211
      3.923568     3.915925     3.908281     3.900638     3.892995     3.885352     3.877708     3.870065     3.862422     3.854779
      3.847136     3.839492     3.831849     3.824206     3.816563     3.808919     3.801276     3.793633     3.785990     3.778347
      3.770703     3.763060     3.755417     3.747774     3.740130     3.732487     3.724844     3.717201     3.709558     3.701914
      3.694271     3.686628     3.678985     3.671341     3.663698     3.656055     3.648412     3.640769     3.633125     3.625482
      3.617839     3.610196     3.602552     3.594909     3.587266     3.579623     3.571980     3.564336     3.556693     3.549050
      3.541407     3.533763     3.526120     3.518477     3.510834     3.503191     3.495547     3.487904     3.480261     3.472618
      3.464974     3.457331     3.449688     3.442045     3.434402     3.426758     3.419115     3.411472     3.403829     3.396185
      3.388542     3.380899     3.373256     3.365613     3.357969     3.350326     3.342683     3.335040     3.327396     3.319753
      3.312110     3.304467     3.296824     3.289180     3.281537     3.273894     3.266251     3.258607     3.250964     3.243321
      3.235678     3.228034     3.220391     3.212748     3.205105     3.197462     3.189818     3.182175     3.174532     3.166889
      3.159245     3.151602     3.143959     3.136316     3.128673     3.121029     3.113386     3.105743     3.098100     3.090456
      3.082813     3.075170     3.067527     3.059884     3.052240     3.044597     3.036954     3.029311     3.021667     3.014024
      3.006381     2.998738     2.991095     2.983451     2.975808     2.968165     2.960522     2.952878     2.945235     2.937592
      2.929949     2.922306     2.914662     2.907019     2.899376     2.891733     2.884089     2.876446     2.868803     2.861160
      2.853517     2.845873     2.838230     2.830587     2.822944     2.815300     2.807657     2.800014     2.792371     2.784728
      2.777084     2.769441     2.761798     2.754155     2.746511     2.738868     2.731225     2.723582     2.715939     2.708295
      2.700652     2.693009     2.685366     2.677722     2.670079     2.662436     2.654793     2.647150     2.639506     2.631863
      2.624220     2.616577     2.608933     2.601290     2.593647     2.586004     2.578361     2.570717     2.563074     2.555431
      2.547788     2.540144     2.532501     2.524858     2.517215     2.509572     2.501928     2.494285     2.486642     2.478999
      2.471355     2.463712     2.456069     2.448426     2.440783     2.433139     2.425496     2.417853     2.410210     2.402566
      2.394923     2.387280     2.379637     2.371994     2.364350     2.356707     2.349064     2.341421     2.333777     2.326134
      2.318491     2.310848     2.303205     2.295561     2.287918     2.280275     2.272632     2.264988     2.257345     2.249702
      2.242059     2.234416     2.226772     2.219129     2.211486     2.203843     2.196199     2.188556     2.180913     2.173270
      2.165627     2.157983     2.150340     2.142697     2.135054     2.127410     2.119767     2.112124     2.104481     2.096838
      2.089194     2.081551     2.073908     2.066265     2.058621     2.050978     2.043335     2.035692     2.028049     2.020405
      2.012762     2.005119     1.997476     1.989833     1.982190     1.974546     1.966903     1.959260     1.951617     1.943974
      1.936331     1.928688     1.921045     1.913402     1.905759     1.898115     1.890472     1.882829     1.875186     1.867543
      1.859900     1.852257     1.844614     1.836971     1.829327     1.821684     1.814041     1.806398     1.798755     1.791112
      1.783469     1.775826     1.768183     1.760540     1.752896     1.745253     1.737610     1.729967     1.722324     1.714681
      1.707038     1.699395     1.691752     1.684108     1.676465     1.668822     1.661179     1.653536     1.645893     1.638250
      1.630607     1.622964     1.615321     1.607677     1.600034     1.592391     1.584748     1.577105     1.569462     1.561819
      1.554176     1.546533     1.538890     1.531246     1.523603     1.515960     1.508317     1.500674     1.493031     1.485388
      1.477745     1.470102     1.462458     1.454815     1.447172     1.439529     1.431886     1.424243     1.416600     1.408957
      1.401314     1.393671     1.386027     1.378384     1.370741     1.363098     1.355455     1.347812     1.340169     1.332526
      1.324883     1.317240     1.309596     1.301953     1.294310     1.286667     1.279024     1.271381     1.263738     1.256095
      1.248452     1.240808     1.233165     1.225522     1.217879     1.210236     1.202593     1.194950     1.187307     1.179664
      1.172021     1.164377     1.156734     1.149091     1.141448     1.133805     1.126162     1.118519     1.110876     1.103233
      1.095590     1.087946     1.080303     1.072660     1.065017     1.057374     1.049731     1.042088     1.034445     1.026802
      1.019158     1.011515     1.003872     0.996229     0.988586     0.980943     0.973300     0.965657     0.958014     0.950371
      0.942727     0.935084     0.927441     0.919798     0.912155     0.904512     0.896869     0.889226     0.881583     0.873940
      0.866296     0.858653     0.851010     0.843367     0.835724     0.828081     0.820438     0.812795     0.805152     0.797508
      0.789865     0.782222     0.774579     0.766936     0.759293     0.751650     0.744007     0.736364     0.728721     0.721077
      0.713434     0.705791     0.698148     0.690505     0.682862     0.675219     0.667576     0.659933     0.652290     0.644646
      0.637003     0.629360     0.621717     0.614074     0.606431     0.598788     0.591145     0.583502     0.575858     0.568215
      0.560572     0.552929     0.545286     0.537643     0.530000     0.522357     0.514714     0.507071     0.499427     0.491784
      0.484141     0.476498     0.468855     0.461212     0.453569     0.445925     0.438282     0.430639     0.422996     0.415353
      0.407710     0.400067     0.392424     0.384780     0.377137     0.369494     0.361851     0.354208     0.346565     0.338922
      0.331278     0.323635     0.315992     0.308349     0.300706     0.293063     0.285420     0.277777     0.270133     0.262490
      0.254847     0.247204     0.239561     0.231918     0.224275     0.216631     0.208988     0.201345
 NY phased data points follow
  -1.90695E+02 -1.76621E+02 -1.86175E+02 -1.65057E+02 -1.52012E+02 -1.36221E+02 -1.50848E+02 -1.39006E+02 -1.49391E+02 -1.39748E+02
  -1.37035E+02 -1.49768E+02 -1.39091E+02 -1.49698E+02 -1.50033E+02 -1.31219E+02 -1.35697E+02 -1.31704E+02 -1.47950E+02 -1.35889E+02
  -1.38075E+02 -1.34028E+02 -1.40848E+02 -1.27832E+02 -1.50423E+02 -1.34188E+02 -1.29690E+02 -1.22415E+02 -1.24185E+02 -1.26733E+02
  -1.37724E+02 -1.30897E+02 -1.13315E+02 -1.33417E+02 -1.17499E+02 -1.10861E+02 -1.24328E+02 -1.11532E+02 -1.31732E+02 -1.04153E+02
  -1.07962E+02 -1.28685E+02 -1.07784E+02 -9.07654E+01 -9.95202E+01 -9.40752E+01 -1.00991E+02 -9.01761E+01 -8.65406E+01 -8.70808E+01
  -1.13092E+02 -1.02728E+02 -9.53881E+01 -9.14337E+01 -9.25452E+01 -1.00414E+02 -9.60105E+01 -1.00934E+02 -1.02848E+02 -9.53326E+01
  -9.01570E+01 -9.07535E+01 -9.99198E+01 -9.73229E+01 -1.10486E+02 -1.07390E+02 -1.12737E+02 -1.04660E+02 -8.88945E+01 -1.08923E+02
  -9.63367E+01 -9.56563E+01 -8.55221E+01 -9.02063E+01 -7.59559E+01 -7.38618E+01 -9.07969E+01 -8.37107E+01 -9.10757E+01 -8.60646E+01
  -8.33399E+01 -6.34794E+01 -7.93597E+01 -8.22885E+01 -7.41991E+01 -8.69594E+01 -7.07204E+01 -7.70367E+01 -8.51293E+01 -7.19749E+01
  -6.53147E+01 -6.56624E+01 -8.40507E+01 -6.34587E+01 -6.78606E+01 -5.90562E+01 -4.55551E+01 -4.40105E+01 -2.58757E+01 -2.83625E+01
  -2.54960E+01 -2.37737E+01 -2.31579E+01 -1.06525E+01 -2.89841E+00 -1.55438E+01 -2.84791E+01 -4.31228E+01 -5.34240E+01 -4.89773E+01
  -4.83380E+01 -6.61807E+01 -6.11795E+01 -6.18115E+01 -5.86792E+01 -6.15940E+01 -4.76522E+01 -5.89036E+01 -5.60675E+01 -3.13608E+01
  -3.25428E+01 -3.96554E+01 -9.02992E+00 -3.48564E+01 -2.54116E+01 -3.19934E+01 -2.05588E+01 -5.77094E+00 -2.11205E+01 -1.03786E+01
  -3.27148E+01 -5.16300E+01 -3.29131E+01 -5.32951E+01 -4.46438E+01 -3.38007E+01 -6.33665E+01 -4.73159E+01 -6.27896E+01 -6.34709E+01
  -5.02086E+01 -4.46129E+01 -6.02051E+01 -7.24226E+01 -6.16431E+01 -6.49302E+01 -6.20228E+01 -6.07027E+01 -6.16051E+01 -5.56213E+01
  -5.75386E+01 -4.45198E+01 -6.56504E+01 -5.44551E+01 -4.70661E+01 -5.74976E+01 -5.00706E+01 -4.18876E+01 -3.80881E+01 -3.55456E+01
  -4.96265E+01 -4.52563E+01 -4.59317E+01 -4.98375E+01 -5.71409E+01 -4.29981E+01 -4.95191E+01 -3.99617E+01 -5.11122E+01 -3.61048E+01
  -5.19357E+01 -6.24784E+01 -4.94821E+01 -5.44099E+01 -4.12053E+01 -4.61869E+01 -5.41116E+01 -6.41447E+01 -6.73836E+01 -5.97497E+01
  -3.90524E+01 -5.78794E+01 -5.85397E+01 -4.20043E+01 -5.02296E+01 -4.80143E+01 -3.42142E+01 -3.53370E+01 -3.10181E+01 -2.47617E+01
  -3.56911E+01 -2.49572E+01 -4.15274E+01 -2.64399E+01 -4.02700E+01 -2.22949E+01 -4.58349E+01 -3.96489E+01 -3.55909E+01 -3.30489E+01
  -2.70367E+01 -1.71852E+01 -1.77418E+01 -2.53587E+01 -2.62656E+01 -2.03623E+01 -2.13080E+01 -4.66338E+01 -4.16959E+01 -1.98338E+01
  -2.74551E+01 -1.88040E+01 -2.94887E+01 -2.43132E+01 -4.25397E+01 -3.25933E+01 -1.43278E+01  2.12103E+00 -2.03292E+01 -2.01263E+01
  -1.21827E+01 -1.69665E+01 -2.70447E+01 -1.93279E+01 -2.85562E+01 -2.23850E+01 -3.16331E+01 -1.20818E+01 -1.44225E+01 -1.79625E+01
  -7.96147E-02 -3.57903E+00 -2.26361E+01 -1.84267E+01 -1.47851E+01  1.86915E+00 -1.43890E+01 -7.34538E+00 -5.70008E+00 -8.37425E+00
  -2.60857E+01 -2.05758E+00 -5.13351E+00 -1.59340E+01 -1.97663E+01 -2.65227E+01 -2.81437E+01  4.33928E-01  9.48167E-01  1.13645E+01
   1.94452E+00  1.02393E+01  3.27177E+01  3.05665E+01  3.59469E+01  5.98054E+01  5.93967E+01  6.94993E+01  6.05449E+01  4.53105E+01
   5.66949E+01  6.93267E+01  8.02391E+01  8.74844E+01  6.36698E+01  4.07306E+01  2.80709E+01  3.32587E+01 -3.67217E+00  3.29356E+00
  -9.26170E+00 -2.53954E-01 -9.49940E+00  6.85396E+00 -2.11113E+01 -1.33323E+01 -6.74391E+00  1.12876E+01 -8.80340E+00 -2.59904E+00
  -1.19722E+01  1.13828E+01 -8.11865E+00 -1.51760E+01 -1.94442E+01 -7.12117E+00 -1.81714E+01 -2.74284E+01 -4.62631E+00 -8.92493E+00
  -1.39821E+01 -1.56967E+01 -1.39481E+01  1.76328E+00 -2.97659E+00 -2.01421E+01 -7.64692E+00  4.66937E+00 -7.50562E+00 -1.22351E+01
   5.74575E+00 -6.28166E+00 -4.55754E+00 -2.44526E+01 -6.63374E+00  1.75770E+00 -7.12238E+00 -1.02757E+01 -1.05750E+00 -8.62910E+00
   1.49079E+01  1.01385E+01  1.26280E+01  8.61450E+00  1.74902E+01  2.15603E+01  2.45206E+01  1.80128E+01  3.37953E+01  9.70480E+00
  -3.35723E+00  1.70765E+01  1.47759E+01  1.31412E+01  1.46671E+01  4.04546E+00 -7.66712E+00  1.43593E+01  1.34768E-01 -7.26200E+00
   1.48192E+01 -1.15226E+00 -5.63414E+00  1.21996E+01  6.04819E+00  5.66107E+00 -1.09694E+00  7.60539E+00 -1.90994E+00  1.10431E+01
   1.01914E+01 -8.33869E-01  7.80379E+00  1.89569E+00  7.75172E+00  1.02121E+01  9.48407E-01  5.55746E+00  1.25083E+01  1.30519E+01
   1.52407E+01  7.75257E+00  1.64107E+01  5.25141E+00  8.46652E+00  1.37669E+01  2.58109E+01  1.37041E+01  1.85723E+01  9.96887E+00
   3.29092E+01  2.52032E+01  3.08326E+01  1.16599E+01  2.34756E+01  1.89869E+01  1.54242E+01  1.34739E+01  9.60343E+00  6.55705E+00
   1.88811E+01  7.78688E+00  1.27458E+01  1.53627E+01  2.61711E+00  9.89271E+00  2.26468E+01  8.87141E+00 -2.10176E+00  2.42726E+01
   1.80497E+01  1.53236E+01 -7.83459E-01  1.27899E+01  3.05818E+00 -1.64035E+01  1.61001E+01  2.83752E+01  1.49668E+01  9.31958E+00
   2.79496E+00 -5.35369E+00 -7.31887E+00  6.43987E+00  1.42864E+00  9.32894E+00  5.95904E+00  1.50941E+01  3.24143E+01  2.16392E+00
   2.20231E+01  3.52554E+00  3.02033E+01  4.34023E+01  2.30820E+01  1.57270E+01  1.92611E+01  2.13823E+01  6.62186E+00  1.35704E+01
   2.65854E+01  2.06427E+01  3.89499E+01  1.76519E+01  2.44516E+01  1.55669E+01  7.35126E+00  1.54386E+01  1.78909E+01  2.30207E+01
   1.78408E+01  1.77635E+01  7.14070E+00  6.04741E+00 -2.32440E-01  5.30791E+00  1.98588E+01  3.86257E+00  7.73178E+00  1.46675E+01
   5.13702E+00  4.14690E+01  2.74464E+01  8.83704E+00  3.55057E+00  8.40284E+00  7.77365E+00  1.71084E+01  1.80394E+01  2.36451E+01
   1.45636E+01  1.60168E+01  2.62868E+01  7.63213E-01  2.01818E+01  3.86356E+00  1.12940E+01  4.12775E-01  8.57458E+00  2.18700E+00
   4.79304E+00  2.82930E+01  3.00723E+01  1.75330E+01  2.14433E+00  2.52628E+01  1.40335E+00  4.54028E+00  1.89104E+01  1.16089E+01
   1.87975E+01 -9.67479E-01  4.52869E+00  1.01014E+01 -5.94034E+00  8.30665E+00  3.21937E+01  8.71390E+00  6.39975E+00  6.50273E+00
   1.33774E+01  1.13232E+01  1.35226E+01  1.93689E+01  1.05964E+01  1.26302E+01  3.01498E+01  7.08162E+00  1.31269E+01  4.00534E+01
   1.24384E+01  1.70265E+01  1.34850E+01  2.50395E+00  1.45648E+01 -8.41537E+00  1.39943E+00  7.04423E+00  6.55494E+00  1.50574E+00
   2.42223E+01  7.06956E+00  1.22748E+01  8.21691E+00  2.63171E+01  1.38206E+01  1.14271E+01  2.17812E+01
 NY points of the fit to the data follow
  -1.55004E+02 -1.50591E+02 -1.58558E+02 -1.51405E+02 -1.57735E+02 -1.49746E+02 -1.54943E+02 -1.47966E+02 -1.52679E+02 -1.46212E+02
  -1.48210E+02 -1.41899E+02 -1.39973E+02 -1.36420E+02 -1.33329E+02 -1.33401E+02 -1.30544E+02 -1.32404E+02 -1.30781E+02 -1.32739E+02
  -1.31538E+02 -1.32279E+02 -1.30497E+02 -1.30636E+02 -1.29001E+02 -1.28974E+02 -1.27327E+02 -1.27068E+02 -1.25416E+02 -1.25302E+02
  -1.23480E+02 -1.23535E+02 -1.21575E+02 -1.21824E+02 -1.19703E+02 -1.19556E+02 -1.17181E+02 -1.16828E+02 -1.14350E+02 -1.13613E+02
  -1.11128E+02 -1.10449E+02 -1.08570E+02 -1.08355E+02 -1.06836E+02 -1.06823E+02 -1.05289E+02 -1.04710E+02 -1.03180E+02 -1.02955E+02
  -1.02317E+02 -1.02983E+02 -1.02915E+02 -1.03542E+02 -1.03169E+02 -1.03453E+02 -1.02652E+02 -1.02296E+02 -1.01178E+02 -1.00231E+02
  -9.91139E+01 -9.82169E+01 -9.73961E+01 -9.66308E+01 -9.58597E+01 -9.53600E+01 -9.46030E+01 -9.40290E+01 -9.31458E+01 -9.23935E+01
  -9.14224E+01 -9.07818E+01 -8.96802E+01 -8.93765E+01 -8.77891E+01 -8.76926E+01 -8.60371E+01 -8.60697E+01 -8.42488E+01 -8.44178E+01
  -8.30487E+01 -8.32762E+01 -8.23278E+01 -8.24634E+01 -8.15334E+01 -8.15244E+01 -8.04553E+01 -8.05365E+01 -8.00237E+01 -8.02434E+01
  -7.93822E+01 -7.56733E+01 -7.31655E+01 -6.66292E+01 -6.24259E+01 -5.21041E+01 -4.70086E+01 -3.72072E+01 -3.33715E+01 -2.71846E+01
  -2.53191E+01 -2.18354E+01 -2.06802E+01 -1.77894E+01 -1.81600E+01 -2.05650E+01 -2.37785E+01 -3.29961E+01 -3.77250E+01 -4.79442E+01
  -5.21082E+01 -6.01419E+01 -6.24537E+01 -6.58165E+01 -6.47092E+01 -6.33309E+01 -6.03660E+01 -5.70128E+01 -5.21411E+01 -4.52559E+01
  -4.05303E+01 -3.37471E+01 -3.11610E+01 -2.61827E+01 -2.54258E+01 -2.18388E+01 -2.17900E+01 -1.88888E+01 -2.13813E+01 -2.17915E+01
  -2.75909E+01 -3.18244E+01 -3.81349E+01 -4.31080E+01 -4.80041E+01 -5.19379E+01 -5.43071E+01 -5.61021E+01 -5.67786E+01 -5.73811E+01
  -5.76817E+01 -5.81209E+01 -5.77233E+01 -5.74690E+01 -5.69125E+01 -5.66178E+01 -5.60163E+01 -5.57202E+01 -5.51507E+01 -5.50105E+01
  -5.44777E+01 -5.44440E+01 -5.38682E+01 -5.39113E+01 -5.33423E+01 -5.33692E+01 -5.27612E+01 -5.26095E+01 -5.21197E+01 -5.19502E+01
  -5.16672E+01 -5.16559E+01 -5.14697E+01 -5.14112E+01 -5.13181E+01 -5.10224E+01 -5.10123E+01 -5.08350E+01 -5.09302E+01 -5.11213E+01
  -5.08877E+01 -5.12697E+01 -5.06102E+01 -5.11425E+01 -5.02009E+01 -5.07265E+01 -4.95601E+01 -4.99092E+01 -4.83991E+01 -4.85996E+01
  -4.67659E+01 -4.67367E+01 -4.49741E+01 -4.45484E+01 -4.29773E+01 -4.21281E+01 -4.09826E+01 -3.99922E+01 -3.90490E+01 -3.76997E+01
  -3.69853E+01 -3.54449E+01 -3.50384E+01 -3.35820E+01 -3.32761E+01 -3.19110E+01 -3.16263E+01 -3.06748E+01 -3.06418E+01 -3.01090E+01
  -3.02830E+01 -3.02511E+01 -3.04824E+01 -3.06048E+01 -3.06354E+01 -3.09250E+01 -3.08573E+01 -3.12406E+01 -3.12587E+01 -3.15326E+01
  -3.15107E+01 -3.12745E+01 -3.07920E+01 -3.00691E+01 -2.90065E+01 -2.80371E+01 -2.67539E+01 -2.56960E+01 -2.46122E+01 -2.37753E+01
  -2.29904E+01 -2.23303E+01 -2.17853E+01 -2.13521E+01 -2.09603E+01 -2.06521E+01 -2.03996E+01 -2.00561E+01 -1.99015E+01 -1.93996E+01
  -1.92477E+01 -1.85149E+01 -1.82112E+01 -1.72868E+01 -1.69499E+01 -1.60762E+01 -1.58344E+01 -1.50592E+01 -1.47324E+01 -1.39301E+01
  -1.33711E+01 -1.26476E+01 -1.20001E+01 -1.14624E+01 -1.07320E+01 -1.02868E+01 -9.27240E+00 -7.83708E+00 -2.46732E+00  2.09964E+00
   9.52416E+00  1.71953E+01  2.71366E+01  3.80018E+01  4.49095E+01  5.62200E+01  5.68223E+01  6.67330E+01  6.28189E+01  7.16229E+01
   6.63969E+01  7.40899E+01  6.24784E+01  6.58140E+01  4.72422E+01  4.54955E+01  2.79152E+01  2.41435E+01  1.12541E+01  7.69872E+00
   1.35839E+00 -5.71022E-01 -3.28712E+00 -4.34870E+00 -6.48678E+00 -7.41969E+00 -7.61427E+00 -7.87546E+00 -7.89605E+00 -8.08104E+00
  -8.05430E+00 -8.20098E+00 -8.13582E+00 -8.22904E+00 -8.11418E+00 -8.14239E+00 -7.96942E+00 -7.93044E+00 -7.70848E+00 -7.61860E+00
  -7.35881E+00 -7.22778E+00 -6.91928E+00 -6.73220E+00 -6.36378E+00 -6.09549E+00 -5.63037E+00 -5.25293E+00 -4.65675E+00 -4.14359E+00
  -3.39588E+00 -2.72981E+00 -1.82137E+00 -1.00439E+00  4.62401E-02  9.87549E-01  2.13710E+00  3.14459E+00  4.32329E+00  5.31858E+00
   6.44175E+00  7.34394E+00  8.34562E+00  9.12714E+00  1.00825E+01  1.08697E+01  1.13351E+01  1.19276E+01  1.17995E+01  1.21974E+01
   1.10407E+01  1.09071E+01  8.77809E+00  8.55910E+00  6.17758E+00  6.15178E+00  3.87591E+00  4.50330E+00  2.34463E+00  3.11104E+00
   1.39019E+00  2.03149E+00  1.30333E+00  2.23775E+00  2.61745E+00  4.51860E+00  5.95592E+00  7.70109E+00  9.38609E+00  1.00350E+01
   1.12057E+01  1.00784E+01  1.07566E+01  8.70788E+00  9.52750E+00  7.47715E+00  8.97998E+00  7.70301E+00  1.02266E+01  8.71119E+00
   1.18073E+01  1.02025E+01  1.35776E+01  1.27583E+01  1.60946E+01  1.62194E+01  1.94911E+01  1.96700E+01  2.20225E+01  2.10288E+01
   2.16610E+01  1.97034E+01  1.90995E+01  1.70590E+01  1.58520E+01  1.41271E+01  1.30283E+01  1.18056E+01  1.10556E+01  1.01225E+01
   9.53886E+00  8.98334E+00  8.69149E+00  8.34761E+00  8.21914E+00  8.00648E+00  7.98559E+00  7.86522E+00  7.92564E+00  7.88096E+00
   8.01354E+00  8.04122E+00  8.24719E+00  8.35178E+00  8.63793E+00  8.82772E+00  9.20337E+00  9.48812E+00  9.96267E+00  1.03504E+01
   1.09294E+01  1.14222E+01  1.21032E+01  1.26930E+01  1.34613E+01  1.41255E+01  1.49502E+01  1.56496E+01  1.64833E+01  1.71636E+01
   1.79462E+01  1.85432E+01  1.92093E+01  1.96592E+01  2.01496E+01  2.04006E+01  2.06737E+01  2.06965E+01  2.07369E+01  2.05311E+01
   2.03532E+01  1.99469E+01  1.95910E+01  1.90347E+01  1.85584E+01  1.79138E+01  1.73805E+01  1.67097E+01  1.61773E+01  1.55323E+01
   1.50456E+01  1.44631E+01  1.40507E+01  1.35508E+01  1.32249E+01  1.28134E+01  1.25740E+01  1.22462E+01  1.20852E+01  1.18304E+01
   1.17356E+01  1.15409E+01  1.14993E+01  1.13521E+01  1.13518E+01  1.12410E+01  1.12720E+01  1.11887E+01  1.12431E+01  1.11805E+01
   1.12523E+01  1.12052E+01  1.12900E+01  1.12547E+01  1.13494E+01  1.13231E+01  1.14252E+01  1.14059E+01  1.15137E+01  1.14999E+01
   1.16122E+01  1.16027E+01  1.17185E+01  1.17125E+01  1.18310E+01  1.18279E+01  1.19487E+01  1.19479E+01  1.20704E+01  1.20716E+01
   1.21955E+01  1.21984E+01  1.23235E+01  1.23278E+01  1.24537E+01  1.24593E+01  1.25860E+01  1.25927E+01  1.27201E+01  1.27277E+01
   1.28555E+01  1.28639E+01  1.29922E+01  1.30015E+01  1.31300E+01  1.31400E+01  1.32688E+01  1.32794E+01  1.34086E+01  1.34198E+01
   1.35491E+01  1.35609E+01  1.36904E+01  1.37029E+01  1.38326E+01  1.38455E+01  1.39753E+01  1.39888E+01  1.41189E+01  1.41330E+01
   1.42632E+01  1.42778E+01  1.44082E+01  1.44234E+01  1.45540E+01  1.45699E+01  1.47008E+01  1.47172E+01
 NY background values follow
    -1.510E+02   -1.503E+02   -1.496E+02   -1.488E+02   -1.481E+02   -1.474E+02   -1.467E+02   -1.460E+02   -1.453E+02   -1.446E+02
    -1.439E+02   -1.432E+02   -1.425E+02   -1.418E+02   -1.411E+02   -1.404E+02   -1.397E+02   -1.390E+02   -1.383E+02   -1.375E+02
    -1.368E+02   -1.361E+02   -1.354E+02   -1.347E+02   -1.340E+02   -1.333E+02   -1.326E+02   -1.319E+02   -1.312E+02   -1.305E+02
    -1.298E+02   -1.291E+02   -1.284E+02   -1.277E+02   -1.270E+02   -1.263E+02   -1.256E+02   -1.249E+02   -1.242E+02   -1.236E+02
    -1.229E+02   -1.222E+02   -1.215E+02   -1.208E+02   -1.201E+02   -1.194E+02   -1.187E+02   -1.180E+02   -1.174E+02   -1.167E+02
    -1.160E+02   -1.153E+02   -1.146E+02   -1.139E+02   -1.133E+02   -1.126E+02   -1.119E+02   -1.112E+02   -1.106E+02   -1.099E+02
    -1.092E+02   -1.086E+02   -1.079E+02   -1.072E+02   -1.066E+02   -1.059E+02   -1.052E+02   -1.046E+02   -1.039E+02   -1.033E+02
    -1.026E+02   -1.019E+02   -1.013E+02   -1.006E+02   -9.998E+01   -9.933E+01   -9.868E+01   -9.804E+01   -9.739E+01   -9.675E+01
    -9.611E+01   -9.547E+01   -9.483E+01   -9.419E+01   -9.356E+01   -9.292E+01   -9.229E+01   -9.166E+01   -9.104E+01   -9.041E+01
    -8.979E+01   -8.916E+01   -8.854E+01   -8.793E+01   -8.731E+01   -8.670E+01   -8.608E+01   -8.547E+01   -8.486E+01   -8.426E+01
    -8.365E+01   -8.305E+01   -8.245E+01   -8.185E+01   -8.125E+01   -8.066E+01   -8.006E+01   -7.947E+01   -7.888E+01   -7.830E+01
    -7.771E+01   -7.713E+01   -7.655E+01   -7.597E+01   -7.539E+01   -7.482E+01   -7.425E+01   -7.368E+01   -7.311E+01   -7.254E+01
    -7.198E+01   -7.142E+01   -7.086E+01   -7.030E+01   -6.974E+01   -6.919E+01   -6.864E+01   -6.809E+01   -6.754E+01   -6.700E+01
    -6.646E+01   -6.592E+01   -6.538E+01   -6.485E+01   -6.431E+01   -6.378E+01   -6.325E+01   -6.273E+01   -6.220E+01   -6.168E+01
    -6.116E+01   -6.064E+01   -6.013E+01   -5.962E+01   -5.911E+01   -5.860E+01   -5.810E+01   -5.759E+01   -5.709E+01   -5.659E+01
    -5.610E+01   -5.560E+01   -5.511E+01   -5.462E+01   -5.414E+01   -5.365E+01   -5.317E+01   -5.269E+01   -5.222E+01   -5.174E+01
    -5.127E+01   -5.080E+01   -5.033E+01   -4.987E+01   -4.940E+01   -4.894E+01   -4.849E+01   -4.803E+01   -4.758E+01   -4.713E+01
    -4.668E+01   -4.623E+01   -4.579E+01   -4.535E+01   -4.491E+01   -4.448E+01   -4.405E+01   -4.361E+01   -4.319E+01   -4.276E+01
    -4.234E+01   -4.192E+01   -4.150E+01   -4.108E+01   -4.067E+01   -4.026E+01   -3.985E+01   -3.945E+01   -3.904E+01   -3.864E+01
    -3.824E+01   -3.785E+01   -3.746E+01   -3.706E+01   -3.668E+01   -3.629E+01   -3.591E+01   -3.553E+01   -3.515E+01   -3.477E+01
    -3.440E+01   -3.403E+01   -3.366E+01   -3.330E+01   -3.293E+01   -3.257E+01   -3.221E+01   -3.186E+01   -3.150E+01   -3.115E+01
    -3.080E+01   -3.046E+01   -3.012E+01   -2.977E+01   -2.944E+01   -2.910E+01   -2.877E+01   -2.844E+01   -2.811E+01   -2.778E+01
    -2.746E+01   -2.714E+01   -2.682E+01   -2.650E+01   -2.619E+01   -2.587E+01   -2.557E+01   -2.526E+01   -2.496E+01   -2.465E+01
    -2.435E+01   -2.406E+01   -2.376E+01   -2.347E+01   -2.318E+01   -2.289E+01   -2.261E+01   -2.232E+01   -2.204E+01   -2.176E+01
    -2.149E+01   -2.121E+01   -2.094E+01   -2.067E+01   -2.040E+01   -2.014E+01   -1.987E+01   -1.961E+01   -1.935E+01   -1.909E+01
    -1.883E+01   -1.858E+01   -1.833E+01   -1.808E+01   -1.783E+01   -1.758E+01   -1.733E+01   -1.709E+01   -1.685E+01   -1.661E+01
    -1.637E+01   -1.613E+01   -1.590E+01   -1.566E+01   -1.543E+01   -1.520E+01   -1.497E+01   -1.475E+01   -1.452E+01   -1.430E+01
    -1.407E+01   -1.385E+01   -1.363E+01   -1.341E+01   -1.320E+01   -1.298E+01   -1.277E+01   -1.255E+01   -1.234E+01   -1.213E+01
    -1.192E+01   -1.172E+01   -1.151E+01   -1.130E+01   -1.110E+01   -1.090E+01   -1.070E+01   -1.050E+01   -1.030E+01   -1.010E+01
    -9.906E+00   -9.711E+00   -9.518E+00   -9.325E+00   -9.134E+00   -8.944E+00   -8.755E+00   -8.568E+00   -8.381E+00   -8.196E+00
    -8.012E+00   -7.828E+00   -7.646E+00   -7.466E+00   -7.286E+00   -7.107E+00   -6.929E+00   -6.753E+00   -6.577E+00   -6.403E+00
    -6.229E+00   -6.057E+00   -5.886E+00   -5.715E+00   -5.546E+00   -5.377E+00   -5.210E+00   -5.044E+00   -4.878E+00   -4.713E+00
    -4.550E+00   -4.387E+00   -4.225E+00   -4.065E+00   -3.905E+00   -3.746E+00   -3.588E+00   -3.431E+00   -3.275E+00   -3.119E+00
    -2.965E+00   -2.811E+00   -2.659E+00   -2.507E+00   -2.356E+00   -2.206E+00   -2.057E+00   -1.909E+00   -1.762E+00   -1.615E+00
    -1.470E+00   -1.325E+00   -1.181E+00   -1.038E+00   -8.956E-01   -7.542E-01   -6.136E-01   -4.738E-01   -3.349E-01   -1.967E-01
    -5.937E-02    7.717E-02    2.129E-01    3.479E-01    4.820E-01    6.154E-01    7.480E-01    8.798E-01    1.011E+00    1.141E+00
     1.271E+00    1.399E+00    1.527E+00    1.655E+00    1.781E+00    1.907E+00    2.032E+00    2.157E+00    2.280E+00    2.403E+00
     2.525E+00    2.647E+00    2.768E+00    2.888E+00    3.007E+00    3.126E+00    3.244E+00    3.362E+00    3.479E+00    3.595E+00
     3.711E+00    3.826E+00    3.940E+00    4.053E+00    4.167E+00    4.279E+00    4.391E+00    4.502E+00    4.613E+00    4.723E+00
     4.832E+00    4.941E+00    5.050E+00    5.158E+00    5.265E+00    5.372E+00    5.478E+00    5.583E+00    5.688E+00    5.793E+00
     5.897E+00    6.001E+00    6.104E+00    6.206E+00    6.308E+00    6.410E+00    6.511E+00    6.612E+00    6.712E+00    6.812E+00
     6.911E+00    7.010E+00    7.108E+00    7.206E+00    7.303E+00    7.400E+00    7.497E+00    7.593E+00    7.689E+00    7.784E+00
     7.879E+00    7.974E+00    8.068E+00    8.161E+00    8.255E+00    8.348E+00    8.440E+00    8.532E+00    8.624E+00    8.715E+00
     8.806E+00    8.897E+00    8.987E+00    9.077E+00    9.166E+00    9.255E+00    9.344E+00    9.432E+00    9.521E+00    9.608E+00
     9.696E+00    9.783E+00    9.869E+00    9.956E+00    1.004E+01    1.013E+01    1.021E+01    1.030E+01    1.038E+01    1.047E+01
     1.055E+01    1.064E+01    1.072E+01    1.080E+01    1.089E+01    1.097E+01    1.105E+01    1.113E+01    1.122E+01    1.130E+01
     1.138E+01    1.146E+01    1.154E+01    1.162E+01    1.170E+01    1.178E+01    1.187E+01    1.195E+01    1.203E+01    1.211E+01
     1.219E+01    1.226E+01    1.234E+01    1.242E+01    1.250E+01    1.258E+01    1.266E+01    1.274E+01    1.282E+01    1.290E+01
     1.298E+01    1.306E+01    1.313E+01    1.321E+01    1.329E+01    1.337E+01    1.345E+01    1.353E+01    1.360E+01    1.368E+01
     1.376E+01    1.384E+01    1.392E+01    1.400E+01    1.408E+01    1.415E+01    1.423E+01    1.431E+01
 Ala      Conc. = 7.92E+02
