 LCModel (Version 6.3-1L) Copyright: S.W. Provencher.          Ref.: Magn. Reson. Med. 30:672-679 (1993).                
 Slice#1 Row#10 Col#12  PD_05_press_2_raw_act
 36 lines in following concentration table = NCONC+1
    Conc.  %SD /Cr+PCr  Metabolite                                         
 9.09E+03  15%  37.354 Ala                                                 
   21.668  49% 8.9E-02 Asp                                                 
    0.000 999%   0.000 Cr                                                  
  243.325  22%   1.000 PCr                                                 
   13.054  49% 5.4E-02 GABA                                                
   13.504  48% 5.5E-02 Glc                                                 
  810.914  59%   3.333 Gln                                                 
 2.76E+03  23%  11.344 Glu                                                 
    0.000 999%   0.000 GPC                                                 
   64.769  32%   0.266 PCh                                                 
    0.000 999%   0.000 GSH                                                 
  871.346  27%   3.581 Ins                                                 
    0.000 999%   0.000 Lac                                                 
    0.000 999%   0.000 NAA                                                 
    0.000 999%   0.000 NAAG                                                
    4.702  46% 1.9E-02 Scyllo                                              
   23.321  45% 9.6E-02 Tau                                                 
   37.275 121%   0.153 -CrCH2                                              
   64.769  32%   0.266 GPC+PCh                                             
    0.000 999%   0.000 NAA+NAAG                                            
  243.325  22%   1.000 Cr+PCr                                              
 3.57E+03  25%  14.676 Glu+Gln                                             
 5.94E+03  25%  24.393 Lip13a                                              
    0.000 999%   0.000 Lip13b                                              
 3.57E+03  15%  14.660 Lip09                                               
 4.06E+03  15%  16.668 MM09                                                
    0.000 999%   0.000 Lip20                                               
    0.000 999%   0.000 MM20                                                
 3.07E+03  21%  12.628 MM12                                                
 1.21E+04  15%  49.832 MM14                                                
 3.84E+03  34%  15.792 MM17                                                
 5.94E+03  25%  24.393 Lip13a+Lip13b                                       
 2.11E+04  10%  86.854 MM14+Lip13a+Lip13b+MM12                             
 7.62E+03   7%  31.329 MM09+Lip09                                          
    0.000 999%   0.000 MM20+Lip20                                          
   6 lines in following misc. output table
  FWHM = 0.153 ppm    S/N =  22                                            
  Data shift = 0.183 ppm                                                   
  Ph:-126 deg      73.1 deg/ppm                                            
  alphaB,S = 8.5E+01,   3.8E+02                                            
    7 spline knots.   Ns = 9(2)                                            
   2 inflections.     1 extrema                                            
  498 points on ppm-axis = NY
      4.000000     3.992357     3.984714     3.977070     3.969427     3.961784     3.954141     3.946497     3.938854     3.931211
      3.923568     3.915925     3.908281     3.900638     3.892995     3.885352     3.877708     3.870065     3.862422     3.854779
      3.847136     3.839492     3.831849     3.824206     3.816563     3.808919     3.801276     3.793633     3.785990     3.778347
      3.770703     3.763060     3.755417     3.747774     3.740130     3.732487     3.724844     3.717201     3.709558     3.701914
      3.694271     3.686628     3.678985     3.671341     3.663698     3.656055     3.648412     3.640769     3.633125     3.625482
      3.617839     3.610196     3.602552     3.594909     3.587266     3.579623     3.571980     3.564336     3.556693     3.549050
      3.541407     3.533763     3.526120     3.518477     3.510834     3.503191     3.495547     3.487904     3.480261     3.472618
      3.464974     3.457331     3.449688     3.442045     3.434402     3.426758     3.419115     3.411472     3.403829     3.396185
      3.388542     3.380899     3.373256     3.365613     3.357969     3.350326     3.342683     3.335040     3.327396     3.319753
      3.312110     3.304467     3.296824     3.289180     3.281537     3.273894     3.266251     3.258607     3.250964     3.243321
      3.235678     3.228034     3.220391     3.212748     3.205105     3.197462     3.189818     3.182175     3.174532     3.166889
      3.159245     3.151602     3.143959     3.136316     3.128673     3.121029     3.113386     3.105743     3.098100     3.090456
      3.082813     3.075170     3.067527     3.059884     3.052240     3.044597     3.036954     3.029311     3.021667     3.014024
      3.006381     2.998738     2.991095     2.983451     2.975808     2.968165     2.960522     2.952878     2.945235     2.937592
      2.929949     2.922306     2.914662     2.907019     2.899376     2.891733     2.884089     2.876446     2.868803     2.861160
      2.853517     2.845873     2.838230     2.830587     2.822944     2.815300     2.807657     2.800014     2.792371     2.784728
      2.777084     2.769441     2.761798     2.754155     2.746511     2.738868     2.731225     2.723582     2.715939     2.708295
      2.700652     2.693009     2.685366     2.677722     2.670079     2.662436     2.654793     2.647150     2.639506     2.631863
      2.624220     2.616577     2.608933     2.601290     2.593647     2.586004     2.578361     2.570717     2.563074     2.555431
      2.547788     2.540144     2.532501     2.524858     2.517215     2.509572     2.501928     2.494285     2.486642     2.478999
      2.471355     2.463712     2.456069     2.448426     2.440783     2.433139     2.425496     2.417853     2.410210     2.402566
      2.394923     2.387280     2.379637     2.371994     2.364350     2.356707     2.349064     2.341421     2.333777     2.326134
      2.318491     2.310848     2.303205     2.295561     2.287918     2.280275     2.272632     2.264988     2.257345     2.249702
      2.242059     2.234416     2.226772     2.219129     2.211486     2.203843     2.196199     2.188556     2.180913     2.173270
      2.165627     2.157983     2.150340     2.142697     2.135054     2.127410     2.119767     2.112124     2.104481     2.096838
      2.089194     2.081551     2.073908     2.066265     2.058621     2.050978     2.043335     2.035692     2.028049     2.020405
      2.012762     2.005119     1.997476     1.989833     1.982190     1.974546     1.966903     1.959260     1.951617     1.943974
      1.936331     1.928688     1.921045     1.913402     1.905759     1.898115     1.890472     1.882829     1.875186     1.867543
      1.859900     1.852257     1.844614     1.836971     1.829327     1.821684     1.814041     1.806398     1.798755     1.791112
      1.783469     1.775826     1.768183     1.760540     1.752896     1.745253     1.737610     1.729967     1.722324     1.714681
      1.707038     1.699395     1.691752     1.684108     1.676465     1.668822     1.661179     1.653536     1.645893     1.638250
      1.630607     1.622964     1.615321     1.607677     1.600034     1.592391     1.584748     1.577105     1.569462     1.561819
      1.554176     1.546533     1.538890     1.531246     1.523603     1.515960     1.508317     1.500674     1.493031     1.485388
      1.477745     1.470102     1.462458     1.454815     1.447172     1.439529     1.431886     1.424243     1.416600     1.408957
      1.401314     1.393671     1.386027     1.378384     1.370741     1.363098     1.355455     1.347812     1.340169     1.332526
      1.324883     1.317240     1.309596     1.301953     1.294310     1.286667     1.279024     1.271381     1.263738     1.256095
      1.248452     1.240808     1.233165     1.225522     1.217879     1.210236     1.202593     1.194950     1.187307     1.179664
      1.172021     1.164377     1.156734     1.149091     1.141448     1.133805     1.126162     1.118519     1.110876     1.103233
      1.095590     1.087946     1.080303     1.072660     1.065017     1.057374     1.049731     1.042088     1.034445     1.026802
      1.019158     1.011515     1.003872     0.996229     0.988586     0.980943     0.973300     0.965657     0.958014     0.950371
      0.942727     0.935084     0.927441     0.919798     0.912155     0.904512     0.896869     0.889226     0.881583     0.873940
      0.866296     0.858653     0.851010     0.843367     0.835724     0.828081     0.820438     0.812795     0.805152     0.797508
      0.789865     0.782222     0.774579     0.766936     0.759293     0.751650     0.744007     0.736364     0.728721     0.721077
      0.713434     0.705791     0.698148     0.690505     0.682862     0.675219     0.667576     0.659933     0.652290     0.644646
      0.637003     0.629360     0.621717     0.614074     0.606431     0.598788     0.591145     0.583502     0.575858     0.568215
      0.560572     0.552929     0.545286     0.537643     0.530000     0.522357     0.514714     0.507071     0.499427     0.491784
      0.484141     0.476498     0.468855     0.461212     0.453569     0.445925     0.438282     0.430639     0.422996     0.415353
      0.407710     0.400067     0.392424     0.384780     0.377137     0.369494     0.361851     0.354208     0.346565     0.338922
      0.331278     0.323635     0.315992     0.308349     0.300706     0.293063     0.285420     0.277777     0.270133     0.262490
      0.254847     0.247204     0.239561     0.231918     0.224275     0.216631     0.208988     0.201345
 NY phased data points follow
  -2.87527E+00 -5.52353E+00 -3.64103E+00 -5.45151E+00 -5.08941E+00 -1.90313E+00 -3.99203E+00 -4.12848E+00 -2.28332E+00 -8.38113E+00
  -4.64231E+00 -4.58680E+00 -1.87731E+00 -5.02166E+00 -6.92554E+00 -9.86447E+00 -7.49672E+00 -3.24467E+00 -5.07418E+00 -4.32441E+00
  -5.06291E+00 -6.22695E+00 -5.89372E+00 -4.23101E+00 -5.99060E+00 -7.22165E+00 -6.32867E+00 -6.38751E+00 -7.05404E+00 -5.48903E+00
  -6.82856E+00 -4.56750E+00 -4.48215E+00 -6.16661E+00 -7.18496E+00 -5.96623E+00 -8.13590E+00 -7.34125E+00 -6.22706E+00 -9.00761E+00
  -5.96512E+00 -5.98906E+00 -8.41175E+00 -5.61263E+00 -5.57987E+00 -2.76324E+00 -8.73825E+00 -6.55431E+00 -4.68576E+00 -7.77117E+00
  -7.58661E+00 -4.26265E+00 -5.45812E+00 -8.73345E+00 -7.39805E+00 -9.08675E+00 -6.40714E+00 -5.34775E+00 -8.39040E+00 -4.60697E+00
  -5.81586E+00 -8.01248E+00 -5.64253E+00 -5.12171E+00 -8.62576E+00 -5.50729E+00 -6.36811E+00 -9.99258E+00 -8.00570E+00 -3.22152E+00
  -6.78618E+00 -6.59053E+00 -5.87078E+00 -4.80998E+00 -9.71263E+00 -6.00179E+00 -6.63512E+00 -9.70711E+00 -9.27984E+00 -7.96149E+00
  -1.15468E+01 -9.36788E+00 -5.69510E+00 -8.14771E+00 -7.97417E+00 -8.05007E+00 -6.18163E+00 -7.95742E+00 -8.75446E+00 -9.85346E+00
  -1.10433E+01 -5.69206E+00 -9.79849E+00 -6.63279E+00 -1.18797E+01 -9.57855E+00 -7.91185E+00 -1.07817E+01 -7.24984E+00 -7.21896E+00
  -9.91375E+00 -9.52277E+00 -1.10224E+01 -1.36874E+01 -1.18866E+01 -9.82376E+00 -8.74664E+00 -6.63444E+00 -7.61941E+00 -9.80877E+00
  -8.33091E+00 -8.57180E+00 -8.58193E+00 -8.68127E+00 -9.83937E+00 -1.05038E+01 -5.49672E+00 -9.59861E+00 -7.96707E+00 -9.74453E+00
  -8.31485E+00 -6.91253E+00 -9.90132E+00 -9.09849E+00 -9.77869E+00 -7.81881E+00 -6.33784E+00 -9.32011E+00 -7.31013E+00 -1.12368E+01
  -9.20831E+00 -9.60210E+00 -9.80578E+00 -1.23566E+01 -8.96717E+00 -9.93586E+00 -1.14748E+01 -1.04872E+01 -1.21991E+01 -1.19296E+01
  -1.13235E+01 -1.34812E+01 -1.40747E+01 -1.14387E+01 -1.10150E+01 -9.95833E+00 -7.34557E+00 -1.20833E+01 -1.18802E+01 -1.21786E+01
  -1.23296E+01 -1.10877E+01 -1.33388E+01 -1.67587E+01 -1.16800E+01 -1.23897E+01 -1.25587E+01 -1.32832E+01 -1.03313E+01 -1.49875E+01
  -9.63016E+00 -1.28935E+01 -1.15833E+01 -1.39972E+01 -9.77551E+00 -1.19983E+01 -1.42603E+01 -1.31097E+01 -1.01842E+01 -1.54970E+01
  -1.35036E+01 -1.25428E+01 -1.03998E+01 -1.30682E+01 -1.38839E+01 -1.24695E+01 -1.20017E+01 -9.84874E+00 -1.53730E+01 -1.12589E+01
  -1.26501E+01 -1.29921E+01 -1.48735E+01 -1.06375E+01 -1.18182E+01 -1.44099E+01 -1.37713E+01 -1.36157E+01 -1.38773E+01 -1.32028E+01
  -1.30130E+01 -1.33934E+01 -1.42956E+01 -1.34087E+01 -1.45253E+01 -1.33336E+01 -1.35489E+01 -1.19751E+01 -1.28283E+01 -1.36813E+01
  -1.14042E+01 -1.42402E+01 -1.46673E+01 -1.08676E+01 -1.39659E+01 -1.50163E+01 -1.19851E+01 -1.11838E+01 -1.49367E+01 -1.45946E+01
  -1.40091E+01 -1.46271E+01 -1.75549E+01 -1.53544E+01 -1.37968E+01 -1.72769E+01 -1.24354E+01 -1.61201E+01 -1.51828E+01 -1.47454E+01
  -1.52910E+01 -1.45279E+01 -1.49397E+01 -1.52613E+01 -1.70112E+01 -1.41795E+01 -1.36606E+01 -1.65488E+01 -1.23259E+01 -1.54814E+01
  -1.17289E+01 -1.56325E+01 -1.40726E+01 -1.52071E+01 -1.79793E+01 -1.28244E+01 -1.52632E+01 -1.21192E+01 -1.45731E+01 -7.03663E+00
  -1.02158E+01 -8.60158E+00 -1.13869E+01 -1.48877E+01 -1.55373E+01 -1.35238E+01 -1.65104E+01 -1.46568E+01 -1.67736E+01 -1.88676E+01
  -1.34462E+01 -1.51708E+01 -1.53298E+01 -1.24753E+01 -1.16431E+01 -1.01511E+01 -1.14093E+01 -1.27298E+01 -1.30641E+01 -1.34835E+01
  -1.30375E+01 -1.20006E+01 -1.42899E+01 -1.03475E+01 -1.09731E+01 -8.55797E+00 -9.03594E+00 -9.54214E+00 -1.13693E+01 -8.66285E+00
  -1.13627E+01 -9.20744E+00 -8.11984E+00 -8.30392E+00 -9.69156E+00 -8.42276E+00 -1.01814E+01 -7.66923E+00 -3.96693E+00 -8.51820E+00
  -6.54462E+00 -3.98766E+00 -6.48249E+00 -4.78289E+00 -5.26368E+00 -3.55415E+00 -2.90504E+00 -4.33785E+00 -3.99536E+00  9.85122E-02
  -1.41863E+00 -1.29011E+00  4.09711E+00  4.91413E+00  6.16427E+00  4.34096E+00  8.83115E+00  1.00232E+01  1.24124E+01  1.37956E+01
   1.59384E+01  2.04379E+01  2.11450E+01  2.27370E+01  2.50301E+01  3.32032E+01  3.46849E+01  3.81389E+01  4.37818E+01  4.98220E+01
   5.78978E+01  6.07707E+01  6.60012E+01  7.04933E+01  7.06922E+01  8.03158E+01  7.87386E+01  8.04588E+01  8.14978E+01  8.23117E+01
   8.09116E+01  8.02356E+01  7.73956E+01  7.42500E+01  7.19745E+01  6.70964E+01  6.90771E+01  6.46179E+01  6.16735E+01  6.06024E+01
   5.32615E+01  5.27388E+01  5.35520E+01  4.88809E+01  4.69332E+01  4.83656E+01  4.30646E+01  3.77637E+01  3.82657E+01  3.60390E+01
   3.75684E+01  3.39885E+01  3.44861E+01  3.14422E+01  2.90445E+01  2.97854E+01  3.12913E+01  2.82642E+01  3.11679E+01  2.69730E+01
   2.97224E+01  2.39164E+01  2.52892E+01  2.68501E+01  2.67463E+01  2.38139E+01  2.53193E+01  2.58912E+01  2.64617E+01  2.23130E+01
   2.58096E+01  2.74270E+01  2.77316E+01  2.43798E+01  2.80590E+01  2.68665E+01  2.54720E+01  2.53281E+01  2.59163E+01  2.73701E+01
   2.81830E+01  2.70563E+01  2.46824E+01  2.87716E+01  2.76205E+01  2.72113E+01  2.16998E+01  2.68548E+01  2.76218E+01  2.48899E+01
   2.59003E+01  2.51695E+01  2.75926E+01  2.25875E+01  2.20329E+01  2.14575E+01  2.33978E+01  2.16552E+01  2.00787E+01  2.12766E+01
   2.09035E+01  1.93473E+01  1.95037E+01  1.81073E+01  1.94872E+01  1.76413E+01  1.58976E+01  1.44692E+01  1.71514E+01  1.32850E+01
   1.48271E+01  1.38959E+01  1.59513E+01  1.27973E+01  1.16786E+01  9.94311E+00  5.79302E+00  1.06045E+01  8.80337E+00  9.65847E+00
   6.79177E+00  8.23403E+00  4.68205E+00  8.44369E+00  4.26640E+00  6.45865E+00  4.50613E+00  1.46508E+00  3.23067E+00  5.89653E+00
   1.01644E+00  6.28983E-01 -1.88086E+00  2.00337E+00 -1.98904E+00 -2.64379E+00 -1.07875E+00 -4.46488E+00 -5.51769E+00 -5.63482E+00
  -5.49714E+00 -4.99875E+00 -6.95372E+00 -5.75950E+00 -6.61262E+00 -9.51495E+00 -8.63637E+00 -1.17877E+01 -1.17294E+01 -9.91521E+00
  -9.88860E+00 -1.09773E+01 -1.15379E+01 -1.17200E+01 -1.22943E+01 -1.11444E+01 -1.11885E+01 -1.53641E+01 -1.52405E+01 -1.65339E+01
  -1.74293E+01 -1.45014E+01 -1.22773E+01 -1.62303E+01 -1.23446E+01 -1.54078E+01 -1.41176E+01 -1.70312E+01 -1.55248E+01 -1.82249E+01
  -1.94421E+01 -1.85664E+01 -2.12788E+01 -1.94276E+01 -1.63457E+01 -1.91147E+01 -2.08746E+01 -2.08646E+01 -2.12344E+01 -1.69814E+01
  -2.06188E+01 -1.73282E+01 -1.81860E+01 -1.88921E+01 -1.75235E+01 -1.97050E+01 -2.12614E+01 -2.01731E+01 -2.12742E+01 -2.35596E+01
  -2.27725E+01 -2.03250E+01 -1.99157E+01 -2.01786E+01 -1.99367E+01 -1.72047E+01 -1.82752E+01 -1.95341E+01 -2.19482E+01 -1.84622E+01
  -2.09937E+01 -2.12812E+01 -2.05165E+01 -2.26071E+01 -2.25003E+01 -1.91533E+01 -1.67834E+01 -1.88947E+01
 NY points of the fit to the data follow
  -3.87785E+00 -4.22582E+00 -4.22139E+00 -4.56420E+00 -4.53937E+00 -4.74093E+00 -4.53066E+00 -4.32366E+00 -4.24827E+00 -3.87257E+00
  -4.17401E+00 -3.71016E+00 -4.46863E+00 -3.96902E+00 -5.22165E+00 -4.38262E+00 -5.81859E+00 -4.77181E+00 -6.34193E+00 -5.25221E+00
  -6.86455E+00 -5.71378E+00 -7.23811E+00 -6.17148E+00 -7.37953E+00 -6.46265E+00 -7.24717E+00 -6.56130E+00 -6.90338E+00 -6.48222E+00
  -6.37372E+00 -6.30770E+00 -5.86500E+00 -6.20675E+00 -5.53664E+00 -6.22624E+00 -5.36122E+00 -6.25943E+00 -5.23242E+00 -6.25178E+00
  -5.18945E+00 -6.18913E+00 -5.08141E+00 -6.02115E+00 -4.97891E+00 -5.85490E+00 -4.93546E+00 -5.70831E+00 -5.11501E+00 -5.94289E+00
  -5.61055E+00 -6.35774E+00 -6.16457E+00 -6.78053E+00 -6.61526E+00 -6.96132E+00 -6.70282E+00 -6.96581E+00 -6.75700E+00 -7.00917E+00
  -6.85960E+00 -7.10416E+00 -7.01223E+00 -7.28395E+00 -7.18979E+00 -7.44722E+00 -7.34668E+00 -7.58381E+00 -7.48239E+00 -7.70545E+00
  -7.61718E+00 -7.86573E+00 -7.83201E+00 -8.11527E+00 -8.12062E+00 -8.42432E+00 -8.45178E+00 -8.76320E+00 -8.79452E+00 -9.09582E+00
  -9.13240E+00 -9.40998E+00 -9.44333E+00 -9.68753E+00 -9.70287E+00 -9.82710E+00 -9.81052E+00 -9.84114E+00 -9.80053E+00 -9.76053E+00
  -9.69469E+00 -9.59409E+00 -9.50536E+00 -9.37912E+00 -9.27234E+00 -9.16116E+00 -9.05468E+00 -8.99168E+00 -8.89554E+00 -8.89640E+00
  -8.82144E+00 -8.89987E+00 -8.85461E+00 -9.00101E+00 -8.98527E+00 -9.18333E+00 -9.19297E+00 -9.41747E+00 -9.42259E+00 -9.56046E+00
  -9.51177E+00 -9.59484E+00 -9.48675E+00 -9.54160E+00 -9.37249E+00 -9.39696E+00 -9.16485E+00 -9.18789E+00 -8.91033E+00 -8.97372E+00
  -8.68183E+00 -8.81480E+00 -8.53117E+00 -8.74232E+00 -8.48098E+00 -8.75621E+00 -8.53597E+00 -8.90018E+00 -8.73636E+00 -9.15951E+00
  -9.05059E+00 -9.49754E+00 -9.43712E+00 -9.88418E+00 -9.86614E+00 -1.02922E+01 -1.03106E+01 -1.07083E+01 -1.07588E+01 -1.11126E+01
  -1.11852E+01 -1.14833E+01 -1.15685E+01 -1.18077E+01 -1.18958E+01 -1.20702E+01 -1.21514E+01 -1.22660E+01 -1.23290E+01 -1.23659E+01
  -1.24046E+01 -1.24339E+01 -1.24701E+01 -1.24961E+01 -1.25312E+01 -1.25547E+01 -1.25886E+01 -1.26096E+01 -1.26420E+01 -1.26610E+01
  -1.26924E+01 -1.27099E+01 -1.27405E+01 -1.27573E+01 -1.27871E+01 -1.28036E+01 -1.28313E+01 -1.28473E+01 -1.28735E+01 -1.28888E+01
  -1.29130E+01 -1.29279E+01 -1.29492E+01 -1.29638E+01 -1.29822E+01 -1.30008E+01 -1.30271E+01 -1.30494E+01 -1.31031E+01 -1.31270E+01
  -1.32079E+01 -1.32255E+01 -1.33267E+01 -1.33025E+01 -1.33985E+01 -1.33148E+01 -1.33953E+01 -1.32194E+01 -1.32807E+01 -1.30573E+01
  -1.31160E+01 -1.29291E+01 -1.31097E+01 -1.29255E+01 -1.32166E+01 -1.29988E+01 -1.33297E+01 -1.29847E+01 -1.31716E+01 -1.28032E+01
  -1.28597E+01 -1.25631E+01 -1.25002E+01 -1.24088E+01 -1.23314E+01 -1.25423E+01 -1.23470E+01 -1.28111E+01 -1.24951E+01 -1.31750E+01
  -1.28032E+01 -1.36423E+01 -1.32368E+01 -1.41581E+01 -1.37489E+01 -1.46132E+01 -1.41897E+01 -1.49033E+01 -1.44968E+01 -1.49667E+01
  -1.45476E+01 -1.47499E+01 -1.43772E+01 -1.43351E+01 -1.40917E+01 -1.39329E+01 -1.38232E+01 -1.35794E+01 -1.35908E+01 -1.33203E+01
  -1.34027E+01 -1.31729E+01 -1.33177E+01 -1.31316E+01 -1.32247E+01 -1.30945E+01 -1.30720E+01 -1.30029E+01 -1.28407E+01 -1.29388E+01
  -1.27983E+01 -1.30200E+01 -1.29036E+01 -1.31720E+01 -1.31100E+01 -1.33191E+01 -1.32088E+01 -1.32946E+01 -1.31718E+01 -1.31212E+01
  -1.30105E+01 -1.28493E+01 -1.27669E+01 -1.25394E+01 -1.25124E+01 -1.22201E+01 -1.22302E+01 -1.18896E+01 -1.19442E+01 -1.15563E+01
  -1.16359E+01 -1.12248E+01 -1.13286E+01 -1.09182E+01 -1.10315E+01 -1.06606E+01 -1.07338E+01 -1.03847E+01 -1.04127E+01 -1.00936E+01
  -1.00628E+01 -9.77383E+00 -9.69764E+00 -9.42746E+00 -9.28791E+00 -9.00059E+00 -8.79169E+00 -8.47504E+00 -8.19432E+00 -7.83299E+00
  -7.48098E+00 -7.04359E+00 -6.57703E+00 -6.03368E+00 -5.44017E+00 -4.77357E+00 -4.03229E+00 -3.23151E+00 -2.33449E+00 -1.36649E+00
  -2.95481E-01  8.59294E-01  2.12440E+00  3.48627E+00  4.96548E+00  6.56187E+00  8.28492E+00  1.01383E+01  1.21295E+01  1.42707E+01
   1.65698E+01  1.90469E+01  2.17128E+01  2.45986E+01  2.77272E+01  3.11463E+01  3.49156E+01  3.91663E+01  4.41869E+01  5.00688E+01
   5.50095E+01  6.12041E+01  6.51882E+01  7.08992E+01  7.32949E+01  7.77603E+01  7.75869E+01  8.14558E+01  7.96440E+01  8.24909E+01
   7.92613E+01  8.06287E+01  7.63343E+01  7.64320E+01  7.18356E+01  7.08042E+01  6.67090E+01  6.47957E+01  6.16369E+01  5.89634E+01
   5.68535E+01  5.36157E+01  5.24686E+01  4.86218E+01  4.81389E+01  4.38593E+01  4.38068E+01  3.93015E+01  3.96645E+01  3.53779E+01
   3.61848E+01  3.23792E+01  3.35176E+01  3.03492E+01  3.17589E+01  2.92264E+01  3.06077E+01  2.86698E+01  2.99337E+01  2.86567E+01
   2.90957E+01  2.76809E+01  2.75482E+01  2.63290E+01  2.59367E+01  2.50212E+01  2.45881E+01  2.45686E+01  2.47619E+01  2.50736E+01
   2.54446E+01  2.58369E+01  2.62181E+01  2.65664E+01  2.68610E+01  2.70899E+01  2.72411E+01  2.73113E+01  2.72974E+01  2.72043E+01
   2.70368E+01  2.68066E+01  2.65245E+01  2.62063E+01  2.58652E+01  2.55174E+01  2.51743E+01  2.48488E+01  2.45468E+01  2.42747E+01
   2.40311E+01  2.38149E+01  2.36172E+01  2.34303E+01  2.32403E+01  2.30360E+01  2.28018E+01  2.25267E+01  2.21977E+01  2.18077E+01
   2.13490E+01  2.08211E+01  2.02232E+01  1.95616E+01  1.88418E+01  1.80760E+01  1.72740E+01  1.64508E+01  1.56176E+01  1.47894E+01
   1.39758E+01  1.31887E+01  1.24341E+01  1.17192E+01  1.10449E+01  1.04135E+01  9.82068E+00  9.26436E+00  8.73658E+00  8.23209E+00
   7.74083E+00  7.25638E+00  6.76839E+00  6.27105E+00  5.75535E+00  5.21748E+00  4.65088E+00  4.05452E+00  3.42485E+00  2.76381E+00
   2.07070E+00  1.35009E+00  6.03564E-01 -1.62422E-01 -9.44847E-01 -1.73627E+00 -2.53315E+00 -3.32798E+00 -4.11747E+00 -4.89473E+00
  -5.65736E+00 -6.39949E+00 -7.11992E+00 -7.81403E+00 -8.48186E+00 -9.12001E+00 -9.72965E+00 -1.03084E+01 -1.08584E+01 -1.13780E+01
  -1.18699E+01 -1.23332E+01 -1.27709E+01 -1.31822E+01 -1.35706E+01 -1.39354E+01 -1.42799E+01 -1.46035E+01 -1.49096E+01 -1.51974E+01
  -1.54701E+01 -1.57268E+01 -1.59707E+01 -1.62008E+01 -1.64199E+01 -1.66270E+01 -1.68249E+01 -1.70122E+01 -1.71918E+01 -1.73622E+01
  -1.75260E+01 -1.76817E+01 -1.78318E+01 -1.79748E+01 -1.81132E+01 -1.82451E+01 -1.83731E+01 -1.84954E+01 -1.86144E+01 -1.87282E+01
  -1.88392E+01 -1.89456E+01 -1.90497E+01 -1.91495E+01 -1.92473E+01 -1.93413E+01 -1.94336E+01 -1.95224E+01 -1.96097E+01 -1.96938E+01
  -1.97768E+01 -1.98567E+01 -1.99357E+01 -2.00118E+01 -2.00872E+01 -2.01599E+01 -2.02320E+01 -2.03016E+01 -2.03706E+01 -2.04373E+01
  -2.05036E+01 -2.05676E+01 -2.06312E+01 -2.06926E+01 -2.07538E+01 -2.08127E+01 -2.08713E+01 -2.09276E+01
 NY background values follow
    -7.978E+00   -8.007E+00   -8.037E+00   -8.066E+00   -8.096E+00   -8.126E+00   -8.155E+00   -8.185E+00   -8.215E+00   -8.244E+00
    -8.274E+00   -8.303E+00   -8.333E+00   -8.363E+00   -8.392E+00   -8.422E+00   -8.451E+00   -8.481E+00   -8.511E+00   -8.540E+00
    -8.570E+00   -8.600E+00   -8.629E+00   -8.659E+00   -8.688E+00   -8.718E+00   -8.748E+00   -8.777E+00   -8.807E+00   -8.837E+00
    -8.866E+00   -8.896E+00   -8.925E+00   -8.955E+00   -8.985E+00   -9.014E+00   -9.044E+00   -9.074E+00   -9.103E+00   -9.133E+00
    -9.162E+00   -9.192E+00   -9.222E+00   -9.251E+00   -9.281E+00   -9.311E+00   -9.340E+00   -9.370E+00   -9.399E+00   -9.429E+00
    -9.459E+00   -9.488E+00   -9.518E+00   -9.548E+00   -9.577E+00   -9.607E+00   -9.636E+00   -9.666E+00   -9.696E+00   -9.725E+00
    -9.755E+00   -9.785E+00   -9.814E+00   -9.844E+00   -9.873E+00   -9.903E+00   -9.933E+00   -9.962E+00   -9.992E+00   -1.002E+01
    -1.005E+01   -1.008E+01   -1.011E+01   -1.014E+01   -1.017E+01   -1.020E+01   -1.023E+01   -1.026E+01   -1.029E+01   -1.032E+01
    -1.035E+01   -1.038E+01   -1.041E+01   -1.044E+01   -1.047E+01   -1.050E+01   -1.053E+01   -1.055E+01   -1.058E+01   -1.061E+01
    -1.064E+01   -1.067E+01   -1.070E+01   -1.073E+01   -1.076E+01   -1.079E+01   -1.082E+01   -1.085E+01   -1.088E+01   -1.091E+01
    -1.094E+01   -1.097E+01   -1.100E+01   -1.103E+01   -1.106E+01   -1.109E+01   -1.112E+01   -1.115E+01   -1.118E+01   -1.121E+01
    -1.124E+01   -1.127E+01   -1.130E+01   -1.132E+01   -1.135E+01   -1.138E+01   -1.141E+01   -1.144E+01   -1.147E+01   -1.150E+01
    -1.153E+01   -1.156E+01   -1.159E+01   -1.162E+01   -1.165E+01   -1.168E+01   -1.171E+01   -1.174E+01   -1.177E+01   -1.180E+01
    -1.183E+01   -1.186E+01   -1.189E+01   -1.192E+01   -1.195E+01   -1.198E+01   -1.201E+01   -1.204E+01   -1.207E+01   -1.209E+01
    -1.212E+01   -1.215E+01   -1.218E+01   -1.221E+01   -1.224E+01   -1.227E+01   -1.230E+01   -1.233E+01   -1.236E+01   -1.239E+01
    -1.242E+01   -1.245E+01   -1.248E+01   -1.251E+01   -1.254E+01   -1.257E+01   -1.260E+01   -1.263E+01   -1.266E+01   -1.269E+01
    -1.272E+01   -1.275E+01   -1.278E+01   -1.280E+01   -1.283E+01   -1.286E+01   -1.289E+01   -1.292E+01   -1.295E+01   -1.298E+01
    -1.301E+01   -1.304E+01   -1.307E+01   -1.310E+01   -1.313E+01   -1.316E+01   -1.319E+01   -1.322E+01   -1.325E+01   -1.328E+01
    -1.331E+01   -1.334E+01   -1.337E+01   -1.340E+01   -1.342E+01   -1.345E+01   -1.348E+01   -1.351E+01   -1.354E+01   -1.357E+01
    -1.360E+01   -1.363E+01   -1.366E+01   -1.369E+01   -1.372E+01   -1.375E+01   -1.378E+01   -1.381E+01   -1.384E+01   -1.387E+01
    -1.390E+01   -1.393E+01   -1.396E+01   -1.399E+01   -1.401E+01   -1.404E+01   -1.407E+01   -1.410E+01   -1.413E+01   -1.416E+01
    -1.419E+01   -1.422E+01   -1.425E+01   -1.428E+01   -1.431E+01   -1.434E+01   -1.437E+01   -1.440E+01   -1.443E+01   -1.446E+01
    -1.449E+01   -1.451E+01   -1.454E+01   -1.457E+01   -1.460E+01   -1.463E+01   -1.466E+01   -1.469E+01   -1.472E+01   -1.475E+01
    -1.478E+01   -1.481E+01   -1.484E+01   -1.487E+01   -1.490E+01   -1.493E+01   -1.496E+01   -1.498E+01   -1.501E+01   -1.504E+01
    -1.507E+01   -1.510E+01   -1.513E+01   -1.516E+01   -1.519E+01   -1.522E+01   -1.525E+01   -1.528E+01   -1.531E+01   -1.534E+01
    -1.537E+01   -1.539E+01   -1.542E+01   -1.545E+01   -1.548E+01   -1.551E+01   -1.554E+01   -1.557E+01   -1.560E+01   -1.563E+01
    -1.566E+01   -1.569E+01   -1.572E+01   -1.575E+01   -1.577E+01   -1.580E+01   -1.583E+01   -1.586E+01   -1.589E+01   -1.592E+01
    -1.595E+01   -1.598E+01   -1.601E+01   -1.604E+01   -1.607E+01   -1.610E+01   -1.612E+01   -1.615E+01   -1.618E+01   -1.621E+01
    -1.624E+01   -1.627E+01   -1.630E+01   -1.633E+01   -1.636E+01   -1.639E+01   -1.642E+01   -1.645E+01   -1.647E+01   -1.650E+01
    -1.653E+01   -1.656E+01   -1.659E+01   -1.662E+01   -1.665E+01   -1.668E+01   -1.671E+01   -1.674E+01   -1.677E+01   -1.679E+01
    -1.682E+01   -1.685E+01   -1.688E+01   -1.691E+01   -1.694E+01   -1.697E+01   -1.700E+01   -1.703E+01   -1.706E+01   -1.708E+01
    -1.711E+01   -1.714E+01   -1.717E+01   -1.720E+01   -1.723E+01   -1.726E+01   -1.729E+01   -1.732E+01   -1.735E+01   -1.737E+01
    -1.740E+01   -1.743E+01   -1.746E+01   -1.749E+01   -1.752E+01   -1.755E+01   -1.758E+01   -1.761E+01   -1.764E+01   -1.766E+01
    -1.769E+01   -1.772E+01   -1.775E+01   -1.778E+01   -1.781E+01   -1.784E+01   -1.787E+01   -1.790E+01   -1.793E+01   -1.795E+01
    -1.798E+01   -1.801E+01   -1.804E+01   -1.807E+01   -1.810E+01   -1.813E+01   -1.816E+01   -1.819E+01   -1.822E+01   -1.824E+01
    -1.827E+01   -1.830E+01   -1.833E+01   -1.836E+01   -1.839E+01   -1.842E+01   -1.845E+01   -1.848E+01   -1.850E+01   -1.853E+01
    -1.856E+01   -1.859E+01   -1.862E+01   -1.865E+01   -1.868E+01   -1.871E+01   -1.874E+01   -1.876E+01   -1.879E+01   -1.882E+01
    -1.885E+01   -1.888E+01   -1.891E+01   -1.894E+01   -1.897E+01   -1.900E+01   -1.902E+01   -1.905E+01   -1.908E+01   -1.911E+01
    -1.914E+01   -1.917E+01   -1.920E+01   -1.923E+01   -1.926E+01   -1.929E+01   -1.931E+01   -1.934E+01   -1.937E+01   -1.940E+01
    -1.943E+01   -1.946E+01   -1.949E+01   -1.952E+01   -1.955E+01   -1.957E+01   -1.960E+01   -1.963E+01   -1.966E+01   -1.969E+01
    -1.972E+01   -1.975E+01   -1.978E+01   -1.981E+01   -1.983E+01   -1.986E+01   -1.989E+01   -1.992E+01   -1.995E+01   -1.998E+01
    -2.001E+01   -2.004E+01   -2.006E+01   -2.009E+01   -2.012E+01   -2.015E+01   -2.018E+01   -2.021E+01   -2.024E+01   -2.027E+01
    -2.030E+01   -2.032E+01   -2.035E+01   -2.038E+01   -2.041E+01   -2.044E+01   -2.047E+01   -2.050E+01   -2.053E+01   -2.056E+01
    -2.058E+01   -2.061E+01   -2.064E+01   -2.067E+01   -2.070E+01   -2.073E+01   -2.076E+01   -2.079E+01   -2.082E+01   -2.084E+01
    -2.087E+01   -2.090E+01   -2.093E+01   -2.096E+01   -2.099E+01   -2.102E+01   -2.105E+01   -2.108E+01   -2.110E+01   -2.113E+01
    -2.116E+01   -2.119E+01   -2.122E+01   -2.125E+01   -2.128E+01   -2.131E+01   -2.134E+01   -2.136E+01   -2.139E+01   -2.142E+01
    -2.145E+01   -2.148E+01   -2.151E+01   -2.154E+01   -2.157E+01   -2.159E+01   -2.162E+01   -2.165E+01   -2.168E+01   -2.171E+01
    -2.174E+01   -2.177E+01   -2.180E+01   -2.183E+01   -2.185E+01   -2.188E+01   -2.191E+01   -2.194E+01   -2.197E+01   -2.200E+01
    -2.203E+01   -2.206E+01   -2.209E+01   -2.211E+01   -2.214E+01   -2.217E+01   -2.220E+01   -2.223E+01   -2.226E+01   -2.229E+01
    -2.232E+01   -2.235E+01   -2.237E+01   -2.240E+01   -2.243E+01   -2.246E+01   -2.249E+01   -2.252E+01
 Ala      Conc. = 9.09E+03
