 LCModel (Version 6.3-1L) Copyright: S.W. Provencher.          Ref.: Magn. Reson. Med. 30:672-679 (1993).                
 Slice#1 Row#9 Col#9  PD_05_press_2_raw_act
 36 lines in following concentration table = NCONC+1
    Conc.  %SD /Cr+PCr  Metabolite                                         
  717.179  24%   0.455 Ala                                                 
    0.000 999%   0.000 Asp                                                 
  533.881  58%   0.338 Cr                                                  
 1.04E+03  31%   0.662 PCr                                                 
    0.000 999%   0.000 GABA                                                
    0.000 999%   0.000 Glc                                                 
 1.76E+03  20%   1.117 Gln                                                 
 2.68E+03  15%   1.699 Glu                                                 
  463.955   6%   0.294 GPC                                                 
    0.000 999%   0.000 PCh                                                 
  622.719  17%   0.395 GSH                                                 
 1.25E+03  29%   0.792 Ins                                                 
  265.632  69%   0.168 Lac                                                 
 3.90E+03   3%   2.475 NAA                                                 
    0.000 999%   0.000 NAAG                                                
   64.112  56% 4.1E-02 Scyllo                                              
    0.000 999%   0.000 Tau                                                 
  288.704  54%   0.183 -CrCH2                                              
  463.955   6%   0.294 GPC+PCh                                             
 3.90E+03   3%   2.475 NAA+NAAG                                            
 1.58E+03   5%   1.000 Cr+PCr                                              
 4.44E+03  13%   2.815 Glu+Gln                                             
 2.44E+03  31%   1.547 Lip13a                                              
    0.000 999%   0.000 Lip13b                                              
    0.000 999%   0.000 Lip09                                               
 3.36E+03  11%   2.128 MM09                                                
  536.287  56%   0.340 Lip20                                               
 9.22E+03   8%   5.849+MM20                                                
 1.33E+03  23%   0.840 MM12                                                
 2.45E+03  25%   1.556 MM14                                                
 2.10E+03  22%   1.334 MM17                                                
 2.44E+03  31%   1.547 Lip13a+Lip13b                                       
 6.22E+03  12%   3.944 MM14+Lip13a+Lip13b+MM12                             
 3.36E+03  11%   2.128 MM09+Lip09                                          
 9.76E+03   8%   6.189 MM20+Lip20                                          
   6 lines in following misc. output table
  FWHM = 0.054 ppm    S/N =  16                                            
  Data shift = 0.023 ppm                                                   
  Ph: -29 deg      -3.8 deg/ppm                                            
  alphaB,S = 6.4E-01,   1.3E+02                                            
   14 spline knots.   Ns = 7(1)                                            
  (14) 5 infls.   (13) 1 extrs.                                            
  498 points on ppm-axis = NY
      4.000000     3.992357     3.984714     3.977070     3.969427     3.961784     3.954141     3.946497     3.938854     3.931211
      3.923568     3.915925     3.908281     3.900638     3.892995     3.885352     3.877708     3.870065     3.862422     3.854779
      3.847136     3.839492     3.831849     3.824206     3.816563     3.808919     3.801276     3.793633     3.785990     3.778347
      3.770703     3.763060     3.755417     3.747774     3.740130     3.732487     3.724844     3.717201     3.709558     3.701914
      3.694271     3.686628     3.678985     3.671341     3.663698     3.656055     3.648412     3.640769     3.633125     3.625482
      3.617839     3.610196     3.602552     3.594909     3.587266     3.579623     3.571980     3.564336     3.556693     3.549050
      3.541407     3.533763     3.526120     3.518477     3.510834     3.503191     3.495547     3.487904     3.480261     3.472618
      3.464974     3.457331     3.449688     3.442045     3.434402     3.426758     3.419115     3.411472     3.403829     3.396185
      3.388542     3.380899     3.373256     3.365613     3.357969     3.350326     3.342683     3.335040     3.327396     3.319753
      3.312110     3.304467     3.296824     3.289180     3.281537     3.273894     3.266251     3.258607     3.250964     3.243321
      3.235678     3.228034     3.220391     3.212748     3.205105     3.197462     3.189818     3.182175     3.174532     3.166889
      3.159245     3.151602     3.143959     3.136316     3.128673     3.121029     3.113386     3.105743     3.098100     3.090456
      3.082813     3.075170     3.067527     3.059884     3.052240     3.044597     3.036954     3.029311     3.021667     3.014024
      3.006381     2.998738     2.991095     2.983451     2.975808     2.968165     2.960522     2.952878     2.945235     2.937592
      2.929949     2.922306     2.914662     2.907019     2.899376     2.891733     2.884089     2.876446     2.868803     2.861160
      2.853517     2.845873     2.838230     2.830587     2.822944     2.815300     2.807657     2.800014     2.792371     2.784728
      2.777084     2.769441     2.761798     2.754155     2.746511     2.738868     2.731225     2.723582     2.715939     2.708295
      2.700652     2.693009     2.685366     2.677722     2.670079     2.662436     2.654793     2.647150     2.639506     2.631863
      2.624220     2.616577     2.608933     2.601290     2.593647     2.586004     2.578361     2.570717     2.563074     2.555431
      2.547788     2.540144     2.532501     2.524858     2.517215     2.509572     2.501928     2.494285     2.486642     2.478999
      2.471355     2.463712     2.456069     2.448426     2.440783     2.433139     2.425496     2.417853     2.410210     2.402566
      2.394923     2.387280     2.379637     2.371994     2.364350     2.356707     2.349064     2.341421     2.333777     2.326134
      2.318491     2.310848     2.303205     2.295561     2.287918     2.280275     2.272632     2.264988     2.257345     2.249702
      2.242059     2.234416     2.226772     2.219129     2.211486     2.203843     2.196199     2.188556     2.180913     2.173270
      2.165627     2.157983     2.150340     2.142697     2.135054     2.127410     2.119767     2.112124     2.104481     2.096838
      2.089194     2.081551     2.073908     2.066265     2.058621     2.050978     2.043335     2.035692     2.028049     2.020405
      2.012762     2.005119     1.997476     1.989833     1.982190     1.974546     1.966903     1.959260     1.951617     1.943974
      1.936331     1.928688     1.921045     1.913402     1.905759     1.898115     1.890472     1.882829     1.875186     1.867543
      1.859900     1.852257     1.844614     1.836971     1.829327     1.821684     1.814041     1.806398     1.798755     1.791112
      1.783469     1.775826     1.768183     1.760540     1.752896     1.745253     1.737610     1.729967     1.722324     1.714681
      1.707038     1.699395     1.691752     1.684108     1.676465     1.668822     1.661179     1.653536     1.645893     1.638250
      1.630607     1.622964     1.615321     1.607677     1.600034     1.592391     1.584748     1.577105     1.569462     1.561819
      1.554176     1.546533     1.538890     1.531246     1.523603     1.515960     1.508317     1.500674     1.493031     1.485388
      1.477745     1.470102     1.462458     1.454815     1.447172     1.439529     1.431886     1.424243     1.416600     1.408957
      1.401314     1.393671     1.386027     1.378384     1.370741     1.363098     1.355455     1.347812     1.340169     1.332526
      1.324883     1.317240     1.309596     1.301953     1.294310     1.286667     1.279024     1.271381     1.263738     1.256095
      1.248452     1.240808     1.233165     1.225522     1.217879     1.210236     1.202593     1.194950     1.187307     1.179664
      1.172021     1.164377     1.156734     1.149091     1.141448     1.133805     1.126162     1.118519     1.110876     1.103233
      1.095590     1.087946     1.080303     1.072660     1.065017     1.057374     1.049731     1.042088     1.034445     1.026802
      1.019158     1.011515     1.003872     0.996229     0.988586     0.980943     0.973300     0.965657     0.958014     0.950371
      0.942727     0.935084     0.927441     0.919798     0.912155     0.904512     0.896869     0.889226     0.881583     0.873940
      0.866296     0.858653     0.851010     0.843367     0.835724     0.828081     0.820438     0.812795     0.805152     0.797508
      0.789865     0.782222     0.774579     0.766936     0.759293     0.751650     0.744007     0.736364     0.728721     0.721077
      0.713434     0.705791     0.698148     0.690505     0.682862     0.675219     0.667576     0.659933     0.652290     0.644646
      0.637003     0.629360     0.621717     0.614074     0.606431     0.598788     0.591145     0.583502     0.575858     0.568215
      0.560572     0.552929     0.545286     0.537643     0.530000     0.522357     0.514714     0.507071     0.499427     0.491784
      0.484141     0.476498     0.468855     0.461212     0.453569     0.445925     0.438282     0.430639     0.422996     0.415353
      0.407710     0.400067     0.392424     0.384780     0.377137     0.369494     0.361851     0.354208     0.346565     0.338922
      0.331278     0.323635     0.315992     0.308349     0.300706     0.293063     0.285420     0.277777     0.270133     0.262490
      0.254847     0.247204     0.239561     0.231918     0.224275     0.216631     0.208988     0.201345
 NY phased data points follow
   1.18056E+01  1.56230E+01  1.35515E+01  1.32060E+01  2.04795E+01  2.04781E+01  2.68204E+01  2.76791E+01  3.61202E+01  3.44900E+01
   3.96834E+01  4.31078E+01  2.92755E+01  2.85294E+01  2.88503E+01  2.12647E+01  2.08527E+01  2.36897E+01  2.45572E+01  2.68596E+01
   2.17654E+01  1.49508E+01  1.79018E+01  1.23378E+01  1.49812E+01  1.34775E+01  1.87297E+01  2.16727E+01  2.14803E+01  1.99508E+01
   2.68865E+01  1.98745E+01  2.24392E+01  1.69556E+01  1.64309E+01  1.85221E+01  2.13744E+01  1.19687E+01  1.97811E+01  1.46949E+01
   1.24247E+01  1.39828E+01  1.38952E+01  1.20938E+01  1.73872E+01  1.72420E+01  1.73842E+01  1.98599E+01  2.25936E+01  2.00431E+01
   1.91360E+01  1.87931E+01  9.64557E+00  6.82733E+00  1.25673E+01  1.39216E+01  1.09436E+01  1.13260E+01  1.26662E+01  1.48103E+01
   8.02469E+00  7.42743E+00  7.48362E+00  5.21939E+00  6.86126E+00  5.69850E+00  4.93152E+00  4.18534E+00 -5.45544E-02  8.64387E+00
   3.90927E+00  5.95406E+00  5.87861E+00  4.38189E+00  3.33489E+00  1.08255E+01  3.31553E+00 -2.35709E+00  9.23402E-02  5.18297E+00
   5.19620E+00  6.04772E+00  5.90961E+00  5.98287E+00  1.00999E+00  4.89183E-01  1.17583E+00  3.88443E+00  3.43915E+00  8.68710E+00
   4.54525E+00  1.12884E+01  6.67149E+00  8.30286E+00  2.84300E+00  2.72370E+00  1.18403E+01  1.46557E+01  1.52884E+01  1.88422E+01
   2.90935E+01  3.61048E+01  4.31697E+01  4.06541E+01  4.51225E+01  3.02933E+01  2.44910E+01  2.06640E+01  1.74143E+01  9.39865E+00
   1.49376E+01  1.44528E+01  4.06007E+00  5.05347E+00  7.67490E+00  5.68778E+00  5.58915E+00  7.54255E+00  9.04095E+00  7.39734E+00
   1.43304E+01  1.46416E+01  2.32842E+01  2.40859E+01  3.45982E+01  4.60881E+01  5.59563E+01  5.39498E+01  5.18517E+01  4.94173E+01
   4.44157E+01  2.98040E+01  2.59879E+01  1.47361E+01  1.15634E+01  1.03078E+01  7.70891E+00  1.24833E+01  9.70215E+00  9.03004E+00
   1.98534E+01  5.05845E+00  4.75434E+00  6.17869E+00  6.76901E+00 -2.13382E+00  7.26230E+00  8.76605E+00  2.30884E+00  3.40754E+00
   9.02268E-01 -1.39876E+00 -1.46305E+00  1.59768E+00 -1.07793E+00 -5.01900E+00  3.49139E-01  2.05275E+00 -9.33041E-01  9.83289E-01
   2.32083E+00  2.58391E+00 -4.35205E+00  1.43960E+00  3.35463E-01 -1.58337E+00 -1.44562E+00 -1.05047E+01 -1.12327E+01 -1.31477E+01
  -1.99763E+01 -9.06729E+00 -1.30166E+01 -1.45937E+01 -2.23750E+01 -2.29963E+01 -1.82887E+01 -1.81858E+01 -1.74313E+01 -2.11252E+01
  -2.36199E+01 -1.67453E+01 -1.35362E+01 -5.77042E+00 -1.06773E+01 -6.94611E+00 -1.43681E+00 -1.66761E+01 -5.85879E+00 -9.60293E+00
  -3.15663E+00 -4.21947E+00 -6.38738E+00 -1.18418E+00 -6.17251E+00 -2.11991E+00 -1.03128E+01 -5.22533E+00 -5.78318E-01 -5.55445E+00
  -3.64270E+00  2.87043E+00  7.05543E-01  8.94677E+00  7.05325E+00  2.63597E+00  1.72626E+00  1.43032E+00  2.33485E+00  6.48469E+00
   4.21404E-01  8.15679E+00  1.34526E+01  1.66544E+01  2.09512E+01  2.50324E+01  2.31173E+01  1.83404E+01  9.57072E+00  1.35753E+01
   3.79396E+00 -2.06315E+00  1.02505E+01  8.58665E+00  9.44314E+00  1.64502E+01  1.86825E+01  2.40891E+01  2.11888E+01  3.11107E+01
   2.43274E+01  2.45651E+01  2.22969E+01  2.02974E+01  2.02394E+01  2.48615E+01  2.73737E+01  2.12248E+01  2.64878E+01  2.11312E+01
   2.10227E+01  2.15331E+01  1.84105E+01  1.95071E+01  2.32116E+01  2.54689E+01  2.52678E+01  2.88129E+01  2.97297E+01  3.11655E+01
   2.38493E+01  3.43480E+01  3.38371E+01  5.38454E+01  5.93719E+01  7.48215E+01  8.60632E+01  1.01495E+02  1.25198E+02  1.42742E+02
   1.51176E+02  1.49172E+02  1.24587E+02  1.00238E+02  7.52160E+01  6.29374E+01  4.56833E+01  3.84024E+01  3.23883E+01  2.13409E+01
   2.52236E+01  1.98976E+01  1.74101E+01  2.08768E+01  1.62603E+01  1.36829E+01  9.39449E+00  1.17530E+01  1.29552E+01  8.23392E+00
   1.50678E+01  6.02861E+00  7.86677E+00  7.88447E+00  1.09082E+01  2.59689E+00  8.81772E+00  9.40051E+00  7.38166E+00  6.98668E+00
   5.46477E+00  8.48763E+00  7.88358E+00  1.38573E+01  9.44342E+00  9.47296E+00  1.26224E+01  6.06934E+00  9.42838E+00  1.29935E+01
   7.26885E+00  9.60896E+00  1.30439E+01  5.84197E+00  1.45564E+01  8.22295E+00  1.55526E+01  1.44333E+01  2.05624E+01  1.69595E+01
   1.22149E+01  1.66516E+01  1.73121E+01  2.00347E+01  1.41221E+01  1.74795E+01  2.31377E+01  1.84042E+01  1.47555E+01  1.85826E+01
   1.74641E+01  1.95906E+01  1.62628E+01  1.29891E+01  1.43211E+01  1.73653E+01  1.02554E+01  7.76028E+00  1.10562E+01  4.02835E+00
   5.67121E+00  1.54354E+01  9.16070E+00  1.48536E+01  1.52574E+01  1.66101E+01  2.37384E+01  2.40870E+01  2.34104E+01  2.15454E+01
   2.29142E+01  2.22944E+01  1.94065E+01  1.77798E+01  2.41481E+01  2.15537E+01  1.62930E+01  2.90968E+01  1.44770E+01  1.67486E+01
   1.32410E+01  1.77581E+01  1.69804E+01  1.29255E+01  1.56335E+01  1.90698E+01  1.74280E+01  1.87736E+01  1.76203E+01  1.28516E+01
   2.08233E+01  1.97309E+01  1.92298E+01  2.04670E+01  1.99702E+01  1.77392E+01  2.21931E+01  2.11328E+01  1.91446E+01  1.75031E+01
   1.24046E+01  1.87028E+01  1.56852E+01  1.48726E+01  1.19291E+01  1.18135E+01  1.44806E+01  1.28611E+01  1.25838E+01  8.86359E+00
   6.74429E+00  9.59048E+00  1.27885E+01  7.25450E+00  7.73593E+00  8.55166E+00  6.58712E+00  9.59167E+00  1.54677E+01  7.56197E+00
   1.14410E+01  1.30903E+01  1.07587E+01  1.48385E+01  1.65674E+01  1.72715E+01  1.78657E+01  1.54457E+01  1.82254E+01  1.50452E+01
   1.66068E+01  1.39251E+01  2.33874E+01  1.68601E+01  2.01760E+01  2.31525E+01  2.16221E+01  2.00576E+01  2.53022E+01  1.77537E+01
   1.88725E+01  1.55460E+01  1.89601E+01  1.67883E+01  1.17040E+01  1.24714E+01  1.53036E+01  1.06151E+01  1.30941E+01  6.38740E+00
   6.07865E+00  3.53079E+00  3.64295E+00  8.01313E+00  5.16835E+00  8.62474E+00  3.84300E+00  7.41825E+00  3.37902E+00  2.06380E+00
   1.22904E+00 -2.60085E-01  2.26694E+00  1.26343E+00  5.82645E+00  4.30695E+00 -1.15576E+00  1.16690E+00  4.59093E+00  3.95178E-01
   1.35822E+00 -1.54953E-01  2.76930E+00  7.50515E+00  6.35734E-01 -3.87223E+00 -6.53660E+00  3.47420E+00  2.79009E-01  4.21720E+00
  -4.24117E-01 -1.60337E+00 -4.46396E+00 -2.00509E+00 -6.75415E+00  2.78391E+00  3.18922E-01  2.69720E+00  1.37530E+00  1.80845E+00
   3.16377E+00 -1.71345E+00 -5.07077E+00 -2.48614E+00  1.87333E-01 -2.05182E-02 -3.80298E+00  2.87327E+00  3.81740E-01  3.16150E+00
   6.17636E+00  1.31694E-01  5.76649E+00 -1.95100E+00  1.46853E+00  2.28120E+00  4.74227E+00  3.35335E+00  7.70218E-01 -9.54921E-01
   1.48681E+00  7.38888E-02  2.55332E-01 -2.73116E+00  2.79348E+00  2.10717E-01 -2.11247E+00  7.49626E+00  1.43964E+00 -2.04491E+00
   1.24314E+00  5.55040E+00  5.91789E+00  2.94130E+00  6.52737E-01  1.91857E+00  7.24984E-01 -7.44231E-01
 NY points of the fit to the data follow
   1.34220E+01  1.30818E+01  1.37021E+01  1.54892E+01  1.79721E+01  2.13290E+01  2.53124E+01  2.96259E+01  3.38223E+01  3.71290E+01
   3.86683E+01  3.79411E+01  3.52816E+01  3.15874E+01  2.78026E+01  2.45706E+01  2.19960E+01  1.99370E+01  1.85153E+01  1.75681E+01
   1.67079E+01  1.59711E+01  1.56539E+01  1.56895E+01  1.55716E+01  1.57171E+01  1.66873E+01  1.87704E+01  2.16267E+01  2.45599E+01
   2.67592E+01  2.75283E+01  2.66329E+01  2.44000E+01  2.12909E+01  1.78930E+01  1.49206E+01  1.26281E+01  1.14415E+01  1.13212E+01
   1.17782E+01  1.27314E+01  1.38877E+01  1.51557E+01  1.64802E+01  1.77817E+01  1.87780E+01  1.90595E+01  1.84097E+01  1.69131E+01
   1.48441E+01  1.26957E+01  1.10057E+01  9.95886E+00  9.33321E+00  8.95925E+00  8.82690E+00  8.98967E+00  9.30929E+00  9.56148E+00
   9.56560E+00  9.23420E+00  8.58742E+00  7.77489E+00  7.01616E+00  6.55756E+00  6.42751E+00  6.47362E+00  6.60798E+00  6.80794E+00
   7.00742E+00  7.15380E+00  7.16823E+00  7.01872E+00  6.72768E+00  6.35367E+00  5.98072E+00  5.66459E+00  5.43279E+00  5.36648E+00
   5.42476E+00  5.45116E+00  5.41574E+00  5.39925E+00  5.38962E+00  5.24035E+00  4.82392E+00  4.16032E+00  3.40543E+00  2.80674E+00
   2.54863E+00  2.58300E+00  2.76171E+00  2.95103E+00  3.15376E+00  4.02730E+00  7.29280E+00  1.20800E+01  1.69792E+01  2.24488E+01
   2.91155E+01  3.61845E+01  4.15656E+01  4.32892E+01  4.06158E+01  3.45438E+01  2.73293E+01  2.09744E+01  1.62170E+01  1.26767E+01
   9.47355E+00  6.39467E+00  4.79845E+00  4.43692E+00  4.37768E+00  4.42783E+00  4.54367E+00  4.75058E+00  5.13835E+00  6.19777E+00
   9.74867E+00  1.57021E+01  2.20888E+01  2.88974E+01  3.68542E+01  4.54590E+01  5.26263E+01  5.58582E+01  5.38614E+01  4.74321E+01
   3.89678E+01  3.08900E+01  2.43219E+01  1.89840E+01  1.40862E+01  9.31778E+00  6.28006E+00  5.48582E+00  5.63595E+00  6.08453E+00
   6.42287E+00  6.47661E+00  6.30108E+00  5.91881E+00  5.38051E+00  4.80672E+00  4.22278E+00  3.60803E+00  3.00992E+00  2.43563E+00
   1.96237E+00  1.58080E+00  1.28228E+00  1.03368E+00  6.48844E-01  1.44207E-01 -3.53797E-01 -8.25427E-01 -1.24830E+00 -1.75603E+00
  -2.31495E+00 -2.64528E+00 -2.59022E+00 -2.31189E+00 -2.17321E+00 -2.45185E+00 -3.18505E+00 -4.17914E+00 -5.14798E+00 -6.00808E+00
  -6.88471E+00 -7.62897E+00 -8.29690E+00 -8.99045E+00 -9.62721E+00 -1.00179E+01 -9.95533E+00 -9.55271E+00 -9.14373E+00 -8.99617E+00
  -9.22322E+00 -9.47736E+00 -9.30167E+00 -8.66589E+00 -7.73861E+00 -6.68334E+00 -5.47273E+00 -3.85086E+00 -1.91626E+00 -1.62432E-01
   8.69914E-01  9.45505E-01  3.44449E-01 -4.89721E-01 -1.03098E+00 -1.01804E+00 -5.08871E-01  7.36378E-01  2.74434E+00  5.11045E+00
   7.35139E+00  9.14394E+00  9.82087E+00  8.94526E+00  7.00399E+00  4.10412E+00  3.17540E-01 -3.48935E+00 -5.91408E+00 -5.83014E+00
  -3.61425E+00  4.61134E-02  4.52567E+00  9.14890E+00  1.28027E+01  1.42808E+01  1.32984E+01  1.06604E+01  6.95304E+00  2.78899E+00
  -3.47817E-01 -1.53244E+00 -6.36311E-01  2.02703E+00  5.76555E+00  9.96205E+00  1.35488E+01  1.59679E+01  1.71766E+01  1.76888E+01
   1.82119E+01  1.86541E+01  1.89932E+01  1.96488E+01  2.08471E+01  2.21196E+01  2.32119E+01  2.41941E+01  2.49630E+01  2.51534E+01
   2.46540E+01  2.39844E+01  2.37436E+01  2.42297E+01  2.52775E+01  2.66402E+01  2.82490E+01  2.97990E+01  3.11658E+01  3.24653E+01
   3.39856E+01  3.56053E+01  3.80871E+01  4.57281E+01  5.97491E+01  7.43776E+01  8.91410E+01  1.06542E+02  1.25968E+02  1.42289E+02
   1.49248E+02  1.43331E+02  1.25848E+02  1.02638E+02  8.05270E+01  6.31088E+01  5.01643E+01  3.91837E+01  2.82678E+01  2.02573E+01
   1.72660E+01  1.58527E+01  1.49124E+01  1.42373E+01  1.36074E+01  1.29206E+01  1.21912E+01  1.14302E+01  1.06749E+01  9.96958E+00
   9.32879E+00  8.74668E+00  8.25092E+00  7.86166E+00  7.55722E+00  7.31684E+00  7.13817E+00  7.02858E+00  6.99455E+00  7.02704E+00
   7.12170E+00  7.28607E+00  7.52192E+00  7.82732E+00  8.19819E+00  8.62933E+00  9.11591E+00  9.64841E+00  1.02178E+01  1.08146E+01
   1.14255E+01  1.20366E+01  1.26345E+01  1.32055E+01  1.37359E+01  1.42130E+01  1.46271E+01  1.49713E+01  1.52428E+01  1.54418E+01
   1.55713E+01  1.56374E+01  1.56517E+01  1.56293E+01  1.55902E+01  1.55594E+01  1.55689E+01  1.56655E+01  1.59355E+01  1.65610E+01
   1.74539E+01  1.80078E+01  1.82354E+01  1.82998E+01  1.80133E+01  1.69275E+01  1.47506E+01  1.18322E+01  9.31279E+00  7.75053E+00
   7.30789E+00  8.06548E+00  9.97277E+00  1.27070E+01  1.57256E+01  1.85998E+01  2.08715E+01  2.19759E+01  2.21835E+01  2.20615E+01
   2.20350E+01  2.20976E+01  2.18455E+01  2.12596E+01  2.08221E+01  2.04408E+01  1.98177E+01  1.88300E+01  1.77203E+01  1.68120E+01
   1.62356E+01  1.61000E+01  1.64558E+01  1.72272E+01  1.82048E+01  1.91461E+01  1.99151E+01  2.03716E+01  2.03994E+01  2.01543E+01
   1.98043E+01  1.94217E+01  1.89753E+01  1.83909E+01  1.77618E+01  1.71910E+01  1.66310E+01  1.60587E+01  1.54703E+01  1.48689E+01
   1.42613E+01  1.36557E+01  1.30613E+01  1.24875E+01  1.19439E+01  1.14401E+01  1.09851E+01  1.05870E+01  1.02528E+01  9.98870E+00
   9.80013E+00  9.69160E+00  9.66673E+00  9.72770E+00  9.87578E+00  1.01111E+01  1.04333E+01  1.08404E+01  1.13292E+01  1.18945E+01
   1.25298E+01  1.32266E+01  1.39749E+01  1.47627E+01  1.55756E+01  1.63974E+01  1.72105E+01  1.79964E+01  1.87359E+01  1.94097E+01
   1.99987E+01  2.04853E+01  2.08543E+01  2.10929E+01  2.11921E+01  2.11460E+01  2.09530E+01  2.06153E+01  2.01396E+01  1.95360E+01
   1.88180E+01  1.80011E+01  1.71030E+01  1.61421E+01  1.51379E+01  1.41090E+01  1.30731E+01  1.20458E+01  1.10412E+01  1.00712E+01
   9.14554E+00  8.27141E+00  7.45380E+00  6.69534E+00  5.99729E+00  5.35930E+00  4.78010E+00  4.25702E+00  3.78685E+00  3.36569E+00
   2.98985E+00  2.65547E+00  2.35886E+00  2.09610E+00  1.86360E+00  1.65794E+00  1.47639E+00  1.31629E+00  1.17538E+00  1.05126E+00
   9.41993E-01  8.45817E-01  7.61541E-01  6.87878E-01  6.23748E-01  5.67871E-01  5.19413E-01  4.77598E-01  4.42038E-01  4.12075E-01
   3.87180E-01  3.66633E-01  3.50143E-01  3.37385E-01  3.28280E-01  3.22390E-01  3.19408E-01  3.18888E-01  3.20811E-01  3.25037E-01
   3.31576E-01  3.40058E-01  3.50306E-01  3.62054E-01  3.75431E-01  3.90353E-01  4.06819E-01  4.24482E-01  4.43264E-01  4.63030E-01
   4.83984E-01  5.06032E-01  5.29145E-01  5.53007E-01  5.77637E-01  6.02987E-01  6.29270E-01  6.56343E-01  6.84147E-01  7.12416E-01
   7.41264E-01  7.70700E-01  8.00907E-01  8.31689E-01  8.62991E-01  8.94620E-01  9.26768E-01  9.59458E-01  9.92824E-01  1.02663E+00
   1.06086E+00  1.09540E+00  1.13051E+00  1.16620E+00  1.20256E+00  1.23935E+00  1.27663E+00  1.31441E+00
 NY background values follow
     1.090E+01    1.079E+01    1.069E+01    1.058E+01    1.048E+01    1.037E+01    1.027E+01    1.017E+01    1.006E+01    9.956E+00
     9.851E+00    9.747E+00    9.642E+00    9.537E+00    9.432E+00    9.328E+00    9.223E+00    9.118E+00    9.013E+00    8.909E+00
     8.804E+00    8.699E+00    8.594E+00    8.490E+00    8.385E+00    8.281E+00    8.176E+00    8.071E+00    7.967E+00    7.862E+00
     7.758E+00    7.654E+00    7.549E+00    7.445E+00    7.341E+00    7.237E+00    7.132E+00    7.028E+00    6.924E+00    6.821E+00
     6.717E+00    6.613E+00    6.509E+00    6.406E+00    6.302E+00    6.199E+00    6.095E+00    5.992E+00    5.889E+00    5.786E+00
     5.683E+00    5.580E+00    5.478E+00    5.375E+00    5.273E+00    5.171E+00    5.068E+00    4.966E+00    4.865E+00    4.763E+00
     4.662E+00    4.560E+00    4.459E+00    4.358E+00    4.258E+00    4.157E+00    4.057E+00    3.957E+00    3.857E+00    3.757E+00
     3.658E+00    3.559E+00    3.460E+00    3.361E+00    3.262E+00    3.164E+00    3.066E+00    2.969E+00    2.871E+00    2.774E+00
     2.677E+00    2.581E+00    2.484E+00    2.388E+00    2.293E+00    2.197E+00    2.102E+00    2.008E+00    1.913E+00    1.819E+00
     1.726E+00    1.632E+00    1.539E+00    1.447E+00    1.354E+00    1.262E+00    1.171E+00    1.080E+00    9.892E-01    8.989E-01
     8.091E-01    7.197E-01    6.307E-01    5.422E-01    4.541E-01    3.665E-01    2.794E-01    1.928E-01    1.067E-01    2.104E-02
    -6.408E-02   -1.487E-01   -2.327E-01   -3.163E-01   -3.992E-01   -4.816E-01   -5.635E-01   -6.448E-01   -7.255E-01   -8.056E-01
    -8.851E-01   -9.640E-01   -1.042E+00   -1.120E+00   -1.197E+00   -1.273E+00   -1.349E+00   -1.424E+00   -1.498E+00   -1.572E+00
    -1.645E+00   -1.718E+00   -1.789E+00   -1.860E+00   -1.930E+00   -2.000E+00   -2.068E+00   -2.136E+00   -2.204E+00   -2.270E+00
    -2.335E+00   -2.400E+00   -2.464E+00   -2.527E+00   -2.589E+00   -2.650E+00   -2.710E+00   -2.769E+00   -2.827E+00   -2.885E+00
    -2.941E+00   -2.996E+00   -3.050E+00   -3.102E+00   -3.154E+00   -3.204E+00   -3.254E+00   -3.302E+00   -3.349E+00   -3.394E+00
    -3.438E+00   -3.481E+00   -3.523E+00   -3.563E+00   -3.602E+00   -3.640E+00   -3.676E+00   -3.711E+00   -3.744E+00   -3.776E+00
    -3.806E+00   -3.835E+00   -3.862E+00   -3.888E+00   -3.912E+00   -3.934E+00   -3.955E+00   -3.974E+00   -3.991E+00   -4.007E+00
    -4.021E+00   -4.033E+00   -4.044E+00   -4.052E+00   -4.059E+00   -4.065E+00   -4.069E+00   -4.071E+00   -4.072E+00   -4.071E+00
    -4.069E+00   -4.066E+00   -4.061E+00   -4.055E+00   -4.048E+00   -4.039E+00   -4.029E+00   -4.019E+00   -4.007E+00   -3.994E+00
    -3.980E+00   -3.966E+00   -3.950E+00   -3.934E+00   -3.916E+00   -3.898E+00   -3.879E+00   -3.860E+00   -3.840E+00   -3.819E+00
    -3.798E+00   -3.776E+00   -3.754E+00   -3.732E+00   -3.709E+00   -3.686E+00   -3.662E+00   -3.638E+00   -3.614E+00   -3.590E+00
    -3.566E+00   -3.542E+00   -3.517E+00   -3.493E+00   -3.469E+00   -3.445E+00   -3.421E+00   -3.397E+00   -3.373E+00   -3.350E+00
    -3.327E+00   -3.304E+00   -3.281E+00   -3.258E+00   -3.236E+00   -3.213E+00   -3.191E+00   -3.169E+00   -3.148E+00   -3.126E+00
    -3.105E+00   -3.084E+00   -3.062E+00   -3.042E+00   -3.021E+00   -3.000E+00   -2.980E+00   -2.960E+00   -2.940E+00   -2.920E+00
    -2.900E+00   -2.881E+00   -2.862E+00   -2.842E+00   -2.823E+00   -2.805E+00   -2.786E+00   -2.767E+00   -2.749E+00   -2.731E+00
    -2.713E+00   -2.695E+00   -2.677E+00   -2.660E+00   -2.642E+00   -2.625E+00   -2.608E+00   -2.591E+00   -2.574E+00   -2.558E+00
    -2.541E+00   -2.525E+00   -2.508E+00   -2.492E+00   -2.476E+00   -2.461E+00   -2.445E+00   -2.429E+00   -2.414E+00   -2.399E+00
    -2.384E+00   -2.369E+00   -2.354E+00   -2.339E+00   -2.325E+00   -2.310E+00   -2.296E+00   -2.282E+00   -2.268E+00   -2.254E+00
    -2.240E+00   -2.227E+00   -2.213E+00   -2.200E+00   -2.186E+00   -2.173E+00   -2.160E+00   -2.147E+00   -2.135E+00   -2.122E+00
    -2.109E+00   -2.097E+00   -2.085E+00   -2.073E+00   -2.060E+00   -2.049E+00   -2.037E+00   -2.025E+00   -2.013E+00   -2.002E+00
    -1.990E+00   -1.979E+00   -1.968E+00   -1.957E+00   -1.946E+00   -1.935E+00   -1.924E+00   -1.913E+00   -1.903E+00   -1.892E+00
    -1.882E+00   -1.872E+00   -1.862E+00   -1.851E+00   -1.841E+00   -1.831E+00   -1.821E+00   -1.812E+00   -1.802E+00   -1.792E+00
    -1.782E+00   -1.773E+00   -1.763E+00   -1.754E+00   -1.744E+00   -1.735E+00   -1.725E+00   -1.716E+00   -1.706E+00   -1.697E+00
    -1.688E+00   -1.678E+00   -1.669E+00   -1.660E+00   -1.650E+00   -1.641E+00   -1.632E+00   -1.622E+00   -1.613E+00   -1.604E+00
    -1.594E+00   -1.585E+00   -1.575E+00   -1.566E+00   -1.556E+00   -1.547E+00   -1.537E+00   -1.527E+00   -1.518E+00   -1.508E+00
    -1.498E+00   -1.488E+00   -1.478E+00   -1.468E+00   -1.458E+00   -1.448E+00   -1.438E+00   -1.427E+00   -1.417E+00   -1.406E+00
    -1.395E+00   -1.385E+00   -1.374E+00   -1.363E+00   -1.351E+00   -1.340E+00   -1.328E+00   -1.317E+00   -1.305E+00   -1.293E+00
    -1.280E+00   -1.268E+00   -1.255E+00   -1.242E+00   -1.229E+00   -1.216E+00   -1.202E+00   -1.188E+00   -1.174E+00   -1.160E+00
    -1.146E+00   -1.131E+00   -1.116E+00   -1.100E+00   -1.085E+00   -1.069E+00   -1.053E+00   -1.036E+00   -1.019E+00   -1.002E+00
    -9.847E-01   -9.669E-01   -9.488E-01   -9.303E-01   -9.115E-01   -8.923E-01   -8.728E-01   -8.529E-01   -8.326E-01   -8.119E-01
    -7.909E-01   -7.696E-01   -7.478E-01   -7.257E-01   -7.033E-01   -6.805E-01   -6.574E-01   -6.339E-01   -6.101E-01   -5.860E-01
    -5.615E-01   -5.367E-01   -5.116E-01   -4.861E-01   -4.604E-01   -4.343E-01   -4.079E-01   -3.813E-01   -3.543E-01   -3.270E-01
    -2.995E-01   -2.716E-01   -2.435E-01   -2.151E-01   -1.864E-01   -1.574E-01   -1.281E-01   -9.863E-02   -6.885E-02   -3.881E-02
    -8.523E-03    2.202E-02    5.282E-02    8.386E-02    1.151E-01    1.467E-01    1.784E-01    2.104E-01    2.426E-01    2.751E-01
     3.077E-01    3.406E-01    3.737E-01    4.070E-01    4.405E-01    4.742E-01    5.080E-01    5.421E-01    5.764E-01    6.108E-01
     6.454E-01    6.801E-01    7.151E-01    7.501E-01    7.853E-01    8.207E-01    8.561E-01    8.917E-01    9.275E-01    9.633E-01
     9.992E-01    1.035E+00    1.071E+00    1.108E+00    1.144E+00    1.180E+00    1.217E+00    1.253E+00    1.290E+00    1.327E+00
     1.363E+00    1.400E+00    1.437E+00    1.474E+00    1.511E+00    1.547E+00    1.584E+00    1.621E+00    1.658E+00    1.695E+00
     1.732E+00    1.769E+00    1.805E+00    1.842E+00    1.879E+00    1.916E+00    1.952E+00    1.989E+00
 Ala      Conc. = 7.17E+02
