 LCModel (Version 6.3-1L) Copyright: S.W. Provencher.          Ref.: Magn. Reson. Med. 30:672-679 (1993).                
 Slice#1 Row#2 Col#5  PD_05_press_2_raw_act
 36 lines in following concentration table = NCONC+1
    Conc.  %SD /Cr+PCr  Metabolite                                         
   79.020 355% 9.8E-02 Ala                                                 
  153.419  83%   0.190 Asp                                                 
  807.985  16%   1.000 Cr                                                  
    0.000 999%   0.000 PCr                                                 
   98.079  78%   0.121 GABA                                                
  108.702  71%   0.135 Glc                                                 
 1.55E+03  39%   1.918 Gln                                                 
  544.771 116%   0.674 Glu                                                 
  283.832  18%   0.351 GPC                                                 
    0.000 999%   0.000 PCh                                                 
  742.914  26%   0.919 GSH                                                 
 3.10E+03  19%   3.842 Ins                                                 
    0.000 999%   0.000 Lac                                                 
 1.03E+03  21%   1.280 NAA                                                 
  525.783  42%   0.651 NAAG                                                
   39.257  62% 4.9E-02 Scyllo                                              
  167.560  75%   0.207 Tau                                                 
    0.000 999%   0.000 -CrCH2                                              
  283.832  18%   0.351 GPC+PCh                                             
 1.56E+03  13%   1.931 NAA+NAAG                                            
  807.985  16%   1.000 Cr+PCr                                              
 2.09E+03  42%   2.592 Glu+Gln                                             
    0.000 999%   0.000 Lip13a                                              
    0.000 999%   0.000 Lip13b                                              
  165.377 251%   0.205 Lip09                                               
 1.45E+03  31%   1.797 MM09                                                
    0.000 999%   0.000 Lip20                                               
 2.48E+03  29%   3.064 MM20                                                
  439.966  59%   0.545 MM12                                                
    0.000 999%   0.000 MM14                                                
    0.000 999%   0.000 MM17                                                
    0.000 999%   0.000 Lip13a+Lip13b                                       
  439.966  59%   0.545 MM14+Lip13a+Lip13b+MM12                             
 1.62E+03  24%   2.001 MM09+Lip09                                          
 2.48E+03  29%   3.064 MM20+Lip20                                          
   6 lines in following misc. output table
  FWHM = 0.054 ppm    S/N =   2                                            
  Data shift = 0.046 ppm                                                   
  Ph:  -5 deg       3.6 deg/ppm                                            
  alphaB,S = 8.5E+01,   4.8E+01                                            
   14 spline knots.   Ns = 5(1)                                            
   2 inflections.     1 extrema                                            
  498 points on ppm-axis = NY
      4.000000     3.992357     3.984714     3.977070     3.969427     3.961784     3.954141     3.946497     3.938854     3.931211
      3.923568     3.915925     3.908281     3.900638     3.892995     3.885352     3.877708     3.870065     3.862422     3.854779
      3.847136     3.839492     3.831849     3.824206     3.816563     3.808919     3.801276     3.793633     3.785990     3.778347
      3.770703     3.763060     3.755417     3.747774     3.740130     3.732487     3.724844     3.717201     3.709558     3.701914
      3.694271     3.686628     3.678985     3.671341     3.663698     3.656055     3.648412     3.640769     3.633125     3.625482
      3.617839     3.610196     3.602552     3.594909     3.587266     3.579623     3.571980     3.564336     3.556693     3.549050
      3.541407     3.533763     3.526120     3.518477     3.510834     3.503191     3.495547     3.487904     3.480261     3.472618
      3.464974     3.457331     3.449688     3.442045     3.434402     3.426758     3.419115     3.411472     3.403829     3.396185
      3.388542     3.380899     3.373256     3.365613     3.357969     3.350326     3.342683     3.335040     3.327396     3.319753
      3.312110     3.304467     3.296824     3.289180     3.281537     3.273894     3.266251     3.258607     3.250964     3.243321
      3.235678     3.228034     3.220391     3.212748     3.205105     3.197462     3.189818     3.182175     3.174532     3.166889
      3.159245     3.151602     3.143959     3.136316     3.128673     3.121029     3.113386     3.105743     3.098100     3.090456
      3.082813     3.075170     3.067527     3.059884     3.052240     3.044597     3.036954     3.029311     3.021667     3.014024
      3.006381     2.998738     2.991095     2.983451     2.975808     2.968165     2.960522     2.952878     2.945235     2.937592
      2.929949     2.922306     2.914662     2.907019     2.899376     2.891733     2.884089     2.876446     2.868803     2.861160
      2.853517     2.845873     2.838230     2.830587     2.822944     2.815300     2.807657     2.800014     2.792371     2.784728
      2.777084     2.769441     2.761798     2.754155     2.746511     2.738868     2.731225     2.723582     2.715939     2.708295
      2.700652     2.693009     2.685366     2.677722     2.670079     2.662436     2.654793     2.647150     2.639506     2.631863
      2.624220     2.616577     2.608933     2.601290     2.593647     2.586004     2.578361     2.570717     2.563074     2.555431
      2.547788     2.540144     2.532501     2.524858     2.517215     2.509572     2.501928     2.494285     2.486642     2.478999
      2.471355     2.463712     2.456069     2.448426     2.440783     2.433139     2.425496     2.417853     2.410210     2.402566
      2.394923     2.387280     2.379637     2.371994     2.364350     2.356707     2.349064     2.341421     2.333777     2.326134
      2.318491     2.310848     2.303205     2.295561     2.287918     2.280275     2.272632     2.264988     2.257345     2.249702
      2.242059     2.234416     2.226772     2.219129     2.211486     2.203843     2.196199     2.188556     2.180913     2.173270
      2.165627     2.157983     2.150340     2.142697     2.135054     2.127410     2.119767     2.112124     2.104481     2.096838
      2.089194     2.081551     2.073908     2.066265     2.058621     2.050978     2.043335     2.035692     2.028049     2.020405
      2.012762     2.005119     1.997476     1.989833     1.982190     1.974546     1.966903     1.959260     1.951617     1.943974
      1.936331     1.928688     1.921045     1.913402     1.905759     1.898115     1.890472     1.882829     1.875186     1.867543
      1.859900     1.852257     1.844614     1.836971     1.829327     1.821684     1.814041     1.806398     1.798755     1.791112
      1.783469     1.775826     1.768183     1.760540     1.752896     1.745253     1.737610     1.729967     1.722324     1.714681
      1.707038     1.699395     1.691752     1.684108     1.676465     1.668822     1.661179     1.653536     1.645893     1.638250
      1.630607     1.622964     1.615321     1.607677     1.600034     1.592391     1.584748     1.577105     1.569462     1.561819
      1.554176     1.546533     1.538890     1.531246     1.523603     1.515960     1.508317     1.500674     1.493031     1.485388
      1.477745     1.470102     1.462458     1.454815     1.447172     1.439529     1.431886     1.424243     1.416600     1.408957
      1.401314     1.393671     1.386027     1.378384     1.370741     1.363098     1.355455     1.347812     1.340169     1.332526
      1.324883     1.317240     1.309596     1.301953     1.294310     1.286667     1.279024     1.271381     1.263738     1.256095
      1.248452     1.240808     1.233165     1.225522     1.217879     1.210236     1.202593     1.194950     1.187307     1.179664
      1.172021     1.164377     1.156734     1.149091     1.141448     1.133805     1.126162     1.118519     1.110876     1.103233
      1.095590     1.087946     1.080303     1.072660     1.065017     1.057374     1.049731     1.042088     1.034445     1.026802
      1.019158     1.011515     1.003872     0.996229     0.988586     0.980943     0.973300     0.965657     0.958014     0.950371
      0.942727     0.935084     0.927441     0.919798     0.912155     0.904512     0.896869     0.889226     0.881583     0.873940
      0.866296     0.858653     0.851010     0.843367     0.835724     0.828081     0.820438     0.812795     0.805152     0.797508
      0.789865     0.782222     0.774579     0.766936     0.759293     0.751650     0.744007     0.736364     0.728721     0.721077
      0.713434     0.705791     0.698148     0.690505     0.682862     0.675219     0.667576     0.659933     0.652290     0.644646
      0.637003     0.629360     0.621717     0.614074     0.606431     0.598788     0.591145     0.583502     0.575858     0.568215
      0.560572     0.552929     0.545286     0.537643     0.530000     0.522357     0.514714     0.507071     0.499427     0.491784
      0.484141     0.476498     0.468855     0.461212     0.453569     0.445925     0.438282     0.430639     0.422996     0.415353
      0.407710     0.400067     0.392424     0.384780     0.377137     0.369494     0.361851     0.354208     0.346565     0.338922
      0.331278     0.323635     0.315992     0.308349     0.300706     0.293063     0.285420     0.277777     0.270133     0.262490
      0.254847     0.247204     0.239561     0.231918     0.224275     0.216631     0.208988     0.201345
 NY phased data points follow
   8.57803E+00  4.35292E+00 -6.98546E+00 -9.79036E+00  8.35561E-01  6.98457E+00 -6.25941E+00 -1.47096E+01 -1.79219E+01  2.33234E+01
   4.04182E+01  2.65881E+01  1.81585E+01  2.04221E+01  8.73226E+00  5.19858E+00  6.82813E+00  3.65272E+01 -2.27742E+00  3.70181E+00
  -9.94692E+00  1.10565E+01 -3.44342E+00 -1.74014E+00 -1.98223E+01 -4.52519E+00 -1.04821E+01  9.08478E+00  1.43894E+01  1.66509E+01
   2.78396E+01  2.71721E+01 -6.12900E+00  1.71040E+01  1.70902E+01  2.56829E+00  2.18600E+00 -3.92582E+00  1.23505E+01  1.61114E+01
  -6.50788E+00  4.18130E+00 -1.43784E+01 -1.96200E+00  1.11506E+01  9.18836E+00 -1.12971E+00  1.24843E+01  8.36821E+00  2.37388E+01
  -4.61306E+00  1.64945E+01  1.74764E+01  3.63206E-01  3.54753E+00  8.12990E+00  6.92682E+00  4.50216E+00  7.66184E-02  1.11944E+01
   1.12640E+01  3.39237E+00 -5.86751E+00 -1.20942E+01  7.93425E+00  8.26336E+00 -3.93101E+00  8.96662E+00  1.31114E+01  1.94099E+01
  -2.18607E+00 -1.93933E+00 -9.02285E+00  1.08030E+01  3.03057E+00  1.01355E+01  3.26686E+00 -1.66939E+00 -8.22121E+00  1.98979E+01
  -4.73571E-02  1.25616E+01  9.29655E+00 -1.20727E+01 -9.02286E+00 -1.05538E+01 -1.25417E+01 -4.32005E+00  7.15534E+00 -5.13513E+00
  -8.43228E+00  1.01090E+00  7.07128E+00  5.27926E+00 -7.52475E+00 -8.94664E-01 -7.11177E-01 -7.84818E+00 -1.47093E+01  3.87655E+00
  -1.10896E+01 -5.80945E+00  2.79618E+01  1.87541E+01  2.95807E+01  2.10112E+01  1.11194E+01  2.06870E+00 -1.15357E+01 -5.34663E+00
  -2.09414E+01 -1.22761E+01 -1.29072E+01 -4.31478E+00 -9.57830E+00 -1.47687E+00 -2.35506E+00  1.15359E+00  2.23120E+00  7.12873E-01
  -8.81399E+00  2.71175E+00 -6.16717E+00 -1.98612E+01 -1.19446E+01  1.98248E+01  1.74144E+01  3.36741E+01  8.62985E+00  2.14689E+01
   9.22522E+00  2.09624E+01 -3.21397E+00  1.08191E+00 -8.59777E-01  8.09896E+00  1.47184E+01 -1.19036E+01 -5.30682E+00 -7.65496E-01
   8.53767E+00 -1.61768E+01 -1.09138E+01 -5.49605E+00  3.98372E+00  3.43742E+00 -1.42287E+01  5.76723E+00 -1.04178E+01 -1.58357E+01
  -1.50810E+01 -1.93546E+01 -1.60409E+01  7.42457E+00 -1.21649E+01  8.07161E-01 -1.36369E+01 -1.42168E+01  4.88322E+00 -1.21124E+01
  -1.71901E+01 -1.13230E+01 -4.10292E+00  1.66713E+00 -2.57421E+01  1.65052E+00 -2.66796E+01 -6.35418E+00 -2.58417E+00 -7.81828E+00
  -4.36297E+00 -1.44400E+01 -3.54687E+01 -1.08688E+01 -2.94522E+01  1.03009E+01 -1.23399E+01 -1.51685E+01 -2.74055E+01 -6.37097E+00
  -1.87383E+01 -1.27765E+01 -1.86637E+01 -2.84588E+01 -1.83912E+01 -2.27583E+01 -1.90375E+01 -1.71119E+01 -2.06794E+01 -6.10173E+00
  -1.17945E+01 -9.51007E+00 -1.86309E+01 -1.11498E+01 -1.95483E+01 -1.30538E+01 -1.50934E+01 -5.36445E+00 -2.64493E+01 -1.56752E+01
  -1.88774E+01 -1.15175E+01 -1.55162E+01  9.63120E-01 -2.94548E+00 -7.71869E+00 -1.31387E+01 -2.13473E+01 -2.25124E+01 -1.50605E+01
   8.40955E+00 -5.03882E+00  1.32908E+01  4.73081E+00  1.22390E+00 -2.60214E+00 -1.23988E+01  4.42749E+01 -2.00273E-01  8.49014E-01
  -7.20681E+00  8.85625E+00 -2.30567E+01 -1.35544E+00  1.99293E+01 -2.58749E+00  9.16336E+00  1.26997E+01 -3.55667E+00  8.25615E+00
  -5.92457E+00 -8.68360E+00  1.28145E+00 -7.10491E+00  2.94022E+01  1.15952E+01 -1.33772E+00  2.19724E+01  7.90076E+00  1.43125E+01
   2.29919E+01 -1.81166E+00  4.33012E+00  6.78343E+00  1.33210E+01  3.39736E+00 -9.08981E+00 -1.33838E-01  5.19384E+00  2.23380E+00
   4.80540E-01  1.94940E+01  1.13262E+01  1.64348E+01  3.53552E+01  2.65856E+01  3.62857E+01  4.51137E+01  2.82648E+01  5.04206E+01
   5.54807E+01  3.82334E+01  4.43425E+01  2.02851E+01  2.73947E+01  1.23120E+01  7.76945E+00 -7.70770E-01  1.83496E-01 -2.53713E+00
   1.03620E+01 -3.69175E+00 -6.91261E+00  6.81873E-01  7.07789E+00 -2.08889E+00 -7.92612E+00  2.23783E-01  5.14419E+00 -1.97830E+00
  -1.91544E+01 -4.09889E+00 -9.12483E+00 -6.20380E-01 -7.90474E+00 -1.74919E+01  1.12108E+01  8.54634E+00 -1.15030E+01  1.09315E+01
  -2.04400E+01 -1.21476E+00 -6.95012E-01 -9.19660E+00 -8.54574E+00  3.79258E+00 -1.33835E+01 -1.70018E+01 -4.12674E+00 -2.78739E+01
  -1.45952E+01 -1.45882E+01 -3.00087E+00 -1.50063E+01 -1.27932E+01  1.29061E+01 -1.04845E+01 -1.09285E+01 -1.44225E+01  1.06839E+01
  -7.34727E+00 -5.96750E+00 -9.04588E-01  1.15536E+00 -2.71860E+00 -3.49566E+00 -1.60839E+01 -1.48481E+01 -1.57197E+01 -6.79283E+00
  -9.53554E+00 -5.80772E+00 -1.62975E+01 -1.07069E+01 -7.22898E-01 -1.88359E+01  7.92735E-01 -1.31231E+01 -1.30597E+01 -1.02999E+01
  -1.69526E+01 -1.94039E+01 -2.45028E+01 -4.72142E+00 -4.97056E+00 -1.12865E+01 -5.87064E+00  1.52176E+01 -6.59958E+00  1.03501E+00
  -1.67187E+01 -3.03814E+00 -1.87062E+01 -9.89685E+00 -2.38816E+01 -8.43294E-01 -1.35646E+00 -1.51652E+01 -6.95850E+00 -8.00344E+00
  -1.52877E+01 -1.29443E+01 -2.43891E+00  1.32175E+00  1.92341E+00 -7.00461E+00  8.83459E-01 -2.63669E+00  9.63520E-01 -2.93362E+00
  -1.75396E+01  3.95231E+00 -1.30656E+01  3.10641E+00 -9.04281E-01 -5.60274E-01  1.34574E+01  8.00106E+00  2.00418E+01 -7.63940E+00
   1.45616E+01 -2.83375E+00  1.04099E+01  1.58491E+01 -6.09709E+00  2.37095E+01  3.13695E+00  6.08329E+00  8.42752E+00  1.81564E+01
   1.50250E+01  5.14350E+00 -9.72854E+00  1.72463E+00  1.47365E+01  1.38776E+01 -6.95933E-01  9.70172E+00  3.30790E+00  2.48445E+01
   6.66803E+00  9.82809E+00  8.06500E+00  3.20304E+01 -4.40650E+00  1.76076E+01 -4.00168E+00  1.31034E+01 -1.18125E+00 -2.58760E+00
   8.27598E+00  1.03421E+01  6.98319E+00  1.37569E+01  4.05111E-01  1.62801E+00  1.70660E+01  6.80710E+00  8.92789E+00  6.24802E+00
   9.14076E+00  1.53853E+01  1.00562E+00 -6.49226E+00 -1.35024E+01  3.01123E+00 -4.50005E+00  1.29870E+01 -7.19403E+00 -2.84130E+00
   6.47193E+00  2.01501E+01  1.11116E+01  1.03810E+01  1.82015E+01 -1.95353E+00  1.67201E+01  8.78763E+00  9.22483E+00  1.20999E+01
   2.15937E+01 -6.00588E+00  1.74100E+01  6.79834E+00  9.15645E+00  1.50553E+01 -8.66160E-01 -2.26437E-01  7.84250E+00  5.80599E+00
  -6.89989E+00  1.10156E+00  6.49669E+00 -1.17360E+01  2.15386E+01  1.94116E+00  3.52676E+00  9.33879E+00 -6.60963E+00  5.52193E+00
   5.72953E+00 -1.79398E+01  9.86551E+00 -7.31742E+00  1.72904E+01 -6.37551E+00  1.45883E+01 -5.82377E+00 -9.30361E+00  1.10193E+01
  -2.91087E+00 -7.28663E+00 -9.98678E+00 -2.63737E+00 -2.60829E+00  5.32189E+00  1.14878E+01  1.87107E+00 -1.02654E+01 -3.61491E+00
  -1.25496E+00  7.45045E+00 -8.52345E+00  1.66141E+00 -1.18526E+01  1.20059E+01  3.81626E+00  6.62984E+00  1.68201E+01  3.92006E+00
  -6.37583E-01 -4.38074E+00 -3.34908E+00  2.04384E+00 -5.85445E+00 -4.01920E+00 -3.68980E+00 -1.42397E+01  1.74054E+01  3.38488E+00
   3.06270E+00 -9.93884E+00  5.34174E+00  6.38787E+00 -8.80316E+00 -7.12187E-01 -1.25045E+00  1.88935E+01
 NY points of the fit to the data follow
  -1.02923E+00 -2.50573E+00 -3.60570E+00 -3.97764E+00 -3.84633E+00 -3.43352E+00 -2.45738E+00 -7.45043E-02  3.84692E+00  8.49574E+00
   1.25619E+01  1.48426E+01  1.49099E+01  1.32310E+01  1.06235E+01  7.64983E+00  4.34967E+00  8.67364E-01 -1.73246E+00 -2.34883E+00
  -2.14024E+00 -2.09705E+00 -2.54193E+00 -3.45003E+00 -4.36302E+00 -4.06312E+00 -1.40894E+00  3.65369E+00  9.96840E+00  1.56816E+01
   1.91760E+01  1.97536E+01  1.78383E+01  1.43596E+01  1.01563E+01  5.52448E+00  1.02171E+00 -1.99314E+00 -3.42847E+00 -3.97021E+00
  -4.02114E+00 -3.49230E+00 -1.86803E+00  1.46960E+00  6.60301E+00  1.26076E+01  1.75135E+01  1.95184E+01  1.81274E+01  1.42282E+01
   9.28599E+00  4.26641E+00 -5.96195E-01 -4.84053E+00 -7.09885E+00 -6.55334E+00 -4.07097E+00 -8.92429E-01  2.11700E+00  4.25874E+00
   5.02658E+00  4.34271E+00  2.68578E+00  7.56993E-01 -9.99231E-01 -2.40014E+00 -3.09140E+00 -2.78030E+00 -1.62421E+00  5.49593E-02
   1.69776E+00  2.92213E+00  3.50827E+00  3.43835E+00  2.92877E+00  2.16162E+00  1.25594E+00  2.31922E-01 -7.60435E-01 -1.37676E+00
  -1.71173E+00 -1.90778E+00 -2.12690E+00 -2.67094E+00 -3.86324E+00 -5.70295E+00 -7.81079E+00 -9.63246E+00 -1.06914E+01 -1.07829E+01
  -1.00745E+01 -8.80833E+00 -7.12990E+00 -5.24757E+00 -3.75780E+00 -3.10473E+00 -3.25939E+00 -3.59517E+00 -2.63140E+00  9.25226E-01
   6.67639E+00  1.30166E+01  1.78851E+01  1.99355E+01  1.90536E+01  1.60661E+01  1.21136E+01  7.62939E+00  2.58204E+00 -2.30204E+00
  -5.00382E+00 -5.46783E+00 -5.43839E+00 -5.30454E+00 -5.17453E+00 -5.07066E+00 -5.03249E+00 -5.04620E+00 -5.06518E+00 -5.00816E+00
  -4.75558E+00 -4.11046E+00 -2.35043E+00  1.76072E+00  8.16997E+00  1.54878E+01  2.16953E+01  2.50551E+01  2.51719E+01  2.29688E+01
   1.95511E+01  1.53648E+01  1.00774E+01  3.75952E+00 -1.82096E+00 -4.83372E+00 -6.41668E+00 -6.99427E+00 -6.72246E+00 -5.89214E+00
  -4.68566E+00 -3.29874E+00 -2.23271E+00 -1.73559E+00 -1.75995E+00 -2.23994E+00 -3.00277E+00 -3.79390E+00 -4.52081E+00 -5.04871E+00
  -5.53109E+00 -6.01405E+00 -6.43246E+00 -6.69739E+00 -6.77610E+00 -6.72378E+00 -6.65620E+00 -6.71173E+00 -6.92532E+00 -7.19637E+00
  -7.37700E+00 -7.43990E+00 -7.44965E+00 -7.44877E+00 -7.48240E+00 -7.56354E+00 -7.64057E+00 -7.71232E+00 -7.79219E+00 -7.83718E+00
  -7.84910E+00 -7.91478E+00 -8.07378E+00 -8.33286E+00 -8.58256E+00 -8.69443E+00 -8.70511E+00 -8.75601E+00 -8.88955E+00 -9.00338E+00
  -8.98365E+00 -8.80211E+00 -8.60179E+00 -8.53296E+00 -8.48211E+00 -8.12422E+00 -7.22870E+00 -5.76280E+00 -4.05508E+00 -2.60814E+00
  -1.80300E+00 -1.82913E+00 -2.78208E+00 -4.60011E+00 -6.87549E+00 -8.90974E+00 -9.95345E+00 -9.50441E+00 -7.51234E+00 -4.42792E+00
  -1.04365E+00  1.85843E+00  3.84254E+00  4.45901E+00  3.25986E+00 -1.28684E-01 -4.79640E+00 -9.22493E+00 -1.21571E+01 -1.30362E+01
  -1.20497E+01 -9.60817E+00 -6.28267E+00 -2.75466E+00  5.15519E-01  3.00935E+00  3.93503E+00  3.14000E+00  1.74291E+00  3.58630E-01
  -8.28916E-01 -1.52085E+00 -1.47343E+00 -6.80123E-01  4.15794E-01  1.45159E+00  2.18780E+00  2.41215E+00  2.04945E+00  1.19435E+00
   1.45061E-01 -7.46869E-01 -1.13466E+00 -7.50664E-01  5.09367E-01  2.49719E+00  4.90239E+00  6.95546E+00  7.72316E+00  6.92196E+00
   5.13640E+00  3.06337E+00  1.04270E+00 -5.58572E-01 -1.11650E+00 -5.88579E-01  6.54061E-01  2.47123E+00  4.81794E+00  7.10929E+00
   9.28092E+00  1.21502E+01  1.60616E+01  2.05975E+01  2.49185E+01  2.90615E+01  3.39492E+01  3.96938E+01  4.52582E+01  4.86966E+01
   4.81209E+01  4.32014E+01  3.58628E+01  2.88180E+01  2.21380E+01  1.49028E+01  7.61822E+00  2.72871E+00  1.06461E+00  3.93613E-01
   2.13768E-02 -1.60196E-01 -2.64708E-01 -3.71250E-01 -5.09019E-01 -7.04680E-01 -9.65090E-01 -1.27896E+00 -1.60481E+00 -1.90588E+00
  -2.15818E+00 -2.33680E+00 -2.43976E+00 -2.49460E+00 -2.54340E+00 -2.60379E+00 -2.67595E+00 -2.75258E+00 -2.82742E+00 -2.88443E+00
  -2.90714E+00 -2.90299E+00 -2.89375E+00 -2.88507E+00 -2.89011E+00 -2.91465E+00 -2.95466E+00 -3.00913E+00 -3.06965E+00 -3.10858E+00
  -3.11951E+00 -3.11138E+00 -3.09127E+00 -3.06223E+00 -3.02584E+00 -2.98851E+00 -2.96084E+00 -2.93899E+00 -2.91820E+00 -2.89766E+00
  -2.87612E+00 -2.85328E+00 -2.82871E+00 -2.80195E+00 -2.77289E+00 -2.74095E+00 -2.70505E+00 -2.66370E+00 -2.61478E+00 -2.55476E+00
  -2.47700E+00 -2.36587E+00 -2.19424E+00 -1.99043E+00 -1.84272E+00 -1.83456E+00 -2.00424E+00 -2.32347E+00 -2.71586E+00 -3.10787E+00
  -3.41863E+00 -3.56676E+00 -3.50203E+00 -3.19593E+00 -2.68513E+00 -2.16263E+00 -1.77294E+00 -1.51888E+00 -1.36424E+00 -1.28563E+00
  -1.29757E+00 -1.40319E+00 -1.50281E+00 -1.52195E+00 -1.49705E+00 -1.44854E+00 -1.38409E+00 -1.30751E+00 -1.22110E+00 -1.12631E+00
  -1.02415E+00 -9.15520E-01 -8.01470E-01 -6.83241E-01 -5.62135E-01 -4.39398E-01 -3.16260E-01 -1.94086E-01 -7.44283E-02  4.11168E-02
   1.51134E-01  2.54500E-01  3.50334E-01  4.37895E-01  5.16621E-01  5.86323E-01  6.47348E-01  7.00568E-01  7.47228E-01  7.88829E-01
   8.27171E-01  8.64477E-01  9.03427E-01  9.47010E-01  9.98324E-01  1.06048E+00  1.13669E+00  1.23033E+00  1.34488E+00  1.48375E+00
   1.65006E+00  1.84663E+00  2.07601E+00  2.34048E+00  2.64180E+00  2.98096E+00  3.35795E+00  3.77167E+00  4.21994E+00  4.69936E+00
   5.20508E+00  5.73064E+00  6.26799E+00  6.80776E+00  7.33947E+00  7.85185E+00  8.33302E+00  8.77085E+00  9.15358E+00  9.47047E+00
   9.71229E+00  9.87173E+00  9.94363E+00  9.92528E+00  9.81662E+00  9.62041E+00  9.34202E+00  8.98903E+00  8.57078E+00  8.09794E+00
   7.58215E+00  7.03553E+00  6.47010E+00  5.89722E+00  5.32717E+00  4.76898E+00  4.23035E+00  3.71755E+00  3.23528E+00  2.78667E+00
   2.37344E+00  1.99619E+00  1.65463E+00  1.34775E+00  1.07386E+00  8.30773E-01  6.16004E-01  4.27043E-01  2.61468E-01  1.16913E-01
  -8.95991E-03 -1.18406E-01 -2.13466E-01 -2.95876E-01 -3.67121E-01 -4.28552E-01 -4.81460E-01 -5.27012E-01 -5.66161E-01 -5.99633E-01
  -6.28035E-01 -6.51970E-01 -6.72044E-01 -6.88778E-01 -7.02534E-01 -7.13554E-01 -7.22074E-01 -7.28396E-01 -7.32839E-01 -7.35633E-01
  -7.36881E-01 -7.36643E-01 -7.35037E-01 -7.32255E-01 -7.28478E-01 -7.23791E-01 -7.18189E-01 -7.11683E-01 -7.04373E-01 -6.96410E-01
  -6.87893E-01 -6.78815E-01 -6.69129E-01 -6.58847E-01 -6.48074E-01 -6.36926E-01 -6.25443E-01 -6.13572E-01 -6.01264E-01 -5.88562E-01
  -5.75575E-01 -5.62376E-01 -5.48940E-01 -5.35192E-01 -5.21107E-01 -5.06755E-01 -4.92235E-01 -4.77575E-01 -4.62715E-01 -4.47583E-01
  -4.32191E-01 -4.16626E-01 -4.00958E-01 -3.85169E-01 -3.69174E-01 -3.52924E-01 -3.36466E-01 -3.19888E-01 -3.03221E-01 -2.86404E-01
  -2.69350E-01 -2.52044E-01 -2.34552E-01 -2.16941E-01 -1.99194E-01 -1.81217E-01 -1.62932E-01 -1.44348E-01
 NY background values follow
    -8.926E+00   -8.908E+00   -8.890E+00   -8.872E+00   -8.854E+00   -8.837E+00   -8.819E+00   -8.801E+00   -8.783E+00   -8.766E+00
    -8.748E+00   -8.730E+00   -8.712E+00   -8.695E+00   -8.677E+00   -8.659E+00   -8.641E+00   -8.624E+00   -8.606E+00   -8.588E+00
    -8.570E+00   -8.552E+00   -8.535E+00   -8.517E+00   -8.499E+00   -8.481E+00   -8.464E+00   -8.446E+00   -8.428E+00   -8.410E+00
    -8.393E+00   -8.375E+00   -8.357E+00   -8.339E+00   -8.322E+00   -8.304E+00   -8.286E+00   -8.268E+00   -8.250E+00   -8.233E+00
    -8.215E+00   -8.197E+00   -8.179E+00   -8.162E+00   -8.144E+00   -8.126E+00   -8.108E+00   -8.091E+00   -8.073E+00   -8.055E+00
    -8.037E+00   -8.020E+00   -8.002E+00   -7.984E+00   -7.966E+00   -7.948E+00   -7.931E+00   -7.913E+00   -7.895E+00   -7.877E+00
    -7.860E+00   -7.842E+00   -7.824E+00   -7.806E+00   -7.789E+00   -7.771E+00   -7.753E+00   -7.735E+00   -7.718E+00   -7.700E+00
    -7.682E+00   -7.664E+00   -7.647E+00   -7.629E+00   -7.611E+00   -7.593E+00   -7.575E+00   -7.558E+00   -7.540E+00   -7.522E+00
    -7.504E+00   -7.487E+00   -7.469E+00   -7.451E+00   -7.433E+00   -7.416E+00   -7.398E+00   -7.380E+00   -7.362E+00   -7.345E+00
    -7.327E+00   -7.309E+00   -7.291E+00   -7.274E+00   -7.256E+00   -7.238E+00   -7.220E+00   -7.202E+00   -7.185E+00   -7.167E+00
    -7.149E+00   -7.131E+00   -7.114E+00   -7.096E+00   -7.078E+00   -7.060E+00   -7.043E+00   -7.025E+00   -7.007E+00   -6.989E+00
    -6.972E+00   -6.954E+00   -6.936E+00   -6.918E+00   -6.901E+00   -6.883E+00   -6.865E+00   -6.847E+00   -6.830E+00   -6.812E+00
    -6.794E+00   -6.776E+00   -6.759E+00   -6.741E+00   -6.723E+00   -6.705E+00   -6.688E+00   -6.670E+00   -6.652E+00   -6.634E+00
    -6.616E+00   -6.599E+00   -6.581E+00   -6.563E+00   -6.545E+00   -6.528E+00   -6.510E+00   -6.492E+00   -6.474E+00   -6.457E+00
    -6.439E+00   -6.421E+00   -6.403E+00   -6.386E+00   -6.368E+00   -6.350E+00   -6.332E+00   -6.315E+00   -6.297E+00   -6.279E+00
    -6.261E+00   -6.244E+00   -6.226E+00   -6.208E+00   -6.190E+00   -6.173E+00   -6.155E+00   -6.137E+00   -6.119E+00   -6.102E+00
    -6.084E+00   -6.066E+00   -6.048E+00   -6.031E+00   -6.013E+00   -5.995E+00   -5.977E+00   -5.959E+00   -5.942E+00   -5.924E+00
    -5.906E+00   -5.888E+00   -5.871E+00   -5.853E+00   -5.835E+00   -5.817E+00   -5.800E+00   -5.782E+00   -5.764E+00   -5.746E+00
    -5.729E+00   -5.711E+00   -5.693E+00   -5.675E+00   -5.658E+00   -5.640E+00   -5.622E+00   -5.604E+00   -5.587E+00   -5.569E+00
    -5.551E+00   -5.533E+00   -5.516E+00   -5.498E+00   -5.480E+00   -5.462E+00   -5.445E+00   -5.427E+00   -5.409E+00   -5.391E+00
    -5.374E+00   -5.356E+00   -5.338E+00   -5.320E+00   -5.303E+00   -5.285E+00   -5.267E+00   -5.249E+00   -5.232E+00   -5.214E+00
    -5.196E+00   -5.178E+00   -5.161E+00   -5.143E+00   -5.125E+00   -5.107E+00   -5.090E+00   -5.072E+00   -5.054E+00   -5.036E+00
    -5.019E+00   -5.001E+00   -4.983E+00   -4.965E+00   -4.948E+00   -4.930E+00   -4.912E+00   -4.894E+00   -4.876E+00   -4.859E+00
    -4.841E+00   -4.823E+00   -4.805E+00   -4.788E+00   -4.770E+00   -4.752E+00   -4.734E+00   -4.717E+00   -4.699E+00   -4.681E+00
    -4.663E+00   -4.646E+00   -4.628E+00   -4.610E+00   -4.592E+00   -4.575E+00   -4.557E+00   -4.539E+00   -4.521E+00   -4.504E+00
    -4.486E+00   -4.468E+00   -4.450E+00   -4.433E+00   -4.415E+00   -4.397E+00   -4.379E+00   -4.362E+00   -4.344E+00   -4.326E+00
    -4.308E+00   -4.291E+00   -4.273E+00   -4.255E+00   -4.237E+00   -4.220E+00   -4.202E+00   -4.184E+00   -4.166E+00   -4.149E+00
    -4.131E+00   -4.113E+00   -4.095E+00   -4.078E+00   -4.060E+00   -4.042E+00   -4.024E+00   -4.007E+00   -3.989E+00   -3.971E+00
    -3.953E+00   -3.936E+00   -3.918E+00   -3.900E+00   -3.882E+00   -3.865E+00   -3.847E+00   -3.829E+00   -3.811E+00   -3.794E+00
    -3.776E+00   -3.758E+00   -3.740E+00   -3.723E+00   -3.705E+00   -3.687E+00   -3.669E+00   -3.652E+00   -3.634E+00   -3.616E+00
    -3.598E+00   -3.581E+00   -3.563E+00   -3.545E+00   -3.527E+00   -3.510E+00   -3.492E+00   -3.474E+00   -3.456E+00   -3.439E+00
    -3.421E+00   -3.403E+00   -3.385E+00   -3.368E+00   -3.350E+00   -3.332E+00   -3.315E+00   -3.297E+00   -3.279E+00   -3.261E+00
    -3.244E+00   -3.226E+00   -3.208E+00   -3.190E+00   -3.173E+00   -3.155E+00   -3.137E+00   -3.119E+00   -3.102E+00   -3.084E+00
    -3.066E+00   -3.048E+00   -3.031E+00   -3.013E+00   -2.995E+00   -2.977E+00   -2.960E+00   -2.942E+00   -2.924E+00   -2.906E+00
    -2.889E+00   -2.871E+00   -2.853E+00   -2.835E+00   -2.818E+00   -2.800E+00   -2.782E+00   -2.764E+00   -2.747E+00   -2.729E+00
    -2.711E+00   -2.693E+00   -2.676E+00   -2.658E+00   -2.640E+00   -2.622E+00   -2.605E+00   -2.587E+00   -2.569E+00   -2.551E+00
    -2.534E+00   -2.516E+00   -2.498E+00   -2.480E+00   -2.463E+00   -2.445E+00   -2.427E+00   -2.410E+00   -2.392E+00   -2.374E+00
    -2.356E+00   -2.339E+00   -2.321E+00   -2.303E+00   -2.285E+00   -2.268E+00   -2.250E+00   -2.232E+00   -2.214E+00   -2.197E+00
    -2.179E+00   -2.161E+00   -2.143E+00   -2.126E+00   -2.108E+00   -2.090E+00   -2.072E+00   -2.055E+00   -2.037E+00   -2.019E+00
    -2.001E+00   -1.984E+00   -1.966E+00   -1.948E+00   -1.930E+00   -1.913E+00   -1.895E+00   -1.877E+00   -1.860E+00   -1.842E+00
    -1.824E+00   -1.806E+00   -1.789E+00   -1.771E+00   -1.753E+00   -1.735E+00   -1.718E+00   -1.700E+00   -1.682E+00   -1.664E+00
    -1.647E+00   -1.629E+00   -1.611E+00   -1.593E+00   -1.576E+00   -1.558E+00   -1.540E+00   -1.522E+00   -1.505E+00   -1.487E+00
    -1.469E+00   -1.452E+00   -1.434E+00   -1.416E+00   -1.398E+00   -1.381E+00   -1.363E+00   -1.345E+00   -1.327E+00   -1.310E+00
    -1.292E+00   -1.274E+00   -1.256E+00   -1.239E+00   -1.221E+00   -1.203E+00   -1.186E+00   -1.168E+00   -1.150E+00   -1.132E+00
    -1.115E+00   -1.097E+00   -1.079E+00   -1.061E+00   -1.044E+00   -1.026E+00   -1.008E+00   -9.904E-01   -9.727E-01   -9.550E-01
    -9.372E-01   -9.195E-01   -9.018E-01   -8.840E-01   -8.663E-01   -8.486E-01   -8.308E-01   -8.131E-01   -7.954E-01   -7.776E-01
    -7.599E-01   -7.422E-01   -7.244E-01   -7.067E-01   -6.890E-01   -6.712E-01   -6.535E-01   -6.358E-01   -6.180E-01   -6.003E-01
    -5.826E-01   -5.649E-01   -5.471E-01   -5.294E-01   -5.117E-01   -4.939E-01   -4.762E-01   -4.585E-01   -4.407E-01   -4.230E-01
    -4.053E-01   -3.876E-01   -3.698E-01   -3.521E-01   -3.344E-01   -3.166E-01   -2.989E-01   -2.812E-01   -2.635E-01   -2.457E-01
    -2.280E-01   -2.103E-01   -1.925E-01   -1.748E-01   -1.571E-01   -1.394E-01   -1.216E-01   -1.039E-01
 Ala      Conc. = 7.90E+01
