 LCModel (Version 6.3-1L) Copyright: S.W. Provencher.          Ref.: Magn. Reson. Med. 30:672-679 (1993).                
 Slice#1 Row#7 Col#1  PD_05_press_2_raw_act
 36 lines in following concentration table = NCONC+1
    Conc.  %SD /Cr+PCr  Metabolite                                         
  997.285  38%   0.674 Ala                                                 
    0.000 999%   0.000 Asp                                                 
    0.000 999%   0.000 Cr                                                  
 1.48E+03   8%   1.000 PCr                                                 
  105.482 165% 7.1E-02 GABA                                                
  195.413  87%   0.132 Glc                                                 
 4.76E+03  20%   3.215 Gln                                                 
 3.98E+03  27%   2.691 Glu                                                 
  349.717  12%   0.236 GPC                                                 
    0.000 999%   0.000 PCh                                                 
  186.802 104%   0.126 GSH                                                 
  381.294 136%   0.258 Ins                                                 
    0.000 999%   0.000 Lac                                                 
 2.31E+03   6%   1.560 NAA                                                 
    0.000 999%   0.000 NAAG                                                
  154.102  28%   0.104 Scyllo                                              
  787.096  32%   0.532 Tau                                                 
  890.960  23%   0.602 -CrCH2                                              
  349.717  12%   0.236 GPC+PCh                                             
 2.31E+03   6%   1.560 NAA+NAAG                                            
 1.48E+03   8%   1.000 Cr+PCr                                              
 8.74E+03  21%   5.906 Glu+Gln                                             
    0.000 999%   0.000 Lip13a                                              
  767.139  21%   0.518 Lip13b                                              
  190.798  34%   0.129 Lip09                                               
  683.469  33%   0.462 MM09                                                
  118.384  35% 8.0E-02 Lip20                                               
 1.48E+03  32%   1.000 MM20                                                
  169.010  97%   0.114 MM12                                                
 5.23E+03   4%   3.535+MM14                                                
    0.000 999%   0.000 MM17                                                
  767.139  21%   0.518 Lip13a+Lip13b                                       
 6.17E+03   5%   4.168 MM14+Lip13a+Lip13b+MM12                             
  874.266  25%   0.591 MM09+Lip09                                          
 1.60E+03  29%   1.080 MM20+Lip20                                          
   6 lines in following misc. output table
  FWHM = 0.099 ppm    S/N =   5                                            
  Data shift = 0.038 ppm                                                   
  Ph:-109 deg     -50.8 deg/ppm                                            
  alphaB,S = 8.5E+01,   3.0E+02                                            
   14 spline knots.   Ns =11(1)                                            
  (18)11 infls.   (22) 6 extrs.                                            
  498 points on ppm-axis = NY
      4.000000     3.992357     3.984714     3.977070     3.969427     3.961784     3.954141     3.946497     3.938854     3.931211
      3.923568     3.915925     3.908281     3.900638     3.892995     3.885352     3.877708     3.870065     3.862422     3.854779
      3.847136     3.839492     3.831849     3.824206     3.816563     3.808919     3.801276     3.793633     3.785990     3.778347
      3.770703     3.763060     3.755417     3.747774     3.740130     3.732487     3.724844     3.717201     3.709558     3.701914
      3.694271     3.686628     3.678985     3.671341     3.663698     3.656055     3.648412     3.640769     3.633125     3.625482
      3.617839     3.610196     3.602552     3.594909     3.587266     3.579623     3.571980     3.564336     3.556693     3.549050
      3.541407     3.533763     3.526120     3.518477     3.510834     3.503191     3.495547     3.487904     3.480261     3.472618
      3.464974     3.457331     3.449688     3.442045     3.434402     3.426758     3.419115     3.411472     3.403829     3.396185
      3.388542     3.380899     3.373256     3.365613     3.357969     3.350326     3.342683     3.335040     3.327396     3.319753
      3.312110     3.304467     3.296824     3.289180     3.281537     3.273894     3.266251     3.258607     3.250964     3.243321
      3.235678     3.228034     3.220391     3.212748     3.205105     3.197462     3.189818     3.182175     3.174532     3.166889
      3.159245     3.151602     3.143959     3.136316     3.128673     3.121029     3.113386     3.105743     3.098100     3.090456
      3.082813     3.075170     3.067527     3.059884     3.052240     3.044597     3.036954     3.029311     3.021667     3.014024
      3.006381     2.998738     2.991095     2.983451     2.975808     2.968165     2.960522     2.952878     2.945235     2.937592
      2.929949     2.922306     2.914662     2.907019     2.899376     2.891733     2.884089     2.876446     2.868803     2.861160
      2.853517     2.845873     2.838230     2.830587     2.822944     2.815300     2.807657     2.800014     2.792371     2.784728
      2.777084     2.769441     2.761798     2.754155     2.746511     2.738868     2.731225     2.723582     2.715939     2.708295
      2.700652     2.693009     2.685366     2.677722     2.670079     2.662436     2.654793     2.647150     2.639506     2.631863
      2.624220     2.616577     2.608933     2.601290     2.593647     2.586004     2.578361     2.570717     2.563074     2.555431
      2.547788     2.540144     2.532501     2.524858     2.517215     2.509572     2.501928     2.494285     2.486642     2.478999
      2.471355     2.463712     2.456069     2.448426     2.440783     2.433139     2.425496     2.417853     2.410210     2.402566
      2.394923     2.387280     2.379637     2.371994     2.364350     2.356707     2.349064     2.341421     2.333777     2.326134
      2.318491     2.310848     2.303205     2.295561     2.287918     2.280275     2.272632     2.264988     2.257345     2.249702
      2.242059     2.234416     2.226772     2.219129     2.211486     2.203843     2.196199     2.188556     2.180913     2.173270
      2.165627     2.157983     2.150340     2.142697     2.135054     2.127410     2.119767     2.112124     2.104481     2.096838
      2.089194     2.081551     2.073908     2.066265     2.058621     2.050978     2.043335     2.035692     2.028049     2.020405
      2.012762     2.005119     1.997476     1.989833     1.982190     1.974546     1.966903     1.959260     1.951617     1.943974
      1.936331     1.928688     1.921045     1.913402     1.905759     1.898115     1.890472     1.882829     1.875186     1.867543
      1.859900     1.852257     1.844614     1.836971     1.829327     1.821684     1.814041     1.806398     1.798755     1.791112
      1.783469     1.775826     1.768183     1.760540     1.752896     1.745253     1.737610     1.729967     1.722324     1.714681
      1.707038     1.699395     1.691752     1.684108     1.676465     1.668822     1.661179     1.653536     1.645893     1.638250
      1.630607     1.622964     1.615321     1.607677     1.600034     1.592391     1.584748     1.577105     1.569462     1.561819
      1.554176     1.546533     1.538890     1.531246     1.523603     1.515960     1.508317     1.500674     1.493031     1.485388
      1.477745     1.470102     1.462458     1.454815     1.447172     1.439529     1.431886     1.424243     1.416600     1.408957
      1.401314     1.393671     1.386027     1.378384     1.370741     1.363098     1.355455     1.347812     1.340169     1.332526
      1.324883     1.317240     1.309596     1.301953     1.294310     1.286667     1.279024     1.271381     1.263738     1.256095
      1.248452     1.240808     1.233165     1.225522     1.217879     1.210236     1.202593     1.194950     1.187307     1.179664
      1.172021     1.164377     1.156734     1.149091     1.141448     1.133805     1.126162     1.118519     1.110876     1.103233
      1.095590     1.087946     1.080303     1.072660     1.065017     1.057374     1.049731     1.042088     1.034445     1.026802
      1.019158     1.011515     1.003872     0.996229     0.988586     0.980943     0.973300     0.965657     0.958014     0.950371
      0.942727     0.935084     0.927441     0.919798     0.912155     0.904512     0.896869     0.889226     0.881583     0.873940
      0.866296     0.858653     0.851010     0.843367     0.835724     0.828081     0.820438     0.812795     0.805152     0.797508
      0.789865     0.782222     0.774579     0.766936     0.759293     0.751650     0.744007     0.736364     0.728721     0.721077
      0.713434     0.705791     0.698148     0.690505     0.682862     0.675219     0.667576     0.659933     0.652290     0.644646
      0.637003     0.629360     0.621717     0.614074     0.606431     0.598788     0.591145     0.583502     0.575858     0.568215
      0.560572     0.552929     0.545286     0.537643     0.530000     0.522357     0.514714     0.507071     0.499427     0.491784
      0.484141     0.476498     0.468855     0.461212     0.453569     0.445925     0.438282     0.430639     0.422996     0.415353
      0.407710     0.400067     0.392424     0.384780     0.377137     0.369494     0.361851     0.354208     0.346565     0.338922
      0.331278     0.323635     0.315992     0.308349     0.300706     0.293063     0.285420     0.277777     0.270133     0.262490
      0.254847     0.247204     0.239561     0.231918     0.224275     0.216631     0.208988     0.201345
 NY phased data points follow
  -2.32161E+01 -2.67739E+01 -2.18053E+01 -1.84495E+01 -2.27707E+01 -1.42670E+01 -1.28889E+01 -4.81631E+00 -1.13939E+01 -5.55197E+00
  -6.10752E+00 -1.01416E+01 -9.35386E+00 -4.77079E+00 -1.47058E+01 -7.60234E+00 -1.47313E+01 -6.63944E+00 -1.58629E+01 -1.72296E+01
  -1.63618E+01 -1.51817E+01 -1.45878E+01 -1.29792E+01 -1.32610E+01 -9.58540E+00 -1.42023E+01 -1.28555E+01 -1.50925E+01 -6.94358E+00
  -9.31673E+00 -5.41192E+00 -1.34172E+01 -8.41736E+00 -1.53734E+01 -1.05189E+01 -1.17121E+01 -4.48499E+00 -1.07660E+01 -4.58249E+00
  -7.81143E+00 -2.65021E+00 -4.70764E+00 -1.50975E+01 -1.08884E+01 -5.79077E+00 -1.14533E+01 -1.93571E+00 -2.52208E+00 -4.86201E+00
  -5.20273E+00 -1.18235E+01 -1.62238E+01 -8.50548E+00 -7.24166E+00 -8.47176E+00 -6.74465E+00 -1.00448E+01 -7.93235E+00 -7.72779E+00
  -9.48051E+00 -1.16015E+01 -1.13961E+01 -9.90801E+00 -9.30778E+00 -8.59507E+00 -8.06067E+00 -3.94046E+00 -1.05307E+01 -9.61726E+00
  -5.64243E+00 -2.26430E+00 -6.43517E+00 -4.26737E+00 -1.29487E+01 -4.09916E+00 -2.44799E+00 -1.20858E+01 -1.65264E+01 -1.10724E+01
  -6.34628E+00 -9.78700E+00 -4.14729E+00 -7.98189E+00 -7.46862E+00 -3.44568E+00 -6.27207E+00 -9.60227E+00 -1.13772E+01 -5.99556E+00
  -5.10363E+00  8.86725E-01 -4.22131E+00 -1.30822E+00  1.67190E+00 -1.33012E+00  3.49999E+00  1.22294E+00  6.84090E+00  2.39719E+00
   1.18865E+01  1.43908E+01  1.76121E+01  1.13667E+01  1.30830E+01  8.18309E+00  1.00110E+01  1.02913E+01  8.82555E+00  5.51332E+00
   2.34037E+00 -5.34756E+00  3.66013E+00  2.45278E-01 -2.92791E+00 -5.65444E+00 -4.73287E+00 -4.50659E+00 -4.22496E+00  2.09051E+00
   7.13380E+00  9.43933E+00  1.37993E+01  1.22712E+01  1.26747E+01  2.00313E+01  2.30005E+01  2.22240E+01  2.68791E+01  2.85428E+01
   2.72628E+01  2.26729E+01  1.81401E+01  1.94009E+01  1.05331E+01  8.45147E+00  6.84922E+00  8.22934E+00  7.44483E+00  1.30472E+01
  -9.67320E-01 -1.67854E+00 -6.69586E-02 -5.81021E+00 -6.87707E+00  7.05729E-01  1.11454E+00  9.17551E+00  1.93408E+00  2.04086E+00
  -1.28676E+00  2.23926E+00 -2.77859E+00 -4.01803E+00  4.67263E+00  5.39941E+00  2.93611E+00  2.20022E+00 -2.95491E+00 -1.45647E+00
  -1.06880E+00  2.82020E+00  1.20318E+00 -5.00731E-01  3.71292E-01 -2.18082E+00  2.58186E-01 -6.92818E-02 -2.26446E+00 -2.54867E-01
  -5.54987E+00 -3.67333E+00 -4.10067E+00 -6.28277E+00 -1.56077E+01 -4.44136E+00 -1.17921E+01 -9.44214E+00 -1.18692E+01 -1.04027E+01
  -9.23845E+00 -2.04847E+01 -1.52600E+01 -1.06986E+01 -6.38331E+00 -7.25470E+00 -7.43029E+00  8.34153E-01 -5.93980E+00 -2.41950E-02
   1.90389E+00 -6.94361E+00 -9.80873E+00 -6.49198E+00  1.19826E-01 -1.02677E+01 -1.30853E+01 -1.16306E+00 -3.56609E-01 -5.07138E+00
  -2.02504E+00 -3.23455E+00 -2.78061E+00 -2.80649E+00 -4.51363E+00  8.17161E+00 -2.26815E+00  1.00463E+01  2.51667E+00  8.46061E+00
   1.41405E+00  1.19786E+00  5.71332E+00  2.71104E+00 -8.23132E-01  1.03781E+01  1.47645E+01  2.28878E+00  8.36305E+00  6.32960E+00
   6.98020E+00  1.43872E+01  6.92581E+00  1.07875E+01  1.19538E+01  7.26851E+00 -6.39698E-01  1.30527E+01  1.19572E+01  8.37510E+00
   1.42815E+01  1.78571E+01  1.30127E+01  1.21979E+01  1.12369E+01  2.27033E+01  1.74543E+01  1.20024E+01  1.40749E+01  1.46786E+01
   1.25073E+01  1.05279E+01  1.15524E+01  9.79071E+00  1.19549E+01  1.15570E+01  4.74176E+00  8.60030E+00  1.80910E+01  1.10435E+01
   1.25899E+01  1.47289E+01  7.95880E+00  2.59251E+01  3.03913E+01  2.71109E+01  3.70336E+01  4.06001E+01  4.04564E+01  5.94688E+01
   6.22835E+01  6.94010E+01  6.68072E+01  6.11313E+01  5.47491E+01  5.64240E+01  4.85543E+01  2.92446E+01  3.38628E+01  2.22198E+01
   2.15635E+01  2.18331E+01  2.41523E+01  2.74423E+01  1.57521E+01  1.67359E+01  1.42274E+01  1.07266E+01  4.23031E+00  7.87162E+00
   1.90315E+01  1.55192E+01  8.70359E+00  6.79452E+00  1.20587E+01  8.83529E+00  3.09650E+00  1.18908E+01  1.35549E+01  1.01596E+01
   2.42981E+00  9.60612E+00  9.22099E+00  9.52067E+00  7.73561E+00  3.45437E+00  6.59251E+00  7.30117E+00  1.28624E+01  1.36469E+01
   1.08300E+01  1.57092E+01  1.88445E+01  1.19555E+01  2.15552E+01  2.16697E+01  2.26163E+01  2.02633E+01  1.80516E+01  1.23519E+01
   2.32097E+01  2.07975E+01  2.28256E+01  2.28501E+01  2.46754E+01  3.52323E+01  4.30937E+01  4.13848E+01  4.84933E+01  4.39446E+01
   4.95094E+01  4.85893E+01  5.05667E+01  4.25540E+01  5.28021E+01  4.36668E+01  4.97340E+01  4.15566E+01  4.25532E+01  4.93039E+01
   5.36341E+01  4.70079E+01  4.39945E+01  3.80104E+01  4.82105E+01  3.73522E+01  3.60894E+01  2.93120E+01  3.24717E+01  2.62851E+01
   2.16154E+01  2.49868E+01  1.27195E+01  1.74955E+01  1.66724E+01  2.00548E+01  1.96207E+01  6.86095E+00  1.92805E+01  2.14326E+01
   1.65194E+01  1.41456E+01  6.99179E+00  1.79427E+01  9.06832E+00  1.07269E+01  8.96733E+00  6.07650E+00  5.90973E+00  3.11166E+00
   7.30379E+00  5.51093E+00  6.21697E-01  5.40415E-01 -7.63704E-01  3.82706E+00  5.80416E+00  4.80797E+00 -1.92287E+00  8.51268E-01
   1.00686E+01  1.98765E+00  8.29955E+00  8.21586E+00  9.29542E+00  4.86438E+00  1.30604E+01  6.89559E+00  6.40487E-01  1.50384E+01
   7.76302E+00  9.84949E+00  1.28302E+01  1.71818E+01  1.00764E+01  1.73422E+01  6.85278E+00  9.42926E+00  1.64042E+01  4.67516E+00
   1.25378E+01  4.66309E+00  6.45197E+00  1.30574E+01  8.68788E+00  8.82910E+00  8.95350E+00  9.42906E+00  7.75588E+00  7.13500E+00
   5.79226E+00  8.89275E+00  9.03508E+00  1.20601E+01  1.24123E+01  1.00691E+01  9.32185E+00  9.90759E+00  2.20158E+00  4.26485E+00
   9.75321E+00  1.18271E+01  2.17939E+00  8.21706E+00  1.85227E+01  1.56900E+01  6.77714E+00  1.24333E+01  1.48705E+01  1.73608E+01
   1.24923E+01  2.35034E+00  9.21856E+00  7.02646E+00  1.41210E+01  1.04874E+01  7.54869E+00  1.19513E+01  4.43616E+00  8.95879E+00
   2.91480E+00  6.67705E+00  2.74090E-01  4.18807E+00 -1.59011E+00  1.11112E+01  5.61049E+00  8.50475E-01  1.20493E+01  2.61324E-01
   2.82721E+00  3.25639E+00  8.00402E+00  5.20999E+00  4.69841E+00 -1.17525E+00  1.49461E+01  1.24176E+01  2.96084E+00  2.51109E+00
   9.45411E+00  1.09933E+01  1.01679E+01  7.17377E+00  5.70963E+00  2.73735E+00  5.53587E+00  7.50611E-01  1.20313E+01  9.69479E+00
   3.45532E+00  8.06858E-01  2.81078E+00  3.92431E+00 -4.59212E-01  8.47325E+00  8.48459E+00  5.45995E+00  5.36308E+00  4.88044E+00
   1.29451E+01  7.28201E+00  7.88638E+00  8.35254E+00  1.29070E+01  5.29133E+00  8.71450E+00  3.23201E+00  5.12507E+00  4.79062E+00
   3.98186E+00  1.83374E+00  4.26596E+00 -1.81143E+00  5.02156E+00  7.00714E+00  9.54084E+00  6.09147E+00  9.39525E+00  9.68208E+00
   9.13941E+00  2.83094E+00  8.49248E+00  7.60726E-01  5.67044E+00  4.44387E+00  5.02039E+00  1.17096E+01
 NY points of the fit to the data follow
  -1.92966E+01 -1.86146E+01 -1.77943E+01 -1.68451E+01 -1.57586E+01 -1.44988E+01 -1.30590E+01 -1.16013E+01 -1.03788E+01 -9.50422E+00
  -8.92563E+00 -8.57630E+00 -8.51013E+00 -8.77444E+00 -9.23926E+00 -9.67015E+00 -9.98123E+00 -1.02215E+01 -1.05480E+01 -1.11026E+01
  -1.18275E+01 -1.21628E+01 -1.20554E+01 -1.19672E+01 -1.17976E+01 -1.15282E+01 -1.12262E+01 -1.09365E+01 -1.06330E+01 -1.02446E+01
  -9.70434E+00 -8.97128E+00 -8.04227E+00 -7.05879E+00 -6.21797E+00 -5.65291E+00 -5.40260E+00 -5.42408E+00 -5.52096E+00 -5.51747E+00
  -5.52825E+00 -5.75903E+00 -6.19566E+00 -6.73767E+00 -7.39909E+00 -8.03898E+00 -8.14875E+00 -7.76099E+00 -7.12238E+00 -6.48848E+00
  -6.03482E+00 -5.95040E+00 -6.29220E+00 -6.79922E+00 -7.31374E+00 -7.79074E+00 -8.22960E+00 -8.63288E+00 -8.97254E+00 -9.26195E+00
  -9.51639E+00 -9.71048E+00 -9.82590E+00 -9.90068E+00 -9.95014E+00 -9.96457E+00 -9.94001E+00 -9.87752E+00 -9.78723E+00 -9.69000E+00
  -9.60767E+00 -9.55477E+00 -9.51853E+00 -9.48004E+00 -9.44132E+00 -9.40815E+00 -9.36410E+00 -9.30331E+00 -9.19728E+00 -9.01726E+00
  -8.76273E+00 -8.45612E+00 -8.07335E+00 -7.63639E+00 -7.17310E+00 -6.71156E+00 -6.35283E+00 -6.20309E+00 -6.20521E+00 -6.28113E+00
  -6.41514E+00 -6.46532E+00 -6.34396E+00 -5.96883E+00 -5.25674E+00 -4.16632E+00 -2.72985E+00 -1.01321E+00  9.61852E-01  3.28447E+00
   5.93836E+00  8.51252E+00  1.06244E+01  1.21054E+01  1.29725E+01  1.32470E+01  1.28432E+01  1.17257E+01  1.00466E+01  7.99626E+00
   5.71759E+00  3.32626E+00  8.60428E-01 -1.67517E+00 -3.81178E+00 -4.78338E+00 -4.79271E+00 -4.04127E+00 -2.56638E+00 -4.79656E-01
   2.08965E+00  5.07390E+00  8.41374E+00  1.20663E+01  1.58802E+01  1.94886E+01  2.24539E+01  2.45245E+01  2.56929E+01  2.59786E+01
   2.53093E+01  2.36829E+01  2.13187E+01  1.85097E+01  1.54766E+01  1.23352E+01  9.09162E+00  5.80965E+00  2.96894E+00  1.36097E+00
   5.93379E-01  1.20594E-01 -2.09665E-01 -4.53470E-01 -6.41888E-01 -7.95173E-01 -9.16504E-01 -1.00935E+00 -1.09606E+00 -1.18830E+00
  -1.29198E+00 -1.42318E+00 -1.57839E+00 -1.74567E+00 -1.91257E+00 -2.05307E+00 -2.16856E+00 -2.26841E+00 -2.36350E+00 -2.46754E+00
  -2.58554E+00 -2.70819E+00 -2.81818E+00 -2.91085E+00 -3.00026E+00 -3.10985E+00 -3.25767E+00 -3.44448E+00 -3.65917E+00 -3.89598E+00
  -4.15026E+00 -4.41831E+00 -4.67999E+00 -4.91833E+00 -5.14544E+00 -5.38936E+00 -5.61623E+00 -5.78886E+00 -5.87340E+00 -5.85301E+00
  -5.76384E+00 -5.60171E+00 -5.34500E+00 -5.01431E+00 -4.65765E+00 -4.30586E+00 -3.98829E+00 -3.71205E+00 -3.50040E+00 -3.39821E+00
  -3.42738E+00 -3.49277E+00 -3.45884E+00 -3.26022E+00 -2.85339E+00 -2.19936E+00 -1.25642E+00 -2.49499E-02  1.41579E+00  2.83858E+00
   3.97106E+00  4.68491E+00  4.95436E+00  4.79700E+00  4.28588E+00  3.54884E+00  2.62850E+00  1.52487E+00  3.51530E-01 -6.48370E-01
  -1.28304E+00 -1.41569E+00 -1.14234E+00 -5.65808E-01  3.66273E-01  1.69657E+00  3.18048E+00  4.49284E+00  5.58284E+00  6.47025E+00
   7.02976E+00  7.32676E+00  7.45298E+00  7.17688E+00  6.62004E+00  6.35390E+00  6.44259E+00  6.84054E+00  7.62008E+00  8.88169E+00
   1.02998E+01  1.16417E+01  1.28142E+01  1.37263E+01  1.42194E+01  1.41301E+01  1.36460E+01  1.32046E+01  1.29514E+01  1.27175E+01
   1.24545E+01  1.21407E+01  1.17700E+01  1.13777E+01  1.09934E+01  1.06660E+01  1.05137E+01  1.06837E+01  1.12081E+01  1.20109E+01
   1.35353E+01  1.62899E+01  2.02343E+01  2.51564E+01  3.07933E+01  3.67436E+01  4.23619E+01  4.75615E+01  5.23600E+01  5.64654E+01
   5.93654E+01  6.06520E+01  6.01803E+01  5.81222E+01  5.47877E+01  5.03280E+01  4.49357E+01  3.90719E+01  3.32309E+01  2.76871E+01
   2.25094E+01  1.76483E+01  1.32403E+01  9.97547E+00  8.79801E+00  8.87450E+00  9.14769E+00  9.45125E+00  9.70775E+00  9.88952E+00
   1.00425E+01  1.01701E+01  1.02730E+01  1.03531E+01  1.04121E+01  1.04560E+01  1.05199E+01  1.06287E+01  1.07753E+01  1.09489E+01
   1.11441E+01  1.13555E+01  1.15784E+01  1.18060E+01  1.20366E+01  1.22796E+01  1.25405E+01  1.28238E+01  1.31359E+01  1.34833E+01
   1.38709E+01  1.43032E+01  1.47885E+01  1.53372E+01  1.59586E+01  1.66636E+01  1.74657E+01  1.83777E+01  1.94140E+01  2.05888E+01
   2.19162E+01  2.34088E+01  2.50775E+01  2.69319E+01  2.89833E+01  3.12502E+01  3.37283E+01  3.63125E+01  3.88866E+01  4.13329E+01
   4.35422E+01  4.54300E+01  4.69241E+01  4.79727E+01  4.85901E+01  4.87567E+01  4.84539E+01  4.77323E+01  4.66886E+01  4.54027E+01
   4.39129E+01  4.22776E+01  4.06187E+01  3.90318E+01  3.74741E+01  3.58263E+01  3.40223E+01  3.20989E+01  3.01588E+01  2.82842E+01
   2.63889E+01  2.42575E+01  2.20583E+01  2.00025E+01  1.81990E+01  1.66711E+01  1.54162E+01  1.45439E+01  1.42592E+01  1.43483E+01
   1.45195E+01  1.45889E+01  1.44251E+01  1.39473E+01  1.31337E+01  1.20211E+01  1.06964E+01  9.27753E+00  7.89103E+00  6.64935E+00
   5.63461E+00  4.88990E+00  4.42051E+00  4.20092E+00  4.18653E+00  4.32473E+00  4.56483E+00  4.86368E+00  5.18899E+00  5.51886E+00
   5.84068E+00  6.14839E+00  6.44058E+00  6.71824E+00  6.98390E+00  7.24031E+00  7.49046E+00  7.73683E+00  7.98173E+00  8.22682E+00
   8.47367E+00  8.72323E+00  8.97634E+00  9.23316E+00  9.49367E+00  9.75717E+00  1.00227E+01  1.02888E+01  1.05533E+01  1.08136E+01
   1.10667E+01  1.13087E+01  1.15358E+01  1.17435E+01  1.19273E+01  1.20824E+01  1.22046E+01  1.22896E+01  1.23339E+01  1.23348E+01
   1.22906E+01  1.22006E+01  1.20653E+01  1.18865E+01  1.16674E+01  1.14120E+01  1.11256E+01  1.08142E+01  1.04841E+01  1.01423E+01
   9.79542E+00  9.45005E+00  9.11226E+00  8.78728E+00  8.47975E+00  8.19318E+00  7.93034E+00  7.69284E+00  7.48158E+00  7.29645E+00
   7.13693E+00  7.00171E+00  6.88928E+00  6.79757E+00  6.72456E+00  6.66797E+00  6.62573E+00  6.59570E+00  6.57599E+00  6.56469E+00
   6.56025E+00  6.56118E+00  6.56634E+00  6.57459E+00  6.58509E+00  6.59698E+00  6.60973E+00  6.62274E+00  6.63571E+00  6.64823E+00
   6.66008E+00  6.67097E+00  6.68081E+00  6.68941E+00  6.69679E+00  6.70277E+00  6.70736E+00  6.71045E+00  6.71210E+00  6.71224E+00
   6.71095E+00  6.70813E+00  6.70385E+00  6.69805E+00  6.69084E+00  6.68217E+00  6.67214E+00  6.66065E+00  6.64781E+00  6.63357E+00
   6.61805E+00  6.60119E+00  6.58309E+00  6.56367E+00  6.54303E+00  6.52113E+00  6.49810E+00  6.47388E+00  6.44854E+00  6.42203E+00
   6.39447E+00  6.36581E+00  6.33617E+00  6.30550E+00  6.27388E+00  6.24126E+00  6.20777E+00  6.17339E+00  6.13823E+00  6.10223E+00
   6.06551E+00  6.02803E+00  5.98994E+00  5.95122E+00  5.91201E+00  5.87226E+00  5.83212E+00  5.79160E+00  5.75088E+00  5.70997E+00
   5.66905E+00  5.62814E+00  5.58744E+00  5.54705E+00  5.50722E+00  5.46808E+00  5.42990E+00  5.39288E+00
 NY background values follow
    -1.086E+01   -1.086E+01   -1.086E+01   -1.086E+01   -1.086E+01   -1.086E+01   -1.085E+01   -1.085E+01   -1.085E+01   -1.084E+01
    -1.084E+01   -1.083E+01   -1.082E+01   -1.081E+01   -1.080E+01   -1.079E+01   -1.078E+01   -1.077E+01   -1.076E+01   -1.074E+01
    -1.073E+01   -1.071E+01   -1.070E+01   -1.068E+01   -1.066E+01   -1.065E+01   -1.063E+01   -1.061E+01   -1.059E+01   -1.057E+01
    -1.054E+01   -1.052E+01   -1.050E+01   -1.047E+01   -1.045E+01   -1.042E+01   -1.040E+01   -1.037E+01   -1.034E+01   -1.031E+01
    -1.028E+01   -1.025E+01   -1.022E+01   -1.019E+01   -1.016E+01   -1.012E+01   -1.009E+01   -1.005E+01   -1.002E+01   -9.982E+00
    -9.945E+00   -9.907E+00   -9.869E+00   -9.830E+00   -9.790E+00   -9.750E+00   -9.709E+00   -9.667E+00   -9.625E+00   -9.582E+00
    -9.538E+00   -9.494E+00   -9.449E+00   -9.403E+00   -9.357E+00   -9.310E+00   -9.262E+00   -9.214E+00   -9.165E+00   -9.115E+00
    -9.065E+00   -9.014E+00   -8.962E+00   -8.910E+00   -8.858E+00   -8.804E+00   -8.750E+00   -8.696E+00   -8.640E+00   -8.585E+00
    -8.528E+00   -8.471E+00   -8.414E+00   -8.356E+00   -8.297E+00   -8.238E+00   -8.178E+00   -8.117E+00   -8.056E+00   -7.995E+00
    -7.933E+00   -7.870E+00   -7.807E+00   -7.743E+00   -7.679E+00   -7.614E+00   -7.549E+00   -7.483E+00   -7.416E+00   -7.350E+00
    -7.282E+00   -7.214E+00   -7.146E+00   -7.077E+00   -7.008E+00   -6.938E+00   -6.867E+00   -6.797E+00   -6.725E+00   -6.653E+00
    -6.581E+00   -6.508E+00   -6.435E+00   -6.362E+00   -6.288E+00   -6.213E+00   -6.138E+00   -6.063E+00   -5.987E+00   -5.911E+00
    -5.834E+00   -5.757E+00   -5.680E+00   -5.602E+00   -5.523E+00   -5.445E+00   -5.366E+00   -5.286E+00   -5.206E+00   -5.126E+00
    -5.046E+00   -4.965E+00   -4.883E+00   -4.802E+00   -4.720E+00   -4.637E+00   -4.555E+00   -4.472E+00   -4.388E+00   -4.305E+00
    -4.221E+00   -4.136E+00   -4.052E+00   -3.967E+00   -3.882E+00   -3.796E+00   -3.710E+00   -3.624E+00   -3.538E+00   -3.451E+00
    -3.364E+00   -3.277E+00   -3.189E+00   -3.102E+00   -3.014E+00   -2.925E+00   -2.837E+00   -2.748E+00   -2.659E+00   -2.570E+00
    -2.481E+00   -2.391E+00   -2.301E+00   -2.211E+00   -2.121E+00   -2.031E+00   -1.940E+00   -1.849E+00   -1.758E+00   -1.667E+00
    -1.576E+00   -1.485E+00   -1.393E+00   -1.301E+00   -1.209E+00   -1.117E+00   -1.025E+00   -9.327E-01   -8.402E-01   -7.476E-01
    -6.550E-01   -5.621E-01   -4.692E-01   -3.762E-01   -2.831E-01   -1.899E-01   -9.666E-02   -3.305E-03    9.012E-02    1.836E-01
     2.772E-01    3.708E-01    4.645E-01    5.582E-01    6.520E-01    7.458E-01    8.396E-01    9.334E-01    1.027E+00    1.121E+00
     1.215E+00    1.309E+00    1.403E+00    1.497E+00    1.591E+00    1.685E+00    1.778E+00    1.872E+00    1.966E+00    2.060E+00
     2.153E+00    2.247E+00    2.341E+00    2.434E+00    2.528E+00    2.621E+00    2.715E+00    2.808E+00    2.901E+00    2.994E+00
     3.087E+00    3.180E+00    3.273E+00    3.365E+00    3.458E+00    3.550E+00    3.643E+00    3.735E+00    3.827E+00    3.919E+00
     4.010E+00    4.102E+00    4.193E+00    4.285E+00    4.376E+00    4.467E+00    4.557E+00    4.648E+00    4.738E+00    4.828E+00
     4.918E+00    5.008E+00    5.098E+00    5.187E+00    5.276E+00    5.365E+00    5.454E+00    5.542E+00    5.630E+00    5.718E+00
     5.806E+00    5.893E+00    5.980E+00    6.067E+00    6.154E+00    6.240E+00    6.326E+00    6.412E+00    6.497E+00    6.582E+00
     6.667E+00    6.752E+00    6.836E+00    6.920E+00    7.004E+00    7.087E+00    7.170E+00    7.252E+00    7.335E+00    7.416E+00
     7.498E+00    7.579E+00    7.660E+00    7.740E+00    7.820E+00    7.900E+00    7.979E+00    8.058E+00    8.137E+00    8.215E+00
     8.293E+00    8.370E+00    8.447E+00    8.523E+00    8.599E+00    8.675E+00    8.750E+00    8.825E+00    8.899E+00    8.973E+00
     9.047E+00    9.119E+00    9.192E+00    9.264E+00    9.336E+00    9.407E+00    9.477E+00    9.547E+00    9.617E+00    9.686E+00
     9.755E+00    9.823E+00    9.891E+00    9.958E+00    1.002E+01    1.009E+01    1.016E+01    1.022E+01    1.029E+01    1.035E+01
     1.041E+01    1.048E+01    1.054E+01    1.060E+01    1.066E+01    1.072E+01    1.078E+01    1.084E+01    1.090E+01    1.096E+01
     1.102E+01    1.107E+01    1.113E+01    1.119E+01    1.124E+01    1.130E+01    1.135E+01    1.140E+01    1.146E+01    1.151E+01
     1.156E+01    1.161E+01    1.166E+01    1.171E+01    1.176E+01    1.181E+01    1.186E+01    1.190E+01    1.195E+01    1.200E+01
     1.204E+01    1.209E+01    1.213E+01    1.217E+01    1.222E+01    1.226E+01    1.230E+01    1.234E+01    1.238E+01    1.242E+01
     1.246E+01    1.249E+01    1.253E+01    1.257E+01    1.260E+01    1.264E+01    1.267E+01    1.270E+01    1.274E+01    1.277E+01
     1.280E+01    1.283E+01    1.286E+01    1.289E+01    1.292E+01    1.294E+01    1.297E+01    1.300E+01    1.302E+01    1.305E+01
     1.307E+01    1.309E+01    1.311E+01    1.314E+01    1.316E+01    1.318E+01    1.319E+01    1.321E+01    1.323E+01    1.325E+01
     1.326E+01    1.328E+01    1.329E+01    1.330E+01    1.332E+01    1.333E+01    1.334E+01    1.335E+01    1.336E+01    1.337E+01
     1.337E+01    1.338E+01    1.339E+01    1.339E+01    1.339E+01    1.340E+01    1.340E+01    1.340E+01    1.340E+01    1.340E+01
     1.340E+01    1.340E+01    1.340E+01    1.339E+01    1.339E+01    1.338E+01    1.338E+01    1.337E+01    1.336E+01    1.335E+01
     1.334E+01    1.333E+01    1.332E+01    1.331E+01    1.330E+01    1.328E+01    1.327E+01    1.325E+01    1.323E+01    1.322E+01
     1.320E+01    1.318E+01    1.316E+01    1.314E+01    1.312E+01    1.309E+01    1.307E+01    1.304E+01    1.302E+01    1.299E+01
     1.296E+01    1.294E+01    1.291E+01    1.288E+01    1.284E+01    1.281E+01    1.278E+01    1.274E+01    1.271E+01    1.267E+01
     1.264E+01    1.260E+01    1.256E+01    1.252E+01    1.248E+01    1.244E+01    1.240E+01    1.235E+01    1.231E+01    1.226E+01
     1.222E+01    1.217E+01    1.212E+01    1.207E+01    1.202E+01    1.197E+01    1.192E+01    1.187E+01    1.181E+01    1.176E+01
     1.170E+01    1.165E+01    1.159E+01    1.153E+01    1.147E+01    1.141E+01    1.135E+01    1.129E+01    1.123E+01    1.116E+01
     1.110E+01    1.103E+01    1.096E+01    1.090E+01    1.083E+01    1.076E+01    1.069E+01    1.061E+01    1.054E+01    1.047E+01
     1.039E+01    1.032E+01    1.024E+01    1.016E+01    1.009E+01    1.001E+01    9.926E+00    9.845E+00    9.762E+00    9.679E+00
     9.595E+00    9.510E+00    9.424E+00    9.337E+00    9.249E+00    9.161E+00    9.071E+00    8.980E+00
 Ala      Conc. = 9.97E+02
