 LCModel (Version 6.3-1L) Copyright: S.W. Provencher.          Ref.: Magn. Reson. Med. 30:672-679 (1993).                
 Slice#3 Row#10 Col#3  PD_05_press_2_raw_act
 36 lines in following concentration table = NCONC+1
    Conc.  %SD /Cr+PCr  Metabolite                                         
 1.11E+03  57%   3.971 Ala                                                 
  112.140 113%   0.401 Asp                                                 
  279.481  39%   1.000 Cr                                                  
    0.000 999%   0.000 PCr                                                 
   70.521 110%   0.252 GABA                                                
   58.690 133%   0.210 Glc                                                 
 1.44E+04   8%  51.479 Gln                                                 
 1.84E+04   9%  65.967 Glu                                                 
  107.046  38%   0.383 GPC                                                 
    0.000 999%   0.000 PCh                                                 
    0.000 999%   0.000 GSH                                                 
  283.280 214%   1.014 Ins                                                 
 4.99E+03  16%  17.849 Lac                                                 
    0.000 999%   0.000 NAA                                                 
 1.31E+03  10%   4.683 NAAG                                                
   30.665  82%   0.110 Scyllo                                              
   98.812 130%   0.354 Tau                                                 
   87.239 162%   0.312 -CrCH2                                              
  107.046  38%   0.383 GPC+PCh                                             
 1.31E+03  10%   4.683 NAA+NAAG                                            
  279.481  39%   1.000 Cr+PCr                                              
 3.28E+04   8% 117.447 Glu+Gln                                             
 1.44E+03  35%   5.166 Lip13a                                              
    0.000 999%   0.000 Lip13b                                              
    0.000 999%   0.000 Lip09                                               
  526.202  41%   1.883 MM09                                                
  209.928 119%   0.751 Lip20                                               
  830.809  46%   2.973 MM20                                                
  169.691  56%   0.607 MM12                                                
  376.104  80%   1.346 MM14                                                
  359.041  51%   1.285 MM17                                                
 1.44E+03  35%   5.166 Lip13a+Lip13b                                       
 1.99E+03  33%   7.119 MM14+Lip13a+Lip13b+MM12                             
  526.202  41%   1.883 MM09+Lip09                                          
 1.04E+03  42%   3.724 MM20+Lip20                                          
   6 lines in following misc. output table
  FWHM = 0.138 ppm    S/N =   4                                            
  Data shift =-0.038 ppm                                                   
  Ph: -49 deg     -11.8 deg/ppm                                            
  alphaB,S = 6.0E-01,   3.1E+02                                            
   14 spline knots.   Ns = 8(2)                                            
  (11) 2 infls.   ( 1) 1 extrs.                                            
  498 points on ppm-axis = NY
      4.000000     3.992357     3.984714     3.977070     3.969427     3.961784     3.954141     3.946497     3.938854     3.931211
      3.923568     3.915925     3.908281     3.900638     3.892995     3.885352     3.877708     3.870065     3.862422     3.854779
      3.847136     3.839492     3.831849     3.824206     3.816563     3.808919     3.801276     3.793633     3.785990     3.778347
      3.770703     3.763060     3.755417     3.747774     3.740130     3.732487     3.724844     3.717201     3.709558     3.701914
      3.694271     3.686628     3.678985     3.671341     3.663698     3.656055     3.648412     3.640769     3.633125     3.625482
      3.617839     3.610196     3.602552     3.594909     3.587266     3.579623     3.571980     3.564336     3.556693     3.549050
      3.541407     3.533763     3.526120     3.518477     3.510834     3.503191     3.495547     3.487904     3.480261     3.472618
      3.464974     3.457331     3.449688     3.442045     3.434402     3.426758     3.419115     3.411472     3.403829     3.396185
      3.388542     3.380899     3.373256     3.365613     3.357969     3.350326     3.342683     3.335040     3.327396     3.319753
      3.312110     3.304467     3.296824     3.289180     3.281537     3.273894     3.266251     3.258607     3.250964     3.243321
      3.235678     3.228034     3.220391     3.212748     3.205105     3.197462     3.189818     3.182175     3.174532     3.166889
      3.159245     3.151602     3.143959     3.136316     3.128673     3.121029     3.113386     3.105743     3.098100     3.090456
      3.082813     3.075170     3.067527     3.059884     3.052240     3.044597     3.036954     3.029311     3.021667     3.014024
      3.006381     2.998738     2.991095     2.983451     2.975808     2.968165     2.960522     2.952878     2.945235     2.937592
      2.929949     2.922306     2.914662     2.907019     2.899376     2.891733     2.884089     2.876446     2.868803     2.861160
      2.853517     2.845873     2.838230     2.830587     2.822944     2.815300     2.807657     2.800014     2.792371     2.784728
      2.777084     2.769441     2.761798     2.754155     2.746511     2.738868     2.731225     2.723582     2.715939     2.708295
      2.700652     2.693009     2.685366     2.677722     2.670079     2.662436     2.654793     2.647150     2.639506     2.631863
      2.624220     2.616577     2.608933     2.601290     2.593647     2.586004     2.578361     2.570717     2.563074     2.555431
      2.547788     2.540144     2.532501     2.524858     2.517215     2.509572     2.501928     2.494285     2.486642     2.478999
      2.471355     2.463712     2.456069     2.448426     2.440783     2.433139     2.425496     2.417853     2.410210     2.402566
      2.394923     2.387280     2.379637     2.371994     2.364350     2.356707     2.349064     2.341421     2.333777     2.326134
      2.318491     2.310848     2.303205     2.295561     2.287918     2.280275     2.272632     2.264988     2.257345     2.249702
      2.242059     2.234416     2.226772     2.219129     2.211486     2.203843     2.196199     2.188556     2.180913     2.173270
      2.165627     2.157983     2.150340     2.142697     2.135054     2.127410     2.119767     2.112124     2.104481     2.096838
      2.089194     2.081551     2.073908     2.066265     2.058621     2.050978     2.043335     2.035692     2.028049     2.020405
      2.012762     2.005119     1.997476     1.989833     1.982190     1.974546     1.966903     1.959260     1.951617     1.943974
      1.936331     1.928688     1.921045     1.913402     1.905759     1.898115     1.890472     1.882829     1.875186     1.867543
      1.859900     1.852257     1.844614     1.836971     1.829327     1.821684     1.814041     1.806398     1.798755     1.791112
      1.783469     1.775826     1.768183     1.760540     1.752896     1.745253     1.737610     1.729967     1.722324     1.714681
      1.707038     1.699395     1.691752     1.684108     1.676465     1.668822     1.661179     1.653536     1.645893     1.638250
      1.630607     1.622964     1.615321     1.607677     1.600034     1.592391     1.584748     1.577105     1.569462     1.561819
      1.554176     1.546533     1.538890     1.531246     1.523603     1.515960     1.508317     1.500674     1.493031     1.485388
      1.477745     1.470102     1.462458     1.454815     1.447172     1.439529     1.431886     1.424243     1.416600     1.408957
      1.401314     1.393671     1.386027     1.378384     1.370741     1.363098     1.355455     1.347812     1.340169     1.332526
      1.324883     1.317240     1.309596     1.301953     1.294310     1.286667     1.279024     1.271381     1.263738     1.256095
      1.248452     1.240808     1.233165     1.225522     1.217879     1.210236     1.202593     1.194950     1.187307     1.179664
      1.172021     1.164377     1.156734     1.149091     1.141448     1.133805     1.126162     1.118519     1.110876     1.103233
      1.095590     1.087946     1.080303     1.072660     1.065017     1.057374     1.049731     1.042088     1.034445     1.026802
      1.019158     1.011515     1.003872     0.996229     0.988586     0.980943     0.973300     0.965657     0.958014     0.950371
      0.942727     0.935084     0.927441     0.919798     0.912155     0.904512     0.896869     0.889226     0.881583     0.873940
      0.866296     0.858653     0.851010     0.843367     0.835724     0.828081     0.820438     0.812795     0.805152     0.797508
      0.789865     0.782222     0.774579     0.766936     0.759293     0.751650     0.744007     0.736364     0.728721     0.721077
      0.713434     0.705791     0.698148     0.690505     0.682862     0.675219     0.667576     0.659933     0.652290     0.644646
      0.637003     0.629360     0.621717     0.614074     0.606431     0.598788     0.591145     0.583502     0.575858     0.568215
      0.560572     0.552929     0.545286     0.537643     0.530000     0.522357     0.514714     0.507071     0.499427     0.491784
      0.484141     0.476498     0.468855     0.461212     0.453569     0.445925     0.438282     0.430639     0.422996     0.415353
      0.407710     0.400067     0.392424     0.384780     0.377137     0.369494     0.361851     0.354208     0.346565     0.338922
      0.331278     0.323635     0.315992     0.308349     0.300706     0.293063     0.285420     0.277777     0.270133     0.262490
      0.254847     0.247204     0.239561     0.231918     0.224275     0.216631     0.208988     0.201345
 NY phased data points follow
  -4.72549E+02 -4.60550E+02 -4.51507E+02 -4.49057E+02 -4.46154E+02 -4.43413E+02 -4.31832E+02 -4.23567E+02 -4.17215E+02 -4.15214E+02
  -4.11552E+02 -4.02340E+02 -3.99044E+02 -3.89192E+02 -3.92749E+02 -3.85061E+02 -3.84547E+02 -3.78545E+02 -3.75045E+02 -3.70128E+02
  -3.67459E+02 -3.67760E+02 -3.62012E+02 -3.58108E+02 -3.48842E+02 -3.40029E+02 -3.43709E+02 -3.34435E+02 -3.31776E+02 -3.32296E+02
  -3.23157E+02 -3.20690E+02 -3.16214E+02 -3.17147E+02 -3.08042E+02 -3.05706E+02 -3.06669E+02 -2.97237E+02 -3.00457E+02 -2.95954E+02
  -2.90532E+02 -2.89887E+02 -2.91014E+02 -2.85429E+02 -2.84459E+02 -2.86643E+02 -2.79281E+02 -2.76500E+02 -2.74211E+02 -2.71152E+02
  -2.64694E+02 -2.61611E+02 -2.65677E+02 -2.63818E+02 -2.66728E+02 -2.56811E+02 -2.58806E+02 -2.59196E+02 -2.60157E+02 -2.51887E+02
  -2.56751E+02 -2.51207E+02 -2.39804E+02 -2.42162E+02 -2.51018E+02 -2.42068E+02 -2.45645E+02 -2.40968E+02 -2.34171E+02 -2.31934E+02
  -2.34345E+02 -2.31666E+02 -2.27633E+02 -2.27145E+02 -2.24689E+02 -2.22094E+02 -2.25663E+02 -2.21566E+02 -2.19749E+02 -2.18912E+02
  -2.16143E+02 -2.09181E+02 -2.12224E+02 -2.04146E+02 -2.09349E+02 -2.05625E+02 -2.07605E+02 -2.01078E+02 -1.96516E+02 -1.99300E+02
  -1.91329E+02 -1.94381E+02 -1.90650E+02 -1.94452E+02 -1.92670E+02 -1.82911E+02 -1.82819E+02 -1.87171E+02 -1.79945E+02 -1.83198E+02
  -1.83562E+02 -1.80416E+02 -1.76092E+02 -1.78296E+02 -1.79661E+02 -1.71074E+02 -1.67439E+02 -1.71183E+02 -1.71064E+02 -1.69583E+02
  -1.68387E+02 -1.66465E+02 -1.66852E+02 -1.67464E+02 -1.62281E+02 -1.68420E+02 -1.64229E+02 -1.62008E+02 -1.60380E+02 -1.57063E+02
  -1.59544E+02 -1.56105E+02 -1.55432E+02 -1.56957E+02 -1.53277E+02 -1.52024E+02 -1.50761E+02 -1.43928E+02 -1.41325E+02 -1.41054E+02
  -1.42115E+02 -1.40252E+02 -1.46556E+02 -1.40675E+02 -1.49160E+02 -1.44602E+02 -1.42114E+02 -1.42345E+02 -1.38968E+02 -1.41870E+02
  -1.43129E+02 -1.38326E+02 -1.39891E+02 -1.37037E+02 -1.37228E+02 -1.37544E+02 -1.33798E+02 -1.32491E+02 -1.32743E+02 -1.31524E+02
  -1.32695E+02 -1.31067E+02 -1.30182E+02 -1.29435E+02 -1.26658E+02 -1.25366E+02 -1.26373E+02 -1.21150E+02 -1.31516E+02 -1.21326E+02
  -1.22247E+02 -1.20241E+02 -1.21220E+02 -1.20721E+02 -1.22755E+02 -1.22038E+02 -1.15755E+02 -1.15170E+02 -1.15276E+02 -1.11798E+02
  -1.10603E+02 -1.14398E+02 -1.12027E+02 -1.10377E+02 -1.11187E+02 -1.07285E+02 -1.07602E+02 -1.10439E+02 -1.10310E+02 -1.09730E+02
  -1.10134E+02 -1.12313E+02 -1.01680E+02 -1.03618E+02 -1.03807E+02 -1.05136E+02 -1.06962E+02 -1.02619E+02 -1.06043E+02 -1.02574E+02
  -9.98628E+01 -1.08449E+02 -9.74266E+01 -1.00541E+02 -1.00289E+02 -1.00113E+02 -9.77977E+01 -9.40946E+01 -9.55129E+01 -9.66580E+01
  -1.03032E+02 -9.73584E+01 -9.24864E+01 -9.48082E+01 -9.39162E+01 -9.18007E+01 -8.77070E+01 -9.36034E+01 -8.48874E+01 -9.23853E+01
  -9.30456E+01 -9.39732E+01 -8.45556E+01 -8.73492E+01 -8.78519E+01 -8.56179E+01 -8.78269E+01 -8.38548E+01 -8.98381E+01 -8.63576E+01
  -8.34400E+01 -8.36064E+01 -8.49616E+01 -8.34209E+01 -8.18393E+01 -7.87764E+01 -7.98593E+01 -7.49666E+01 -7.61353E+01 -7.34234E+01
  -7.45441E+01 -7.48625E+01 -7.82466E+01 -7.66196E+01 -7.37930E+01 -6.85025E+01 -7.11549E+01 -6.64210E+01 -7.50205E+01 -7.01098E+01
  -6.84218E+01 -6.66085E+01 -6.57185E+01 -6.68076E+01 -6.58722E+01 -6.43377E+01 -6.76167E+01 -6.01873E+01 -5.88236E+01 -6.01798E+01
  -5.40091E+01 -5.94349E+01 -5.76442E+01 -5.40950E+01 -5.15340E+01 -5.29034E+01 -5.18664E+01 -5.66512E+01 -5.13906E+01 -5.23529E+01
  -5.10484E+01 -4.79240E+01 -4.29051E+01 -3.88359E+01 -4.20772E+01 -4.63510E+01 -5.16415E+01 -5.71914E+01 -5.50755E+01 -5.22221E+01
  -5.14162E+01 -4.98447E+01 -5.39434E+01 -6.01677E+01 -5.92222E+01 -5.54928E+01 -5.57554E+01 -5.85820E+01 -6.11346E+01 -5.12147E+01
  -5.11332E+01 -5.64849E+01 -5.61691E+01 -5.42274E+01 -5.40128E+01 -5.89063E+01 -4.97454E+01 -5.90506E+01 -5.21630E+01 -5.30011E+01
  -5.58600E+01 -5.17647E+01 -5.33736E+01 -5.08306E+01 -5.27336E+01 -4.58879E+01 -5.26017E+01 -5.12960E+01 -5.57460E+01 -5.09733E+01
  -4.90102E+01 -5.06153E+01 -4.79611E+01 -5.00888E+01 -5.18366E+01 -4.75631E+01 -4.54228E+01 -5.25075E+01 -5.01630E+01 -5.11002E+01
  -4.85995E+01 -4.91207E+01 -4.57443E+01 -4.38125E+01 -4.59910E+01 -4.54013E+01 -4.46352E+01 -4.90462E+01 -4.60865E+01 -4.69402E+01
  -4.67869E+01 -4.10001E+01 -4.88445E+01 -4.50564E+01 -4.38958E+01 -4.47054E+01 -4.28987E+01 -4.44647E+01 -4.10961E+01 -3.88219E+01
  -3.73069E+01 -3.45624E+01 -3.85919E+01 -3.39919E+01 -2.89450E+01 -3.40886E+01 -3.15455E+01 -3.39929E+01 -3.29970E+01 -3.29137E+01
  -2.60810E+01 -3.05742E+01 -2.81826E+01 -2.76765E+01 -2.76257E+01 -3.16089E+01 -3.16997E+01 -3.01637E+01 -3.12465E+01 -2.93812E+01
  -3.42758E+01 -3.56914E+01 -3.60579E+01 -3.79634E+01 -3.12066E+01 -3.35148E+01 -3.83062E+01 -3.57011E+01 -3.33463E+01 -3.00644E+01
  -3.55324E+01 -2.93037E+01 -2.60195E+01 -2.63255E+01 -3.02974E+01 -3.20630E+01 -3.95181E+01 -3.25219E+01 -4.04820E+01 -4.02766E+01
  -3.61818E+01 -3.50554E+01 -3.55846E+01 -3.84371E+01 -4.02658E+01 -4.47633E+01 -3.90405E+01 -4.01727E+01 -4.35464E+01 -4.19231E+01
  -4.19409E+01 -4.38458E+01 -4.66502E+01 -4.45644E+01 -4.10051E+01 -4.56093E+01 -5.05568E+01 -4.43947E+01 -4.37011E+01 -4.44584E+01
  -4.88654E+01 -5.00283E+01 -4.57143E+01 -4.35500E+01 -5.13653E+01 -4.95012E+01 -4.44333E+01 -4.22719E+01 -4.48150E+01 -4.79989E+01
  -4.98145E+01 -4.80894E+01 -4.85391E+01 -4.74952E+01 -4.96414E+01 -4.78791E+01 -4.76380E+01 -4.69275E+01 -4.96066E+01 -5.26381E+01
  -5.19317E+01 -4.68430E+01 -4.92833E+01 -4.91016E+01 -5.33135E+01 -5.15870E+01 -5.33489E+01 -4.75902E+01 -4.79691E+01 -5.20936E+01
  -4.92512E+01 -5.44712E+01 -5.05247E+01 -5.05042E+01 -5.36539E+01 -5.32283E+01 -4.92658E+01 -4.94944E+01 -5.01096E+01 -5.31910E+01
  -4.56482E+01 -5.19578E+01 -4.93115E+01 -5.63600E+01 -5.00467E+01 -4.84159E+01 -4.82181E+01 -5.14556E+01 -5.30771E+01 -4.67239E+01
  -4.89185E+01 -4.74387E+01 -4.89197E+01 -4.78849E+01 -4.72847E+01 -4.84072E+01 -4.69844E+01 -4.72859E+01 -4.92129E+01 -4.53075E+01
  -4.80181E+01 -4.40595E+01 -4.37820E+01 -4.25174E+01 -4.49403E+01 -4.51381E+01 -4.44331E+01 -4.48343E+01 -4.69476E+01 -4.07681E+01
  -3.98083E+01 -4.63610E+01 -4.80093E+01 -4.21388E+01 -3.78374E+01 -4.09821E+01 -4.46097E+01 -3.95139E+01 -3.78843E+01 -3.91017E+01
  -4.31155E+01 -4.11019E+01 -3.67783E+01 -4.10251E+01 -3.74624E+01 -3.36113E+01 -3.78958E+01 -3.89109E+01 -3.38344E+01 -4.12698E+01
  -3.64148E+01 -3.86260E+01 -3.46652E+01 -3.50997E+01 -3.50838E+01 -3.76144E+01 -3.52459E+01 -3.79475E+01 -3.15598E+01 -3.41244E+01
  -3.67377E+01 -3.66022E+01 -2.69462E+01 -3.16472E+01 -3.14170E+01 -3.06156E+01 -3.12137E+01 -3.10065E+01
 NY points of the fit to the data follow
  -4.57556E+02 -4.52378E+02 -4.48877E+02 -4.43618E+02 -4.40049E+02 -4.34896E+02 -4.31066E+02 -4.25880E+02 -4.21588E+02 -4.16252E+02
  -4.11878E+02 -4.06578E+02 -4.02846E+02 -3.97851E+02 -3.94806E+02 -3.89555E+02 -3.85729E+02 -3.79814E+02 -3.75772E+02 -3.69818E+02
  -3.66244E+02 -3.60805E+02 -3.57883E+02 -3.52482E+02 -3.49343E+02 -3.43945E+02 -3.40948E+02 -3.36026E+02 -3.33361E+02 -3.28893E+02
  -3.26118E+02 -3.21692E+02 -3.18584E+02 -3.14594E+02 -3.11704E+02 -3.08382E+02 -3.05650E+02 -3.02655E+02 -2.99592E+02 -2.96665E+02
  -2.93507E+02 -2.91198E+02 -2.88755E+02 -2.87016E+02 -2.84616E+02 -2.82413E+02 -2.79471E+02 -2.77485E+02 -2.75153E+02 -2.73747E+02
  -2.72371E+02 -2.70958E+02 -2.68610E+02 -2.66349E+02 -2.63502E+02 -2.61291E+02 -2.58970E+02 -2.57498E+02 -2.56117E+02 -2.54530E+02
  -2.52785E+02 -2.50936E+02 -2.49024E+02 -2.47056E+02 -2.45088E+02 -2.43086E+02 -2.41090E+02 -2.39057E+02 -2.37049E+02 -2.35031E+02
  -2.33022E+02 -2.31046E+02 -2.29067E+02 -2.27150E+02 -2.25206E+02 -2.23341E+02 -2.21427E+02 -2.19628E+02 -2.17758E+02 -2.16020E+02
  -2.14193E+02 -2.12511E+02 -2.10730E+02 -2.09102E+02 -2.07382E+02 -2.05798E+02 -2.04084E+02 -2.02352E+02 -2.00646E+02 -1.98848E+02
  -1.97183E+02 -1.95343E+02 -1.93707E+02 -1.91826E+02 -1.90238E+02 -1.88336E+02 -1.86811E+02 -1.84964E+02 -1.83515E+02 -1.81753E+02
  -1.80383E+02 -1.78737E+02 -1.77453E+02 -1.75939E+02 -1.74755E+02 -1.73412E+02 -1.72291E+02 -1.71125E+02 -1.70086E+02 -1.69041E+02
  -1.67987E+02 -1.66883E+02 -1.65867E+02 -1.64755E+02 -1.63794E+02 -1.62588E+02 -1.61649E+02 -1.60247E+02 -1.59353E+02 -1.57816E+02
  -1.57030E+02 -1.55444E+02 -1.54717E+02 -1.52902E+02 -1.52254E+02 -1.50465E+02 -1.49937E+02 -1.48218E+02 -1.47802E+02 -1.46226E+02
  -1.45887E+02 -1.44476E+02 -1.44160E+02 -1.42893E+02 -1.42574E+02 -1.41464E+02 -1.41116E+02 -1.40187E+02 -1.39777E+02 -1.38946E+02
  -1.38428E+02 -1.37596E+02 -1.36986E+02 -1.36190E+02 -1.35539E+02 -1.34783E+02 -1.34014E+02 -1.33088E+02 -1.32324E+02 -1.31389E+02
  -1.30659E+02 -1.29724E+02 -1.29042E+02 -1.28128E+02 -1.27497E+02 -1.26569E+02 -1.25968E+02 -1.25023E+02 -1.24454E+02 -1.23520E+02
  -1.22974E+02 -1.22039E+02 -1.21506E+02 -1.20570E+02 -1.20029E+02 -1.19115E+02 -1.18578E+02 -1.17675E+02 -1.17107E+02 -1.16198E+02
  -1.15579E+02 -1.14649E+02 -1.13955E+02 -1.13038E+02 -1.12302E+02 -1.11377E+02 -1.10568E+02 -1.09722E+02 -1.09044E+02 -1.08339E+02
  -1.08104E+02 -1.07635E+02 -1.07742E+02 -1.07376E+02 -1.07666E+02 -1.06857E+02 -1.06859E+02 -1.05469E+02 -1.05230E+02 -1.02937E+02
  -1.02489E+02 -9.97938E+01 -9.95828E+01 -9.74799E+01 -9.91705E+01 -9.69747E+01 -9.95526E+01 -9.68412E+01 -9.96554E+01 -9.58302E+01
  -9.77161E+01 -9.35569E+01 -9.50181E+01 -9.09980E+01 -9.18518E+01 -8.89236E+01 -9.00433E+01 -8.87869E+01 -8.91123E+01 -8.91154E+01
  -8.88855E+01 -8.96423E+01 -8.84196E+01 -8.98799E+01 -8.77730E+01 -8.97161E+01 -8.70486E+01 -8.90003E+01 -8.58997E+01 -8.76392E+01
  -8.47285E+01 -8.56263E+01 -8.27655E+01 -8.28407E+01 -8.08577E+01 -7.88830E+01 -7.80941E+01 -7.55808E+01 -7.55727E+01 -7.34183E+01
  -7.51295E+01 -7.25553E+01 -7.39524E+01 -7.16505E+01 -7.30447E+01 -7.10601E+01 -7.10201E+01 -7.04282E+01 -6.93844E+01 -6.93834E+01
  -6.72382E+01 -6.89275E+01 -6.75678E+01 -7.06997E+01 -6.76527E+01 -7.02649E+01 -6.57813E+01 -6.77371E+01 -6.23868E+01 -6.43542E+01
  -5.89421E+01 -6.07486E+01 -5.53860E+01 -5.64668E+01 -5.14082E+01 -5.25246E+01 -4.91090E+01 -5.02352E+01 -4.75842E+01 -4.83097E+01
  -4.63063E+01 -4.63152E+01 -4.55894E+01 -4.65149E+01 -4.65932E+01 -4.79565E+01 -4.87742E+01 -4.99357E+01 -5.07522E+01 -5.15576E+01
  -5.26079E+01 -5.33296E+01 -5.44455E+01 -5.48210E+01 -5.55984E+01 -5.48600E+01 -5.51632E+01 -5.46028E+01 -5.51459E+01 -5.48831E+01
  -5.51989E+01 -5.48572E+01 -5.50128E+01 -5.46360E+01 -5.45704E+01 -5.44157E+01 -5.43301E+01 -5.41490E+01 -5.40202E+01 -5.38458E+01
  -5.37000E+01 -5.35690E+01 -5.34596E+01 -5.32446E+01 -5.30166E+01 -5.27373E+01 -5.24643E+01 -5.21588E+01 -5.18523E+01 -5.15409E+01
  -5.12623E+01 -5.09905E+01 -5.07104E+01 -5.04500E+01 -5.01734E+01 -4.99160E+01 -4.96279E+01 -4.93555E+01 -4.90387E+01 -4.87077E+01
  -4.82695E+01 -4.77109E+01 -4.73319E+01 -4.68158E+01 -4.65182E+01 -4.60818E+01 -4.58748E+01 -4.55646E+01 -4.55335E+01 -4.51976E+01
  -4.50463E+01 -4.48033E+01 -4.44831E+01 -4.43389E+01 -4.37915E+01 -4.37007E+01 -4.27976E+01 -4.26762E+01 -4.12929E+01 -4.10363E+01
  -3.87892E+01 -3.76154E+01 -3.53459E+01 -3.45172E+01 -3.24912E+01 -3.22466E+01 -3.06136E+01 -3.12488E+01 -3.02845E+01 -3.04997E+01
  -2.98635E+01 -3.01002E+01 -2.99256E+01 -3.02915E+01 -3.05775E+01 -3.08450E+01 -3.13587E+01 -3.10875E+01 -3.20544E+01 -3.19617E+01
  -3.30136E+01 -3.28504E+01 -3.37561E+01 -3.33915E+01 -3.43178E+01 -3.35923E+01 -3.40890E+01 -3.35758E+01 -3.36740E+01 -3.31336E+01
  -3.29533E+01 -3.21516E+01 -3.20935E+01 -3.18539E+01 -3.20018E+01 -3.26133E+01 -3.25711E+01 -3.27639E+01 -3.35421E+01 -3.44816E+01
  -3.55027E+01 -3.69628E+01 -3.81876E+01 -4.04160E+01 -4.17974E+01 -4.27350E+01 -4.34607E+01 -4.40512E+01 -4.45480E+01 -4.49688E+01
  -4.53301E+01 -4.56371E+01 -4.58992E+01 -4.61177E+01 -4.62999E+01 -4.64457E+01 -4.65614E+01 -4.66467E+01 -4.67081E+01 -4.67457E+01
  -4.67665E+01 -4.67715E+01 -4.67685E+01 -4.67586E+01 -4.67503E+01 -4.67451E+01 -4.67512E+01 -4.67698E+01 -4.68081E+01 -4.68661E+01
  -4.69494E+01 -4.70562E+01 -4.71900E+01 -4.73468E+01 -4.75280E+01 -4.77273E+01 -4.79446E+01 -4.81722E+01 -4.84089E+01 -4.86468E+01
  -4.88846E+01 -4.91147E+01 -4.93365E+01 -4.95432E+01 -4.97352E+01 -4.99067E+01 -5.00596E+01 -5.01894E+01 -5.02990E+01 -5.03849E+01
  -5.04508E+01 -5.04942E+01 -5.05191E+01 -5.05233E+01 -5.05112E+01 -5.04808E+01 -5.04364E+01 -5.03758E+01 -5.03033E+01 -5.02165E+01
  -5.01196E+01 -5.00101E+01 -4.98919E+01 -4.97622E+01 -4.96250E+01 -4.94773E+01 -4.93228E+01 -4.91586E+01 -4.89883E+01 -4.88087E+01
  -4.86236E+01 -4.84297E+01 -4.82305E+01 -4.80229E+01 -4.78104E+01 -4.75897E+01 -4.73644E+01 -4.71312E+01 -4.68935E+01 -4.66481E+01
  -4.63985E+01 -4.61413E+01 -4.58800E+01 -4.56114E+01 -4.53391E+01 -4.50597E+01 -4.47770E+01 -4.44876E+01 -4.41953E+01 -4.38967E+01
  -4.35955E+01 -4.32884E+01 -4.29790E+01 -4.26640E+01 -4.23472E+01 -4.20251E+01 -4.17014E+01 -4.13729E+01 -4.10431E+01 -4.07089E+01
  -4.03736E+01 -4.00343E+01 -3.96943E+01 -3.93504E+01 -3.90063E+01 -3.86586E+01 -3.83110E+01 -3.79601E+01 -3.76095E+01 -3.72561E+01
  -3.69032E+01 -3.65477E+01 -3.61932E+01 -3.58362E+01 -3.54804E+01 -3.51225E+01 -3.47660E+01 -3.44076E+01 -3.40508E+01 -3.36923E+01
  -3.33355E+01 -3.29771E+01 -3.26206E+01 -3.22625E+01 -3.19062E+01 -3.15481E+01 -3.11917E+01 -3.08332E+01
 NY background values follow
    -4.594E+02   -4.555E+02   -4.516E+02   -4.477E+02   -4.438E+02   -4.399E+02   -4.360E+02   -4.321E+02   -4.283E+02   -4.244E+02
    -4.205E+02   -4.167E+02   -4.129E+02   -4.090E+02   -4.052E+02   -4.014E+02   -3.976E+02   -3.939E+02   -3.901E+02   -3.864E+02
    -3.827E+02   -3.790E+02   -3.753E+02   -3.716E+02   -3.680E+02   -3.644E+02   -3.608E+02   -3.572E+02   -3.536E+02   -3.501E+02
    -3.466E+02   -3.431E+02   -3.397E+02   -3.363E+02   -3.329E+02   -3.295E+02   -3.262E+02   -3.229E+02   -3.196E+02   -3.164E+02
    -3.132E+02   -3.100E+02   -3.069E+02   -3.038E+02   -3.008E+02   -2.977E+02   -2.948E+02   -2.918E+02   -2.889E+02   -2.861E+02
    -2.833E+02   -2.805E+02   -2.777E+02   -2.750E+02   -2.723E+02   -2.697E+02   -2.671E+02   -2.645E+02   -2.620E+02   -2.595E+02
    -2.570E+02   -2.546E+02   -2.522E+02   -2.498E+02   -2.475E+02   -2.452E+02   -2.429E+02   -2.407E+02   -2.385E+02   -2.363E+02
    -2.342E+02   -2.321E+02   -2.300E+02   -2.279E+02   -2.259E+02   -2.239E+02   -2.220E+02   -2.200E+02   -2.181E+02   -2.162E+02
    -2.144E+02   -2.125E+02   -2.107E+02   -2.089E+02   -2.072E+02   -2.055E+02   -2.037E+02   -2.021E+02   -2.004E+02   -1.988E+02
    -1.972E+02   -1.956E+02   -1.940E+02   -1.925E+02   -1.909E+02   -1.894E+02   -1.880E+02   -1.865E+02   -1.850E+02   -1.836E+02
    -1.822E+02   -1.808E+02   -1.795E+02   -1.781E+02   -1.768E+02   -1.755E+02   -1.742E+02   -1.729E+02   -1.716E+02   -1.703E+02
    -1.691E+02   -1.679E+02   -1.667E+02   -1.655E+02   -1.643E+02   -1.631E+02   -1.619E+02   -1.608E+02   -1.596E+02   -1.585E+02
    -1.574E+02   -1.563E+02   -1.552E+02   -1.541E+02   -1.530E+02   -1.519E+02   -1.509E+02   -1.498E+02   -1.487E+02   -1.477E+02
    -1.467E+02   -1.456E+02   -1.446E+02   -1.436E+02   -1.425E+02   -1.415E+02   -1.405E+02   -1.395E+02   -1.385E+02   -1.375E+02
    -1.365E+02   -1.355E+02   -1.345E+02   -1.335E+02   -1.325E+02   -1.315E+02   -1.306E+02   -1.296E+02   -1.286E+02   -1.277E+02
    -1.267E+02   -1.258E+02   -1.248E+02   -1.239E+02   -1.230E+02   -1.220E+02   -1.211E+02   -1.202E+02   -1.193E+02   -1.184E+02
    -1.176E+02   -1.167E+02   -1.158E+02   -1.150E+02   -1.141E+02   -1.133E+02   -1.125E+02   -1.116E+02   -1.108E+02   -1.100E+02
    -1.092E+02   -1.085E+02   -1.077E+02   -1.069E+02   -1.062E+02   -1.055E+02   -1.047E+02   -1.040E+02   -1.033E+02   -1.026E+02
    -1.020E+02   -1.013E+02   -1.007E+02   -1.000E+02   -9.940E+01   -9.879E+01   -9.819E+01   -9.760E+01   -9.703E+01   -9.646E+01
    -9.591E+01   -9.536E+01   -9.483E+01   -9.431E+01   -9.379E+01   -9.329E+01   -9.280E+01   -9.231E+01   -9.184E+01   -9.137E+01
    -9.091E+01   -9.046E+01   -9.002E+01   -8.959E+01   -8.916E+01   -8.874E+01   -8.833E+01   -8.793E+01   -8.753E+01   -8.714E+01
    -8.676E+01   -8.638E+01   -8.601E+01   -8.564E+01   -8.528E+01   -8.493E+01   -8.458E+01   -8.423E+01   -8.389E+01   -8.356E+01
    -8.323E+01   -8.290E+01   -8.257E+01   -8.225E+01   -8.193E+01   -8.162E+01   -8.131E+01   -8.100E+01   -8.069E+01   -8.039E+01
    -8.009E+01   -7.979E+01   -7.949E+01   -7.920E+01   -7.890E+01   -7.861E+01   -7.832E+01   -7.803E+01   -7.775E+01   -7.746E+01
    -7.718E+01   -7.690E+01   -7.662E+01   -7.634E+01   -7.607E+01   -7.579E+01   -7.552E+01   -7.524E+01   -7.497E+01   -7.470E+01
    -7.443E+01   -7.416E+01   -7.389E+01   -7.362E+01   -7.335E+01   -7.308E+01   -7.281E+01   -7.255E+01   -7.228E+01   -7.201E+01
    -7.175E+01   -7.148E+01   -7.121E+01   -7.094E+01   -7.068E+01   -7.041E+01   -7.014E+01   -6.987E+01   -6.960E+01   -6.933E+01
    -6.906E+01   -6.879E+01   -6.851E+01   -6.824E+01   -6.797E+01   -6.769E+01   -6.742E+01   -6.714E+01   -6.686E+01   -6.659E+01
    -6.631E+01   -6.603E+01   -6.575E+01   -6.547E+01   -6.519E+01   -6.492E+01   -6.464E+01   -6.436E+01   -6.408E+01   -6.380E+01
    -6.352E+01   -6.324E+01   -6.297E+01   -6.269E+01   -6.241E+01   -6.214E+01   -6.186E+01   -6.159E+01   -6.131E+01   -6.104E+01
    -6.077E+01   -6.050E+01   -6.023E+01   -5.996E+01   -5.969E+01   -5.942E+01   -5.916E+01   -5.889E+01   -5.863E+01   -5.837E+01
    -5.811E+01   -5.785E+01   -5.759E+01   -5.734E+01   -5.708E+01   -5.683E+01   -5.658E+01   -5.633E+01   -5.609E+01   -5.585E+01
    -5.561E+01   -5.537E+01   -5.513E+01   -5.490E+01   -5.467E+01   -5.444E+01   -5.422E+01   -5.400E+01   -5.378E+01   -5.357E+01
    -5.336E+01   -5.315E+01   -5.295E+01   -5.276E+01   -5.257E+01   -5.238E+01   -5.220E+01   -5.202E+01   -5.184E+01   -5.168E+01
    -5.151E+01   -5.136E+01   -5.121E+01   -5.106E+01   -5.092E+01   -5.079E+01   -5.066E+01   -5.054E+01   -5.043E+01   -5.032E+01
    -5.022E+01   -5.012E+01   -5.003E+01   -4.996E+01   -4.988E+01   -4.982E+01   -4.976E+01   -4.971E+01   -4.967E+01   -4.964E+01
    -4.961E+01   -4.959E+01   -4.959E+01   -4.959E+01   -4.959E+01   -4.961E+01   -4.963E+01   -4.966E+01   -4.970E+01   -4.974E+01
    -4.979E+01   -4.985E+01   -4.991E+01   -4.997E+01   -5.004E+01   -5.011E+01   -5.019E+01   -5.027E+01   -5.035E+01   -5.044E+01
    -5.053E+01   -5.062E+01   -5.071E+01   -5.080E+01   -5.089E+01   -5.099E+01   -5.108E+01   -5.118E+01   -5.127E+01   -5.137E+01
    -5.146E+01   -5.155E+01   -5.164E+01   -5.172E+01   -5.180E+01   -5.188E+01   -5.196E+01   -5.203E+01   -5.210E+01   -5.217E+01
    -5.223E+01   -5.228E+01   -5.233E+01   -5.237E+01   -5.241E+01   -5.244E+01   -5.246E+01   -5.248E+01   -5.249E+01   -5.249E+01
    -5.248E+01   -5.247E+01   -5.245E+01   -5.242E+01   -5.239E+01   -5.234E+01   -5.229E+01   -5.224E+01   -5.217E+01   -5.210E+01
    -5.203E+01   -5.194E+01   -5.185E+01   -5.175E+01   -5.165E+01   -5.154E+01   -5.142E+01   -5.130E+01   -5.117E+01   -5.103E+01
    -5.089E+01   -5.074E+01   -5.058E+01   -5.042E+01   -5.025E+01   -5.007E+01   -4.989E+01   -4.971E+01   -4.951E+01   -4.932E+01
    -4.911E+01   -4.890E+01   -4.868E+01   -4.846E+01   -4.824E+01   -4.800E+01   -4.776E+01   -4.752E+01   -4.727E+01   -4.701E+01
    -4.675E+01   -4.649E+01   -4.622E+01   -4.594E+01   -4.566E+01   -4.537E+01   -4.508E+01   -4.479E+01   -4.449E+01   -4.419E+01
    -4.388E+01   -4.357E+01   -4.325E+01   -4.293E+01   -4.261E+01   -4.228E+01   -4.196E+01   -4.163E+01   -4.129E+01   -4.096E+01
    -4.062E+01   -4.028E+01   -3.993E+01   -3.959E+01   -3.924E+01   -3.890E+01   -3.855E+01   -3.820E+01   -3.785E+01   -3.750E+01
    -3.714E+01   -3.679E+01   -3.644E+01   -3.608E+01   -3.573E+01   -3.538E+01   -3.503E+01   -3.467E+01   -3.432E+01   -3.397E+01
    -3.362E+01   -3.328E+01   -3.293E+01   -3.259E+01   -3.224E+01   -3.190E+01   -3.156E+01   -3.123E+01
 Ala      Conc. = 1.11E+03
