 LCModel (Version 6.3-1L) Copyright: S.W. Provencher.          Ref.: Magn. Reson. Med. 30:672-679 (1993).                
 Slice#3 Row#10 Col#9  PD_05_press_2_raw_act
 36 lines in following concentration table = NCONC+1
    Conc.  %SD /Cr+PCr  Metabolite                                         
    0.000 999%   0.000 Ala                                                 
    9.704 999% 1.1E-02 Asp                                                 
    0.000 999%   0.000 Cr                                                  
  898.898   6%   1.000 PCr                                                 
   55.926 178% 6.2E-02 GABA                                                
   32.530 297% 3.6E-02 Glc                                                 
    0.000 999%   0.000 Gln                                                 
  528.586  59%   0.588 Glu                                                 
  194.164  53%   0.216 GPC                                                 
   34.994 291% 3.9E-02 PCh                                                 
  163.463  46%   0.182 GSH                                                 
    0.000 999%   0.000 Ins                                                 
  144.719  95%   0.161 Lac                                                 
 1.43E+03   9%   1.588 NAA                                                 
  181.236  77%   0.202 NAAG                                                
   23.029  97% 2.6E-02 Scyllo                                              
  134.736 111%   0.150 Tau                                                 
  531.300  18%   0.591 -CrCH2                                              
  229.159   9%   0.255 GPC+PCh                                             
 1.61E+03   5%   1.789 NAA+NAAG                                            
  898.898   6%   1.000 Cr+PCr                                              
  528.586  59%   0.588 Glu+Gln                                             
    0.000 999%   0.000 Lip13a                                              
    0.000 999%   0.000 Lip13b                                              
    0.000 999%   0.000 Lip09                                               
  792.756  15%   0.882 MM09                                                
 1.18E-02 999% 1.3E-05 Lip20                                               
 2.04E+03  12%   2.266 MM20                                                
  198.072  40%   0.220 MM12                                                
    0.000 999%   0.000 MM14                                                
  580.148  25%   0.645 MM17                                                
    0.000 999%   0.000 Lip13a+Lip13b                                       
  198.072  40%   0.220 MM14+Lip13a+Lip13b+MM12                             
  792.756  15%   0.882 MM09+Lip09                                          
 2.04E+03  12%   2.266 MM20+Lip20                                          
   6 lines in following misc. output table
  FWHM = 0.061 ppm    S/N =   7                                            
  Data shift = 0.015 ppm                                                   
  Ph: -28 deg      -9.5 deg/ppm                                            
  alphaB,S = 8.5E+01,   1.3E+02                                            
   14 spline knots.   Ns = 8(1)                                            
   6 inflections.     1 extrema                                            
  498 points on ppm-axis = NY
      4.000000     3.992357     3.984714     3.977070     3.969427     3.961784     3.954141     3.946497     3.938854     3.931211
      3.923568     3.915925     3.908281     3.900638     3.892995     3.885352     3.877708     3.870065     3.862422     3.854779
      3.847136     3.839492     3.831849     3.824206     3.816563     3.808919     3.801276     3.793633     3.785990     3.778347
      3.770703     3.763060     3.755417     3.747774     3.740130     3.732487     3.724844     3.717201     3.709558     3.701914
      3.694271     3.686628     3.678985     3.671341     3.663698     3.656055     3.648412     3.640769     3.633125     3.625482
      3.617839     3.610196     3.602552     3.594909     3.587266     3.579623     3.571980     3.564336     3.556693     3.549050
      3.541407     3.533763     3.526120     3.518477     3.510834     3.503191     3.495547     3.487904     3.480261     3.472618
      3.464974     3.457331     3.449688     3.442045     3.434402     3.426758     3.419115     3.411472     3.403829     3.396185
      3.388542     3.380899     3.373256     3.365613     3.357969     3.350326     3.342683     3.335040     3.327396     3.319753
      3.312110     3.304467     3.296824     3.289180     3.281537     3.273894     3.266251     3.258607     3.250964     3.243321
      3.235678     3.228034     3.220391     3.212748     3.205105     3.197462     3.189818     3.182175     3.174532     3.166889
      3.159245     3.151602     3.143959     3.136316     3.128673     3.121029     3.113386     3.105743     3.098100     3.090456
      3.082813     3.075170     3.067527     3.059884     3.052240     3.044597     3.036954     3.029311     3.021667     3.014024
      3.006381     2.998738     2.991095     2.983451     2.975808     2.968165     2.960522     2.952878     2.945235     2.937592
      2.929949     2.922306     2.914662     2.907019     2.899376     2.891733     2.884089     2.876446     2.868803     2.861160
      2.853517     2.845873     2.838230     2.830587     2.822944     2.815300     2.807657     2.800014     2.792371     2.784728
      2.777084     2.769441     2.761798     2.754155     2.746511     2.738868     2.731225     2.723582     2.715939     2.708295
      2.700652     2.693009     2.685366     2.677722     2.670079     2.662436     2.654793     2.647150     2.639506     2.631863
      2.624220     2.616577     2.608933     2.601290     2.593647     2.586004     2.578361     2.570717     2.563074     2.555431
      2.547788     2.540144     2.532501     2.524858     2.517215     2.509572     2.501928     2.494285     2.486642     2.478999
      2.471355     2.463712     2.456069     2.448426     2.440783     2.433139     2.425496     2.417853     2.410210     2.402566
      2.394923     2.387280     2.379637     2.371994     2.364350     2.356707     2.349064     2.341421     2.333777     2.326134
      2.318491     2.310848     2.303205     2.295561     2.287918     2.280275     2.272632     2.264988     2.257345     2.249702
      2.242059     2.234416     2.226772     2.219129     2.211486     2.203843     2.196199     2.188556     2.180913     2.173270
      2.165627     2.157983     2.150340     2.142697     2.135054     2.127410     2.119767     2.112124     2.104481     2.096838
      2.089194     2.081551     2.073908     2.066265     2.058621     2.050978     2.043335     2.035692     2.028049     2.020405
      2.012762     2.005119     1.997476     1.989833     1.982190     1.974546     1.966903     1.959260     1.951617     1.943974
      1.936331     1.928688     1.921045     1.913402     1.905759     1.898115     1.890472     1.882829     1.875186     1.867543
      1.859900     1.852257     1.844614     1.836971     1.829327     1.821684     1.814041     1.806398     1.798755     1.791112
      1.783469     1.775826     1.768183     1.760540     1.752896     1.745253     1.737610     1.729967     1.722324     1.714681
      1.707038     1.699395     1.691752     1.684108     1.676465     1.668822     1.661179     1.653536     1.645893     1.638250
      1.630607     1.622964     1.615321     1.607677     1.600034     1.592391     1.584748     1.577105     1.569462     1.561819
      1.554176     1.546533     1.538890     1.531246     1.523603     1.515960     1.508317     1.500674     1.493031     1.485388
      1.477745     1.470102     1.462458     1.454815     1.447172     1.439529     1.431886     1.424243     1.416600     1.408957
      1.401314     1.393671     1.386027     1.378384     1.370741     1.363098     1.355455     1.347812     1.340169     1.332526
      1.324883     1.317240     1.309596     1.301953     1.294310     1.286667     1.279024     1.271381     1.263738     1.256095
      1.248452     1.240808     1.233165     1.225522     1.217879     1.210236     1.202593     1.194950     1.187307     1.179664
      1.172021     1.164377     1.156734     1.149091     1.141448     1.133805     1.126162     1.118519     1.110876     1.103233
      1.095590     1.087946     1.080303     1.072660     1.065017     1.057374     1.049731     1.042088     1.034445     1.026802
      1.019158     1.011515     1.003872     0.996229     0.988586     0.980943     0.973300     0.965657     0.958014     0.950371
      0.942727     0.935084     0.927441     0.919798     0.912155     0.904512     0.896869     0.889226     0.881583     0.873940
      0.866296     0.858653     0.851010     0.843367     0.835724     0.828081     0.820438     0.812795     0.805152     0.797508
      0.789865     0.782222     0.774579     0.766936     0.759293     0.751650     0.744007     0.736364     0.728721     0.721077
      0.713434     0.705791     0.698148     0.690505     0.682862     0.675219     0.667576     0.659933     0.652290     0.644646
      0.637003     0.629360     0.621717     0.614074     0.606431     0.598788     0.591145     0.583502     0.575858     0.568215
      0.560572     0.552929     0.545286     0.537643     0.530000     0.522357     0.514714     0.507071     0.499427     0.491784
      0.484141     0.476498     0.468855     0.461212     0.453569     0.445925     0.438282     0.430639     0.422996     0.415353
      0.407710     0.400067     0.392424     0.384780     0.377137     0.369494     0.361851     0.354208     0.346565     0.338922
      0.331278     0.323635     0.315992     0.308349     0.300706     0.293063     0.285420     0.277777     0.270133     0.262490
      0.254847     0.247204     0.239561     0.231918     0.224275     0.216631     0.208988     0.201345
 NY phased data points follow
  -1.55930E+01 -1.79998E+01 -1.44944E+01 -1.24503E+01 -1.72726E+01 -1.24874E+01 -8.54451E+00 -2.98543E+00  3.93162E+00 -1.57312E+00
  -2.59298E+00 -6.09039E+00 -5.87706E+00 -8.90238E+00 -5.99135E+00 -9.43715E+00 -9.36350E+00 -1.63914E+01 -1.32144E+01 -1.11400E+01
  -1.37905E+01 -1.32439E+01 -1.97125E+01 -1.16317E+01 -1.02132E+01 -7.08414E+00 -1.12691E+01 -5.76396E+00 -1.34276E+01 -3.38855E+00
  -6.48880E+00 -7.40281E+00 -6.08422E+00 -1.23277E+01 -7.87610E+00 -6.84553E+00 -6.71195E+00 -1.17939E+01 -1.05490E+01 -1.40148E+01
  -9.95930E+00 -9.42005E+00 -1.15619E+01 -9.11099E+00 -7.49636E+00 -7.91056E+00 -6.82969E+00 -6.23787E+00 -7.13950E+00 -3.32478E+00
  -4.24914E+00 -1.12947E+01 -5.98463E+00 -7.72548E+00 -7.12749E+00 -1.07484E+01 -1.43245E+01 -4.88884E+00 -1.29407E+01 -6.35986E+00
  -1.35325E+01 -1.24146E+01 -1.55478E+01 -1.38121E+01 -1.85970E+01 -1.49213E+01 -1.32793E+01 -1.85368E+01 -9.04156E+00 -1.09120E+01
  -9.66669E+00 -9.32731E+00 -1.18652E+01 -7.96553E+00 -1.29338E+01 -1.09733E+01 -6.02012E+00 -6.86924E+00 -1.24132E+01 -8.93894E+00
  -9.75527E+00 -1.10229E+01 -1.32022E+01 -8.28827E+00 -8.19390E+00 -6.73961E+00 -1.33449E+01 -1.04141E+01 -7.14495E+00 -9.24182E+00
  -9.32137E+00 -7.05398E+00 -7.35362E+00 -8.22492E+00 -4.10165E-01 -2.41549E+00  2.68808E+00 -3.20165E-01  1.42397E+00  9.05048E-01
   7.01553E+00  9.84506E+00  9.36341E+00  7.30164E+00  8.57157E+00  3.97564E+00 -7.18022E-02  1.06844E+00 -1.86541E+00 -3.17216E+00
  -5.10339E+00 -3.31625E+00 -3.88653E+00 -3.45280E+00 -4.67879E+00  2.82772E-01 -3.37974E+00 -2.81915E+00 -5.15374E+00  4.32268E-01
  -2.90729E-01  3.13252E+00  6.03302E+00  7.87078E+00  9.38348E+00  1.60634E+01  1.95586E+01  1.90141E+01  1.94379E+01  1.31485E+01
   9.16771E+00  1.62673E+00  9.78104E-01 -5.98418E-02 -6.50292E-01 -2.68365E+00 -6.51885E+00 -2.48618E+00 -4.02428E+00 -3.10813E+00
  -5.08091E+00 -8.66509E+00 -5.66026E+00 -3.71293E+00 -1.72402E+01 -8.58519E+00 -8.80393E+00 -8.36042E+00 -5.11091E+00 -7.79956E+00
  -1.21457E+00 -5.50289E+00 -4.81143E+00 -5.15117E+00 -8.59725E+00 -7.71857E+00 -8.14288E+00 -1.19557E+00 -6.88461E+00 -6.29509E+00
  -7.97598E+00 -8.43746E+00 -1.18252E+01 -9.08323E+00 -6.81420E+00 -1.80226E+00 -6.51189E+00 -8.80302E+00 -9.27947E+00 -7.68204E+00
  -1.19900E+01 -1.06272E+01 -8.59421E+00 -1.38712E+01 -1.56081E+01 -1.41380E+01 -1.02469E+01 -1.19925E+01 -1.49682E+01 -1.03759E+01
  -8.42694E+00 -1.46953E+01 -9.26902E+00 -7.17764E+00 -9.90835E+00 -4.53897E+00 -5.52971E+00 -9.85538E+00 -2.34633E+00 -5.19561E+00
  -1.02314E+00 -8.22274E+00 -4.05655E+00  2.77753E-01 -2.27531E+00 -5.56308E+00 -9.40744E+00 -9.28982E+00 -5.63236E+00 -7.08139E+00
  -3.47083E+00 -3.85763E+00 -7.04568E+00 -9.52299E+00 -4.40770E+00 -3.89073E+00 -8.88194E+00 -7.47278E+00 -1.06573E+01 -4.81422E+00
  -6.04208E+00 -1.49261E+00 -6.37110E+00  8.20990E-02 -5.77110E+00 -2.82814E+00 -3.39245E+00  4.77579E-01  1.76003E+00 -6.11700E+00
  -6.25902E+00 -9.29368E+00 -4.46522E+00 -2.61186E+00 -5.02501E+00 -5.33029E+00 -1.21484E+00 -3.48467E+00 -7.70127E+00  1.33284E+00
   3.25070E-01 -3.20280E+00 -8.75188E-02 -4.94514E+00 -3.18938E+00  2.35595E+00 -3.85109E+00 -3.78373E+00  8.82541E-01 -1.97427E+00
  -1.56843E+00  3.23456E+00 -8.47220E+00  3.31329E+00  8.58230E-01  1.55622E+00  5.89274E+00  1.77122E+00  7.94923E+00  6.84460E+00
   8.39808E+00  9.81285E+00  1.36743E+01  1.49717E+01  1.89792E+01  2.42717E+01  1.97736E+01  2.87988E+01  4.19305E+01  4.61647E+01
   4.62278E+01  4.15150E+01  3.56388E+01  2.81970E+01  2.01620E+01  1.68353E+01  1.21181E+01  3.57296E+00  9.96981E+00  2.74253E+00
   3.88050E+00 -1.16235E+00  3.22841E+00  4.42804E+00  9.08309E-01  5.34310E-01 -5.49408E-01  2.62366E-01  2.67435E-01 -1.30580E-01
   6.60171E-01 -3.56594E+00 -5.51498E+00 -5.69175E+00 -7.36668E-01  5.41848E-01 -3.32466E+00 -2.57542E+00 -1.93463E+00 -1.00336E+00
   4.15640E+00 -2.29119E+00 -2.14594E+00 -2.13709E+00 -3.66318E-01 -1.48980E+00 -1.07539E+00 -3.21327E+00 -3.63525E+00 -7.38492E-01
  -1.35009E+00 -3.35783E+00  2.84979E-01  3.86206E+00  7.92591E-01 -1.94862E+00 -1.01999E+00 -3.73156E+00 -1.28351E+00 -1.34978E+00
  -7.33758E+00 -1.18101E-01 -1.63746E+00 -9.75569E+00 -5.89830E+00 -4.87955E+00 -1.22211E-01 -3.35782E+00 -3.60531E+00 -5.66320E+00
  -6.29121E+00 -7.63576E+00 -3.18038E+00 -2.80103E+00 -9.81722E+00 -2.93240E+00 -8.28835E+00 -3.71306E+00 -4.72431E+00 -2.06025E+00
  -2.58419E+00 -5.59147E+00 -8.46147E+00 -5.17317E+00 -5.08039E+00 -8.59460E+00 -9.14878E+00 -6.01847E+00 -8.74081E+00 -1.78933E+00
  -3.89159E+00 -7.37670E+00 -2.06734E+00  2.77654E+00  1.61997E+00 -1.87410E+00 -5.57333E+00 -4.60005E+00 -8.32177E+00 -7.00410E+00
  -2.84215E+00 -8.08248E+00 -2.58822E+00 -4.98033E+00 -5.40036E+00 -1.74269E+00 -7.25486E-01 -5.36389E-01  2.90601E-01 -6.62465E+00
  -4.80145E+00 -4.17140E+00 -5.73686E+00 -1.58460E-02 -1.43747E+00 -4.53016E-01 -1.61882E+00 -7.12808E+00 -2.35525E+00 -2.24391E+00
  -1.34943E+00 -1.72871E+00 -4.45405E+00 -1.39304E+00 -3.47799E+00 -4.06861E+00  1.04258E+00 -2.43331E+00 -1.19976E+00 -2.09980E+00
  -1.68048E+00 -4.01243E+00  1.88799E+00  5.53786E-02 -2.89765E-01 -1.55404E+00 -3.50258E+00  8.73547E-01 -8.37495E+00 -3.37996E+00
  -2.21525E+00  2.39706E+00  4.87391E+00 -2.67351E+00 -8.69323E-01  3.95209E-01 -6.28543E+00 -4.10316E+00 -2.23673E-01  2.91499E+00
   1.70160E+00 -1.10053E+00 -3.75498E-01  1.24299E+00  2.18205E+00  2.87462E+00  2.79412E+00  2.04146E+00  1.80541E+00  1.17365E-01
   9.80315E+00  7.99599E+00  3.16316E+00  2.69916E+00 -5.98377E-01 -1.53138E+00 -2.89556E+00 -1.07656E+00  7.09149E+00  1.17706E+00
  -1.47614E-01  1.11768E-01  4.66281E+00 -3.24280E+00  2.16660E+00 -3.26690E+00 -7.55674E-01 -6.39790E+00 -2.25276E+00 -4.57133E+00
  -4.07614E+00 -1.22942E+00 -1.36881E+00 -4.48546E+00  1.19561E+00  1.76317E+00 -2.25476E+00 -2.79585E+00 -2.59667E+00 -8.08374E-01
  -4.51862E+00 -1.77310E+00 -5.80263E-01 -2.41205E+00 -5.26811E+00 -2.59628E-01 -3.65526E+00  3.39327E+00 -2.27413E+00  2.88807E-01
  -3.43192E+00 -1.74873E+00 -1.14206E+00 -3.47085E-01 -1.82581E-01 -2.23910E-01 -9.42692E-03 -6.84070E-01 -6.26654E+00 -5.63125E+00
  -7.86404E+00 -3.12558E+00 -2.67805E+00  1.98445E-02 -3.67300E+00 -7.99975E+00  1.17297E+00  1.77972E+00 -5.53791E-01  5.42971E-01
  -5.82042E-01  2.53506E-01 -4.60894E-01 -5.54570E+00  3.17023E+00  1.66216E+00 -6.80352E+00 -6.62585E-03  4.22723E+00  1.17875E+00
   1.53312E+00 -2.09549E+00 -3.93298E+00 -6.74337E+00 -2.04743E+00 -1.02252E+00  2.58190E-01  2.34425E+00 -2.08685E+00  2.25444E+00
  -2.09795E-01 -2.50453E+00 -4.15300E+00 -2.87282E+00 -2.60509E+00 -1.30596E+00 -1.23159E+00  1.51790E+00
 NY points of the fit to the data follow
  -1.19689E+01 -1.14446E+01 -1.05092E+01 -9.59014E+00 -8.75752E+00 -7.80153E+00 -6.51413E+00 -5.04616E+00 -3.82119E+00 -3.22136E+00
  -3.34699E+00 -4.06710E+00 -5.11224E+00 -6.17513E+00 -7.06332E+00 -7.75603E+00 -8.34188E+00 -8.92482E+00 -9.53792E+00 -9.89331E+00
  -1.00707E+01 -1.02061E+01 -1.01449E+01 -9.92341E+00 -9.68566E+00 -9.43854E+00 -9.06925E+00 -8.52631E+00 -7.91219E+00 -7.38087E+00
  -7.03619E+00 -6.94229E+00 -7.10486E+00 -7.47398E+00 -7.94223E+00 -8.42358E+00 -8.85901E+00 -9.18507E+00 -9.39559E+00 -9.51519E+00
  -9.51736E+00 -9.44972E+00 -9.38452E+00 -9.34834E+00 -9.34469E+00 -9.36254E+00 -9.37905E+00 -9.37245E+00 -9.35242E+00 -9.35202E+00
  -9.38222E+00 -9.43794E+00 -9.50344E+00 -9.58238E+00 -9.67902E+00 -9.77378E+00 -9.85159E+00 -9.92505E+00 -9.98939E+00 -1.00256E+01
  -1.00402E+01 -1.00369E+01 -1.00221E+01 -1.00060E+01 -9.98481E+00 -9.96259E+00 -9.95262E+00 -9.94323E+00 -9.91292E+00 -9.88265E+00
  -9.85968E+00 -9.82873E+00 -9.77240E+00 -9.69363E+00 -9.61280E+00 -9.57132E+00 -9.59373E+00 -9.66417E+00 -9.70233E+00 -9.65172E+00
  -9.54270E+00 -9.39631E+00 -9.20085E+00 -8.95608E+00 -8.70370E+00 -8.51075E+00 -8.43201E+00 -8.48356E+00 -8.62729E+00 -8.81494E+00
  -8.99587E+00 -9.12515E+00 -9.18401E+00 -9.00226E+00 -7.95536E+00 -6.08708E+00 -4.00114E+00 -1.89242E+00  5.50048E-01  3.56997E+00
   6.78663E+00  9.29646E+00  1.03239E+01  9.65836E+00  7.61867E+00  4.83599E+00  1.99590E+00 -4.49778E-01 -2.38727E+00 -3.93723E+00
  -5.32383E+00 -6.57233E+00 -7.35030E+00 -7.66260E+00 -7.76129E+00 -7.77359E+00 -7.72459E+00 -7.54075E+00 -6.66941E+00 -4.30580E+00
  -1.43354E+00  1.21337E+00  4.00720E+00  7.66853E+00  1.21446E+01  1.63109E+01  1.87819E+01  1.88287E+01  1.66561E+01  1.30529E+01
   9.02300E+00  5.39822E+00  2.48851E+00  1.34609E-01 -1.94867E+00 -3.97298E+00 -5.58987E+00 -6.25213E+00 -6.40137E+00 -6.36942E+00
  -6.27994E+00 -6.21443E+00 -6.21669E+00 -6.27950E+00 -6.37225E+00 -6.48652E+00 -6.61508E+00 -6.75487E+00 -6.90074E+00 -7.04103E+00
  -7.16696E+00 -7.27619E+00 -7.37184E+00 -7.50231E+00 -7.65488E+00 -7.77185E+00 -7.83883E+00 -7.87749E+00 -7.97196E+00 -8.16275E+00
  -8.36530E+00 -8.47509E+00 -8.46480E+00 -8.39288E+00 -8.35845E+00 -8.43840E+00 -8.64062E+00 -8.93119E+00 -9.26311E+00 -9.55957E+00
  -9.72892E+00 -9.83101E+00 -9.96630E+00 -1.01959E+01 -1.04489E+01 -1.05550E+01 -1.04693E+01 -1.02959E+01 -1.01541E+01 -1.01147E+01
  -1.01160E+01 -1.00290E+01 -9.82414E+00 -9.53713E+00 -9.19235E+00 -8.79073E+00 -8.32682E+00 -7.77629E+00 -7.11800E+00 -6.41963E+00
  -5.84925E+00 -5.51315E+00 -5.38314E+00 -5.37914E+00 -5.44359E+00 -5.52939E+00 -5.56801E+00 -5.58295E+00 -5.58089E+00 -5.53340E+00
  -5.41434E+00 -5.20386E+00 -4.97158E+00 -4.81361E+00 -4.80878E+00 -5.00961E+00 -5.34140E+00 -5.66269E+00 -5.86641E+00 -5.97140E+00
  -6.03627E+00 -6.01366E+00 -5.81615E+00 -5.44264E+00 -5.04980E+00 -4.84295E+00 -4.86440E+00 -5.07718E+00 -5.47105E+00 -5.95661E+00
  -6.36431E+00 -6.49502E+00 -6.26913E+00 -5.79335E+00 -5.19757E+00 -4.55437E+00 -3.92088E+00 -3.39780E+00 -3.03558E+00 -2.76605E+00
  -2.49009E+00 -2.17089E+00 -1.84084E+00 -1.52664E+00 -1.20970E+00 -9.31484E-01 -7.48789E-01 -6.61316E-01 -6.28507E-01 -6.05874E-01
  -5.14879E-01 -2.89576E-01  9.89051E-02  6.31964E-01  1.24305E+00  1.86553E+00  2.44185E+00  3.01064E+00  3.75012E+00  4.57175E+00
   5.39859E+00  6.56499E+00  9.35691E+00  1.43291E+01  1.94828E+01  2.38657E+01  2.81731E+01  3.33217E+01  3.88810E+01  4.30744E+01
   4.41716E+01  4.16489E+01  3.61853E+01  2.91205E+01  2.19594E+01  1.58458E+01  1.11640E+01  7.52684E+00  4.35610E+00  1.41944E+00
  -6.19830E-01 -1.37995E+00 -1.68817E+00 -1.88156E+00 -2.03178E+00 -2.17156E+00 -2.31761E+00 -2.46251E+00 -2.59410E+00 -2.70238E+00
  -2.78061E+00 -2.82461E+00 -2.83674E+00 -2.81907E+00 -2.76855E+00 -2.68894E+00 -2.58820E+00 -2.47273E+00 -2.34403E+00 -2.20213E+00
  -2.05037E+00 -1.89870E+00 -1.75324E+00 -1.61899E+00 -1.50230E+00 -1.40910E+00 -1.34089E+00 -1.29887E+00 -1.28316E+00 -1.29388E+00
  -1.33137E+00 -1.39616E+00 -1.48598E+00 -1.59953E+00 -1.73474E+00 -1.88827E+00 -2.05520E+00 -2.23065E+00 -2.40993E+00 -2.58991E+00
  -2.76622E+00 -2.93557E+00 -3.09501E+00 -3.24250E+00 -3.37625E+00 -3.49574E+00 -3.60048E+00 -3.69086E+00 -3.76707E+00 -3.83003E+00
  -3.88046E+00 -3.91968E+00 -3.94852E+00 -3.96822E+00 -3.97944E+00 -3.98323E+00 -3.98014E+00 -3.97108E+00 -3.95629E+00 -3.93623E+00
  -3.91071E+00 -3.87983E+00 -3.84302E+00 -3.79985E+00 -3.74884E+00 -3.68805E+00 -3.61339E+00 -3.51757E+00 -3.38193E+00 -3.17674E+00
  -2.97434E+00 -2.85748E+00 -2.79076E+00 -2.72702E+00 -2.69137E+00 -2.78212E+00 -3.06587E+00 -3.43683E+00 -3.79036E+00 -4.09120E+00
  -4.28341E+00 -4.28037E+00 -4.03132E+00 -3.58537E+00 -3.06921E+00 -2.61164E+00 -2.27133E+00 -2.04015E+00 -1.92677E+00 -1.91463E+00
  -1.94159E+00 -1.97404E+00 -2.00830E+00 -2.06438E+00 -2.14776E+00 -2.20712E+00 -2.23065E+00 -2.23940E+00 -2.24159E+00 -2.24062E+00
  -2.23763E+00 -2.23326E+00 -2.22715E+00 -2.21900E+00 -2.20785E+00 -2.19306E+00 -2.17352E+00 -2.14845E+00 -2.11657E+00 -2.07694E+00
  -2.02819E+00 -1.96939E+00 -1.89918E+00 -1.81656E+00 -1.72008E+00 -1.60867E+00 -1.48094E+00 -1.33599E+00 -1.17268E+00 -9.90436E-01
  -7.88542E-01 -5.67089E-01 -3.26322E-01 -6.75136E-02  2.07748E-01  4.96731E-01  7.96255E-01  1.10188E+00  1.40869E+00  1.71066E+00
   2.00160E+00  2.27461E+00  2.52308E+00  2.74016E+00  2.91989E+00  3.05674E+00  3.14668E+00  3.18667E+00  3.17555E+00  3.11333E+00
   3.00198E+00  2.84465E+00  2.64618E+00  2.41218E+00  2.14939E+00  1.86462E+00  1.56521E+00  1.25800E+00  9.49785E-01  6.46334E-01
   3.52916E-01  7.35078E-02 -1.88509E-01 -4.31022E-01 -6.52440E-01 -8.52340E-01 -1.03065E+00 -1.18819E+00 -1.32584E+00 -1.44508E+00
  -1.54722E+00 -1.63405E+00 -1.70704E+00 -1.76795E+00 -1.81807E+00 -1.85891E+00 -1.89154E+00 -1.91723E+00 -1.93683E+00 -1.95136E+00
  -1.96134E+00 -1.96755E+00 -1.97036E+00 -1.97043E+00 -1.96797E+00 -1.96349E+00 -1.95707E+00 -1.94910E+00 -1.93962E+00 -1.92899E+00
  -1.91721E+00 -1.90455E+00 -1.89093E+00 -1.87660E+00 -1.86151E+00 -1.84590E+00 -1.82967E+00 -1.81301E+00 -1.79581E+00 -1.77826E+00
  -1.76026E+00 -1.74204E+00 -1.72343E+00 -1.70460E+00 -1.68541E+00 -1.66605E+00 -1.64641E+00 -1.62667E+00 -1.60665E+00 -1.58652E+00
  -1.56613E+00 -1.54566E+00 -1.52499E+00 -1.50428E+00 -1.48334E+00 -1.46234E+00 -1.44114E+00 -1.41992E+00 -1.39853E+00 -1.37712E+00
  -1.35551E+00 -1.33387E+00 -1.31205E+00 -1.29024E+00 -1.26827E+00 -1.24627E+00 -1.22408E+00 -1.20185E+00 -1.17947E+00 -1.15707E+00
  -1.13450E+00 -1.11188E+00 -1.08904E+00 -1.06614E+00 -1.04305E+00 -1.01990E+00 -9.96504E-01 -9.72982E-01
 NY background values follow
    -1.162E+01   -1.160E+01   -1.158E+01   -1.156E+01   -1.154E+01   -1.151E+01   -1.149E+01   -1.147E+01   -1.145E+01   -1.143E+01
    -1.141E+01   -1.139E+01   -1.137E+01   -1.135E+01   -1.133E+01   -1.130E+01   -1.128E+01   -1.126E+01   -1.124E+01   -1.122E+01
    -1.120E+01   -1.118E+01   -1.116E+01   -1.114E+01   -1.111E+01   -1.109E+01   -1.107E+01   -1.105E+01   -1.103E+01   -1.101E+01
    -1.099E+01   -1.097E+01   -1.094E+01   -1.092E+01   -1.090E+01   -1.088E+01   -1.086E+01   -1.084E+01   -1.082E+01   -1.080E+01
    -1.077E+01   -1.075E+01   -1.073E+01   -1.071E+01   -1.069E+01   -1.067E+01   -1.065E+01   -1.063E+01   -1.060E+01   -1.058E+01
    -1.056E+01   -1.054E+01   -1.052E+01   -1.050E+01   -1.048E+01   -1.045E+01   -1.043E+01   -1.041E+01   -1.039E+01   -1.037E+01
    -1.035E+01   -1.033E+01   -1.030E+01   -1.028E+01   -1.026E+01   -1.024E+01   -1.022E+01   -1.020E+01   -1.018E+01   -1.015E+01
    -1.013E+01   -1.011E+01   -1.009E+01   -1.007E+01   -1.005E+01   -1.003E+01   -1.000E+01   -9.982E+00   -9.961E+00   -9.939E+00
    -9.918E+00   -9.896E+00   -9.874E+00   -9.853E+00   -9.831E+00   -9.810E+00   -9.788E+00   -9.766E+00   -9.745E+00   -9.723E+00
    -9.701E+00   -9.680E+00   -9.658E+00   -9.637E+00   -9.615E+00   -9.593E+00   -9.571E+00   -9.550E+00   -9.528E+00   -9.506E+00
    -9.485E+00   -9.463E+00   -9.441E+00   -9.420E+00   -9.398E+00   -9.376E+00   -9.354E+00   -9.333E+00   -9.311E+00   -9.289E+00
    -9.267E+00   -9.246E+00   -9.224E+00   -9.202E+00   -9.180E+00   -9.158E+00   -9.137E+00   -9.115E+00   -9.093E+00   -9.071E+00
    -9.049E+00   -9.028E+00   -9.006E+00   -8.984E+00   -8.962E+00   -8.940E+00   -8.918E+00   -8.896E+00   -8.875E+00   -8.853E+00
    -8.831E+00   -8.809E+00   -8.787E+00   -8.765E+00   -8.743E+00   -8.721E+00   -8.700E+00   -8.678E+00   -8.656E+00   -8.634E+00
    -8.612E+00   -8.590E+00   -8.568E+00   -8.546E+00   -8.524E+00   -8.502E+00   -8.480E+00   -8.458E+00   -8.436E+00   -8.414E+00
    -8.392E+00   -8.370E+00   -8.348E+00   -8.326E+00   -8.304E+00   -8.282E+00   -8.260E+00   -8.238E+00   -8.216E+00   -8.194E+00
    -8.172E+00   -8.150E+00   -8.128E+00   -8.106E+00   -8.084E+00   -8.062E+00   -8.040E+00   -8.018E+00   -7.996E+00   -7.974E+00
    -7.952E+00   -7.930E+00   -7.908E+00   -7.886E+00   -7.864E+00   -7.841E+00   -7.819E+00   -7.797E+00   -7.775E+00   -7.753E+00
    -7.731E+00   -7.709E+00   -7.687E+00   -7.665E+00   -7.643E+00   -7.620E+00   -7.598E+00   -7.576E+00   -7.554E+00   -7.532E+00
    -7.510E+00   -7.488E+00   -7.465E+00   -7.443E+00   -7.421E+00   -7.399E+00   -7.377E+00   -7.355E+00   -7.333E+00   -7.310E+00
    -7.288E+00   -7.266E+00   -7.244E+00   -7.222E+00   -7.199E+00   -7.177E+00   -7.155E+00   -7.133E+00   -7.111E+00   -7.088E+00
    -7.066E+00   -7.044E+00   -7.022E+00   -7.000E+00   -6.977E+00   -6.955E+00   -6.933E+00   -6.911E+00   -6.889E+00   -6.866E+00
    -6.844E+00   -6.822E+00   -6.800E+00   -6.777E+00   -6.755E+00   -6.733E+00   -6.711E+00   -6.688E+00   -6.666E+00   -6.644E+00
    -6.622E+00   -6.599E+00   -6.577E+00   -6.555E+00   -6.533E+00   -6.510E+00   -6.488E+00   -6.466E+00   -6.443E+00   -6.421E+00
    -6.399E+00   -6.377E+00   -6.354E+00   -6.332E+00   -6.310E+00   -6.288E+00   -6.265E+00   -6.243E+00   -6.221E+00   -6.198E+00
    -6.176E+00   -6.154E+00   -6.131E+00   -6.109E+00   -6.087E+00   -6.065E+00   -6.042E+00   -6.020E+00   -5.998E+00   -5.975E+00
    -5.953E+00   -5.931E+00   -5.908E+00   -5.886E+00   -5.864E+00   -5.841E+00   -5.819E+00   -5.797E+00   -5.774E+00   -5.752E+00
    -5.730E+00   -5.707E+00   -5.685E+00   -5.663E+00   -5.640E+00   -5.618E+00   -5.596E+00   -5.573E+00   -5.551E+00   -5.529E+00
    -5.506E+00   -5.484E+00   -5.462E+00   -5.439E+00   -5.417E+00   -5.395E+00   -5.372E+00   -5.350E+00   -5.328E+00   -5.305E+00
    -5.283E+00   -5.261E+00   -5.238E+00   -5.216E+00   -5.194E+00   -5.171E+00   -5.149E+00   -5.127E+00   -5.104E+00   -5.082E+00
    -5.060E+00   -5.037E+00   -5.015E+00   -4.993E+00   -4.970E+00   -4.948E+00   -4.926E+00   -4.903E+00   -4.881E+00   -4.859E+00
    -4.836E+00   -4.814E+00   -4.791E+00   -4.769E+00   -4.747E+00   -4.724E+00   -4.702E+00   -4.680E+00   -4.657E+00   -4.635E+00
    -4.613E+00   -4.590E+00   -4.568E+00   -4.546E+00   -4.523E+00   -4.501E+00   -4.479E+00   -4.456E+00   -4.434E+00   -4.412E+00
    -4.389E+00   -4.367E+00   -4.345E+00   -4.322E+00   -4.300E+00   -4.278E+00   -4.255E+00   -4.233E+00   -4.211E+00   -4.188E+00
    -4.166E+00   -4.144E+00   -4.121E+00   -4.099E+00   -4.077E+00   -4.054E+00   -4.032E+00   -4.010E+00   -3.987E+00   -3.965E+00
    -3.943E+00   -3.920E+00   -3.898E+00   -3.876E+00   -3.853E+00   -3.831E+00   -3.809E+00   -3.786E+00   -3.764E+00   -3.742E+00
    -3.719E+00   -3.697E+00   -3.675E+00   -3.652E+00   -3.630E+00   -3.608E+00   -3.586E+00   -3.563E+00   -3.541E+00   -3.519E+00
    -3.496E+00   -3.474E+00   -3.452E+00   -3.429E+00   -3.407E+00   -3.385E+00   -3.363E+00   -3.340E+00   -3.318E+00   -3.296E+00
    -3.273E+00   -3.251E+00   -3.229E+00   -3.207E+00   -3.184E+00   -3.162E+00   -3.140E+00   -3.118E+00   -3.095E+00   -3.073E+00
    -3.051E+00   -3.029E+00   -3.006E+00   -2.984E+00   -2.962E+00   -2.940E+00   -2.917E+00   -2.895E+00   -2.873E+00   -2.851E+00
    -2.828E+00   -2.806E+00   -2.784E+00   -2.762E+00   -2.739E+00   -2.717E+00   -2.695E+00   -2.673E+00   -2.651E+00   -2.628E+00
    -2.606E+00   -2.584E+00   -2.562E+00   -2.540E+00   -2.517E+00   -2.495E+00   -2.473E+00   -2.451E+00   -2.429E+00   -2.406E+00
    -2.384E+00   -2.362E+00   -2.340E+00   -2.318E+00   -2.296E+00   -2.273E+00   -2.251E+00   -2.229E+00   -2.207E+00   -2.185E+00
    -2.163E+00   -2.141E+00   -2.118E+00   -2.096E+00   -2.074E+00   -2.052E+00   -2.030E+00   -2.008E+00   -1.986E+00   -1.964E+00
    -1.942E+00   -1.919E+00   -1.897E+00   -1.875E+00   -1.853E+00   -1.831E+00   -1.809E+00   -1.787E+00   -1.765E+00   -1.743E+00
    -1.721E+00   -1.699E+00   -1.677E+00   -1.655E+00   -1.632E+00   -1.610E+00   -1.588E+00   -1.566E+00   -1.544E+00   -1.522E+00
    -1.500E+00   -1.478E+00   -1.456E+00   -1.434E+00   -1.412E+00   -1.390E+00   -1.368E+00   -1.346E+00   -1.324E+00   -1.302E+00
    -1.280E+00   -1.258E+00   -1.236E+00   -1.214E+00   -1.192E+00   -1.170E+00   -1.149E+00   -1.127E+00   -1.105E+00   -1.083E+00
    -1.061E+00   -1.039E+00   -1.017E+00   -9.950E-01   -9.731E-01   -9.512E-01   -9.293E-01   -9.074E-01   -8.855E-01   -8.636E-01
    -8.418E-01   -8.199E-01   -7.980E-01   -7.762E-01   -7.543E-01   -7.325E-01   -7.106E-01   -6.888E-01
 Asp      Conc. = 9.70E+00
