 LCModel (Version 6.3-1L) Copyright: S.W. Provencher.          Ref.: Magn. Reson. Med. 30:672-679 (1993).                
 Slice#1 Row#2 Col#7  PD_05_press_2_raw_act
 36 lines in following concentration table = NCONC+1
    Conc.  %SD /Cr+PCr  Metabolite                                         
  519.811  46%   1.387 Ala                                                 
  102.330  35%   0.273 Asp                                                 
  109.268 247%   0.292 Cr                                                  
  265.541 104%   0.708 PCr                                                 
   63.155  34%   0.168 GABA                                                
   61.162  36%   0.163 Glc                                                 
   51.838 753%   0.138 Gln                                                 
  676.984  70%   1.806 Glu                                                 
   88.757  53%   0.237 GPC                                                 
    0.000 999%   0.000 PCh                                                 
    0.000 999%   0.000 GSH                                                 
    0.000 999%   0.000 Ins                                                 
    0.000 999%   0.000 Lac                                                 
  872.731  21%   2.328 NAA                                                 
  524.214  31%   1.399 NAAG                                                
   20.761  35% 5.5E-02 Scyllo                                              
   99.053  37%   0.264 Tau                                                 
   41.174 121%   0.110 -CrCH2                                              
   88.757  53%   0.237 GPC+PCh                                             
 1.40E+03  16%   3.727 NAA+NAAG                                            
  374.809  36%   1.000 Cr+PCr                                              
  728.821  77%   1.945 Glu+Gln                                             
    0.000 999%   0.000 Lip13a                                              
  774.971  68%   2.068 Lip13b                                              
  186.577  85%   0.498 Lip09                                               
  331.599 128%   0.885 MM09                                                
  122.077  77%   0.326 Lip20                                               
  497.458 128%   1.327 MM20                                                
   99.481 128%   0.265 MM12                                                
  248.697 128%   0.664 MM14                                                
  124.310 128%   0.332 MM17                                                
  774.971  68%   2.068 Lip13a+Lip13b                                       
 1.12E+03  51%   2.997 MM14+Lip13a+Lip13b+MM12                             
  518.176  77%   1.383 MM09+Lip09                                          
  619.535 100%   1.653 MM20+Lip20                                          
   6 lines in following misc. output table
  FWHM = 0.031 ppm    S/N =   2                                            
  Data shift = 0.054 ppm                                                   
  Ph: -46 deg     -13.6 deg/ppm                                            
  alphaB,S = 8.5E+01,   3.2E+00                                            
   14 spline knots.   Ns = 5(1)                                            
   1 inflections.     2 extrema                                            
  498 points on ppm-axis = NY
      4.000000     3.992357     3.984714     3.977070     3.969427     3.961784     3.954141     3.946497     3.938854     3.931211
      3.923568     3.915925     3.908281     3.900638     3.892995     3.885352     3.877708     3.870065     3.862422     3.854779
      3.847136     3.839492     3.831849     3.824206     3.816563     3.808919     3.801276     3.793633     3.785990     3.778347
      3.770703     3.763060     3.755417     3.747774     3.740130     3.732487     3.724844     3.717201     3.709558     3.701914
      3.694271     3.686628     3.678985     3.671341     3.663698     3.656055     3.648412     3.640769     3.633125     3.625482
      3.617839     3.610196     3.602552     3.594909     3.587266     3.579623     3.571980     3.564336     3.556693     3.549050
      3.541407     3.533763     3.526120     3.518477     3.510834     3.503191     3.495547     3.487904     3.480261     3.472618
      3.464974     3.457331     3.449688     3.442045     3.434402     3.426758     3.419115     3.411472     3.403829     3.396185
      3.388542     3.380899     3.373256     3.365613     3.357969     3.350326     3.342683     3.335040     3.327396     3.319753
      3.312110     3.304467     3.296824     3.289180     3.281537     3.273894     3.266251     3.258607     3.250964     3.243321
      3.235678     3.228034     3.220391     3.212748     3.205105     3.197462     3.189818     3.182175     3.174532     3.166889
      3.159245     3.151602     3.143959     3.136316     3.128673     3.121029     3.113386     3.105743     3.098100     3.090456
      3.082813     3.075170     3.067527     3.059884     3.052240     3.044597     3.036954     3.029311     3.021667     3.014024
      3.006381     2.998738     2.991095     2.983451     2.975808     2.968165     2.960522     2.952878     2.945235     2.937592
      2.929949     2.922306     2.914662     2.907019     2.899376     2.891733     2.884089     2.876446     2.868803     2.861160
      2.853517     2.845873     2.838230     2.830587     2.822944     2.815300     2.807657     2.800014     2.792371     2.784728
      2.777084     2.769441     2.761798     2.754155     2.746511     2.738868     2.731225     2.723582     2.715939     2.708295
      2.700652     2.693009     2.685366     2.677722     2.670079     2.662436     2.654793     2.647150     2.639506     2.631863
      2.624220     2.616577     2.608933     2.601290     2.593647     2.586004     2.578361     2.570717     2.563074     2.555431
      2.547788     2.540144     2.532501     2.524858     2.517215     2.509572     2.501928     2.494285     2.486642     2.478999
      2.471355     2.463712     2.456069     2.448426     2.440783     2.433139     2.425496     2.417853     2.410210     2.402566
      2.394923     2.387280     2.379637     2.371994     2.364350     2.356707     2.349064     2.341421     2.333777     2.326134
      2.318491     2.310848     2.303205     2.295561     2.287918     2.280275     2.272632     2.264988     2.257345     2.249702
      2.242059     2.234416     2.226772     2.219129     2.211486     2.203843     2.196199     2.188556     2.180913     2.173270
      2.165627     2.157983     2.150340     2.142697     2.135054     2.127410     2.119767     2.112124     2.104481     2.096838
      2.089194     2.081551     2.073908     2.066265     2.058621     2.050978     2.043335     2.035692     2.028049     2.020405
      2.012762     2.005119     1.997476     1.989833     1.982190     1.974546     1.966903     1.959260     1.951617     1.943974
      1.936331     1.928688     1.921045     1.913402     1.905759     1.898115     1.890472     1.882829     1.875186     1.867543
      1.859900     1.852257     1.844614     1.836971     1.829327     1.821684     1.814041     1.806398     1.798755     1.791112
      1.783469     1.775826     1.768183     1.760540     1.752896     1.745253     1.737610     1.729967     1.722324     1.714681
      1.707038     1.699395     1.691752     1.684108     1.676465     1.668822     1.661179     1.653536     1.645893     1.638250
      1.630607     1.622964     1.615321     1.607677     1.600034     1.592391     1.584748     1.577105     1.569462     1.561819
      1.554176     1.546533     1.538890     1.531246     1.523603     1.515960     1.508317     1.500674     1.493031     1.485388
      1.477745     1.470102     1.462458     1.454815     1.447172     1.439529     1.431886     1.424243     1.416600     1.408957
      1.401314     1.393671     1.386027     1.378384     1.370741     1.363098     1.355455     1.347812     1.340169     1.332526
      1.324883     1.317240     1.309596     1.301953     1.294310     1.286667     1.279024     1.271381     1.263738     1.256095
      1.248452     1.240808     1.233165     1.225522     1.217879     1.210236     1.202593     1.194950     1.187307     1.179664
      1.172021     1.164377     1.156734     1.149091     1.141448     1.133805     1.126162     1.118519     1.110876     1.103233
      1.095590     1.087946     1.080303     1.072660     1.065017     1.057374     1.049731     1.042088     1.034445     1.026802
      1.019158     1.011515     1.003872     0.996229     0.988586     0.980943     0.973300     0.965657     0.958014     0.950371
      0.942727     0.935084     0.927441     0.919798     0.912155     0.904512     0.896869     0.889226     0.881583     0.873940
      0.866296     0.858653     0.851010     0.843367     0.835724     0.828081     0.820438     0.812795     0.805152     0.797508
      0.789865     0.782222     0.774579     0.766936     0.759293     0.751650     0.744007     0.736364     0.728721     0.721077
      0.713434     0.705791     0.698148     0.690505     0.682862     0.675219     0.667576     0.659933     0.652290     0.644646
      0.637003     0.629360     0.621717     0.614074     0.606431     0.598788     0.591145     0.583502     0.575858     0.568215
      0.560572     0.552929     0.545286     0.537643     0.530000     0.522357     0.514714     0.507071     0.499427     0.491784
      0.484141     0.476498     0.468855     0.461212     0.453569     0.445925     0.438282     0.430639     0.422996     0.415353
      0.407710     0.400067     0.392424     0.384780     0.377137     0.369494     0.361851     0.354208     0.346565     0.338922
      0.331278     0.323635     0.315992     0.308349     0.300706     0.293063     0.285420     0.277777     0.270133     0.262490
      0.254847     0.247204     0.239561     0.231918     0.224275     0.216631     0.208988     0.201345
 NY phased data points follow
  -9.75989E-02  1.80430E+01 -4.33522E+00  2.35481E+00 -2.95497E+01 -1.42506E+01 -3.56546E+00  2.96459E+00  1.90824E+00  4.35661E+00
   5.07663E-01  3.95913E+00 -1.00916E+01  1.97605E+01 -1.52600E+01  1.55485E+01  5.69113E-01 -5.36054E+00 -1.30906E+01 -2.08972E+01
  -5.65468E+00  1.80088E+01 -6.72271E+00  2.00730E+01  4.54594E+00  5.22417E+00 -2.07021E+01 -1.49031E+00 -1.73224E+01 -8.02614E+00
  -1.42090E+01  1.06531E+01 -2.32537E+00 -5.18005E+00 -5.55345E+00  6.64540E-01  7.77708E+00  4.56269E+00 -8.86560E+00 -2.02045E+01
  -4.74172E+01 -7.61771E+00  1.06936E+01  1.40815E+01 -4.45637E+00  3.15813E+00 -8.48800E+00 -8.68867E-01 -1.69600E+01  1.43635E+00
  -1.05713E+01 -2.43872E+00  1.16615E+01  5.11488E+00 -1.04028E+01 -6.26646E+00 -3.11128E+00  2.64456E+01  6.86195E+00 -2.79580E+00
   3.09019E+00 -2.49247E+01 -2.14672E-01 -1.14538E+01 -6.69552E+00  2.29819E+01 -4.44065E+00 -3.25476E+00 -1.34990E+01  2.68383E+01
   6.81632E-01 -5.74964E+00 -1.29612E+01 -1.37795E+01 -3.11596E+01  9.89379E+00 -2.12733E+00  1.29268E+01 -2.38681E+01  1.82212E+01
  -3.61005E+00 -3.22587E+00 -5.92052E+00  1.36396E+01 -8.58277E+00  1.23305E+01 -6.23620E+00 -1.15840E+01  1.28620E+01  2.26322E+01
  -1.15561E+01 -1.70150E+00 -1.64324E+01  1.08068E+01 -9.20815E+00  7.12046E+00  2.45703E+01 -1.56315E+01 -2.11172E+01 -5.72988E+00
  -5.68281E+00  6.96586E+00  6.81066E+00  3.60000E+01 -7.74067E+00 -3.12578E+00 -1.26081E+01 -1.67478E+01 -3.14773E+01 -9.33777E+00
  -1.23803E+01  6.98789E+00 -1.75423E+01 -4.09525E+00 -1.37502E+01 -2.16166E+01 -1.39751E+01 -1.63632E+01 -4.59954E+00  1.49806E+01
  -1.25694E+01 -1.48713E+01 -2.48887E+01 -6.75578E-01 -3.80592E+00  3.03453E+01  2.58517E+00  2.74953E+01  6.87904E+00  1.55240E+01
  -1.08804E+01  4.20633E+00 -1.08841E+00 -2.40382E+01  1.53118E+01 -1.43761E+01 -1.33267E+01  1.09572E+00  5.03508E+00  2.90766E+00
  -1.33005E+01  3.70904E+00  6.50761E+00 -1.76494E+01  4.48936E+00 -9.30213E+00 -1.16803E+01 -2.20656E+01 -1.01836E+01  1.01136E+01
  -2.49790E+01  3.98240E+00 -2.20944E+01  1.01839E+01 -2.09657E+01 -7.48896E+00 -8.30448E+00  1.51767E+01 -5.91405E+00 -7.33778E+00
  -8.92526E+00 -2.19817E+00 -2.97948E+01 -1.27996E+01 -4.22389E+00  7.36272E+00 -2.91082E+00  6.18994E+00 -3.14820E+01 -1.97006E+00
  -2.22939E+01  2.65285E+00 -1.03621E+01 -7.88626E+00 -1.45803E+01 -1.15234E+01 -5.55321E+00 -7.59301E-01 -1.75325E+01  9.64742E-01
  -1.05760E+01 -2.10627E+00 -1.15411E+01 -1.69772E+01 -1.33616E+00 -1.40933E+01 -1.19640E+01  1.86719E+01 -2.64471E+01 -2.95588E+00
  -1.24512E+01 -1.71081E+01 -5.45709E+00  7.10823E+00  1.44670E+01 -1.99511E+01 -1.60775E+01 -6.52062E+00 -1.28986E+01 -4.14826E+00
  -1.88544E+01 -2.24613E+01  9.24292E-01  2.92449E+00 -2.97865E+01 -1.34504E+01 -1.03027E+01  7.50745E+00 -1.39889E+01 -7.85567E+00
  -1.74725E+01 -3.96973E+00 -2.22234E+01 -3.28439E-03 -1.37250E+01  1.04008E+00 -2.17890E+01  1.62866E+01  7.06718E+00 -1.45576E+01
  -2.23125E+01 -1.41765E+01 -1.65365E+01  5.41803E+00  1.37116E+00  1.55452E+01 -1.32293E+00  1.48613E+01 -3.11297E+01  1.88957E+01
  -7.15102E+00 -1.69984E+01  1.46892E+01 -1.68619E+01  3.25641E+00  5.70869E+00  2.32541E+01 -1.89014E+01 -1.05093E+01  9.12247E+00
   9.30072E+00  2.09604E+01  1.12105E+01 -6.40998E+00  3.78313E+00  1.84054E+01 -3.89380E+00  2.14049E+01  1.74882E+01  2.31315E+01
  -1.02049E+01  2.28393E+01  1.52725E+01  3.11952E+01  2.68029E+01  2.98540E+01  1.33114E+01  2.53839E+01  3.64413E+01  4.68947E+01
   4.58734E+01  4.32287E+01  4.18168E+01  2.43506E+01  1.71124E+01  5.45885E+00  1.38700E+01  1.39409E+01  2.72724E+01  9.61287E+00
   7.34954E+00 -1.24658E+01 -2.40276E+01  2.94787E+01 -2.27053E+00  2.07975E+00  1.15875E+01  2.39992E+01  2.08303E+01  3.29454E+01
   1.66379E+01  1.87462E+01  9.31516E+00  5.39261E-01  8.39119E+00  5.06409E+00  1.03152E+01  1.20463E+01 -1.17484E+01  1.57269E+01
  -8.53296E+00  6.63113E+00 -2.14332E+01  1.75352E+01 -7.57212E+00 -1.05300E+01  7.37363E+00 -1.17995E+01 -1.43324E+01 -1.55359E+01
  -7.00395E-01  2.14069E+01 -2.31555E+00  3.24509E+00 -2.59251E+01 -1.41654E+01 -1.60051E+01 -1.03652E+01 -2.16545E+01 -1.19053E+01
  -3.05061E+01 -1.59967E+00 -8.94219E+00  3.30408E+00 -2.21902E+01 -1.28350E+01 -1.58426E+01  3.66069E+00 -2.13396E+01 -5.99503E+00
  -6.25148E+00 -1.00574E+01 -2.03261E+01 -1.30464E+01 -5.36085E+00 -8.18050E+00  7.59377E+00  3.09043E+01 -9.37368E+00 -1.83188E+01
  -8.97752E+00 -7.61623E+00 -9.47364E+00 -1.85982E+01  2.33391E+01  3.78872E+00  2.83715E+01  2.69036E+01  4.70020E+00  8.45338E+00
   4.00669E+01 -7.23073E+00 -1.78639E+01  1.16058E+01 -4.18233E+01 -1.98907E+01  1.50405E+00  5.67930E+00  1.65921E+01  2.05826E+01
  -2.09265E+00  1.61609E+01  1.16819E+01  1.18289E+01  3.43509E+01  5.65789E+00  7.50622E+00 -6.07751E+00 -1.39774E+00  1.24161E+01
  -5.64807E+00  1.86404E+01 -9.20525E-01 -1.02751E+00 -1.26566E+01 -3.57881E+00  1.18175E+01  1.39764E+01  1.10547E+01  1.09488E+01
   6.03575E+00  1.29686E+01  9.81780E+00  1.37871E+01  1.02353E+01 -1.42264E+00 -1.34499E+00 -4.84412E+00 -8.61993E+00 -1.04604E+01
   2.74966E+00  5.34251E+00 -1.25946E+01  1.11597E+01 -1.69383E+01 -2.15964E+01 -5.30052E+00  5.30804E+00 -9.17833E+00  9.52720E+00
  -6.07610E-02 -2.01192E+01 -9.47553E+00 -1.80335E+01 -9.26714E+00  3.70968E+00  4.48837E+00  4.62967E+00 -1.01202E+00 -3.87925E-01
   5.46361E+00  2.66271E+00 -1.70219E+01 -2.02426E+00 -2.29837E+00 -8.43092E+00  6.87036E+00  8.00336E+00 -8.09031E+00 -9.66230E+00
  -1.23117E+01  2.16698E-01  9.93511E-01 -2.14827E+01  1.69736E+00 -3.37947E+00 -1.46987E-01 -6.86859E-01 -6.25459E+00  8.94927E+00
   7.13124E+00 -4.11875E-01  1.09052E+01 -1.96587E+01  1.09067E+01  7.35519E+00 -1.09161E+01 -5.52891E+00 -4.20782E+00 -1.03242E+01
  -1.78726E+00  6.72642E+00  7.68739E+00 -1.57632E+01  1.11673E+00 -1.49165E+00 -9.13760E+00  4.13023E+00 -2.02720E+01 -1.75624E+01
   1.12936E+01 -1.94863E+01  4.84424E+00  1.03572E+01 -8.52377E+00  1.19167E+01  4.34300E+00 -1.28042E+01  1.29390E+01 -7.07223E+00
  -1.45841E+01  7.37119E+00  1.71194E+01  5.30001E+00 -3.42383E+00 -2.72608E+01  1.29086E+01 -1.71704E+01 -1.83249E+01  1.29672E+01
   1.89123E+00 -1.59596E+01 -2.05908E+01  1.42843E+01  2.23535E+00 -1.00065E+00  8.54655E+00  7.36724E+00  1.76483E+01  6.55517E-01
  -8.34485E+00 -1.39365E+01  9.88239E+00  8.22513E+00  2.26315E+00  1.51387E+01 -1.44053E+00 -8.78807E+00 -1.88471E+01 -1.27264E+01
   2.89610E+00 -7.49822E+00 -2.56755E+00  1.28315E+01 -2.09376E+00  2.89467E+00 -4.18492E+00  1.63037E+00 -5.59250E+00  3.23242E+00
   6.25959E+00  2.49185E+01  1.15816E+00  7.07814E+00 -2.03517E+01  2.89482E+01 -1.92344E+00  1.18358E+01
 NY points of the fit to the data follow
  -4.67850E+00 -4.62204E+00 -4.51663E+00 -4.53812E+00 -5.06956E+00 -3.99663E+00 -1.21272E+00  1.94085E+00  4.85229E+00  6.79634E+00
   6.51911E+00  4.24717E+00  1.58392E+00 -6.32630E-01 -2.70581E+00 -3.92367E+00 -4.75041E+00 -5.26074E+00 -5.24910E+00 -4.94714E+00
  -4.36606E+00 -3.08552E+00 -1.27671E+00  1.11603E-01 -1.66567E-01 -1.92276E+00 -4.47331E+00 -7.18700E+00 -9.45343E+00 -1.01759E+01
  -8.33738E+00 -4.71242E+00 -1.31053E+00  7.54110E-01  9.43763E-01 -7.19494E-01 -2.85601E+00 -4.51987E+00 -5.46806E+00 -5.53234E+00
  -4.77325E+00 -4.15424E+00 -3.81312E+00 -3.49364E+00 -3.45819E+00 -3.81176E+00 -3.95914E+00 -3.97609E+00 -3.92073E+00 -3.78578E+00
  -3.65046E+00 -3.63702E+00 -3.68095E+00 -3.74403E+00 -3.85951E+00 -4.00810E+00 -4.11981E+00 -4.19977E+00 -4.24769E+00 -4.26445E+00
  -4.25760E+00 -4.24529E+00 -4.21164E+00 -4.08492E+00 -3.99190E+00 -3.90836E+00 -3.85738E+00 -3.92391E+00 -4.10046E+00 -4.23248E+00
  -4.39211E+00 -4.47788E+00 -4.14610E+00 -3.54506E+00 -3.12154E+00 -2.94606E+00 -3.07450E+00 -3.57495E+00 -4.13008E+00 -4.39425E+00
  -4.44593E+00 -4.51585E+00 -4.16269E+00 -3.22284E+00 -2.27986E+00 -1.77787E+00 -1.70813E+00 -2.05661E+00 -2.66130E+00 -3.16804E+00
  -3.50683E+00 -3.87528E+00 -4.17925E+00 -4.46409E+00 -4.73484E+00 -4.56176E+00 -4.11935E+00 -4.31879E+00 -5.30875E+00 -2.71921E+00
   3.08423E+00  8.26153E+00  1.07466E+01  1.07751E+01  7.91659E+00  3.33749E+00 -4.70903E-01 -2.62818E+00 -3.91621E+00 -3.80263E+00
  -3.59618E+00 -3.62292E+00 -3.64876E+00 -3.67702E+00 -3.66229E+00 -3.61902E+00 -3.61279E+00 -3.65290E+00 -3.66266E+00 -3.67148E+00
  -3.81154E+00 -4.72711E+00 -6.60840E+00 -3.56823E+00  4.74540E+00  1.27844E+01  1.69675E+01  1.75520E+01  1.39735E+01  7.47542E+00
   1.74262E+00 -1.67043E+00 -3.79777E+00 -3.90904E+00 -3.63976E+00 -3.68941E+00 -3.67494E+00 -3.55502E+00 -3.47328E+00 -3.49201E+00
  -3.56805E+00 -3.67103E+00 -3.66685E+00 -3.53146E+00 -3.38527E+00 -3.30664E+00 -3.31958E+00 -3.39659E+00 -3.49690E+00 -3.49136E+00
  -3.53478E+00 -3.81473E+00 -4.15936E+00 -4.40665E+00 -4.44730E+00 -4.02045E+00 -3.31865E+00 -3.02464E+00 -3.51588E+00 -4.38690E+00
  -5.31993E+00 -5.72605E+00 -5.32499E+00 -4.58709E+00 -4.03245E+00 -3.82980E+00 -4.31347E+00 -5.20174E+00 -5.77836E+00 -5.74594E+00
  -5.34597E+00 -4.80222E+00 -4.70585E+00 -5.51001E+00 -6.40806E+00 -6.68219E+00 -6.28764E+00 -5.58386E+00 -5.22414E+00 -5.56982E+00
  -6.02866E+00 -6.00513E+00 -5.42241E+00 -4.80535E+00 -4.45766E+00 -4.22644E+00 -3.92852E+00 -3.53154E+00 -2.81783E+00 -1.93054E+00
  -1.42449E+00 -1.51991E+00 -1.93853E+00 -2.26311E+00 -2.41047E+00 -2.39421E+00 -2.26852E+00 -2.13700E+00 -2.16474E+00 -2.48802E+00
  -2.49866E+00 -2.00163E+00 -1.21114E+00 -4.72326E-01 -1.80648E-01 -5.55458E-01 -1.79831E+00 -3.57657E+00 -5.05992E+00 -6.20150E+00
  -6.98141E+00 -7.13930E+00 -5.10933E+00 -1.54617E+00  1.57261E+00  3.20079E+00  3.24412E+00  1.77198E+00 -1.35966E+00 -5.74332E+00
  -9.52179E+00 -1.10391E+01 -1.00451E+01 -7.47808E+00 -4.21230E+00 -1.17322E+00  7.07499E-01  1.19278E+00  5.18926E-01 -6.76155E-01
  -1.67269E+00 -1.99083E+00 -1.66093E+00 -8.84137E-01 -2.92372E-01  7.67153E-02  2.66500E-01  6.09277E-02 -4.74297E-01 -1.50349E+00
  -2.56004E+00 -2.90891E+00 -2.38470E+00 -1.46568E+00 -3.11374E-01  8.58516E-01  1.42791E+00  1.06331E+00  1.84780E-01 -8.16224E-01
  -2.57282E+00 -4.54416E+00  1.47574E+00  1.39350E+01  2.42045E+01  2.55982E+01  2.27384E+01  2.85239E+01  3.94881E+01  4.79232E+01
   5.06305E+01  4.67959E+01  3.56772E+01  2.05302E+01  9.00466E+00  2.26649E+00 -1.48992E+00 -9.77868E-01 -8.67304E-01 -1.21016E+00
  -1.33298E+00 -1.09251E+00 -6.86361E-01 -3.63810E-01 -3.08987E-01 -4.76758E-01 -8.08864E-01 -1.21628E+00 -1.59622E+00 -1.80281E+00
  -1.80616E+00 -1.72362E+00 -1.60553E+00 -1.47769E+00 -1.40643E+00 -1.41414E+00 -1.48437E+00 -1.64173E+00 -1.78630E+00 -1.79392E+00
  -1.69096E+00 -1.55476E+00 -1.39562E+00 -1.25974E+00 -1.18821E+00 -1.21164E+00 -1.29772E+00 -1.39313E+00 -1.44102E+00 -1.44394E+00
  -1.39340E+00 -1.30363E+00 -1.21564E+00 -1.14638E+00 -1.09238E+00 -1.06723E+00 -1.04913E+00 -1.03136E+00 -1.01383E+00 -9.92500E-01
  -9.67773E-01 -9.39685E-01 -9.06387E-01 -8.65223E-01 -8.14067E-01 -7.48881E-01 -6.65013E-01 -5.57726E-01 -4.22947E-01 -2.59172E-01
  -8.10992E-02  1.60965E-02  6.94246E-02  2.68790E+00  7.51404E+00  9.82255E+00  8.00881E+00  3.74782E+00 -1.74609E+00 -7.38227E+00
  -1.25259E+01 -1.62327E+01 -1.53598E+01 -9.73896E+00 -2.79000E+00  2.92900E+00  7.18169E+00  8.31643E+00  6.75173E+00  4.67620E+00
   2.77512E+00  1.32628E+00  1.08546E+00  1.06083E+00  1.14843E+00  1.39913E+00  1.83600E+00  2.47134E+00  3.30248E+00  4.30585E+00
   5.43115E+00  6.60116E+00  7.71610E+00  8.66599E+00  9.34630E+00  9.67642E+00  9.61337E+00  9.16027E+00  8.36467E+00  7.31025E+00
   6.10101E+00  4.84480E+00  3.63656E+00  2.54788E+00  1.62140E+00  8.72962E-01  2.96375E-01 -1.28374E-01 -4.28815E-01 -6.33452E-01
  -7.68566E-01 -8.55182E-01 -9.09189E-01 -9.41114E-01 -9.58105E-01 -9.64292E-01 -9.62339E-01 -9.53102E-01 -9.36832E-01 -9.12862E-01
  -8.80816E-01 -8.39961E-01 -7.89863E-01 -7.29456E-01 -6.57921E-01 -5.74153E-01 -4.77753E-01 -3.68209E-01 -2.45529E-01 -1.09423E-01
   3.97169E-02  2.01323E-01  3.73755E-01  5.55209E-01  7.43105E-01  9.34884E-01  1.12708E+00  1.31604E+00  1.49727E+00  1.66661E+00
   1.81969E+00  1.95285E+00  2.06231E+00  2.14511E+00  2.19857E+00  2.22137E+00  2.21290E+00  2.17391E+00  2.10553E+00  2.00998E+00
   1.88985E+00  1.74886E+00  1.59086E+00  1.42021E+00  1.24075E+00  1.05650E+00  8.70934E-01  6.87644E-01  5.09406E-01  3.38748E-01
   1.77129E-01  2.59025E-02 -1.14296E-01 -2.42739E-01 -3.59497E-01 -4.64684E-01 -5.59126E-01 -6.43341E-01 -7.18185E-01 -7.84122E-01
  -8.42130E-01 -8.92910E-01 -9.37547E-01 -9.76566E-01 -1.01070E+00 -1.04025E+00 -1.06596E+00 -1.08825E+00 -1.10781E+00 -1.12474E+00
  -1.13941E+00 -1.15186E+00 -1.16260E+00 -1.17176E+00 -1.17975E+00 -1.18641E+00 -1.19197E+00 -1.19635E+00 -1.19997E+00 -1.20281E+00
  -1.20512E+00 -1.20663E+00 -1.20753E+00 -1.20776E+00 -1.20765E+00 -1.20711E+00 -1.20628E+00 -1.20488E+00 -1.20315E+00 -1.20100E+00
  -1.19875E+00 -1.19622E+00 -1.19351E+00 -1.19036E+00 -1.18702E+00 -1.18342E+00 -1.17984E+00 -1.17604E+00 -1.17209E+00 -1.16779E+00
  -1.16342E+00 -1.15891E+00 -1.15445E+00 -1.14975E+00 -1.14495E+00 -1.13985E+00 -1.13478E+00 -1.12961E+00 -1.12451E+00 -1.11918E+00
  -1.11375E+00 -1.10811E+00 -1.10256E+00 -1.09693E+00 -1.09135E+00 -1.08552E+00 -1.07962E+00 -1.07358E+00 -1.06766E+00 -1.06167E+00
  -1.05569E+00 -1.04944E+00 -1.04318E+00 -1.03682E+00 -1.03060E+00 -1.02427E+00 -1.01791E+00 -1.01129E+00
 NY background values follow
    -5.012E+00   -5.004E+00   -4.997E+00   -4.989E+00   -4.981E+00   -4.973E+00   -4.965E+00   -4.957E+00   -4.949E+00   -4.942E+00
    -4.934E+00   -4.926E+00   -4.918E+00   -4.910E+00   -4.902E+00   -4.895E+00   -4.887E+00   -4.879E+00   -4.871E+00   -4.863E+00
    -4.855E+00   -4.848E+00   -4.840E+00   -4.832E+00   -4.824E+00   -4.816E+00   -4.808E+00   -4.800E+00   -4.793E+00   -4.785E+00
    -4.777E+00   -4.769E+00   -4.761E+00   -4.753E+00   -4.746E+00   -4.738E+00   -4.730E+00   -4.722E+00   -4.714E+00   -4.706E+00
    -4.699E+00   -4.691E+00   -4.683E+00   -4.675E+00   -4.667E+00   -4.659E+00   -4.651E+00   -4.644E+00   -4.636E+00   -4.628E+00
    -4.620E+00   -4.612E+00   -4.604E+00   -4.597E+00   -4.589E+00   -4.581E+00   -4.573E+00   -4.565E+00   -4.557E+00   -4.550E+00
    -4.542E+00   -4.534E+00   -4.526E+00   -4.518E+00   -4.510E+00   -4.502E+00   -4.495E+00   -4.487E+00   -4.479E+00   -4.471E+00
    -4.463E+00   -4.455E+00   -4.448E+00   -4.440E+00   -4.432E+00   -4.424E+00   -4.416E+00   -4.408E+00   -4.400E+00   -4.393E+00
    -4.385E+00   -4.377E+00   -4.369E+00   -4.361E+00   -4.353E+00   -4.346E+00   -4.338E+00   -4.330E+00   -4.322E+00   -4.314E+00
    -4.306E+00   -4.299E+00   -4.291E+00   -4.283E+00   -4.275E+00   -4.267E+00   -4.259E+00   -4.251E+00   -4.244E+00   -4.236E+00
    -4.228E+00   -4.220E+00   -4.212E+00   -4.204E+00   -4.197E+00   -4.189E+00   -4.181E+00   -4.173E+00   -4.165E+00   -4.157E+00
    -4.150E+00   -4.142E+00   -4.134E+00   -4.126E+00   -4.118E+00   -4.110E+00   -4.102E+00   -4.095E+00   -4.087E+00   -4.079E+00
    -4.071E+00   -4.063E+00   -4.055E+00   -4.048E+00   -4.040E+00   -4.032E+00   -4.024E+00   -4.016E+00   -4.008E+00   -4.000E+00
    -3.993E+00   -3.985E+00   -3.977E+00   -3.969E+00   -3.961E+00   -3.953E+00   -3.946E+00   -3.938E+00   -3.930E+00   -3.922E+00
    -3.914E+00   -3.906E+00   -3.899E+00   -3.891E+00   -3.883E+00   -3.875E+00   -3.867E+00   -3.859E+00   -3.851E+00   -3.844E+00
    -3.836E+00   -3.828E+00   -3.820E+00   -3.812E+00   -3.804E+00   -3.797E+00   -3.789E+00   -3.781E+00   -3.773E+00   -3.765E+00
    -3.757E+00   -3.749E+00   -3.742E+00   -3.734E+00   -3.726E+00   -3.718E+00   -3.710E+00   -3.702E+00   -3.695E+00   -3.687E+00
    -3.679E+00   -3.671E+00   -3.663E+00   -3.655E+00   -3.648E+00   -3.640E+00   -3.632E+00   -3.624E+00   -3.616E+00   -3.608E+00
    -3.600E+00   -3.593E+00   -3.585E+00   -3.577E+00   -3.569E+00   -3.561E+00   -3.553E+00   -3.546E+00   -3.538E+00   -3.530E+00
    -3.522E+00   -3.514E+00   -3.506E+00   -3.498E+00   -3.491E+00   -3.483E+00   -3.475E+00   -3.467E+00   -3.459E+00   -3.451E+00
    -3.444E+00   -3.436E+00   -3.428E+00   -3.420E+00   -3.412E+00   -3.404E+00   -3.397E+00   -3.389E+00   -3.381E+00   -3.373E+00
    -3.365E+00   -3.357E+00   -3.349E+00   -3.342E+00   -3.334E+00   -3.326E+00   -3.318E+00   -3.310E+00   -3.302E+00   -3.295E+00
    -3.287E+00   -3.279E+00   -3.271E+00   -3.263E+00   -3.255E+00   -3.247E+00   -3.240E+00   -3.232E+00   -3.224E+00   -3.216E+00
    -3.208E+00   -3.200E+00   -3.193E+00   -3.185E+00   -3.177E+00   -3.169E+00   -3.161E+00   -3.153E+00   -3.145E+00   -3.138E+00
    -3.130E+00   -3.122E+00   -3.114E+00   -3.106E+00   -3.098E+00   -3.091E+00   -3.083E+00   -3.075E+00   -3.067E+00   -3.059E+00
    -3.051E+00   -3.044E+00   -3.036E+00   -3.028E+00   -3.020E+00   -3.012E+00   -3.004E+00   -2.996E+00   -2.989E+00   -2.981E+00
    -2.973E+00   -2.965E+00   -2.957E+00   -2.949E+00   -2.942E+00   -2.934E+00   -2.926E+00   -2.918E+00   -2.910E+00   -2.902E+00
    -2.894E+00   -2.887E+00   -2.879E+00   -2.871E+00   -2.863E+00   -2.855E+00   -2.847E+00   -2.840E+00   -2.832E+00   -2.824E+00
    -2.816E+00   -2.808E+00   -2.800E+00   -2.792E+00   -2.785E+00   -2.777E+00   -2.769E+00   -2.761E+00   -2.753E+00   -2.745E+00
    -2.738E+00   -2.730E+00   -2.722E+00   -2.714E+00   -2.706E+00   -2.698E+00   -2.691E+00   -2.683E+00   -2.675E+00   -2.667E+00
    -2.659E+00   -2.651E+00   -2.643E+00   -2.636E+00   -2.628E+00   -2.620E+00   -2.612E+00   -2.604E+00   -2.596E+00   -2.589E+00
    -2.581E+00   -2.573E+00   -2.565E+00   -2.557E+00   -2.549E+00   -2.541E+00   -2.534E+00   -2.526E+00   -2.518E+00   -2.510E+00
    -2.502E+00   -2.494E+00   -2.487E+00   -2.479E+00   -2.471E+00   -2.463E+00   -2.455E+00   -2.447E+00   -2.439E+00   -2.432E+00
    -2.424E+00   -2.416E+00   -2.408E+00   -2.400E+00   -2.392E+00   -2.385E+00   -2.377E+00   -2.369E+00   -2.361E+00   -2.353E+00
    -2.345E+00   -2.338E+00   -2.330E+00   -2.322E+00   -2.314E+00   -2.306E+00   -2.298E+00   -2.290E+00   -2.283E+00   -2.275E+00
    -2.267E+00   -2.259E+00   -2.251E+00   -2.243E+00   -2.236E+00   -2.228E+00   -2.220E+00   -2.212E+00   -2.204E+00   -2.196E+00
    -2.188E+00   -2.181E+00   -2.173E+00   -2.165E+00   -2.157E+00   -2.149E+00   -2.141E+00   -2.134E+00   -2.126E+00   -2.118E+00
    -2.110E+00   -2.102E+00   -2.094E+00   -2.086E+00   -2.079E+00   -2.071E+00   -2.063E+00   -2.055E+00   -2.047E+00   -2.039E+00
    -2.032E+00   -2.024E+00   -2.016E+00   -2.008E+00   -2.000E+00   -1.992E+00   -1.985E+00   -1.977E+00   -1.969E+00   -1.961E+00
    -1.953E+00   -1.945E+00   -1.937E+00   -1.930E+00   -1.922E+00   -1.914E+00   -1.906E+00   -1.898E+00   -1.890E+00   -1.883E+00
    -1.875E+00   -1.867E+00   -1.859E+00   -1.851E+00   -1.843E+00   -1.835E+00   -1.828E+00   -1.820E+00   -1.812E+00   -1.804E+00
    -1.796E+00   -1.788E+00   -1.781E+00   -1.773E+00   -1.765E+00   -1.757E+00   -1.749E+00   -1.741E+00   -1.733E+00   -1.726E+00
    -1.718E+00   -1.710E+00   -1.702E+00   -1.694E+00   -1.686E+00   -1.679E+00   -1.671E+00   -1.663E+00   -1.655E+00   -1.647E+00
    -1.639E+00   -1.631E+00   -1.624E+00   -1.616E+00   -1.608E+00   -1.600E+00   -1.592E+00   -1.584E+00   -1.577E+00   -1.569E+00
    -1.561E+00   -1.553E+00   -1.545E+00   -1.537E+00   -1.530E+00   -1.522E+00   -1.514E+00   -1.506E+00   -1.498E+00   -1.490E+00
    -1.482E+00   -1.475E+00   -1.467E+00   -1.459E+00   -1.451E+00   -1.443E+00   -1.435E+00   -1.428E+00   -1.420E+00   -1.412E+00
    -1.404E+00   -1.396E+00   -1.388E+00   -1.380E+00   -1.373E+00   -1.365E+00   -1.357E+00   -1.349E+00   -1.341E+00   -1.333E+00
    -1.326E+00   -1.318E+00   -1.310E+00   -1.302E+00   -1.294E+00   -1.286E+00   -1.278E+00   -1.271E+00   -1.263E+00   -1.255E+00
    -1.247E+00   -1.239E+00   -1.231E+00   -1.224E+00   -1.216E+00   -1.208E+00   -1.200E+00   -1.192E+00   -1.184E+00   -1.176E+00
    -1.169E+00   -1.161E+00   -1.153E+00   -1.145E+00   -1.137E+00   -1.129E+00   -1.122E+00   -1.114E+00
 Ala      Conc. = 5.20E+02
