 LCModel (Version 6.3-1L) Copyright: S.W. Provencher.          Ref.: Magn. Reson. Med. 30:672-679 (1993).                
 Slice#3 Row#2 Col#10  PD_05_press_2_raw_act
 36 lines in following concentration table = NCONC+1
    Conc.  %SD /Cr+PCr  Metabolite                                         
  209.612  65%   1.995 Ala                                                 
    6.430 198% 6.1E-02 Asp                                                 
  105.070  66%   1.000 Cr                                                  
    0.000 999%   0.000 PCr                                                 
    3.773 202% 3.6E-02 GABA                                                
    3.498 219% 3.3E-02 Glc                                                 
    0.000 999%   0.000 Gln                                                 
    0.000 999%   0.000 Glu                                                 
    0.000 999%   0.000 GPC                                                 
    6.680 373% 6.4E-02 PCh                                                 
    0.000 999%   0.000 GSH                                                 
    0.000 999%   0.000 Ins                                                 
   64.784 188%   0.617 Lac                                                 
    0.000 999%   0.000 NAA                                                 
    0.000 999%   0.000 NAAG                                                
    1.194 213% 1.1E-02 Scyllo                                              
    5.829 218% 5.5E-02 Tau                                                 
   30.762 133%   0.293 -CrCH2                                              
    6.680 373% 6.4E-02 GPC+PCh                                             
    0.000 999%   0.000 NAA+NAAG                                            
  105.070  66%   1.000 Cr+PCr                                              
    0.000 999%   0.000 Glu+Gln                                             
 1.97E+03  31%  18.739 Lip13a                                              
    0.000 999%   0.000 Lip13b                                              
  524.368  31%   4.991 Lip09                                               
   88.169 259%   0.839 MM09                                                
  295.693  31%   2.814 Lip20                                               
  303.406 116%   2.888 MM20                                                
   32.408 281%   0.308 MM12                                                
  446.230  68%   4.247 MM14                                                
    0.000 999%   0.000 MM17                                                
 1.97E+03  31%  18.739 Lip13a+Lip13b                                       
 2.45E+03  21%  23.295 MM14+Lip13a+Lip13b+MM12                             
  612.537  33%   5.830 MM09+Lip09                                          
  599.099  54%   5.702 MM20+Lip20                                          
   6 lines in following misc. output table
  FWHM = 0.046 ppm    S/N =   1                                            
  Data shift =-0.038 ppm                                                   
  Ph:-128 deg     -37.1 deg/ppm                                            
  alphaB,S = 8.5E+01,   1.3E+01                                            
   14 spline knots.   Ns = 5(1)                                            
   2 inflections.     2 extrema                                            
  498 points on ppm-axis = NY
      4.000000     3.992357     3.984714     3.977070     3.969427     3.961784     3.954141     3.946497     3.938854     3.931211
      3.923568     3.915925     3.908281     3.900638     3.892995     3.885352     3.877708     3.870065     3.862422     3.854779
      3.847136     3.839492     3.831849     3.824206     3.816563     3.808919     3.801276     3.793633     3.785990     3.778347
      3.770703     3.763060     3.755417     3.747774     3.740130     3.732487     3.724844     3.717201     3.709558     3.701914
      3.694271     3.686628     3.678985     3.671341     3.663698     3.656055     3.648412     3.640769     3.633125     3.625482
      3.617839     3.610196     3.602552     3.594909     3.587266     3.579623     3.571980     3.564336     3.556693     3.549050
      3.541407     3.533763     3.526120     3.518477     3.510834     3.503191     3.495547     3.487904     3.480261     3.472618
      3.464974     3.457331     3.449688     3.442045     3.434402     3.426758     3.419115     3.411472     3.403829     3.396185
      3.388542     3.380899     3.373256     3.365613     3.357969     3.350326     3.342683     3.335040     3.327396     3.319753
      3.312110     3.304467     3.296824     3.289180     3.281537     3.273894     3.266251     3.258607     3.250964     3.243321
      3.235678     3.228034     3.220391     3.212748     3.205105     3.197462     3.189818     3.182175     3.174532     3.166889
      3.159245     3.151602     3.143959     3.136316     3.128673     3.121029     3.113386     3.105743     3.098100     3.090456
      3.082813     3.075170     3.067527     3.059884     3.052240     3.044597     3.036954     3.029311     3.021667     3.014024
      3.006381     2.998738     2.991095     2.983451     2.975808     2.968165     2.960522     2.952878     2.945235     2.937592
      2.929949     2.922306     2.914662     2.907019     2.899376     2.891733     2.884089     2.876446     2.868803     2.861160
      2.853517     2.845873     2.838230     2.830587     2.822944     2.815300     2.807657     2.800014     2.792371     2.784728
      2.777084     2.769441     2.761798     2.754155     2.746511     2.738868     2.731225     2.723582     2.715939     2.708295
      2.700652     2.693009     2.685366     2.677722     2.670079     2.662436     2.654793     2.647150     2.639506     2.631863
      2.624220     2.616577     2.608933     2.601290     2.593647     2.586004     2.578361     2.570717     2.563074     2.555431
      2.547788     2.540144     2.532501     2.524858     2.517215     2.509572     2.501928     2.494285     2.486642     2.478999
      2.471355     2.463712     2.456069     2.448426     2.440783     2.433139     2.425496     2.417853     2.410210     2.402566
      2.394923     2.387280     2.379637     2.371994     2.364350     2.356707     2.349064     2.341421     2.333777     2.326134
      2.318491     2.310848     2.303205     2.295561     2.287918     2.280275     2.272632     2.264988     2.257345     2.249702
      2.242059     2.234416     2.226772     2.219129     2.211486     2.203843     2.196199     2.188556     2.180913     2.173270
      2.165627     2.157983     2.150340     2.142697     2.135054     2.127410     2.119767     2.112124     2.104481     2.096838
      2.089194     2.081551     2.073908     2.066265     2.058621     2.050978     2.043335     2.035692     2.028049     2.020405
      2.012762     2.005119     1.997476     1.989833     1.982190     1.974546     1.966903     1.959260     1.951617     1.943974
      1.936331     1.928688     1.921045     1.913402     1.905759     1.898115     1.890472     1.882829     1.875186     1.867543
      1.859900     1.852257     1.844614     1.836971     1.829327     1.821684     1.814041     1.806398     1.798755     1.791112
      1.783469     1.775826     1.768183     1.760540     1.752896     1.745253     1.737610     1.729967     1.722324     1.714681
      1.707038     1.699395     1.691752     1.684108     1.676465     1.668822     1.661179     1.653536     1.645893     1.638250
      1.630607     1.622964     1.615321     1.607677     1.600034     1.592391     1.584748     1.577105     1.569462     1.561819
      1.554176     1.546533     1.538890     1.531246     1.523603     1.515960     1.508317     1.500674     1.493031     1.485388
      1.477745     1.470102     1.462458     1.454815     1.447172     1.439529     1.431886     1.424243     1.416600     1.408957
      1.401314     1.393671     1.386027     1.378384     1.370741     1.363098     1.355455     1.347812     1.340169     1.332526
      1.324883     1.317240     1.309596     1.301953     1.294310     1.286667     1.279024     1.271381     1.263738     1.256095
      1.248452     1.240808     1.233165     1.225522     1.217879     1.210236     1.202593     1.194950     1.187307     1.179664
      1.172021     1.164377     1.156734     1.149091     1.141448     1.133805     1.126162     1.118519     1.110876     1.103233
      1.095590     1.087946     1.080303     1.072660     1.065017     1.057374     1.049731     1.042088     1.034445     1.026802
      1.019158     1.011515     1.003872     0.996229     0.988586     0.980943     0.973300     0.965657     0.958014     0.950371
      0.942727     0.935084     0.927441     0.919798     0.912155     0.904512     0.896869     0.889226     0.881583     0.873940
      0.866296     0.858653     0.851010     0.843367     0.835724     0.828081     0.820438     0.812795     0.805152     0.797508
      0.789865     0.782222     0.774579     0.766936     0.759293     0.751650     0.744007     0.736364     0.728721     0.721077
      0.713434     0.705791     0.698148     0.690505     0.682862     0.675219     0.667576     0.659933     0.652290     0.644646
      0.637003     0.629360     0.621717     0.614074     0.606431     0.598788     0.591145     0.583502     0.575858     0.568215
      0.560572     0.552929     0.545286     0.537643     0.530000     0.522357     0.514714     0.507071     0.499427     0.491784
      0.484141     0.476498     0.468855     0.461212     0.453569     0.445925     0.438282     0.430639     0.422996     0.415353
      0.407710     0.400067     0.392424     0.384780     0.377137     0.369494     0.361851     0.354208     0.346565     0.338922
      0.331278     0.323635     0.315992     0.308349     0.300706     0.293063     0.285420     0.277777     0.270133     0.262490
      0.254847     0.247204     0.239561     0.231918     0.224275     0.216631     0.208988     0.201345
 NY phased data points follow
  -1.99022E+01 -7.79339E+00 -2.65696E+01 -1.84002E+01 -1.15173E+01  3.28220E-01 -1.69236E+01 -1.78851E+01 -3.60566E+01 -1.15199E+01
   5.19798E-01  2.94189E+00 -1.49603E+01 -2.44570E+01 -1.79627E+01 -6.46807E-01  6.17451E+00 -8.60647E+00 -1.82918E+01 -2.32430E+01
  -1.92565E+01 -1.29233E+01 -6.56311E+00 -3.07345E+00 -8.33500E+00  6.97801E+00 -7.79655E+00 -3.65954E+00 -1.15080E+01 -1.43307E+01
  -1.79309E+01 -5.82417E+00 -1.11932E+01 -5.22855E+00 -2.02661E+01 -1.25003E+01 -1.69842E+01 -1.75432E+01 -1.79555E+01 -2.38555E+01
  -2.75124E+00 -1.33530E+01  4.45917E+00 -9.56809E+00 -1.29153E+01 -1.71633E+01 -7.89389E+00  4.11972E+00 -7.16165E+00 -1.57824E+01
  -5.17735E+00 -9.98797E+00 -1.56753E+01 -6.15872E+00 -2.41794E+01  2.58757E+00 -2.62678E+00 -5.52095E+00 -2.03950E+01 -7.27728E+00
  -8.70865E+00  3.63023E+00 -1.18038E+01 -5.05070E+00 -5.63618E+00 -7.57147E+00 -8.72645E+00 -1.13358E+01 -1.50495E+01 -5.99335E+00
  -1.77570E+00 -8.09922E+00 -1.40127E+01 -2.41705E+01 -8.20503E+00 -7.90663E-01 -1.15311E+01  2.31990E+00 -1.33287E+01 -1.25735E+01
  -1.65836E+01 -1.69557E+00 -1.63112E+01 -3.22022E+00 -5.19027E+00 -3.16738E+00 -4.10248E+00 -8.67436E+00 -8.23316E+00 -4.29213E+00
  -1.71093E+01 -1.21456E+01 -3.00165E+00 -2.01395E+00 -3.99795E+00 -2.85722E+00 -1.97708E+00 -6.33213E-02  1.94614E+00 -1.12526E+01
  -1.57402E+01 -1.16833E+01 -5.52773E+00 -1.11888E+01 -8.33126E+00 -5.60432E-01 -8.08544E+00 -4.75104E+00 -6.00166E+00  3.44115E-01
   4.29970E+00 -4.01723E+00 -2.09286E+00 -2.27665E+01 -9.08910E+00 -8.41668E+00  1.96189E+00  1.71145E+00 -6.85336E+00  3.78202E+00
   1.49468E+00 -1.16579E+01 -3.64451E+00 -4.50833E+00 -1.28064E+01  2.83328E+00 -9.55133E-01 -4.70894E+00  5.40301E+00 -2.42989E+00
  -2.02095E+00  3.59665E+00 -4.97390E+00  6.16966E+00 -4.55136E+00  1.82639E+00 -7.19570E+00 -6.96384E+00  5.73431E+00 -8.64296E+00
  -1.26207E+01  1.71143E-01 -2.79757E+00  3.27978E+00 -1.51411E+01 -6.61350E-01  1.42638E+01 -5.63341E+00 -2.90643E+00 -4.57352E+00
   1.60144E+00 -1.18120E+01 -7.86141E+00 -2.44535E+00 -1.31510E+01 -9.50862E+00 -7.52546E+00 -1.45251E+01 -7.08706E+00 -8.42164E-02
   1.76367E+00  8.84646E+00 -2.71691E+00  1.80950E+00  6.52696E+00 -4.46607E+00 -1.16089E+01  8.05337E-01 -1.47860E+00 -4.61148E+00
  -1.10859E+01 -1.11087E+01  2.92526E+00  5.53366E+00 -2.24769E+00 -2.31962E+00 -3.98677E+00 -2.22415E+00  3.43331E+00 -2.79512E+00
  -7.90967E+00 -1.15424E+01  3.72964E+00 -1.85798E+01 -2.04148E+00 -8.66109E+00  1.01129E+00  1.39835E-01 -3.09335E+00  7.74905E+00
  -4.26587E+00  1.12529E+00  4.25668E+00 -1.88779E+00 -1.12913E+01 -3.08926E+00  2.87576E+00 -4.40684E+00 -1.44303E+00  2.45805E+00
   2.24451E+00  4.69695E+00 -7.33240E+00 -5.43754E+00 -8.04183E+00 -5.15533E+00  7.27989E+00  1.81361E+00 -7.03056E+00  7.95438E+00
   8.22586E+00 -3.86047E+00  3.95310E+00  2.80082E+00  3.37895E+00 -2.69548E+00 -5.59482E+00 -1.00042E+01 -4.92749E+00 -4.76266E+00
   2.76785E+00  5.27351E+00  8.20273E+00 -9.16780E+00  1.05964E+01 -5.08386E+00  3.67382E+00 -1.50206E+00 -1.01263E+01  4.57828E+00
  -1.10455E+00  1.10537E+00  6.23230E-01  1.30717E+01 -5.94593E+00  8.66358E+00 -7.50863E+00 -5.91737E+00  7.85022E-01  4.71790E+00
   1.24463E+00  6.34415E+00 -4.56624E+00  5.24760E+00 -4.74136E+00  2.69805E+00  9.66212E+00  2.89737E-01  3.90751E+00  7.47133E-02
   1.84506E+00  5.91621E+00  9.65602E+00  4.82373E+00 -4.96014E+00  4.26776E+00  2.26634E+00  5.95232E-01 -7.45938E+00  6.61054E+00
  -3.83214E+00  4.41601E+00  8.61362E-01 -3.43168E+00 -1.27706E+01  3.37977E+00  8.73354E-01  3.83070E+00  8.40726E+00  6.05830E+00
   3.91238E+00  5.68322E+00 -2.28893E-01 -3.66447E+00 -2.45111E+00 -5.83392E+00  1.58830E+00 -2.42266E+01  5.58393E+00  1.21604E+01
   1.00627E+01 -4.04461E+00 -7.43658E+00  1.55781E+01 -2.13667E+00 -3.65749E+00 -5.97948E+00 -6.68844E+00 -1.47714E+01  3.11217E+00
  -1.07298E+01 -9.54444E+00  1.03216E+00 -3.81386E+00 -1.44141E+01  3.71191E+00 -2.43149E+00 -7.56530E+00 -1.21961E+01 -8.00373E+00
   3.76631E+00 -1.54299E+01 -7.10107E+00 -5.26125E+00 -5.46294E+00 -5.11837E+00  6.78182E+00 -2.20296E+00 -8.31026E+00 -1.12542E+01
  -5.30120E+00 -2.06609E+01 -1.52396E+01 -1.11260E+01 -1.52073E+00  3.13725E+00 -3.80985E+00  1.96466E+00  6.22958E+00  1.08864E+01
   6.62263E+00 -9.19946E+00 -1.47676E-02 -4.20900E+00  1.31743E+01  1.68049E+01  2.60515E+01  2.46124E+01  1.13630E+01  1.05588E+01
   1.70711E+01  1.24228E+01  5.89639E-01  1.86310E+01  5.79254E+00  2.92948E+00  4.71802E-01  1.89502E+01  9.57522E+00  1.12796E+01
   2.13644E+00  6.87992E+00  1.34121E+00  5.20396E+00  1.19784E+01  1.53217E+00  1.98648E+01  2.61609E+01  1.62025E+01  1.02321E+01
   1.51865E+00  2.23457E+01  1.19061E+01  1.82339E+01  5.37001E+00  3.84792E+00  1.19879E+01 -3.81757E+00  1.87082E+01  6.81813E+00
   8.51252E+00 -6.57900E+00  9.41017E+00  4.70309E+00  2.14222E+00  1.65414E+01  5.02351E+00  1.47582E+01  2.19853E+01  5.55402E+00
   1.66121E+01  7.76233E+00  7.51331E+00  5.77170E+00  1.17764E+01  2.97499E+01  8.53941E+00  1.38150E+01  1.55889E+01  1.96495E+01
   1.22182E+01  9.85261E+00 -9.99673E+00  1.98791E+00  1.43138E-01  2.19424E+00  4.36576E-02 -5.84443E+00 -7.20889E+00 -7.77872E+00
   2.88700E+00 -2.41728E+00  4.60393E+00 -8.00395E+00  4.36729E+00 -1.22661E+01  1.69340E-01 -5.56902E+00 -3.24110E+00  3.69130E+00
   1.65414E+00  3.49004E+00  2.70702E+00 -8.70891E-01  3.84588E+00  1.02370E+01 -5.72005E+00  1.50480E+01  1.14130E+01  4.90039E+00
   8.76610E+00  5.99989E+00  9.73170E+00  1.10658E+01  1.20846E+01  1.43969E+01 -2.15294E+00  3.42794E+00  3.49367E+00 -2.03531E+00
  -1.39936E+00  8.94136E-01  9.00414E+00 -2.25373E-01  4.13122E+00  6.45829E-01  8.71698E+00  6.10274E+00  1.29746E+01  5.82223E+00
  -4.38421E+00  2.92407E+00  2.43329E+00  9.57660E+00  1.81982E+01  6.77599E+00  6.26855E+00  1.36210E+00  8.31139E+00  2.28371E+00
   2.69933E+00 -1.06192E+00  2.04583E+00  5.21675E+00  5.84001E+00 -5.41255E+00  5.62774E+00  4.72105E+00  1.44439E+01  5.25880E+00
  -3.48765E+00  1.36773E+00 -1.39176E+00  1.83477E+00  8.45426E+00  5.10030E+00  3.05244E+00 -1.31816E+00 -2.44278E+00  8.98718E+00
   6.03767E+00 -2.97102E+00  9.98669E+00  8.91384E+00  6.16007E+00  4.16263E+00  4.78175E+00 -7.88494E-01 -1.54957E+00  1.32200E+01
   1.65301E+01  1.83525E+00  4.66713E+00 -5.56915E+00  8.22969E+00 -3.29845E+00 -2.20726E+00  4.15553E+00  7.59172E+00  2.82935E+00
   4.20101E+00 -2.92954E+00  5.61027E+00  6.57673E+00  1.32362E+01  8.63579E+00  7.85190E+00  4.02535E+00 -2.25161E+00  9.64446E+00
   3.81529E+00  5.05200E+00  7.35040E+00  9.72845E-01  3.56690E+00  6.52241E+00 -3.23347E+00  6.42231E+00
 NY points of the fit to the data follow
  -9.41390E+00 -9.39061E+00 -9.33770E+00 -9.22593E+00 -9.02545E+00 -8.95730E+00 -9.40271E+00 -1.01640E+01 -1.04209E+01 -9.82052E+00
  -8.66996E+00 -7.50162E+00 -6.62991E+00 -6.06540E+00 -5.83254E+00 -6.12236E+00 -7.03832E+00 -8.18366E+00 -8.90802E+00 -9.11350E+00
  -9.16266E+00 -9.01060E+00 -8.56222E+00 -7.98736E+00 -7.56579E+00 -7.46950E+00 -7.63430E+00 -7.92780E+00 -8.38354E+00 -9.04873E+00
  -9.67507E+00 -9.92873E+00 -9.67792E+00 -9.15584E+00 -8.61797E+00 -8.10517E+00 -7.62062E+00 -7.28841E+00 -7.24974E+00 -7.51622E+00
  -7.87289E+00 -8.11652E+00 -8.26210E+00 -8.33584E+00 -8.34077E+00 -8.26935E+00 -8.13673E+00 -8.00906E+00 -7.93973E+00 -7.89530E+00
  -7.85741E+00 -7.81962E+00 -7.78131E+00 -7.74308E+00 -7.70560E+00 -7.67081E+00 -7.63946E+00 -7.61043E+00 -7.58427E+00 -7.55920E+00
  -7.53272E+00 -7.50569E+00 -7.47751E+00 -7.44478E+00 -7.40953E+00 -7.37318E+00 -7.33650E+00 -7.30262E+00 -7.27337E+00 -7.24787E+00
  -7.22831E+00 -7.21329E+00 -7.18981E+00 -7.14896E+00 -7.09481E+00 -7.03897E+00 -6.99002E+00 -6.95655E+00 -6.93750E+00 -6.92509E+00
  -6.91630E+00 -6.91577E+00 -6.90722E+00 -6.86651E+00 -6.79633E+00 -6.71496E+00 -6.64278E+00 -6.59154E+00 -6.55687E+00 -6.52891E+00
  -6.50965E+00 -6.50547E+00 -6.51135E+00 -6.51220E+00 -6.50615E+00 -6.49114E+00 -6.46350E+00 -6.43740E+00 -6.47194E+00 -6.55897E+00
  -6.51714E+00 -6.25961E+00 -5.86881E+00 -5.49564E+00 -5.23828E+00 -5.10989E+00 -5.08907E+00 -5.17877E+00 -5.38135E+00 -5.63620E+00
  -5.80527E+00 -5.82985E+00 -5.80833E+00 -5.77725E+00 -5.74223E+00 -5.70214E+00 -5.66035E+00 -5.61996E+00 -5.58095E+00 -5.54622E+00
  -5.53151E+00 -5.63675E+00 -6.19973E+00 -6.80806E+00 -6.47640E+00 -5.00507E+00 -3.00986E+00 -1.26018E+00 -1.73332E-01  2.23991E-01
   1.73229E-02 -8.10698E-01 -2.19744E+00 -3.68763E+00 -4.51181E+00 -4.70262E+00 -4.74289E+00 -4.74161E+00 -4.71975E+00 -4.68986E+00
  -4.65953E+00 -4.63136E+00 -4.60155E+00 -4.56469E+00 -4.52355E+00 -4.48278E+00 -4.44312E+00 -4.40449E+00 -4.36732E+00 -4.33389E+00
  -4.30449E+00 -4.27695E+00 -4.24886E+00 -4.21807E+00 -4.18575E+00 -4.15382E+00 -4.12511E+00 -4.10176E+00 -4.08275E+00 -4.06512E+00
  -4.04726E+00 -4.03032E+00 -4.01725E+00 -4.00649E+00 -3.99317E+00 -3.97482E+00 -3.95348E+00 -3.93279E+00 -3.91300E+00 -3.89398E+00
  -3.87684E+00 -3.86250E+00 -3.85065E+00 -3.83987E+00 -3.82760E+00 -3.81415E+00 -3.80035E+00 -3.78629E+00 -3.77202E+00 -3.75901E+00
  -3.74781E+00 -3.73420E+00 -3.71415E+00 -3.68817E+00 -3.65912E+00 -3.62941E+00 -3.60009E+00 -3.57071E+00 -3.54108E+00 -3.51544E+00
  -3.49613E+00 -3.47910E+00 -3.45880E+00 -3.43388E+00 -3.40436E+00 -3.37101E+00 -3.33432E+00 -3.29438E+00 -3.25214E+00 -3.21012E+00
  -3.17043E+00 -3.13101E+00 -3.09040E+00 -3.04832E+00 -3.00467E+00 -2.95935E+00 -2.91233E+00 -2.86351E+00 -2.81281E+00 -2.76013E+00
  -2.70517E+00 -2.64750E+00 -2.58726E+00 -2.52545E+00 -2.46378E+00 -2.40283E+00 -2.34199E+00 -2.28062E+00 -2.21917E+00 -2.15705E+00
  -2.09044E+00 -2.01467E+00 -1.92999E+00 -1.84186E+00 -1.75628E+00 -1.67603E+00 -1.60261E+00 -1.54111E+00 -1.49414E+00 -1.45508E+00
  -1.41218E+00 -1.35736E+00 -1.29012E+00 -1.21432E+00 -1.13260E+00 -1.04633E+00 -9.58081E-01 -8.72031E-01 -7.89597E-01 -7.07033E-01
  -6.20961E-01 -5.31484E-01 -4.39435E-01 -3.45793E-01 -2.51695E-01 -1.58429E-01 -6.73682E-02  2.00694E-02  1.02465E-01  1.78421E-01
   2.46645E-01  3.06017E-01  3.55664E-01  3.94989E-01  4.23697E-01  4.41787E-01  4.48990E-01  4.45110E-01  4.30776E-01  4.07416E-01
   3.77482E-01  3.43466E-01  3.06673E-01  2.67176E-01  2.25703E-01  1.83191E-01  1.38224E-01  8.92638E-02  3.70434E-02 -1.60768E-02
  -6.69156E-02 -1.13213E-01 -1.53957E-01 -1.87398E-01 -2.12285E-01 -2.29850E-01 -2.43236E-01 -2.55198E-01 -2.66076E-01 -2.75819E-01
  -2.84817E-01 -2.93007E-01 -2.98884E-01 -2.99633E-01 -2.93985E-01 -2.82973E-01 -2.67330E-01 -2.47221E-01 -2.23599E-01 -1.97266E-01
  -1.69101E-01 -1.39902E-01 -1.09405E-01 -7.69791E-02 -4.25705E-02 -6.18871E-03  3.25174E-02  7.37912E-02  1.17631E-01  1.64139E-01
   2.13493E-01  2.65590E-01  3.20597E-01  3.78808E-01  4.40560E-01  5.06223E-01  5.76223E-01  6.51031E-01  7.31187E-01  8.17282E-01
   9.09970E-01  1.00994E+00  1.11790E+00  1.23453E+00  1.36050E+00  1.49634E+00  1.64240E+00  1.79847E+00  1.96299E+00  2.13090E+00
   2.28664E+00  2.37477E+00  2.32057E+00  2.70861E+00  4.11393E+00  6.00469E+00  7.43770E+00  7.88498E+00  7.43529E+00  6.45881E+00
   4.80634E+00  2.24368E+00 -2.23941E-01 -1.20344E+00 -8.12023E-02  2.24568E+00  4.63927E+00  6.77603E+00  8.57354E+00  9.87197E+00
   1.03701E+01  9.97078E+00  9.28107E+00  9.09592E+00  9.46574E+00  1.01281E+01  1.07313E+01  1.10547E+01  1.10863E+01  1.09080E+01
   1.04377E+01  9.69326E+00  9.01583E+00  8.78303E+00  9.13868E+00  9.80638E+00  1.04138E+01  1.08732E+01  1.11675E+01  1.12412E+01
   1.10160E+01  1.05186E+01  9.99471E+00  9.56598E+00  9.17311E+00  8.79117E+00  8.41452E+00  8.04343E+00  7.68025E+00  7.32810E+00
   6.99017E+00  6.66941E+00  6.36829E+00  6.08871E+00  5.83207E+00  5.59929E+00  5.39092E+00  5.20711E+00  5.04770E+00  4.91228E+00
   4.80033E+00  4.71124E+00  4.64443E+00  4.59929E+00  4.57521E+00  4.57163E+00  4.58801E+00  4.62387E+00  4.67872E+00  4.75198E+00
   4.84293E+00  4.95069E+00  5.07417E+00  5.21202E+00  5.36258E+00  5.52376E+00  5.69313E+00  5.86787E+00  6.04487E+00  6.22072E+00
   6.39180E+00  6.55439E+00  6.70476E+00  6.83939E+00  6.95503E+00  7.04889E+00  7.11868E+00  7.16275E+00  7.18018E+00  7.17080E+00
   7.13519E+00  7.07465E+00  6.99108E+00  6.88694E+00  6.76510E+00  6.62878E+00  6.48131E+00  6.32605E+00  6.16626E+00  6.00499E+00
   5.84503E+00  5.68880E+00  5.53836E+00  5.39534E+00  5.26098E+00  5.13613E+00  5.02134E+00  4.91684E+00  4.82260E+00  4.73837E+00
   4.66374E+00  4.59823E+00  4.54124E+00  4.49216E+00  4.45033E+00  4.41510E+00  4.38585E+00  4.36201E+00  4.34303E+00  4.32842E+00
   4.31769E+00  4.31044E+00  4.30630E+00  4.30494E+00  4.30607E+00  4.30944E+00  4.31480E+00  4.32194E+00  4.33071E+00  4.34093E+00
   4.35249E+00  4.36524E+00  4.37907E+00  4.39388E+00  4.40960E+00  4.42615E+00  4.44346E+00  4.46147E+00  4.48011E+00  4.49933E+00
   4.51911E+00  4.53940E+00  4.56016E+00  4.58135E+00  4.60294E+00  4.62490E+00  4.64723E+00  4.66989E+00  4.69285E+00  4.71609E+00
   4.73961E+00  4.76338E+00  4.78740E+00  4.81165E+00  4.83610E+00  4.86074E+00  4.88558E+00  4.91060E+00  4.93580E+00  4.96115E+00
   4.98665E+00  5.01229E+00  5.03808E+00  5.06399E+00  5.09004E+00  5.11620E+00  5.14246E+00  5.16883E+00  5.19532E+00  5.22190E+00
   5.24858E+00  5.27533E+00  5.30218E+00  5.32911E+00  5.35612E+00  5.38321E+00  5.41037E+00  5.43759E+00
 NY background values follow
    -9.368E+00   -9.338E+00   -9.309E+00   -9.279E+00   -9.250E+00   -9.220E+00   -9.191E+00   -9.161E+00   -9.131E+00   -9.102E+00
    -9.072E+00   -9.043E+00   -9.013E+00   -8.984E+00   -8.954E+00   -8.925E+00   -8.895E+00   -8.866E+00   -8.836E+00   -8.807E+00
    -8.777E+00   -8.748E+00   -8.718E+00   -8.688E+00   -8.659E+00   -8.629E+00   -8.600E+00   -8.570E+00   -8.541E+00   -8.511E+00
    -8.482E+00   -8.452E+00   -8.423E+00   -8.393E+00   -8.364E+00   -8.334E+00   -8.305E+00   -8.275E+00   -8.245E+00   -8.216E+00
    -8.186E+00   -8.157E+00   -8.127E+00   -8.098E+00   -8.068E+00   -8.039E+00   -8.009E+00   -7.980E+00   -7.950E+00   -7.921E+00
    -7.891E+00   -7.862E+00   -7.832E+00   -7.802E+00   -7.773E+00   -7.743E+00   -7.714E+00   -7.684E+00   -7.655E+00   -7.625E+00
    -7.596E+00   -7.566E+00   -7.537E+00   -7.507E+00   -7.478E+00   -7.448E+00   -7.418E+00   -7.389E+00   -7.359E+00   -7.330E+00
    -7.300E+00   -7.271E+00   -7.241E+00   -7.212E+00   -7.182E+00   -7.153E+00   -7.123E+00   -7.094E+00   -7.064E+00   -7.035E+00
    -7.005E+00   -6.975E+00   -6.946E+00   -6.916E+00   -6.887E+00   -6.857E+00   -6.828E+00   -6.798E+00   -6.769E+00   -6.739E+00
    -6.710E+00   -6.680E+00   -6.651E+00   -6.621E+00   -6.592E+00   -6.562E+00   -6.532E+00   -6.503E+00   -6.473E+00   -6.444E+00
    -6.414E+00   -6.385E+00   -6.355E+00   -6.326E+00   -6.296E+00   -6.267E+00   -6.237E+00   -6.208E+00   -6.178E+00   -6.149E+00
    -6.119E+00   -6.089E+00   -6.060E+00   -6.030E+00   -6.001E+00   -5.971E+00   -5.942E+00   -5.912E+00   -5.883E+00   -5.853E+00
    -5.824E+00   -5.794E+00   -5.765E+00   -5.735E+00   -5.706E+00   -5.676E+00   -5.647E+00   -5.617E+00   -5.587E+00   -5.558E+00
    -5.528E+00   -5.499E+00   -5.469E+00   -5.440E+00   -5.410E+00   -5.381E+00   -5.351E+00   -5.322E+00   -5.292E+00   -5.263E+00
    -5.233E+00   -5.204E+00   -5.174E+00   -5.144E+00   -5.115E+00   -5.085E+00   -5.056E+00   -5.026E+00   -4.997E+00   -4.967E+00
    -4.938E+00   -4.908E+00   -4.879E+00   -4.849E+00   -4.820E+00   -4.790E+00   -4.761E+00   -4.731E+00   -4.701E+00   -4.672E+00
    -4.642E+00   -4.613E+00   -4.583E+00   -4.554E+00   -4.524E+00   -4.495E+00   -4.465E+00   -4.436E+00   -4.406E+00   -4.377E+00
    -4.347E+00   -4.318E+00   -4.288E+00   -4.258E+00   -4.229E+00   -4.199E+00   -4.170E+00   -4.140E+00   -4.111E+00   -4.081E+00
    -4.052E+00   -4.022E+00   -3.993E+00   -3.963E+00   -3.934E+00   -3.904E+00   -3.875E+00   -3.845E+00   -3.815E+00   -3.786E+00
    -3.756E+00   -3.727E+00   -3.697E+00   -3.668E+00   -3.638E+00   -3.609E+00   -3.579E+00   -3.550E+00   -3.520E+00   -3.491E+00
    -3.461E+00   -3.432E+00   -3.402E+00   -3.373E+00   -3.343E+00   -3.313E+00   -3.284E+00   -3.254E+00   -3.225E+00   -3.195E+00
    -3.166E+00   -3.136E+00   -3.107E+00   -3.077E+00   -3.048E+00   -3.018E+00   -2.989E+00   -2.959E+00   -2.930E+00   -2.900E+00
    -2.870E+00   -2.841E+00   -2.811E+00   -2.782E+00   -2.752E+00   -2.723E+00   -2.693E+00   -2.664E+00   -2.634E+00   -2.605E+00
    -2.575E+00   -2.546E+00   -2.516E+00   -2.487E+00   -2.457E+00   -2.428E+00   -2.398E+00   -2.368E+00   -2.339E+00   -2.309E+00
    -2.280E+00   -2.250E+00   -2.221E+00   -2.191E+00   -2.162E+00   -2.132E+00   -2.103E+00   -2.073E+00   -2.044E+00   -2.014E+00
    -1.985E+00   -1.955E+00   -1.925E+00   -1.896E+00   -1.866E+00   -1.837E+00   -1.807E+00   -1.778E+00   -1.748E+00   -1.719E+00
    -1.689E+00   -1.660E+00   -1.630E+00   -1.601E+00   -1.571E+00   -1.542E+00   -1.512E+00   -1.483E+00   -1.453E+00   -1.423E+00
    -1.394E+00   -1.364E+00   -1.335E+00   -1.305E+00   -1.276E+00   -1.246E+00   -1.217E+00   -1.187E+00   -1.158E+00   -1.128E+00
    -1.099E+00   -1.069E+00   -1.040E+00   -1.010E+00   -9.805E-01   -9.510E-01   -9.214E-01   -8.919E-01   -8.624E-01   -8.328E-01
    -8.033E-01   -7.738E-01   -7.443E-01   -7.147E-01   -6.852E-01   -6.557E-01   -6.261E-01   -5.966E-01   -5.671E-01   -5.375E-01
    -5.080E-01   -4.785E-01   -4.489E-01   -4.194E-01   -3.899E-01   -3.604E-01   -3.308E-01   -3.013E-01   -2.718E-01   -2.422E-01
    -2.127E-01   -1.832E-01   -1.536E-01   -1.241E-01   -9.459E-02   -6.506E-02   -3.553E-02   -5.998E-03    2.353E-02    5.306E-02
     8.259E-02    1.121E-01    1.417E-01    1.712E-01    2.007E-01    2.302E-01    2.598E-01    2.893E-01    3.188E-01    3.484E-01
     3.779E-01    4.074E-01    4.370E-01    4.665E-01    4.960E-01    5.255E-01    5.551E-01    5.846E-01    6.141E-01    6.437E-01
     6.732E-01    7.027E-01    7.322E-01    7.618E-01    7.913E-01    8.208E-01    8.504E-01    8.799E-01    9.094E-01    9.390E-01
     9.685E-01    9.980E-01    1.028E+00    1.057E+00    1.087E+00    1.116E+00    1.146E+00    1.175E+00    1.205E+00    1.234E+00
     1.264E+00    1.293E+00    1.323E+00    1.352E+00    1.382E+00    1.411E+00    1.441E+00    1.470E+00    1.500E+00    1.530E+00
     1.559E+00    1.589E+00    1.618E+00    1.648E+00    1.677E+00    1.707E+00    1.736E+00    1.766E+00    1.795E+00    1.825E+00
     1.854E+00    1.884E+00    1.913E+00    1.943E+00    1.972E+00    2.002E+00    2.032E+00    2.061E+00    2.091E+00    2.120E+00
     2.150E+00    2.179E+00    2.209E+00    2.238E+00    2.268E+00    2.297E+00    2.327E+00    2.356E+00    2.386E+00    2.415E+00
     2.445E+00    2.474E+00    2.504E+00    2.534E+00    2.563E+00    2.593E+00    2.622E+00    2.652E+00    2.681E+00    2.711E+00
     2.740E+00    2.770E+00    2.799E+00    2.829E+00    2.858E+00    2.888E+00    2.917E+00    2.947E+00    2.976E+00    3.006E+00
     3.036E+00    3.065E+00    3.095E+00    3.124E+00    3.154E+00    3.183E+00    3.213E+00    3.242E+00    3.272E+00    3.301E+00
     3.331E+00    3.360E+00    3.390E+00    3.419E+00    3.449E+00    3.478E+00    3.508E+00    3.538E+00    3.567E+00    3.597E+00
     3.626E+00    3.656E+00    3.685E+00    3.715E+00    3.744E+00    3.774E+00    3.803E+00    3.833E+00    3.862E+00    3.892E+00
     3.921E+00    3.951E+00    3.980E+00    4.010E+00    4.040E+00    4.069E+00    4.099E+00    4.128E+00    4.158E+00    4.187E+00
     4.217E+00    4.246E+00    4.276E+00    4.305E+00    4.335E+00    4.364E+00    4.394E+00    4.423E+00    4.453E+00    4.482E+00
     4.512E+00    4.542E+00    4.571E+00    4.601E+00    4.630E+00    4.660E+00    4.689E+00    4.719E+00    4.748E+00    4.778E+00
     4.807E+00    4.837E+00    4.866E+00    4.896E+00    4.925E+00    4.955E+00    4.984E+00    5.014E+00    5.044E+00    5.073E+00
     5.103E+00    5.132E+00    5.162E+00    5.191E+00    5.221E+00    5.250E+00    5.280E+00    5.309E+00
 Ala      Conc. = 2.10E+02
