 LCModel (Version 6.3-1L) Copyright: S.W. Provencher.          Ref.: Magn. Reson. Med. 30:672-679 (1993).                
 Slice#3 Row#9 Col#4  PD_05_press_2_raw_act
 36 lines in following concentration table = NCONC+1
    Conc.  %SD /Cr+PCr  Metabolite                                         
  185.970 137% 6.2E-02 Ala                                                 
   59.066 699% 2.0E-02 Asp                                                 
  407.844 126%   0.135 Cr                                                  
 2.61E+03  20%   0.865 PCr                                                 
   30.335 999% 1.0E-02 GABA                                                
    0.000 999%   0.000 Glc                                                 
 2.47E+03  21%   0.819 Gln                                                 
 2.45E+03  25%   0.812 Glu                                                 
  866.998   4%   0.287 GPC                                                 
    0.000 999%   0.000 PCh                                                 
  820.470  16%   0.272 GSH                                                 
 1.52E+03  28%   0.503 Ins                                                 
  195.060 159% 6.5E-02 Lac                                                 
 4.88E+03   3%   1.616 NAA                                                 
    0.000 999%   0.000 NAAG                                                
  167.345  30% 5.5E-02 Scyllo                                              
    0.000 999%   0.000 Tau                                                 
 1.32E+03  15%   0.439 -CrCH2                                              
  866.998   4%   0.287 GPC+PCh                                             
 4.88E+03   3%   1.616 NAA+NAAG                                            
 3.02E+03   3%   1.000 Cr+PCr                                              
 4.92E+03  19%   1.631 Glu+Gln                                             
   16.700 999% 5.5E-03 Lip13a                                              
  852.584 122%   0.283 Lip13b                                              
    0.000 999%   0.000 Lip09                                               
 2.75E+03  11%   0.911 MM09                                                
  131.708 161% 4.4E-02 Lip20                                               
 6.50E+03   9%   2.154 MM20                                                
 1.06E+03  24%   0.350 MM12                                                
 2.59E+03  23%   0.858 MM14                                                
 3.03E+03  16%   1.003 MM17                                                
  869.284  68%   0.288 Lip13a+Lip13b                                       
 4.51E+03  13%   1.496 MM14+Lip13a+Lip13b+MM12                             
 2.75E+03  11%   0.911 MM09+Lip09                                          
 6.63E+03   9%   2.197 MM20+Lip20                                          
   6 lines in following misc. output table
  FWHM = 0.061 ppm    S/N =  14                                            
  Data shift =-0.015 ppm                                                   
  Ph: -12 deg      -4.9 deg/ppm                                            
  alphaB,S = 2.5E+01,   1.0E+02                                            
   14 spline knots.   Ns = 9(1)                                            
  (11) 6 infls.   ( 1) 1 extrs.                                            
  498 points on ppm-axis = NY
      4.000000     3.992357     3.984714     3.977070     3.969427     3.961784     3.954141     3.946497     3.938854     3.931211
      3.923568     3.915925     3.908281     3.900638     3.892995     3.885352     3.877708     3.870065     3.862422     3.854779
      3.847136     3.839492     3.831849     3.824206     3.816563     3.808919     3.801276     3.793633     3.785990     3.778347
      3.770703     3.763060     3.755417     3.747774     3.740130     3.732487     3.724844     3.717201     3.709558     3.701914
      3.694271     3.686628     3.678985     3.671341     3.663698     3.656055     3.648412     3.640769     3.633125     3.625482
      3.617839     3.610196     3.602552     3.594909     3.587266     3.579623     3.571980     3.564336     3.556693     3.549050
      3.541407     3.533763     3.526120     3.518477     3.510834     3.503191     3.495547     3.487904     3.480261     3.472618
      3.464974     3.457331     3.449688     3.442045     3.434402     3.426758     3.419115     3.411472     3.403829     3.396185
      3.388542     3.380899     3.373256     3.365613     3.357969     3.350326     3.342683     3.335040     3.327396     3.319753
      3.312110     3.304467     3.296824     3.289180     3.281537     3.273894     3.266251     3.258607     3.250964     3.243321
      3.235678     3.228034     3.220391     3.212748     3.205105     3.197462     3.189818     3.182175     3.174532     3.166889
      3.159245     3.151602     3.143959     3.136316     3.128673     3.121029     3.113386     3.105743     3.098100     3.090456
      3.082813     3.075170     3.067527     3.059884     3.052240     3.044597     3.036954     3.029311     3.021667     3.014024
      3.006381     2.998738     2.991095     2.983451     2.975808     2.968165     2.960522     2.952878     2.945235     2.937592
      2.929949     2.922306     2.914662     2.907019     2.899376     2.891733     2.884089     2.876446     2.868803     2.861160
      2.853517     2.845873     2.838230     2.830587     2.822944     2.815300     2.807657     2.800014     2.792371     2.784728
      2.777084     2.769441     2.761798     2.754155     2.746511     2.738868     2.731225     2.723582     2.715939     2.708295
      2.700652     2.693009     2.685366     2.677722     2.670079     2.662436     2.654793     2.647150     2.639506     2.631863
      2.624220     2.616577     2.608933     2.601290     2.593647     2.586004     2.578361     2.570717     2.563074     2.555431
      2.547788     2.540144     2.532501     2.524858     2.517215     2.509572     2.501928     2.494285     2.486642     2.478999
      2.471355     2.463712     2.456069     2.448426     2.440783     2.433139     2.425496     2.417853     2.410210     2.402566
      2.394923     2.387280     2.379637     2.371994     2.364350     2.356707     2.349064     2.341421     2.333777     2.326134
      2.318491     2.310848     2.303205     2.295561     2.287918     2.280275     2.272632     2.264988     2.257345     2.249702
      2.242059     2.234416     2.226772     2.219129     2.211486     2.203843     2.196199     2.188556     2.180913     2.173270
      2.165627     2.157983     2.150340     2.142697     2.135054     2.127410     2.119767     2.112124     2.104481     2.096838
      2.089194     2.081551     2.073908     2.066265     2.058621     2.050978     2.043335     2.035692     2.028049     2.020405
      2.012762     2.005119     1.997476     1.989833     1.982190     1.974546     1.966903     1.959260     1.951617     1.943974
      1.936331     1.928688     1.921045     1.913402     1.905759     1.898115     1.890472     1.882829     1.875186     1.867543
      1.859900     1.852257     1.844614     1.836971     1.829327     1.821684     1.814041     1.806398     1.798755     1.791112
      1.783469     1.775826     1.768183     1.760540     1.752896     1.745253     1.737610     1.729967     1.722324     1.714681
      1.707038     1.699395     1.691752     1.684108     1.676465     1.668822     1.661179     1.653536     1.645893     1.638250
      1.630607     1.622964     1.615321     1.607677     1.600034     1.592391     1.584748     1.577105     1.569462     1.561819
      1.554176     1.546533     1.538890     1.531246     1.523603     1.515960     1.508317     1.500674     1.493031     1.485388
      1.477745     1.470102     1.462458     1.454815     1.447172     1.439529     1.431886     1.424243     1.416600     1.408957
      1.401314     1.393671     1.386027     1.378384     1.370741     1.363098     1.355455     1.347812     1.340169     1.332526
      1.324883     1.317240     1.309596     1.301953     1.294310     1.286667     1.279024     1.271381     1.263738     1.256095
      1.248452     1.240808     1.233165     1.225522     1.217879     1.210236     1.202593     1.194950     1.187307     1.179664
      1.172021     1.164377     1.156734     1.149091     1.141448     1.133805     1.126162     1.118519     1.110876     1.103233
      1.095590     1.087946     1.080303     1.072660     1.065017     1.057374     1.049731     1.042088     1.034445     1.026802
      1.019158     1.011515     1.003872     0.996229     0.988586     0.980943     0.973300     0.965657     0.958014     0.950371
      0.942727     0.935084     0.927441     0.919798     0.912155     0.904512     0.896869     0.889226     0.881583     0.873940
      0.866296     0.858653     0.851010     0.843367     0.835724     0.828081     0.820438     0.812795     0.805152     0.797508
      0.789865     0.782222     0.774579     0.766936     0.759293     0.751650     0.744007     0.736364     0.728721     0.721077
      0.713434     0.705791     0.698148     0.690505     0.682862     0.675219     0.667576     0.659933     0.652290     0.644646
      0.637003     0.629360     0.621717     0.614074     0.606431     0.598788     0.591145     0.583502     0.575858     0.568215
      0.560572     0.552929     0.545286     0.537643     0.530000     0.522357     0.514714     0.507071     0.499427     0.491784
      0.484141     0.476498     0.468855     0.461212     0.453569     0.445925     0.438282     0.430639     0.422996     0.415353
      0.407710     0.400067     0.392424     0.384780     0.377137     0.369494     0.361851     0.354208     0.346565     0.338922
      0.331278     0.323635     0.315992     0.308349     0.300706     0.293063     0.285420     0.277777     0.270133     0.262490
      0.254847     0.247204     0.239561     0.231918     0.224275     0.216631     0.208988     0.201345
 NY phased data points follow
  -3.50474E+01 -2.70542E+01 -2.53630E+01 -2.44935E+01 -6.75107E+00 -7.98503E+00 -2.69086E+00  6.18311E+00  8.05379E+00  1.47732E+01
   1.79256E+01  1.51811E+01  1.18419E+01  8.73809E+00 -6.54802E-01 -9.82141E+00 -8.23870E+00 -1.31246E+01 -1.10034E+01 -1.95172E+01
  -1.71792E+01 -1.70716E+01 -1.00989E+01 -1.85380E+01 -1.19797E+01 -9.49826E+00 -8.39461E+00 -1.22858E+01 -5.05133E+00 -4.52466E+00
  -5.48239E+00 -2.86164E+00 -3.38766E+00 -3.62720E+00 -1.99015E+00 -1.14821E+01 -1.12304E+01 -1.13417E+01 -7.23327E+00 -1.12517E+01
  -8.88461E+00 -3.87462E-01 -4.53001E+00 -2.92724E+00 -4.01735E+00 -1.16391E+01 -2.69901E+00 -5.71294E+00  8.01194E+00 -1.11954E+01
  -4.39368E+00 -1.06374E+01 -9.33537E+00 -1.05504E+01 -2.12318E+01 -1.10909E+01 -1.77327E+01 -1.83165E+01 -1.75485E+01 -1.45406E+01
  -1.49803E+01 -1.33819E+01 -2.83113E+01 -2.49243E+01 -1.98257E+01 -3.11885E+01 -2.68017E+01 -2.95190E+01 -1.95500E+01 -2.50419E+01
  -1.58440E+01 -1.61875E+01 -2.10847E+01 -2.46991E+01 -2.24321E+01 -2.23880E+01 -1.41499E+01 -1.84207E+01 -1.14737E+01 -1.98011E+01
  -1.66207E+01 -1.85016E+01 -2.06265E+01 -1.51337E+01 -1.13628E+01 -1.70324E+01 -1.33405E+01 -1.66681E+01 -1.14372E+01 -1.48663E+01
  -1.35894E+01 -1.50298E+01 -9.63672E+00 -7.98144E+00 -5.66511E+00  7.13563E-01  6.42190E+00  5.80294E-01  7.14142E+00  1.85105E+01
   2.29004E+01  2.36932E+01  3.53352E+01  4.25984E+01  4.60369E+01  4.27447E+01  3.85451E+01  2.20656E+01  1.02219E+01  6.62950E+00
   6.99834E+00 -1.11477E+00  4.02901E+00 -1.14202E+01 -7.28202E+00 -1.13843E+01 -5.27557E-01 -4.29955E+00 -3.46679E+00 -8.81528E-01
   1.38431E+01  1.43764E+01  2.38013E+01  2.79245E+01  4.62503E+01  5.09142E+01  5.44445E+01  7.05307E+01  6.89329E+01  6.02970E+01
   4.75444E+01  2.55046E+01  1.98135E+01  1.83358E+01  2.31064E+00 -2.76152E+00 -6.17041E+00 -7.44526E+00 -1.56927E+01 -1.23428E+01
  -4.15460E+00 -1.68296E+01 -1.56452E+01 -1.04889E+01 -8.61285E+00 -1.38803E+01 -1.35273E+01 -1.07897E+01 -1.69138E+01 -1.82649E+01
  -1.47496E+01 -1.11821E+01 -1.76226E+01 -2.21609E+01 -1.59782E+01 -1.96976E+01 -2.19659E+01 -1.87006E+01 -2.02957E+01 -2.25624E+01
  -1.62257E+01 -1.92051E+01 -2.17719E+01 -1.50475E+01 -1.62655E+01 -1.92129E+01 -1.40065E+01 -1.35391E+01 -1.96857E+01 -2.63854E+01
  -2.11155E+01 -2.76857E+01 -2.79340E+01 -2.31727E+01 -3.55992E+01 -3.01345E+01 -2.43258E+01 -3.21484E+01 -2.79924E+01 -3.51885E+01
  -2.15888E+01 -2.43601E+01 -3.39873E+01 -3.14596E+01 -2.47213E+01 -2.63308E+01 -2.96814E+01 -1.72378E+01 -1.81880E+01 -1.80332E+01
  -1.19624E+01  9.37543E-01 -7.18108E+00 -8.71008E+00  1.56062E+00 -2.54844E+00 -6.35322E+00 -7.70563E+00 -1.49129E+01 -8.41847E+00
  -1.15060E+01 -1.12827E+01 -1.04763E+01 -6.12577E+00 -9.92163E+00 -4.11447E+00 -1.46002E+01 -2.08413E+01 -1.95494E+01 -1.71151E+01
  -1.46104E+01 -1.60142E+01 -8.70471E+00 -6.19952E+00 -2.19106E+00 -5.60793E+00  2.25787E+00  3.90190E+00 -2.62499E+00  3.96734E+00
  -3.86979E+00 -6.75664E+00 -4.87984E+00 -8.82271E+00 -8.98328E+00 -5.31526E+00  8.15353E+00 -6.23280E+00  6.52146E+00  2.89781E+00
   3.48641E+00  5.97745E+00  2.98944E+00 -1.11492E+00  3.49926E+00  3.71117E+00  7.07564E+00  6.10513E+00  3.75459E+00  6.34156E+00
   3.18284E+00  1.53954E+00  4.46660E+00 -1.11361E+00 -5.29602E+00 -2.16001E+00  7.15647E+00  1.63079E+01  1.80606E+01  1.37757E+01
   1.85099E+01  2.34216E+01  2.24499E+01  3.61020E+01  4.62414E+01  5.39416E+01  7.97223E+01  9.62287E+01  1.09725E+02  1.19975E+02
   1.33618E+02  1.41911E+02  1.34783E+02  1.13291E+02  8.85788E+01  6.55531E+01  4.93993E+01  4.05550E+01  3.30328E+01  2.08252E+01
   2.02955E+01  1.60812E+01  8.55186E+00  1.10603E+01  3.25904E+00  1.30993E+01  1.02404E+01  1.01162E+01  7.65889E-01  2.75962E-01
  -3.75550E-03  2.58013E-01  1.25182E+00  6.13593E+00  7.16397E+00  1.56849E+00  4.29860E+00  8.44751E-01 -8.07960E+00  1.33221E+00
   4.27847E+00 -3.21902E+00  5.85128E+00  2.83663E+00  4.43686E+00  5.76091E+00  4.72334E+00  1.14448E+01  4.77176E+00  6.40596E+00
   1.15493E+01  6.55463E+00  5.58890E+00  1.58388E+00  9.30686E+00  1.93205E+00  1.04116E+01  5.42003E+00  1.08092E+01  6.54147E+00
   9.44562E+00  1.67359E+01  2.13545E+01  2.44209E+01  2.14048E+01  1.11891E+01  1.35416E+01  5.47175E+00  8.74366E+00  9.79022E+00
   1.58713E+01  1.14865E+01  1.04701E+01  1.28754E+01  8.08616E+00  1.44185E+01  1.51188E+01  9.75416E+00  1.11761E+01  1.09241E+01
   9.15125E+00  6.83951E+00  4.19607E+00 -3.38718E-01  8.77908E+00  9.79970E+00  3.21748E+00  2.53951E+00  9.27441E-01  9.28073E+00
   2.46367E+00  7.07601E+00  8.32605E+00 -1.19565E+00  5.56292E+00  7.59465E+00  7.56615E+00  6.75907E+00  9.42155E+00  2.52273E+00
   8.10102E+00  1.52446E+00  2.28884E+00  1.06050E+01  9.15081E+00  1.57488E+01  1.50698E+01  6.96566E+00  1.04310E+01  9.85902E+00
   1.02272E+01  1.40915E+01  8.56018E+00  9.23918E+00  1.00206E+01  1.07879E+01  1.47956E+00  8.95279E+00 -2.67054E+00  1.09445E+01
   8.57580E+00  5.68896E+00  1.37900E+00  6.65318E+00  7.78966E+00  8.28260E-01  5.76449E+00  9.29978E+00  8.68609E-01  4.37178E+00
   9.15082E+00 -1.57859E-01 -4.52107E+00  3.49070E+00  8.68440E+00  7.28875E+00  3.43834E+00 -2.04623E+00  4.65627E+00  9.98578E+00
   1.14659E+01  8.30617E+00  5.68994E+00  8.36965E+00  4.36755E+00  5.00730E+00  6.57397E+00  9.08396E+00  6.13560E+00  1.02526E+01
   2.87768E+00  1.20679E+01  9.29822E+00  7.08317E+00  9.67501E+00  5.30331E+00  1.74064E+01  1.49244E+01  1.49240E+01  1.35295E+01
   1.49570E+01  1.08300E+01  9.79972E+00  1.76135E+01  1.26850E+01  1.52914E+01  1.40023E+01  1.13136E+01  7.67703E+00  8.04951E+00
   4.30521E+00  9.12798E+00 -2.96147E+00  7.82305E+00  7.55391E+00  8.66302E+00  6.22019E+00  2.16414E+00 -1.51617E+00  1.18215E+01
   1.89803E+00 -7.16398E+00 -1.64467E-01 -4.13069E-01  2.88498E+00  3.93380E+00 -6.98379E-01  5.62177E+00 -2.32945E+00  7.23903E+00
   3.78161E+00  2.69022E+00 -1.08298E+00 -3.71795E-01 -2.56304E+00 -1.51940E+00  4.15956E+00 -5.35808E+00  7.41249E+00  3.94745E+00
   2.10662E+00 -3.87948E+00 -3.61604E+00 -2.25810E+00  3.34824E+00  1.36716E+00 -2.79603E+00  1.98041E-02  5.51794E+00  2.55708E-01
   3.57657E+00  6.74269E-01  1.85459E+00 -2.01672E+00  3.43135E+00 -1.25555E+00  4.52254E+00 -5.22815E+00  8.28582E+00  5.21262E+00
  -8.69612E+00 -2.80765E+00  1.16857E+00 -2.90983E+00  1.32185E+00  2.13439E-01 -6.05764E+00 -4.16722E-01 -6.23633E+00 -1.09864E+00
   7.99885E-01 -3.78322E+00 -4.34731E+00 -2.07034E+00 -6.34315E+00 -5.58855E-01  4.36180E+00  1.05546E+00 -4.52826E+00 -3.09849E+00
   5.98142E+00  3.32195E+00  4.44223E+00  1.72995E+00  3.71513E+00 -2.01122E+00 -1.97210E+00  3.03457E+00
 NY points of the fit to the data follow
  -2.00507E+01 -1.80658E+01 -1.60072E+01 -1.38756E+01 -1.07410E+01 -6.64323E+00 -2.26703E+00  1.93309E+00  6.31863E+00  1.11594E+01
   1.48784E+01  1.53399E+01  1.19021E+01  5.97045E+00  2.42565E-01 -3.64681E+00 -6.05035E+00 -7.69020E+00 -9.23499E+00 -1.20087E+01
  -1.44456E+01 -1.53041E+01 -1.50012E+01 -1.43518E+01 -1.37480E+01 -1.28336E+01 -1.13471E+01 -9.48693E+00 -7.30000E+00 -4.49833E+00
  -1.38262E+00  9.63104E-01  1.23759E+00 -9.80095E-01 -4.78877E+00 -8.65746E+00 -1.16956E+01 -1.35606E+01 -1.39557E+01 -1.34504E+01
  -1.29734E+01 -1.24445E+01 -1.14122E+01 -1.02053E+01 -9.21618E+00 -8.45061E+00 -7.70972E+00 -7.27189E+00 -7.65956E+00 -9.00113E+00
  -1.10218E+01 -1.29811E+01 -1.43320E+01 -1.50989E+01 -1.54986E+01 -1.56829E+01 -1.59006E+01 -1.62038E+01 -1.63108E+01 -1.62172E+01
  -1.62131E+01 -1.64811E+01 -1.69715E+01 -1.75704E+01 -1.81162E+01 -1.84582E+01 -1.84942E+01 -1.82316E+01 -1.78702E+01 -1.75844E+01
  -1.73842E+01 -1.72464E+01 -1.71621E+01 -1.71683E+01 -1.72959E+01 -1.74876E+01 -1.76397E+01 -1.75650E+01 -1.71622E+01 -1.67649E+01
  -1.64232E+01 -1.59952E+01 -1.54059E+01 -1.47731E+01 -1.42022E+01 -1.36692E+01 -1.31875E+01 -1.29829E+01 -1.33969E+01 -1.43823E+01
  -1.54950E+01 -1.62153E+01 -1.62994E+01 -1.56381E+01 -1.31211E+01 -8.39808E+00 -3.61553E+00  1.17191E+00  7.47448E+00  1.53774E+01
   2.36242E+01  3.14067E+01  3.86981E+01  4.50517E+01  4.79422E+01  4.45315E+01  3.49594E+01  2.25944E+01  1.16842E+01  4.41876E+00
  -5.77192E-02 -3.39898E+00 -6.64243E+00 -1.04443E+01 -1.35035E+01 -1.42838E+01 -1.39719E+01 -1.22879E+01 -7.19089E+00 -5.28686E-01
   5.83017E+00  1.30047E+01  2.23317E+01  3.28438E+01  4.30376E+01  5.25021E+01  6.13517E+01  6.78026E+01  6.78707E+01  5.95473E+01
   4.52097E+01  3.01064E+01  1.87145E+01  1.16443E+01  6.65137E+00  1.98044E+00 -3.41528E+00 -9.23455E+00 -1.21686E+01 -1.25477E+01
  -1.20725E+01 -1.13958E+01 -1.09243E+01 -1.09034E+01 -1.12974E+01 -1.18116E+01 -1.23059E+01 -1.27449E+01 -1.30961E+01 -1.34392E+01
  -1.38332E+01 -1.42429E+01 -1.47814E+01 -1.53253E+01 -1.57513E+01 -1.60636E+01 -1.62800E+01 -1.65141E+01 -1.68559E+01 -1.72366E+01
  -1.76203E+01 -1.80281E+01 -1.83464E+01 -1.83837E+01 -1.81286E+01 -1.78726E+01 -1.80920E+01 -1.90014E+01 -2.03023E+01 -2.13984E+01
  -2.20682E+01 -2.24624E+01 -2.29643E+01 -2.35835E+01 -2.41079E+01 -2.45444E+01 -2.48374E+01 -2.48754E+01 -2.46299E+01 -2.41531E+01
  -2.36509E+01 -2.33969E+01 -2.32557E+01 -2.27899E+01 -2.18450E+01 -2.06233E+01 -1.93719E+01 -1.82061E+01 -1.69176E+01 -1.54026E+01
  -1.38931E+01 -1.26359E+01 -1.19793E+01 -1.20859E+01 -1.25464E+01 -1.25912E+01 -1.19009E+01 -1.06513E+01 -9.20800E+00 -7.73622E+00
  -6.37452E+00 -5.36246E+00 -4.75658E+00 -5.00932E+00 -6.54857E+00 -9.05395E+00 -1.18737E+01 -1.45370E+01 -1.66370E+01 -1.79474E+01
  -1.76689E+01 -1.53365E+01 -1.16604E+01 -8.11345E+00 -5.67224E+00 -3.95192E+00 -2.58504E+00 -2.18397E+00 -3.28583E+00 -5.46063E+00
  -7.91926E+00 -9.94515E+00 -1.08765E+01 -1.06234E+01 -9.17788E+00 -6.77291E+00 -4.33168E+00 -2.39294E+00 -9.35248E-01 -6.91475E-02
   3.45207E-01  6.37119E-01  1.17781E+00  1.94252E+00  2.70628E+00  3.51309E+00  4.62578E+00  5.97379E+00  7.12669E+00  7.58099E+00
   7.03863E+00  5.70737E+00  4.11232E+00  2.88668E+00  2.79282E+00  4.13737E+00  6.29130E+00  8.48285E+00  1.04787E+01  1.22782E+01
   1.43863E+01  1.96886E+01  2.98967E+01  4.04207E+01  5.05306E+01  6.28061E+01  7.79730E+01  9.35742E+01  1.07951E+02  1.21360E+02
   1.33598E+02  1.39952E+02  1.34147E+02  1.15558E+02  9.03696E+01  6.72907E+01  5.13008E+01  4.10020E+01  3.31399E+01  2.56188E+01
   1.68319E+01  9.00338E+00  5.80041E+00  4.47142E+00  3.64872E+00  3.06404E+00  2.58794E+00  2.06842E+00  1.52167E+00  1.00428E+00
   5.46247E-01  1.64644E-01 -1.23777E-01 -3.29861E-01 -4.65394E-01 -5.20599E-01 -4.96548E-01 -4.01245E-01 -2.35838E-01  2.48377E-03
   3.18294E-01  7.14582E-01  1.17818E+00  1.70709E+00  2.29974E+00  2.95135E+00  3.65300E+00  4.39570E+00  5.16795E+00  5.95788E+00
   6.74962E+00  7.52938E+00  8.28166E+00  8.99270E+00  9.64846E+00  1.02372E+01  1.07474E+01  1.11720E+01  1.15068E+01  1.17527E+01
   1.19121E+01  1.19913E+01  1.19972E+01  1.19408E+01  1.18346E+01  1.16951E+01  1.15404E+01  1.13977E+01  1.13061E+01  1.12271E+01
   1.10897E+01  1.09358E+01  1.07994E+01  1.06406E+01  1.03950E+01  1.00436E+01  9.64133E+00  9.23326E+00  8.69622E+00  8.00137E+00
   7.32036E+00  6.86311E+00  6.69718E+00  6.74642E+00  6.90556E+00  7.15043E+00  7.43228E+00  7.63535E+00  7.73447E+00  7.66277E+00
   7.37865E+00  7.07175E+00  6.85045E+00  6.67567E+00  6.47385E+00  6.20600E+00  5.99579E+00  5.93792E+00  5.88872E+00  5.83562E+00
   5.96024E+00  6.43043E+00  7.26011E+00  8.31665E+00  9.43787E+00  1.05079E+01  1.13605E+01  1.18149E+01  1.18435E+01  1.14922E+01
   1.08515E+01  1.00817E+01  9.26045E+00  8.42439E+00  7.58421E+00  6.72623E+00  5.93900E+00  5.28453E+00  4.73687E+00  4.27756E+00
   3.89102E+00  3.56476E+00  3.28707E+00  3.05020E+00  2.84794E+00  2.67802E+00  2.53908E+00  2.43258E+00  2.35976E+00  2.32380E+00
   2.32702E+00  2.37324E+00  2.46490E+00  2.60542E+00  2.79656E+00  3.04097E+00  3.33957E+00  3.69403E+00  4.10397E+00  4.56931E+00
   5.08764E+00  5.65675E+00  6.27191E+00  6.92825E+00  7.61809E+00  8.33336E+00  9.06326E+00  9.79696E+00  1.05213E+01  1.12233E+01
   1.18885E+01  1.25033E+01  1.30535E+01  1.35270E+01  1.39123E+01  1.42007E+01  1.43847E+01  1.44608E+01  1.44268E+01  1.42851E+01
   1.40393E+01  1.36969E+01  1.32664E+01  1.27592E+01  1.21870E+01  1.15635E+01  1.09013E+01  1.02143E+01  9.51415E+00  8.81297E+00
   8.12043E+00  7.44595E+00  6.79616E+00  6.17726E+00  5.59279E+00  5.04617E+00  4.53838E+00  4.07055E+00  3.64159E+00  3.25095E+00
   2.89633E+00  2.57639E+00  2.28830E+00  2.03029E+00  1.79928E+00  1.59345E+00  1.40993E+00  1.24722E+00  1.10275E+00  9.75262E-01
   8.62402E-01  7.63232E-01  6.75823E-01  5.99612E-01  5.32915E-01  4.75312E-01  4.25286E-01  3.82672E-01  3.46246E-01  3.16044E-01
   2.90911E-01  2.70910E-01  2.54990E-01  2.43396E-01  2.35249E-01  2.30857E-01  2.29309E-01  2.30901E-01  2.34813E-01  2.41480E-01
   2.50175E-01  2.61313E-01  2.74101E-01  2.88959E-01  3.05196E-01  3.23337E-01  3.42714E-01  3.63780E-01  3.85807E-01  4.09288E-01
   4.33608E-01  4.59332E-01  4.85813E-01  5.13526E-01  5.41793E-01  5.71160E-01  6.01053E-01  6.32037E-01  6.63465E-01  6.95821E-01
   7.28474E-01  7.62006E-01  7.95860E-01  8.30591E-01  8.65550E-01  9.01241E-01  9.37073E-01  9.73648E-01  1.01041E+00  1.04789E+00
   1.08545E+00  1.12362E+00  1.16183E+00  1.20070E+00  1.23967E+00  1.27925E+00  1.31881E+00  1.35891E+00
 NY background values follow
    -2.606E+01   -2.601E+01   -2.595E+01   -2.590E+01   -2.585E+01   -2.579E+01   -2.574E+01   -2.568E+01   -2.563E+01   -2.557E+01
    -2.552E+01   -2.547E+01   -2.541E+01   -2.536E+01   -2.530E+01   -2.525E+01   -2.520E+01   -2.514E+01   -2.509E+01   -2.503E+01
    -2.498E+01   -2.493E+01   -2.487E+01   -2.482E+01   -2.476E+01   -2.471E+01   -2.466E+01   -2.460E+01   -2.455E+01   -2.449E+01
    -2.444E+01   -2.438E+01   -2.433E+01   -2.428E+01   -2.422E+01   -2.417E+01   -2.411E+01   -2.406E+01   -2.401E+01   -2.395E+01
    -2.390E+01   -2.384E+01   -2.379E+01   -2.374E+01   -2.368E+01   -2.363E+01   -2.357E+01   -2.352E+01   -2.347E+01   -2.341E+01
    -2.336E+01   -2.330E+01   -2.325E+01   -2.320E+01   -2.314E+01   -2.309E+01   -2.303E+01   -2.298E+01   -2.292E+01   -2.287E+01
    -2.282E+01   -2.276E+01   -2.271E+01   -2.265E+01   -2.260E+01   -2.255E+01   -2.249E+01   -2.244E+01   -2.238E+01   -2.233E+01
    -2.228E+01   -2.222E+01   -2.217E+01   -2.211E+01   -2.206E+01   -2.201E+01   -2.195E+01   -2.190E+01   -2.184E+01   -2.179E+01
    -2.174E+01   -2.168E+01   -2.163E+01   -2.157E+01   -2.152E+01   -2.147E+01   -2.141E+01   -2.136E+01   -2.130E+01   -2.125E+01
    -2.120E+01   -2.114E+01   -2.109E+01   -2.103E+01   -2.098E+01   -2.093E+01   -2.087E+01   -2.082E+01   -2.076E+01   -2.071E+01
    -2.066E+01   -2.060E+01   -2.055E+01   -2.049E+01   -2.044E+01   -2.039E+01   -2.033E+01   -2.028E+01   -2.022E+01   -2.017E+01
    -2.012E+01   -2.006E+01   -2.001E+01   -1.996E+01   -1.990E+01   -1.985E+01   -1.979E+01   -1.974E+01   -1.969E+01   -1.963E+01
    -1.958E+01   -1.952E+01   -1.947E+01   -1.942E+01   -1.936E+01   -1.931E+01   -1.925E+01   -1.920E+01   -1.915E+01   -1.909E+01
    -1.904E+01   -1.899E+01   -1.893E+01   -1.888E+01   -1.882E+01   -1.877E+01   -1.872E+01   -1.866E+01   -1.861E+01   -1.855E+01
    -1.850E+01   -1.845E+01   -1.839E+01   -1.834E+01   -1.829E+01   -1.823E+01   -1.818E+01   -1.812E+01   -1.807E+01   -1.802E+01
    -1.796E+01   -1.791E+01   -1.785E+01   -1.780E+01   -1.775E+01   -1.769E+01   -1.764E+01   -1.759E+01   -1.753E+01   -1.748E+01
    -1.742E+01   -1.737E+01   -1.732E+01   -1.726E+01   -1.721E+01   -1.716E+01   -1.710E+01   -1.705E+01   -1.699E+01   -1.694E+01
    -1.689E+01   -1.683E+01   -1.678E+01   -1.673E+01   -1.667E+01   -1.662E+01   -1.656E+01   -1.651E+01   -1.646E+01   -1.640E+01
    -1.635E+01   -1.630E+01   -1.624E+01   -1.619E+01   -1.613E+01   -1.608E+01   -1.603E+01   -1.597E+01   -1.592E+01   -1.587E+01
    -1.581E+01   -1.576E+01   -1.571E+01   -1.565E+01   -1.560E+01   -1.554E+01   -1.549E+01   -1.544E+01   -1.538E+01   -1.533E+01
    -1.528E+01   -1.522E+01   -1.517E+01   -1.512E+01   -1.506E+01   -1.501E+01   -1.495E+01   -1.490E+01   -1.485E+01   -1.479E+01
    -1.474E+01   -1.469E+01   -1.463E+01   -1.458E+01   -1.453E+01   -1.447E+01   -1.442E+01   -1.437E+01   -1.431E+01   -1.426E+01
    -1.420E+01   -1.415E+01   -1.410E+01   -1.404E+01   -1.399E+01   -1.394E+01   -1.388E+01   -1.383E+01   -1.378E+01   -1.372E+01
    -1.367E+01   -1.362E+01   -1.356E+01   -1.351E+01   -1.346E+01   -1.340E+01   -1.335E+01   -1.330E+01   -1.324E+01   -1.319E+01
    -1.314E+01   -1.308E+01   -1.303E+01   -1.298E+01   -1.292E+01   -1.287E+01   -1.282E+01   -1.276E+01   -1.271E+01   -1.266E+01
    -1.260E+01   -1.255E+01   -1.250E+01   -1.244E+01   -1.239E+01   -1.234E+01   -1.228E+01   -1.223E+01   -1.218E+01   -1.212E+01
    -1.207E+01   -1.202E+01   -1.196E+01   -1.191E+01   -1.186E+01   -1.180E+01   -1.175E+01   -1.170E+01   -1.164E+01   -1.159E+01
    -1.154E+01   -1.149E+01   -1.143E+01   -1.138E+01   -1.133E+01   -1.127E+01   -1.122E+01   -1.117E+01   -1.111E+01   -1.106E+01
    -1.101E+01   -1.095E+01   -1.090E+01   -1.085E+01   -1.080E+01   -1.074E+01   -1.069E+01   -1.064E+01   -1.058E+01   -1.053E+01
    -1.048E+01   -1.042E+01   -1.037E+01   -1.032E+01   -1.027E+01   -1.021E+01   -1.016E+01   -1.011E+01   -1.005E+01   -1.000E+01
    -9.948E+00   -9.895E+00   -9.842E+00   -9.789E+00   -9.736E+00   -9.683E+00   -9.630E+00   -9.577E+00   -9.525E+00   -9.472E+00
    -9.419E+00   -9.366E+00   -9.313E+00   -9.260E+00   -9.208E+00   -9.155E+00   -9.102E+00   -9.049E+00   -8.996E+00   -8.944E+00
    -8.891E+00   -8.838E+00   -8.785E+00   -8.733E+00   -8.680E+00   -8.627E+00   -8.574E+00   -8.522E+00   -8.469E+00   -8.416E+00
    -8.363E+00   -8.311E+00   -8.258E+00   -8.205E+00   -8.153E+00   -8.100E+00   -8.047E+00   -7.995E+00   -7.942E+00   -7.889E+00
    -7.837E+00   -7.784E+00   -7.731E+00   -7.679E+00   -7.626E+00   -7.574E+00   -7.521E+00   -7.468E+00   -7.416E+00   -7.363E+00
    -7.311E+00   -7.258E+00   -7.205E+00   -7.153E+00   -7.100E+00   -7.048E+00   -6.995E+00   -6.943E+00   -6.890E+00   -6.838E+00
    -6.785E+00   -6.732E+00   -6.680E+00   -6.627E+00   -6.575E+00   -6.522E+00   -6.470E+00   -6.417E+00   -6.365E+00   -6.312E+00
    -6.260E+00   -6.207E+00   -6.155E+00   -6.103E+00   -6.050E+00   -5.998E+00   -5.945E+00   -5.893E+00   -5.840E+00   -5.788E+00
    -5.735E+00   -5.683E+00   -5.631E+00   -5.578E+00   -5.526E+00   -5.473E+00   -5.421E+00   -5.368E+00   -5.316E+00   -5.264E+00
    -5.211E+00   -5.159E+00   -5.106E+00   -5.054E+00   -5.002E+00   -4.949E+00   -4.897E+00   -4.845E+00   -4.792E+00   -4.740E+00
    -4.687E+00   -4.635E+00   -4.583E+00   -4.530E+00   -4.478E+00   -4.426E+00   -4.373E+00   -4.321E+00   -4.269E+00   -4.216E+00
    -4.164E+00   -4.112E+00   -4.059E+00   -4.007E+00   -3.955E+00   -3.902E+00   -3.850E+00   -3.798E+00   -3.745E+00   -3.693E+00
    -3.641E+00   -3.589E+00   -3.536E+00   -3.484E+00   -3.432E+00   -3.379E+00   -3.327E+00   -3.275E+00   -3.222E+00   -3.170E+00
    -3.118E+00   -3.066E+00   -3.013E+00   -2.961E+00   -2.909E+00   -2.857E+00   -2.804E+00   -2.752E+00   -2.700E+00   -2.647E+00
    -2.595E+00   -2.543E+00   -2.491E+00   -2.438E+00   -2.386E+00   -2.334E+00   -2.282E+00   -2.229E+00   -2.177E+00   -2.125E+00
    -2.073E+00   -2.020E+00   -1.968E+00   -1.916E+00   -1.864E+00   -1.811E+00   -1.759E+00   -1.707E+00   -1.655E+00   -1.602E+00
    -1.550E+00   -1.498E+00   -1.446E+00   -1.394E+00   -1.341E+00   -1.289E+00   -1.237E+00   -1.185E+00   -1.132E+00   -1.080E+00
    -1.028E+00   -9.757E-01   -9.235E-01   -8.713E-01   -8.191E-01   -7.669E-01   -7.146E-01   -6.624E-01   -6.102E-01   -5.580E-01
    -5.058E-01   -4.535E-01   -4.013E-01   -3.491E-01   -2.969E-01   -2.447E-01   -1.925E-01   -1.403E-01   -8.806E-02   -3.585E-02
     1.636E-02    6.857E-02    1.208E-01    1.730E-01    2.252E-01    2.774E-01    3.296E-01    3.818E-01
 Ala      Conc. = 1.86E+02
