 LCModel (Version 6.3-1L) Copyright: S.W. Provencher.          Ref.: Magn. Reson. Med. 30:672-679 (1993).                
 Slice#2 Row#11 Col#9  PD_05_press_2_raw_act
 36 lines in following concentration table = NCONC+1
    Conc.  %SD /Cr+PCr  Metabolite                                         
   60.391  70%   0.792 Ala                                                 
   14.613 125%   0.192 Asp                                                 
   76.213  34%   1.000 Cr                                                  
    0.000 999%   0.000 PCr                                                 
    7.631 143%   0.100 GABA                                                
    6.470 170% 8.5E-02 Glc                                                 
    6.004 999% 7.9E-02 Gln                                                 
   63.056 134%   0.827 Glu                                                 
   26.329  38%   0.345 GPC                                                 
    0.000 999%   0.000 PCh                                                 
   12.743 237%   0.167 GSH                                                 
    0.000 999%   0.000 Ins                                                 
    8.627 481%   0.113 Lac                                                 
   87.112  36%   1.143 NAA                                                 
    0.000 999%   0.000 NAAG                                                
    2.982 119% 3.9E-02 Scyllo                                              
    5.447 331% 7.1E-02 Tau                                                 
    0.000 999%   0.000 -CrCH2                                              
   26.329  38%   0.345 GPC+PCh                                             
   87.112  36%   1.143 NAA+NAAG                                            
   76.213  34%   1.000 Cr+PCr                                              
   69.060 146%   0.906 Glu+Gln                                             
    0.000 999%   0.000 Lip13a                                              
    0.000 999%   0.000 Lip13b                                              
    0.000 999%   0.000 Lip09                                               
 1.05E+03  11%  13.773 MM09                                                
    0.000 999%   0.000 Lip20                                               
 1.57E+03  11%  20.659 MM20                                                
  314.893  11%   4.132 MM12                                                
  787.626  11%  10.335 MM14                                                
  393.701  11%   5.166 MM17                                                
    0.000 999%   0.000 Lip13a+Lip13b                                       
 1.10E+03  11%  14.466 MM14+Lip13a+Lip13b+MM12                             
 1.05E+03  11%  13.773 MM09+Lip09                                          
 1.57E+03  11%  20.659 MM20+Lip20                                          
   6 lines in following misc. output table
  FWHM = 0.031 ppm    S/N =   2                                            
  Data shift =-0.008 ppm                                                   
  Ph: 128 deg      11.9 deg/ppm                                            
  alphaB,S = 5.0E-01,   5.9E+00                                            
   14 spline knots.   Ns = 5(1)                                            
   2 inflections.     1 extrema                                            
  498 points on ppm-axis = NY
      4.000000     3.992357     3.984714     3.977070     3.969427     3.961784     3.954141     3.946497     3.938854     3.931211
      3.923568     3.915925     3.908281     3.900638     3.892995     3.885352     3.877708     3.870065     3.862422     3.854779
      3.847136     3.839492     3.831849     3.824206     3.816563     3.808919     3.801276     3.793633     3.785990     3.778347
      3.770703     3.763060     3.755417     3.747774     3.740130     3.732487     3.724844     3.717201     3.709558     3.701914
      3.694271     3.686628     3.678985     3.671341     3.663698     3.656055     3.648412     3.640769     3.633125     3.625482
      3.617839     3.610196     3.602552     3.594909     3.587266     3.579623     3.571980     3.564336     3.556693     3.549050
      3.541407     3.533763     3.526120     3.518477     3.510834     3.503191     3.495547     3.487904     3.480261     3.472618
      3.464974     3.457331     3.449688     3.442045     3.434402     3.426758     3.419115     3.411472     3.403829     3.396185
      3.388542     3.380899     3.373256     3.365613     3.357969     3.350326     3.342683     3.335040     3.327396     3.319753
      3.312110     3.304467     3.296824     3.289180     3.281537     3.273894     3.266251     3.258607     3.250964     3.243321
      3.235678     3.228034     3.220391     3.212748     3.205105     3.197462     3.189818     3.182175     3.174532     3.166889
      3.159245     3.151602     3.143959     3.136316     3.128673     3.121029     3.113386     3.105743     3.098100     3.090456
      3.082813     3.075170     3.067527     3.059884     3.052240     3.044597     3.036954     3.029311     3.021667     3.014024
      3.006381     2.998738     2.991095     2.983451     2.975808     2.968165     2.960522     2.952878     2.945235     2.937592
      2.929949     2.922306     2.914662     2.907019     2.899376     2.891733     2.884089     2.876446     2.868803     2.861160
      2.853517     2.845873     2.838230     2.830587     2.822944     2.815300     2.807657     2.800014     2.792371     2.784728
      2.777084     2.769441     2.761798     2.754155     2.746511     2.738868     2.731225     2.723582     2.715939     2.708295
      2.700652     2.693009     2.685366     2.677722     2.670079     2.662436     2.654793     2.647150     2.639506     2.631863
      2.624220     2.616577     2.608933     2.601290     2.593647     2.586004     2.578361     2.570717     2.563074     2.555431
      2.547788     2.540144     2.532501     2.524858     2.517215     2.509572     2.501928     2.494285     2.486642     2.478999
      2.471355     2.463712     2.456069     2.448426     2.440783     2.433139     2.425496     2.417853     2.410210     2.402566
      2.394923     2.387280     2.379637     2.371994     2.364350     2.356707     2.349064     2.341421     2.333777     2.326134
      2.318491     2.310848     2.303205     2.295561     2.287918     2.280275     2.272632     2.264988     2.257345     2.249702
      2.242059     2.234416     2.226772     2.219129     2.211486     2.203843     2.196199     2.188556     2.180913     2.173270
      2.165627     2.157983     2.150340     2.142697     2.135054     2.127410     2.119767     2.112124     2.104481     2.096838
      2.089194     2.081551     2.073908     2.066265     2.058621     2.050978     2.043335     2.035692     2.028049     2.020405
      2.012762     2.005119     1.997476     1.989833     1.982190     1.974546     1.966903     1.959260     1.951617     1.943974
      1.936331     1.928688     1.921045     1.913402     1.905759     1.898115     1.890472     1.882829     1.875186     1.867543
      1.859900     1.852257     1.844614     1.836971     1.829327     1.821684     1.814041     1.806398     1.798755     1.791112
      1.783469     1.775826     1.768183     1.760540     1.752896     1.745253     1.737610     1.729967     1.722324     1.714681
      1.707038     1.699395     1.691752     1.684108     1.676465     1.668822     1.661179     1.653536     1.645893     1.638250
      1.630607     1.622964     1.615321     1.607677     1.600034     1.592391     1.584748     1.577105     1.569462     1.561819
      1.554176     1.546533     1.538890     1.531246     1.523603     1.515960     1.508317     1.500674     1.493031     1.485388
      1.477745     1.470102     1.462458     1.454815     1.447172     1.439529     1.431886     1.424243     1.416600     1.408957
      1.401314     1.393671     1.386027     1.378384     1.370741     1.363098     1.355455     1.347812     1.340169     1.332526
      1.324883     1.317240     1.309596     1.301953     1.294310     1.286667     1.279024     1.271381     1.263738     1.256095
      1.248452     1.240808     1.233165     1.225522     1.217879     1.210236     1.202593     1.194950     1.187307     1.179664
      1.172021     1.164377     1.156734     1.149091     1.141448     1.133805     1.126162     1.118519     1.110876     1.103233
      1.095590     1.087946     1.080303     1.072660     1.065017     1.057374     1.049731     1.042088     1.034445     1.026802
      1.019158     1.011515     1.003872     0.996229     0.988586     0.980943     0.973300     0.965657     0.958014     0.950371
      0.942727     0.935084     0.927441     0.919798     0.912155     0.904512     0.896869     0.889226     0.881583     0.873940
      0.866296     0.858653     0.851010     0.843367     0.835724     0.828081     0.820438     0.812795     0.805152     0.797508
      0.789865     0.782222     0.774579     0.766936     0.759293     0.751650     0.744007     0.736364     0.728721     0.721077
      0.713434     0.705791     0.698148     0.690505     0.682862     0.675219     0.667576     0.659933     0.652290     0.644646
      0.637003     0.629360     0.621717     0.614074     0.606431     0.598788     0.591145     0.583502     0.575858     0.568215
      0.560572     0.552929     0.545286     0.537643     0.530000     0.522357     0.514714     0.507071     0.499427     0.491784
      0.484141     0.476498     0.468855     0.461212     0.453569     0.445925     0.438282     0.430639     0.422996     0.415353
      0.407710     0.400067     0.392424     0.384780     0.377137     0.369494     0.361851     0.354208     0.346565     0.338922
      0.331278     0.323635     0.315992     0.308349     0.300706     0.293063     0.285420     0.277777     0.270133     0.262490
      0.254847     0.247204     0.239561     0.231918     0.224275     0.216631     0.208988     0.201345
 NY phased data points follow
   3.57617E+01  3.20883E+01  3.48971E+01  2.99731E+01  3.13088E+01  3.18409E+01  3.18666E+01  2.77604E+01  3.19421E+01  3.50932E+01
   3.32924E+01  3.54537E+01  3.32001E+01  3.36439E+01  3.44874E+01  2.96392E+01  2.67763E+01  2.53845E+01  2.65003E+01  2.73373E+01
   2.34290E+01  2.86038E+01  3.29976E+01  2.99360E+01  2.65618E+01  2.84747E+01  2.68831E+01  2.60483E+01  2.81249E+01  2.24066E+01
   2.79399E+01  2.82117E+01  2.60204E+01  2.19810E+01  2.42223E+01  2.69192E+01  2.73396E+01  2.45543E+01  2.16395E+01  1.88571E+01
   2.49739E+01  2.18737E+01  2.02819E+01  2.07120E+01  2.01340E+01  2.34776E+01  2.24532E+01  1.77082E+01  2.19946E+01  1.89363E+01
   2.55199E+01  2.12327E+01  2.21866E+01  1.89663E+01  2.12668E+01  2.29589E+01  1.64497E+01  2.26579E+01  2.21691E+01  1.96954E+01
   1.71945E+01  1.65346E+01  2.10075E+01  1.44903E+01  1.90039E+01  2.29456E+01  2.24522E+01  1.59041E+01  2.09940E+01  1.41127E+01
   2.04734E+01  1.79153E+01  1.94342E+01  1.45765E+01  1.40037E+01  1.54482E+01  1.52145E+01  1.76819E+01  2.02923E+01  1.48801E+01
   1.47776E+01  1.60076E+01  1.88881E+01  1.80072E+01  1.66713E+01  1.89492E+01  1.95597E+01  1.77349E+01  1.65816E+01  1.34136E+01
   1.88417E+01  1.49524E+01  1.80586E+01  1.67722E+01  1.36086E+01  1.44752E+01  1.31117E+01  1.21780E+01  1.14155E+01  1.27686E+01
   1.52297E+01  1.83195E+01  1.86341E+01  2.16531E+01  1.69613E+01  1.77235E+01  1.77447E+01  1.89580E+01  1.31160E+01  1.59198E+01
   1.73596E+01  1.44557E+01  1.57345E+01  1.18485E+01  1.84934E+01  1.07308E+01  1.90826E+01  1.34058E+01  1.34023E+01  1.58379E+01
   1.34433E+01  1.16211E+01  1.55172E+01  1.41762E+01  1.63078E+01  1.71405E+01  1.38847E+01  1.68175E+01  1.82490E+01  1.19125E+01
   1.29356E+01  1.22817E+01  1.41245E+01  1.19552E+01  1.21408E+01  1.07289E+01  1.14592E+01  1.26817E+01  1.16852E+01  1.06704E+01
   1.07692E+01  8.89328E+00  1.19757E+01  1.24244E+01  1.40247E+01  1.36873E+01  1.06706E+01  1.71308E+01  1.14209E+01  1.00352E+01
   1.26722E+01  1.07238E+01  1.44017E+01  1.37420E+01  1.25167E+01  9.22679E+00  1.45948E+01  1.21624E+01  1.13508E+01  1.24713E+01
   1.03617E+01  9.39004E+00  9.65108E+00  1.30859E+01  1.29691E+01  1.06361E+01  1.35166E+01  1.34697E+01  1.21216E+01  1.05766E+01
   1.57691E+01  1.10949E+01  9.57103E+00  5.92357E+00  1.25684E+01  8.26617E+00  8.26940E+00  1.01076E+01  7.24067E+00  9.99064E+00
   7.03704E+00  9.56597E+00  7.60341E+00  1.14080E+01  8.00561E+00  1.21342E+01  1.06614E+01  9.47035E+00  9.45444E+00  7.41546E+00
   1.20388E+01  1.04882E+01  1.40467E+01  7.89918E+00  1.18384E+01  7.44773E+00  1.45568E+01  1.12525E+01  1.30228E+01  1.13089E+01
   1.09928E+01  5.72528E+00  1.29450E+01  9.40555E+00  9.75990E+00  1.08649E+01  9.33957E+00  1.03123E+01  9.08023E+00  7.88518E+00
   8.61547E+00  8.40925E+00  9.51327E+00  9.94090E+00  1.47507E+01  6.41290E+00  1.14673E+01  1.07185E+01  6.48047E+00  1.08133E+01
   8.33142E+00  9.64145E+00  1.05398E+01  1.00117E+01  1.04758E+01  1.45223E+01  9.64178E+00  1.35809E+01  1.12554E+01  1.17406E+01
   8.20989E+00  1.11130E+01  9.69475E+00  1.32885E+01  1.27296E+01  1.27190E+01  1.24307E+01  1.10257E+01  1.10651E+01  1.11989E+01
   1.31308E+01  1.01785E+01  1.05149E+01  1.47560E+01  1.10907E+01  9.17836E+00  1.35394E+01  1.18119E+01  7.07929E+00  1.04221E+01
   1.39421E+01  1.10327E+01  1.14208E+01  7.18720E+00  9.84924E+00  9.69324E+00  8.01896E+00  1.25114E+01  1.41901E+01  1.19518E+01
   2.32188E+01  1.42284E+01  1.61490E+01  1.24286E+01  1.42300E+01  1.14456E+01  1.25479E+01  7.85069E+00  1.19901E+01  1.15122E+01
   8.40239E+00  6.82337E+00  1.00213E+01  1.15117E+01  8.45722E+00  1.17622E+01  8.81281E+00  7.83731E+00  9.93093E+00  6.35801E+00
   9.28371E+00  9.20168E+00  9.25250E+00  5.11916E+00  1.14005E+01  1.24023E+01  1.05318E+01  7.52664E+00  5.85360E+00  6.53513E+00
   5.87462E+00  9.80255E+00  6.95603E+00  6.06470E+00  7.50637E+00  8.72781E+00  7.36761E+00  8.44207E+00  1.27778E+01  8.95274E+00
   1.04143E+01  8.99369E+00  1.00616E+01  6.92997E+00  6.16867E+00  1.21458E+01  7.17544E+00  9.19291E+00  1.00212E+01  9.29810E+00
   1.17764E+01  1.26327E+01  8.67088E+00  8.90296E+00  9.07986E+00  3.13919E+00  9.98757E+00  8.74245E+00  1.20135E+01  1.00573E+01
   1.39781E+01  1.35278E+01  1.12368E+01  1.23284E+01  1.29835E+01  1.23383E+01  1.21917E+01  1.44749E+01  1.55845E+01  1.33374E+01
   1.42221E+01  1.49735E+01  1.31676E+01  1.85561E+01  1.70468E+01  2.03620E+01  1.91195E+01  2.14259E+01  1.53179E+01  1.25123E+01
   1.58837E+01  1.04339E+01  1.43873E+01  1.41529E+01  1.24447E+01  1.19292E+01  9.88373E+00  1.32595E+01  9.29751E+00  8.85832E+00
   5.92625E+00  7.67895E+00  4.70015E+00  8.82194E+00  7.27482E+00  5.63189E+00  1.51203E+00  4.27698E+00  4.68982E+00  7.23068E-01
  -5.57613E-01  4.04940E+00  5.35631E+00  3.19843E+00 -1.64064E+00  4.94399E+00  2.86950E+00  2.14454E+00  2.73460E+00  5.36948E+00
   4.28997E+00  6.20576E+00  4.52035E+00  3.11479E+00  5.62829E+00  2.92882E+00  7.07353E-01  5.35572E+00  5.93552E+00  3.98862E+00
   1.29786E+00  2.85816E+00  3.23802E+00  2.40414E+00  7.79669E+00  4.53920E+00  3.96779E+00  6.01278E+00  4.46615E+00  7.34509E+00
   4.03375E+00  4.18405E+00  1.05132E+01  4.29403E+00  2.37477E+00  1.87734E+00  3.60088E+00  6.89777E+00  2.36634E+00  2.94503E+00
   3.60292E+00  1.47854E+00  4.87755E+00  1.62812E+00  3.11858E+00  7.72073E+00  6.48912E+00  2.69786E+00  4.19296E+00  1.62691E+00
   5.78804E+00  1.50025E+00  3.14245E+00  2.94124E+00  3.71509E+00  5.16635E-01  4.82035E+00  2.72492E+00  5.35406E+00  3.74709E+00
   3.15124E+00  5.33539E+00  2.80882E+00  6.39783E+00  3.27315E+00  6.97887E+00  4.14441E+00  8.76932E+00  9.46608E+00  5.87002E+00
   3.41255E+00  7.05011E+00  4.05992E+00  7.22232E+00  6.63915E+00  4.27606E+00  1.57165E+00  6.39557E+00  4.21479E+00  3.44186E+00
   7.33440E+00  4.04545E+00  3.71266E+00  5.05557E+00  6.18763E+00  5.51441E+00  3.68645E+00  3.71962E+00  3.65167E+00  8.21456E+00
   4.32641E+00  2.76488E+00  5.82251E+00  5.98807E+00  3.43549E+00  1.30805E+00  5.05775E+00  3.32333E+00  3.90634E+00  5.50088E+00
   5.86502E+00  5.22913E+00  1.63566E-01  6.92977E+00  4.96797E+00  1.66430E+00  7.54688E+00 -1.15222E+00  6.97391E+00  7.42134E-02
   1.01418E+00 -2.37421E+00 -1.41301E+00  2.03092E+00  6.83717E+00  1.68867E+00  3.67142E+00  1.03090E+00  3.86862E+00  2.54037E+00
   3.99935E+00  9.43538E-01  2.47593E+00  3.00007E+00  3.75773E+00  6.49377E+00  2.87022E+00  4.12548E+00  7.18993E-01  4.74627E-01
   4.79895E+00  4.99259E+00  2.10975E+00 -2.33551E-01  5.06265E+00  5.66008E+00  5.64097E+00  4.62459E+00
 NY points of the fit to the data follow
   3.03177E+01  3.01657E+01  3.00265E+01  2.99074E+01  2.97890E+01  2.96188E+01  2.92519E+01  2.92239E+01  3.00196E+01  3.10417E+01
   3.16806E+01  3.16610E+01  3.09183E+01  2.98179E+01  2.87944E+01  2.79922E+01  2.74697E+01  2.73028E+01  2.72565E+01  2.71518E+01
   2.70561E+01  2.70359E+01  2.70255E+01  2.69057E+01  2.65928E+01  2.61056E+01  2.56815E+01  2.54623E+01  2.53481E+01  2.53454E+01
   2.54783E+01  2.56064E+01  2.56009E+01  2.54358E+01  2.50840E+01  2.46532E+01  2.43269E+01  2.40613E+01  2.38223E+01  2.36862E+01
   2.36195E+01  2.35130E+01  2.33760E+01  2.32519E+01  2.30952E+01  2.28901E+01  2.26878E+01  2.25042E+01  2.23575E+01  2.22526E+01
   2.21387E+01  2.19848E+01  2.18195E+01  2.16477E+01  2.14568E+01  2.12632E+01  2.10845E+01  2.09152E+01  2.07521E+01  2.05944E+01
   2.04416E+01  2.02928E+01  2.01463E+01  2.00053E+01  1.98639E+01  1.97227E+01  1.95817E+01  1.94334E+01  1.92810E+01  1.91319E+01
   1.89829E+01  1.88418E+01  1.87284E+01  1.86318E+01  1.85298E+01  1.84126E+01  1.82701E+01  1.81051E+01  1.79390E+01  1.77872E+01
   1.76464E+01  1.75004E+01  1.74071E+01  1.74061E+01  1.74239E+01  1.73962E+01  1.72922E+01  1.71035E+01  1.68795E+01  1.66747E+01
   1.64938E+01  1.63374E+01  1.62147E+01  1.60959E+01  1.59719E+01  1.58724E+01  1.57859E+01  1.56176E+01  1.51594E+01  1.53292E+01
   1.67940E+01  1.85876E+01  1.98205E+01  2.00455E+01  1.91227E+01  1.76108E+01  1.62328E+01  1.52168E+01  1.46715E+01  1.46848E+01
   1.48078E+01  1.47768E+01  1.47130E+01  1.46486E+01  1.45902E+01  1.45387E+01  1.44841E+01  1.44215E+01  1.43602E+01  1.42976E+01
   1.42232E+01  1.40671E+01  1.36433E+01  1.38752E+01  1.53717E+01  1.71743E+01  1.84275E+01  1.87031E+01  1.78581E+01  1.64393E+01
   1.51695E+01  1.42361E+01  1.37141E+01  1.36808E+01  1.36890E+01  1.35252E+01  1.33643E+01  1.32583E+01  1.32098E+01  1.31920E+01
   1.31619E+01  1.30910E+01  1.29951E+01  1.28902E+01  1.27743E+01  1.26562E+01  1.25379E+01  1.24166E+01  1.22973E+01  1.21821E+01
   1.20741E+01  1.19714E+01  1.18751E+01  1.17844E+01  1.17006E+01  1.16290E+01  1.15677E+01  1.14803E+01  1.13443E+01  1.11904E+01
   1.10481E+01  1.09707E+01  1.09683E+01  1.09855E+01  1.09825E+01  1.09427E+01  1.08619E+01  1.07584E+01  1.06622E+01  1.05823E+01
   1.05194E+01  1.04781E+01  1.04218E+01  1.03088E+01  1.01919E+01  1.01225E+01  1.01107E+01  1.01219E+01  1.00987E+01  1.00331E+01
   9.95933E+00  9.91388E+00  9.89636E+00  9.86334E+00  9.79138E+00  9.71925E+00  9.68562E+00  9.70418E+00  9.78068E+00  9.86590E+00
   9.90227E+00  9.88088E+00  9.81271E+00  9.74373E+00  9.68423E+00  9.62178E+00  9.56246E+00  9.51376E+00  9.47352E+00  9.44304E+00
   9.46061E+00  9.52914E+00  9.63190E+00  9.71430E+00  9.72863E+00  9.69594E+00  9.59530E+00  9.43966E+00  9.29559E+00  9.16753E+00
   9.06940E+00  9.04176E+00  9.22121E+00  9.56300E+00  9.89683E+00  1.00996E+01  1.01076E+01  9.95977E+00  9.67589E+00  9.27353E+00
   8.91286E+00  8.79255E+00  8.93826E+00  9.24803E+00  9.61968E+00  9.94083E+00  1.01650E+01  1.02639E+01  1.02185E+01  1.01224E+01
   1.00828E+01  1.01237E+01  1.02287E+01  1.03901E+01  1.05991E+01  1.08297E+01  1.10213E+01  1.11358E+01  1.12035E+01  1.12254E+01
   1.12340E+01  1.12997E+01  1.14553E+01  1.16839E+01  1.19616E+01  1.22405E+01  1.24546E+01  1.25781E+01  1.26139E+01  1.25989E+01
   1.25939E+01  1.26285E+01  1.26890E+01  1.27453E+01  1.27068E+01  1.22787E+01  1.18655E+01  1.28810E+01  1.48928E+01  1.67039E+01
   1.76836E+01  1.73693E+01  1.59635E+01  1.43103E+01  1.29090E+01  1.18871E+01  1.14822E+01  1.14707E+01  1.13103E+01  1.10769E+01
   1.08590E+01  1.06659E+01  1.04963E+01  1.03498E+01  1.02092E+01  1.00581E+01  9.89288E+00  9.71375E+00  9.52501E+00  9.33988E+00
   9.16466E+00  8.99935E+00  8.84863E+00  8.71395E+00  8.59036E+00  8.47468E+00  8.36552E+00  8.26116E+00  8.16181E+00  8.06930E+00
   7.98391E+00  7.90646E+00  7.83893E+00  7.78184E+00  7.73555E+00  7.70174E+00  7.68134E+00  7.67398E+00  7.67963E+00  7.69855E+00
   7.73034E+00  7.77465E+00  7.83073E+00  7.89733E+00  7.97287E+00  8.05574E+00  8.14441E+00  8.23736E+00  8.33317E+00  8.43073E+00
   8.52922E+00  8.62850E+00  8.72922E+00  8.83274E+00  8.94109E+00  9.05685E+00  9.18313E+00  9.32335E+00  9.48097E+00  9.65869E+00
   9.85586E+00  1.00555E+01  1.02947E+01  1.09211E+01  1.17607E+01  1.22959E+01  1.23816E+01  1.20616E+01  1.15205E+01  1.10474E+01
   1.05523E+01  1.01706E+01  1.03674E+01  1.10701E+01  1.18693E+01  1.25368E+01  1.28453E+01  1.27235E+01  1.23301E+01  1.17790E+01
   1.11774E+01  1.07029E+01  1.03162E+01  9.95429E+00  9.64441E+00  9.32419E+00  8.95490E+00  8.54256E+00  8.10740E+00  7.69202E+00
   7.30396E+00  6.97176E+00  6.75733E+00  6.65670E+00  6.61168E+00  6.57245E+00  6.50878E+00  6.40979E+00  6.29443E+00  6.17533E+00
   6.06342E+00  5.97971E+00  5.91609E+00  5.85487E+00  5.79431E+00  5.73353E+00  5.67152E+00  5.60744E+00  5.54072E+00  5.47106E+00
   5.39836E+00  5.32271E+00  5.24440E+00  5.16389E+00  5.08179E+00  4.99877E+00  4.91554E+00  4.83287E+00  4.75157E+00  4.67246E+00
   4.59636E+00  4.52405E+00  4.45627E+00  4.39375E+00  4.33723E+00  4.28743E+00  4.24504E+00  4.21074E+00  4.18519E+00  4.16906E+00
   4.16304E+00  4.16784E+00  4.18412E+00  4.21252E+00  4.25362E+00  4.30799E+00  4.37611E+00  4.45834E+00  4.55487E+00  4.66568E+00
   4.79054E+00  4.92895E+00  5.08015E+00  5.24300E+00  5.41601E+00  5.59734E+00  5.78482E+00  5.97596E+00  6.16800E+00  6.35791E+00
   6.54249E+00  6.71850E+00  6.88275E+00  7.03216E+00  7.16391E+00  7.27547E+00  7.36471E+00  7.43001E+00  7.47027E+00  7.48498E+00
   7.47416E+00  7.43836E+00  7.37866E+00  7.29660E+00  7.19411E+00  7.07342E+00  6.93695E+00  6.78722E+00  6.62683E+00  6.45835E+00
   6.28422E+00  6.10672E+00  5.92794E+00  5.74970E+00  5.57360E+00  5.40100E+00  5.23300E+00  5.07046E+00  4.91400E+00  4.76406E+00
   4.62091E+00  4.48471E+00  4.35546E+00  4.23305E+00  4.11730E+00  4.00800E+00  3.90489E+00  3.80768E+00  3.71607E+00  3.62973E+00
   3.54833E+00  3.47159E+00  3.39921E+00  3.33092E+00  3.26644E+00  3.20551E+00  3.14789E+00  3.09337E+00  3.04177E+00  2.99289E+00
   2.94653E+00  2.90253E+00  2.86074E+00  2.82103E+00  2.78328E+00  2.74737E+00  2.71316E+00  2.68055E+00  2.64945E+00  2.61979E+00
   2.59148E+00  2.56443E+00  2.53856E+00  2.51380E+00  2.49011E+00  2.46744E+00  2.44571E+00  2.42487E+00  2.40485E+00  2.38563E+00
   2.36716E+00  2.34942E+00  2.33235E+00  2.31589E+00  2.30002E+00  2.28471E+00  2.26995E+00  2.25568E+00  2.24188E+00  2.22850E+00
   2.21553E+00  2.20295E+00  2.19075E+00  2.17887E+00  2.16729E+00  2.15599E+00  2.14495E+00  2.13416E+00
 NY background values follow
     3.027E+01    3.010E+01    2.993E+01    2.976E+01    2.959E+01    2.942E+01    2.925E+01    2.907E+01    2.890E+01    2.873E+01
     2.856E+01    2.839E+01    2.822E+01    2.804E+01    2.787E+01    2.770E+01    2.753E+01    2.736E+01    2.719E+01    2.702E+01
     2.685E+01    2.668E+01    2.651E+01    2.634E+01    2.617E+01    2.600E+01    2.583E+01    2.566E+01    2.550E+01    2.533E+01
     2.516E+01    2.500E+01    2.483E+01    2.467E+01    2.450E+01    2.434E+01    2.417E+01    2.401E+01    2.385E+01    2.368E+01
     2.352E+01    2.336E+01    2.320E+01    2.304E+01    2.288E+01    2.272E+01    2.257E+01    2.241E+01    2.225E+01    2.210E+01
     2.194E+01    2.179E+01    2.164E+01    2.149E+01    2.134E+01    2.118E+01    2.104E+01    2.089E+01    2.074E+01    2.059E+01
     2.045E+01    2.030E+01    2.016E+01    2.001E+01    1.987E+01    1.973E+01    1.959E+01    1.945E+01    1.931E+01    1.917E+01
     1.904E+01    1.890E+01    1.877E+01    1.863E+01    1.850E+01    1.837E+01    1.824E+01    1.811E+01    1.798E+01    1.785E+01
     1.772E+01    1.760E+01    1.747E+01    1.735E+01    1.723E+01    1.711E+01    1.699E+01    1.687E+01    1.675E+01    1.663E+01
     1.652E+01    1.640E+01    1.629E+01    1.618E+01    1.607E+01    1.596E+01    1.585E+01    1.574E+01    1.564E+01    1.553E+01
     1.543E+01    1.532E+01    1.522E+01    1.512E+01    1.502E+01    1.492E+01    1.483E+01    1.473E+01    1.464E+01    1.454E+01
     1.445E+01    1.436E+01    1.427E+01    1.418E+01    1.409E+01    1.400E+01    1.391E+01    1.383E+01    1.374E+01    1.366E+01
     1.358E+01    1.350E+01    1.342E+01    1.334E+01    1.326E+01    1.318E+01    1.310E+01    1.303E+01    1.295E+01    1.288E+01
     1.281E+01    1.274E+01    1.267E+01    1.260E+01    1.253E+01    1.246E+01    1.240E+01    1.233E+01    1.226E+01    1.220E+01
     1.214E+01    1.208E+01    1.202E+01    1.195E+01    1.190E+01    1.184E+01    1.178E+01    1.172E+01    1.167E+01    1.161E+01
     1.156E+01    1.150E+01    1.145E+01    1.140E+01    1.135E+01    1.129E+01    1.124E+01    1.119E+01    1.115E+01    1.110E+01
     1.105E+01    1.100E+01    1.096E+01    1.091E+01    1.087E+01    1.082E+01    1.078E+01    1.073E+01    1.069E+01    1.065E+01
     1.061E+01    1.056E+01    1.052E+01    1.048E+01    1.044E+01    1.040E+01    1.036E+01    1.033E+01    1.029E+01    1.025E+01
     1.021E+01    1.017E+01    1.014E+01    1.010E+01    1.006E+01    1.003E+01    9.992E+00    9.957E+00    9.922E+00    9.887E+00
     9.853E+00    9.818E+00    9.785E+00    9.751E+00    9.717E+00    9.684E+00    9.651E+00    9.619E+00    9.586E+00    9.554E+00
     9.522E+00    9.491E+00    9.459E+00    9.428E+00    9.397E+00    9.366E+00    9.335E+00    9.305E+00    9.274E+00    9.244E+00
     9.214E+00    9.184E+00    9.155E+00    9.125E+00    9.096E+00    9.066E+00    9.037E+00    9.008E+00    8.979E+00    8.950E+00
     8.922E+00    8.893E+00    8.864E+00    8.836E+00    8.807E+00    8.779E+00    8.751E+00    8.723E+00    8.694E+00    8.666E+00
     8.638E+00    8.610E+00    8.582E+00    8.554E+00    8.526E+00    8.499E+00    8.471E+00    8.443E+00    8.415E+00    8.388E+00
     8.360E+00    8.333E+00    8.305E+00    8.278E+00    8.250E+00    8.223E+00    8.195E+00    8.168E+00    8.141E+00    8.114E+00
     8.086E+00    8.059E+00    8.032E+00    8.005E+00    7.978E+00    7.951E+00    7.924E+00    7.897E+00    7.870E+00    7.843E+00
     7.816E+00    7.789E+00    7.763E+00    7.736E+00    7.709E+00    7.682E+00    7.655E+00    7.629E+00    7.602E+00    7.575E+00
     7.549E+00    7.522E+00    7.496E+00    7.469E+00    7.442E+00    7.416E+00    7.389E+00    7.362E+00    7.336E+00    7.309E+00
     7.282E+00    7.255E+00    7.227E+00    7.200E+00    7.172E+00    7.145E+00    7.117E+00    7.089E+00    7.060E+00    7.032E+00
     7.003E+00    6.974E+00    6.944E+00    6.915E+00    6.885E+00    6.854E+00    6.824E+00    6.793E+00    6.761E+00    6.729E+00
     6.697E+00    6.665E+00    6.632E+00    6.598E+00    6.564E+00    6.530E+00    6.495E+00    6.459E+00    6.423E+00    6.387E+00
     6.350E+00    6.312E+00    6.274E+00    6.235E+00    6.196E+00    6.156E+00    6.115E+00    6.074E+00    6.032E+00    5.990E+00
     5.946E+00    5.903E+00    5.858E+00    5.814E+00    5.768E+00    5.722E+00    5.676E+00    5.629E+00    5.581E+00    5.534E+00
     5.485E+00    5.437E+00    5.388E+00    5.338E+00    5.288E+00    5.238E+00    5.188E+00    5.137E+00    5.086E+00    5.035E+00
     4.983E+00    4.931E+00    4.879E+00    4.827E+00    4.775E+00    4.722E+00    4.669E+00    4.616E+00    4.563E+00    4.510E+00
     4.457E+00    4.404E+00    4.351E+00    4.297E+00    4.244E+00    4.191E+00    4.137E+00    4.084E+00    4.031E+00    3.978E+00
     3.925E+00    3.872E+00    3.819E+00    3.766E+00    3.714E+00    3.661E+00    3.609E+00    3.557E+00    3.505E+00    3.454E+00
     3.403E+00    3.352E+00    3.301E+00    3.251E+00    3.201E+00    3.151E+00    3.102E+00    3.053E+00    3.004E+00    2.956E+00
     2.908E+00    2.860E+00    2.814E+00    2.767E+00    2.721E+00    2.676E+00    2.631E+00    2.586E+00    2.542E+00    2.499E+00
     2.456E+00    2.414E+00    2.372E+00    2.331E+00    2.291E+00    2.251E+00    2.212E+00    2.174E+00    2.136E+00    2.099E+00
     2.063E+00    2.028E+00    1.993E+00    1.959E+00    1.926E+00    1.894E+00    1.862E+00    1.832E+00    1.802E+00    1.773E+00
     1.745E+00    1.717E+00    1.691E+00    1.665E+00    1.640E+00    1.616E+00    1.592E+00    1.569E+00    1.547E+00    1.526E+00
     1.505E+00    1.485E+00    1.466E+00    1.447E+00    1.429E+00    1.412E+00    1.395E+00    1.379E+00    1.363E+00    1.349E+00
     1.334E+00    1.320E+00    1.307E+00    1.294E+00    1.282E+00    1.271E+00    1.259E+00    1.249E+00    1.238E+00    1.229E+00
     1.219E+00    1.211E+00    1.202E+00    1.194E+00    1.187E+00    1.180E+00    1.173E+00    1.166E+00    1.160E+00    1.155E+00
     1.149E+00    1.144E+00    1.140E+00    1.135E+00    1.131E+00    1.127E+00    1.124E+00    1.120E+00    1.117E+00    1.115E+00
     1.112E+00    1.110E+00    1.108E+00    1.106E+00    1.105E+00    1.103E+00    1.102E+00    1.101E+00    1.100E+00    1.100E+00
     1.099E+00    1.099E+00    1.099E+00    1.099E+00    1.099E+00    1.099E+00    1.100E+00    1.100E+00    1.101E+00    1.102E+00
     1.102E+00    1.103E+00    1.104E+00    1.105E+00    1.107E+00    1.108E+00    1.109E+00    1.110E+00    1.111E+00    1.113E+00
     1.114E+00    1.115E+00    1.117E+00    1.118E+00    1.119E+00    1.121E+00    1.122E+00    1.123E+00
 Ala      Conc. = 6.04E+01
