 LCModel (Version 6.3-1L) Copyright: S.W. Provencher.          Ref.: Magn. Reson. Med. 30:672-679 (1993).                
 Slice#3 Row#2 Col#4  PD_05_press_2_raw_act
 36 lines in following concentration table = NCONC+1
    Conc.  %SD /Cr+PCr  Metabolite                                         
    0.000 999%   0.000 Ala                                                 
   45.250  75% 8.0E-02 Asp                                                 
  183.070 213%   0.325 Cr                                                  
  380.303 103%   0.675 PCr                                                 
   25.993  79% 4.6E-02 GABA                                                
   26.550  77% 4.7E-02 Glc                                                 
    0.000 999%   0.000 Gln                                                 
  408.505 148%   0.725 Glu                                                 
   59.009  70%   0.105 GPC                                                 
    0.000 999%   0.000 PCh                                                 
  134.073 119%   0.238 GSH                                                 
 1.71E+03  31%   3.041 Ins                                                 
  172.703 177%   0.307 Lac                                                 
   45.994 333% 8.2E-02 NAA                                                 
  106.173 150%   0.188 NAAG                                                
   10.601  64% 1.9E-02 Scyllo                                              
   42.499  80% 7.5E-02 Tau                                                 
    0.000 999%   0.000 -CrCH2                                              
   59.009  70%   0.105 GPC+PCh                                             
  152.167  99%   0.270 NAA+NAAG                                            
  563.374  19%   1.000 Cr+PCr                                              
  408.505 148%   0.725 Glu+Gln                                             
 3.06E+03  39%   5.439 Lip13a                                              
   42.880 955% 7.6E-02 Lip13b                                              
 1.01E+03  36%   1.792 Lip09                                               
  152.575 231%   0.271 MM09                                                
  525.148  50%   0.932 Lip20                                               
   93.897 703%   0.167 MM20                                                
    0.000 999%   0.000 MM12                                                
  597.607  99%   1.061 MM14                                                
 1.14E+03  35%   2.028 MM17                                                
 3.11E+03  30%   5.515 Lip13a+Lip13b                                       
 3.70E+03  22%   6.576 MM14+Lip13a+Lip13b+MM12                             
 1.16E+03  29%   2.063 MM09+Lip09                                          
  619.045 108%   1.099 MM20+Lip20                                          
   6 lines in following misc. output table
  FWHM = 0.061 ppm    S/N =   1                                            
  Data shift =-0.061 ppm                                                   
  Ph:-117 deg      11.0 deg/ppm                                            
  alphaB,S = 8.5E+01,   5.1E+01                                            
   14 spline knots.   Ns = 6(1)                                            
  ( 4) 4 infls.   ( 3) 1 extrs.                                            
  498 points on ppm-axis = NY
      4.000000     3.992357     3.984714     3.977070     3.969427     3.961784     3.954141     3.946497     3.938854     3.931211
      3.923568     3.915925     3.908281     3.900638     3.892995     3.885352     3.877708     3.870065     3.862422     3.854779
      3.847136     3.839492     3.831849     3.824206     3.816563     3.808919     3.801276     3.793633     3.785990     3.778347
      3.770703     3.763060     3.755417     3.747774     3.740130     3.732487     3.724844     3.717201     3.709558     3.701914
      3.694271     3.686628     3.678985     3.671341     3.663698     3.656055     3.648412     3.640769     3.633125     3.625482
      3.617839     3.610196     3.602552     3.594909     3.587266     3.579623     3.571980     3.564336     3.556693     3.549050
      3.541407     3.533763     3.526120     3.518477     3.510834     3.503191     3.495547     3.487904     3.480261     3.472618
      3.464974     3.457331     3.449688     3.442045     3.434402     3.426758     3.419115     3.411472     3.403829     3.396185
      3.388542     3.380899     3.373256     3.365613     3.357969     3.350326     3.342683     3.335040     3.327396     3.319753
      3.312110     3.304467     3.296824     3.289180     3.281537     3.273894     3.266251     3.258607     3.250964     3.243321
      3.235678     3.228034     3.220391     3.212748     3.205105     3.197462     3.189818     3.182175     3.174532     3.166889
      3.159245     3.151602     3.143959     3.136316     3.128673     3.121029     3.113386     3.105743     3.098100     3.090456
      3.082813     3.075170     3.067527     3.059884     3.052240     3.044597     3.036954     3.029311     3.021667     3.014024
      3.006381     2.998738     2.991095     2.983451     2.975808     2.968165     2.960522     2.952878     2.945235     2.937592
      2.929949     2.922306     2.914662     2.907019     2.899376     2.891733     2.884089     2.876446     2.868803     2.861160
      2.853517     2.845873     2.838230     2.830587     2.822944     2.815300     2.807657     2.800014     2.792371     2.784728
      2.777084     2.769441     2.761798     2.754155     2.746511     2.738868     2.731225     2.723582     2.715939     2.708295
      2.700652     2.693009     2.685366     2.677722     2.670079     2.662436     2.654793     2.647150     2.639506     2.631863
      2.624220     2.616577     2.608933     2.601290     2.593647     2.586004     2.578361     2.570717     2.563074     2.555431
      2.547788     2.540144     2.532501     2.524858     2.517215     2.509572     2.501928     2.494285     2.486642     2.478999
      2.471355     2.463712     2.456069     2.448426     2.440783     2.433139     2.425496     2.417853     2.410210     2.402566
      2.394923     2.387280     2.379637     2.371994     2.364350     2.356707     2.349064     2.341421     2.333777     2.326134
      2.318491     2.310848     2.303205     2.295561     2.287918     2.280275     2.272632     2.264988     2.257345     2.249702
      2.242059     2.234416     2.226772     2.219129     2.211486     2.203843     2.196199     2.188556     2.180913     2.173270
      2.165627     2.157983     2.150340     2.142697     2.135054     2.127410     2.119767     2.112124     2.104481     2.096838
      2.089194     2.081551     2.073908     2.066265     2.058621     2.050978     2.043335     2.035692     2.028049     2.020405
      2.012762     2.005119     1.997476     1.989833     1.982190     1.974546     1.966903     1.959260     1.951617     1.943974
      1.936331     1.928688     1.921045     1.913402     1.905759     1.898115     1.890472     1.882829     1.875186     1.867543
      1.859900     1.852257     1.844614     1.836971     1.829327     1.821684     1.814041     1.806398     1.798755     1.791112
      1.783469     1.775826     1.768183     1.760540     1.752896     1.745253     1.737610     1.729967     1.722324     1.714681
      1.707038     1.699395     1.691752     1.684108     1.676465     1.668822     1.661179     1.653536     1.645893     1.638250
      1.630607     1.622964     1.615321     1.607677     1.600034     1.592391     1.584748     1.577105     1.569462     1.561819
      1.554176     1.546533     1.538890     1.531246     1.523603     1.515960     1.508317     1.500674     1.493031     1.485388
      1.477745     1.470102     1.462458     1.454815     1.447172     1.439529     1.431886     1.424243     1.416600     1.408957
      1.401314     1.393671     1.386027     1.378384     1.370741     1.363098     1.355455     1.347812     1.340169     1.332526
      1.324883     1.317240     1.309596     1.301953     1.294310     1.286667     1.279024     1.271381     1.263738     1.256095
      1.248452     1.240808     1.233165     1.225522     1.217879     1.210236     1.202593     1.194950     1.187307     1.179664
      1.172021     1.164377     1.156734     1.149091     1.141448     1.133805     1.126162     1.118519     1.110876     1.103233
      1.095590     1.087946     1.080303     1.072660     1.065017     1.057374     1.049731     1.042088     1.034445     1.026802
      1.019158     1.011515     1.003872     0.996229     0.988586     0.980943     0.973300     0.965657     0.958014     0.950371
      0.942727     0.935084     0.927441     0.919798     0.912155     0.904512     0.896869     0.889226     0.881583     0.873940
      0.866296     0.858653     0.851010     0.843367     0.835724     0.828081     0.820438     0.812795     0.805152     0.797508
      0.789865     0.782222     0.774579     0.766936     0.759293     0.751650     0.744007     0.736364     0.728721     0.721077
      0.713434     0.705791     0.698148     0.690505     0.682862     0.675219     0.667576     0.659933     0.652290     0.644646
      0.637003     0.629360     0.621717     0.614074     0.606431     0.598788     0.591145     0.583502     0.575858     0.568215
      0.560572     0.552929     0.545286     0.537643     0.530000     0.522357     0.514714     0.507071     0.499427     0.491784
      0.484141     0.476498     0.468855     0.461212     0.453569     0.445925     0.438282     0.430639     0.422996     0.415353
      0.407710     0.400067     0.392424     0.384780     0.377137     0.369494     0.361851     0.354208     0.346565     0.338922
      0.331278     0.323635     0.315992     0.308349     0.300706     0.293063     0.285420     0.277777     0.270133     0.262490
      0.254847     0.247204     0.239561     0.231918     0.224275     0.216631     0.208988     0.201345
 NY phased data points follow
   5.12887E+01  3.41744E+01  3.57713E+01  4.60879E+01  4.23724E+01  4.28758E+01  3.62782E+01  2.82197E+01  4.45506E+01  4.47443E+01
   4.37680E+01  3.74858E+01  3.59051E+01  5.05457E+01  2.95641E+01  4.16226E+01  2.65894E+01  3.24081E+01  3.91930E+01  2.78960E+01
   2.64188E+01  1.82818E+01  2.12673E+01  1.97619E+01  2.04796E+01  2.51545E+01  1.55485E+01  2.43127E+01  1.92548E+01  1.85508E+01
   3.86637E+01  3.17395E+01  3.22095E+01  2.35037E+01  2.51801E+01  2.35268E+01  2.34880E+01  2.19559E+01  2.01804E+01  1.83320E+01
   3.77853E+01  2.45365E+01  1.54524E+01  2.69394E+01  2.51181E+01  2.38063E+01  2.82802E+01  3.28696E+01  3.45351E+01  2.44628E+01
   1.94761E+01  1.98287E+01  2.69361E+01  1.70543E+01  1.50254E+01  2.89664E+01  3.12678E+01  2.06756E+01  2.08601E+01  2.92045E+01
   3.79514E+01  3.03489E+01  1.89857E+01  1.27690E+01  1.29102E+01  1.11146E+01  1.78385E+01  2.39798E+01  2.61615E+01  1.61892E+01
   2.33967E+01  2.18725E+01  2.38807E+01  2.10705E+01  1.91784E+01  2.23205E+01  1.88669E+01  1.86401E+01  3.28069E+01  1.36733E+01
   1.39963E+01  1.11824E+01  2.44378E+01  3.26449E+01  2.43554E+01  2.48101E+01  2.42388E+01  1.80887E+01  2.06059E+01  2.53888E+01
   2.20821E+01  2.06420E+01  1.09237E+01  1.56589E+01  2.79616E+01  2.23004E+01  1.05023E+01  1.29681E+01  1.45668E+01  9.76398E+00
   1.57042E+01  2.25221E+01  1.74808E+01  2.16964E+01  1.75447E+01  1.90841E+01  2.22230E+01  7.77517E+00  1.67311E+01  1.69564E+01
   6.31621E+00  1.49548E+01  2.27850E+01  5.76811E+00  6.58627E+00  9.71436E+00  6.79892E+00  1.89240E+01  9.44403E+00  8.15896E+00
   1.20138E+01  1.66559E+01  1.61010E+01  2.24849E+01  2.08893E+01  1.54947E+01  3.80010E+01  2.09713E+01  1.30524E+01  2.45251E+01
   2.45840E+01  2.41711E+01  1.22990E+01  1.36463E+01  1.75180E+01  1.18746E+01  1.39558E+01  4.50847E+00  1.35124E+01  9.73050E+00
   2.15848E+01  1.05292E+01  8.12315E+00  9.11212E+00  6.26400E+00  1.49952E+01  1.28983E+01  2.24563E+01  5.93397E+00  1.83584E+01
   8.00018E-01  8.25574E+00  2.90321E+01  1.53442E+01  1.23544E+01  8.64985E-01  1.79980E+01  1.58036E+01  9.88985E+00  7.80478E+00
   1.52818E+01  6.76915E+00  2.05706E+01  5.13185E+00  6.25741E+00  2.38053E+01  2.17964E+01  1.73846E+01  1.45790E+01  1.26862E+01
   1.56018E+01  1.73519E+01  1.06678E+01  2.03693E+01  1.13105E+01  1.12065E+01  1.59752E+01  1.79211E+01  3.90045E+00  1.83318E+00
   1.99389E+01  1.52834E+01  8.20165E+00  1.82713E+01  1.08228E+01  2.41806E+00  1.18171E+01  2.43872E+01  1.71024E+01 -3.51947E+00
   2.18259E+01  8.94013E+00  1.05470E+00  9.28966E+00  1.48667E+01  1.40099E+01  1.88078E+01  2.12684E+01  1.23322E+01  6.35919E+00
   1.95314E+01  1.79763E+01  4.29823E+00  1.90716E+01  2.35266E+01  1.44099E+01  1.29052E+01  1.72409E+01  8.73009E+00  1.73787E+01
   1.83584E+00  1.94274E+01  2.12713E+01  1.77061E+01  8.00947E+00  1.43049E+01  4.56769E+00  4.23532E+00  1.95542E+00  2.07475E+01
   1.38824E+01  1.49941E+01  6.04533E+00  9.10169E+00  1.41228E+01  5.01598E+00  5.00606E+00  1.62819E+01  8.63218E+00  1.08314E+01
   7.28900E+00  1.28779E+01  1.11232E+00  2.94864E+00  1.05635E+01  1.36202E+01  9.94529E+00  1.97378E+00  1.13184E+01 -1.98062E+00
  -4.51359E-02  9.62201E+00  1.71999E+00  1.50316E+01  1.75071E+00  1.15794E+01  7.44737E+00  1.34148E+01  8.13324E+00  8.85043E+00
   2.63373E+01  8.30151E+00  2.94209E+00  1.85429E+01  6.20640E+00  3.17013E+00  1.48055E+01  8.93762E+00  8.64770E+00  2.23472E+01
   1.44793E+01  7.17089E+00  8.53759E+00  1.19257E+01  1.68130E+01  1.95767E+00  2.88082E+00 -1.95194E-01  5.02359E-01 -2.75810E+00
   1.85614E+01  1.15997E+01  6.09357E+00 -2.45603E+00 -4.22564E+00  4.68090E+00  6.04683E-01  5.24330E+00  1.08744E+01  2.21416E+00
   5.32541E+00 -4.33113E+00  1.33924E+01  2.04967E+01  1.10417E+01  1.67270E+01  1.77761E+01  1.64526E+01  1.59055E+01  9.77738E+00
   9.00321E+00  1.36822E+01  8.98803E+00 -1.63480E+01  1.43626E+01  8.99180E+00  7.56987E+00  1.41827E+01  1.32236E+01 -6.37472E+00
   1.67508E+01  2.99521E+00  1.33960E+00  1.91494E+01  2.13094E+01  1.59927E+01  9.34239E+00  1.60803E+01  1.52842E+01  1.45311E+01
   1.07362E+01  6.31572E+00  1.44887E+01 -1.22259E+01  4.71755E+00  5.68065E+00 -4.06667E-01 -4.19047E+00  8.91175E+00  3.77170E+00
   1.47972E+01  1.28600E+01  1.39350E+01  8.72139E-01  9.26905E+00  4.77554E+00  5.47585E+00  1.45936E+01  1.48279E+01  1.37513E+01
   1.13594E+00  6.63548E+00  1.12910E+01  1.23540E+01  6.78577E+00  9.44321E+00  3.09391E+00  5.58948E+00  2.80134E+00  3.05119E+00
   3.42027E+00  7.11865E+00  2.89119E+00  6.92360E+00  7.37046E+00  2.28900E+01  1.69207E+01  1.50626E+01  1.67261E+01  6.68803E+00
   2.65296E+00  1.37290E+01  8.73081E+00  1.73995E+01  1.06691E+01  1.19270E+01  2.22782E+01  2.22752E+01  4.79219E+00  1.60347E+01
   1.89453E+01  1.27894E+01  1.67915E+01  6.32297E+00  6.51485E-01  1.76635E+01  2.67322E+01  1.97449E+01  5.27519E+00 -1.62907E+00
   1.68892E+01 -3.89307E+00  5.43586E+00 -1.16759E+01  1.55520E+00  1.26365E+00  1.39236E+01  1.13973E+01  2.50593E+01  1.05131E+01
   3.03153E+00  1.07560E+01  1.17767E+01  8.81478E+00  1.23488E+01  2.78153E+00  1.97184E+01  5.38107E+00  1.02900E+01  1.39939E+01
   1.11409E+01  1.05882E+01 -4.94007E+00  2.81775E+00 -1.38762E+00 -2.29775E+00  1.10652E+01 -2.88683E+00  1.16481E+01  8.84587E+00
   1.58982E+01  8.94777E+00  2.79166E+00  8.29469E+00  1.38823E+00  1.98911E-01 -4.43457E+00 -1.16784E+01  7.44924E+00 -2.62948E+00
   1.30131E+01 -3.18764E+00  1.51682E+01 -1.36845E+00  1.30900E+01  2.75964E+01  1.38340E+01  1.90530E+01  1.13299E+01  1.78808E+01
   3.13114E+00  8.84301E+00  1.66124E+01 -7.03940E+00  9.12056E+00 -3.86178E-01 -1.92526E+00  8.31128E+00  7.86440E+00  1.87508E+01
   1.67733E+01 -2.47919E+00  5.59298E+00  1.24173E+01  1.45030E+01  1.30751E+01 -9.73293E+00  1.60887E+01  2.49108E+00  6.70535E+00
   1.80300E+00  4.65113E+00  1.49749E+01  7.17918E+00  2.63855E+00  1.13882E+01  2.92767E+00  1.06004E+01 -1.51616E+00  6.68476E+00
  -3.75103E+00  1.67262E+01  8.71630E+00  1.93374E+01 -2.40251E+00 -3.92964E+00  3.83366E+00  8.57304E+00  4.15337E+00  1.26818E+01
   7.88363E+00  1.02823E+01 -2.57660E+00  4.14728E+00  9.72859E+00 -1.90635E+00  1.88079E-01  2.75310E+00 -5.85967E+00  1.18673E+01
  -1.53095E+00  1.22425E+01 -4.67539E-02  4.52382E+00  8.07070E+00 -1.63832E+01  2.42862E+00 -1.91758E+00  4.16664E+00 -8.70912E+00
   8.60244E+00 -9.19160E+00 -1.74952E+01  7.44491E+00 -1.55412E+01  5.54887E+00  3.90252E+00 -3.87717E+00  4.58517E+00  1.14484E+00
  -6.28528E+00  1.34880E+01  1.36434E+01  5.06378E+00  6.40618E+00  3.48163E+00 -5.75777E-01  1.90525E+00
 NY points of the fit to the data follow
   2.63638E+01  2.56739E+01  2.54980E+01  2.61388E+01  2.75049E+01  2.92834E+01  3.11205E+01  3.26212E+01  3.34993E+01  3.36336E+01
   3.31234E+01  3.21507E+01  3.08351E+01  2.92544E+01  2.75132E+01  2.57802E+01  2.43277E+01  2.34265E+01  2.28791E+01  2.26246E+01
   2.25935E+01  2.26094E+01  2.25876E+01  2.25872E+01  2.28180E+01  2.32912E+01  2.38692E+01  2.44779E+01  2.50738E+01  2.55619E+01
   2.58377E+01  2.59299E+01  2.59532E+01  2.58885E+01  2.56034E+01  2.50337E+01  2.42289E+01  2.33565E+01  2.26046E+01  2.20104E+01
   2.16786E+01  2.19938E+01  2.33335E+01  2.54718E+01  2.77558E+01  2.96605E+01  3.08845E+01  3.11658E+01  3.04342E+01  2.89798E+01
   2.72448E+01  2.54923E+01  2.37069E+01  2.19951E+01  2.07619E+01  2.04312E+01  2.11466E+01  2.23980E+01  2.35428E+01  2.42392E+01
   2.44007E+01  2.41115E+01  2.35658E+01  2.29513E+01  2.23924E+01  2.19109E+01  2.15917E+01  2.15437E+01  2.17910E+01  2.22253E+01
   2.27443E+01  2.31820E+01  2.34068E+01  2.33820E+01  2.31496E+01  2.27969E+01  2.23911E+01  2.19570E+01  2.15232E+01  2.11187E+01
   2.08398E+01  2.05520E+01  2.00579E+01  1.92851E+01  1.83157E+01  1.72860E+01  1.63358E+01  1.56037E+01  1.52010E+01  1.51429E+01
   1.53721E+01  1.58269E+01  1.63757E+01  1.69144E+01  1.73522E+01  1.75623E+01  1.75790E+01  1.77279E+01  1.80937E+01  1.85366E+01
   1.89639E+01  1.92838E+01  1.94273E+01  1.93503E+01  1.91198E+01  1.88499E+01  1.85080E+01  1.80294E+01  1.74005E+01  1.67135E+01
   1.61364E+01  1.58615E+01  1.57505E+01  1.56478E+01  1.55378E+01  1.54083E+01  1.52662E+01  1.51163E+01  1.49786E+01  1.49266E+01
   1.53684E+01  1.72353E+01  2.03363E+01  2.38361E+01  2.71003E+01  2.96905E+01  3.12387E+01  3.15593E+01  3.08819E+01  2.96057E+01
   2.78952E+01  2.56687E+01  2.29300E+01  2.00038E+01  1.75504E+01  1.62496E+01  1.57118E+01  1.54444E+01  1.53034E+01  1.52325E+01
   1.52090E+01  1.52287E+01  1.52794E+01  1.53184E+01  1.53144E+01  1.52558E+01  1.51384E+01  1.49820E+01  1.48148E+01  1.46448E+01
   1.44923E+01  1.43560E+01  1.42384E+01  1.41433E+01  1.40635E+01  1.39873E+01  1.39068E+01  1.38213E+01  1.37297E+01  1.36344E+01
   1.35382E+01  1.34437E+01  1.33468E+01  1.32411E+01  1.31284E+01  1.30186E+01  1.29236E+01  1.28464E+01  1.27779E+01  1.27080E+01
   1.26266E+01  1.25305E+01  1.24211E+01  1.23021E+01  1.21773E+01  1.20503E+01  1.19187E+01  1.17740E+01  1.16250E+01  1.14834E+01
   1.13534E+01  1.12369E+01  1.11342E+01  1.10445E+01  1.09773E+01  1.09586E+01  1.10090E+01  1.11133E+01  1.12275E+01  1.13111E+01
   1.13335E+01  1.12680E+01  1.10994E+01  1.08638E+01  1.06202E+01  1.04008E+01  1.02171E+01  1.00848E+01  1.00264E+01  1.00453E+01
   1.01263E+01  1.02270E+01  1.03159E+01  1.03760E+01  1.03554E+01  1.02237E+01  9.98335E+00  9.69933E+00  9.45667E+00  9.31885E+00
   9.40349E+00  9.69357E+00  1.00775E+01  1.04565E+01  1.07491E+01  1.08537E+01  1.06542E+01  1.01331E+01  9.41968E+00  8.69384E+00
   8.04064E+00  7.53111E+00  7.24745E+00  7.23123E+00  7.47987E+00  7.83359E+00  8.16101E+00  8.44938E+00  8.69397E+00  8.86341E+00
   8.92048E+00  8.91024E+00  8.94384E+00  9.04382E+00  9.12430E+00  9.13028E+00  9.04437E+00  8.84302E+00  8.54673E+00  8.20111E+00
   7.87942E+00  7.63965E+00  7.50825E+00  7.48552E+00  7.53813E+00  7.61953E+00  7.69375E+00  7.73852E+00  7.73210E+00  7.70974E+00
   7.86946E+00  8.26734E+00  8.77880E+00  9.30007E+00  9.82641E+00  1.03725E+01  1.08525E+01  1.12028E+01  1.14312E+01  1.15223E+01
   1.14022E+01  1.10436E+01  1.05020E+01  9.90589E+00  9.41358E+00  8.99330E+00  8.53137E+00  8.03515E+00  7.58827E+00  7.25625E+00
   7.00417E+00  6.80719E+00  6.65637E+00  6.53099E+00  6.41043E+00  6.29311E+00  6.17653E+00  6.06077E+00  5.94615E+00  5.83251E+00
   5.72406E+00  5.63224E+00  5.56920E+00  5.53919E+00  5.54203E+00  5.57499E+00  5.63915E+00  5.73692E+00  5.86780E+00  6.02907E+00
   6.22025E+00  6.44072E+00  6.68753E+00  6.95342E+00  7.23316E+00  7.52136E+00  7.81055E+00  8.09296E+00  8.36090E+00  8.60662E+00
   8.82456E+00  9.00896E+00  9.15341E+00  9.25317E+00  9.30535E+00  9.30852E+00  9.26250E+00  9.16798E+00  9.02816E+00  8.84833E+00
   8.63447E+00  8.39348E+00  8.13260E+00  7.85901E+00  7.57979E+00  7.30164E+00  7.03075E+00  6.77261E+00  6.53194E+00  6.31263E+00
   6.11778E+00  5.94970E+00  5.80992E+00  5.69932E+00  5.61819E+00  5.56634E+00  5.54323E+00  5.54804E+00  5.57973E+00  5.63719E+00
   5.71926E+00  5.82486E+00  5.95310E+00  6.10331E+00  6.27519E+00  6.46889E+00  6.68521E+00  6.92613E+00  7.19582E+00  7.50372E+00
   7.87809E+00  8.41338E+00  9.14615E+00  9.90688E+00  1.05646E+01  1.10530E+01  1.13306E+01  1.13594E+01  1.11252E+01  1.07925E+01
   1.06011E+01  1.06067E+01  1.07853E+01  1.11321E+01  1.16597E+01  1.23578E+01  1.31137E+01  1.37551E+01  1.42608E+01  1.46281E+01
   1.48196E+01  1.47941E+01  1.45441E+01  1.41818E+01  1.38281E+01  1.34765E+01  1.31158E+01  1.27429E+01  1.23583E+01  1.19636E+01
   1.15614E+01  1.11543E+01  1.07450E+01  1.03364E+01  9.93124E+00  9.53209E+00  9.14138E+00  8.76128E+00  8.39368E+00  8.04030E+00
   7.70265E+00  7.38215E+00  7.08007E+00  6.79770E+00  6.53628E+00  6.29715E+00  6.08173E+00  5.89158E+00  5.72831E+00  5.59364E+00
   5.48933E+00  5.41713E+00  5.37867E+00  5.37542E+00  5.40850E+00  5.47856E+00  5.58572E+00  5.72937E+00  5.90813E+00  6.11970E+00
   6.36085E+00  6.62741E+00  6.91430E+00  7.21566E+00  7.52492E+00  7.83506E+00  8.13877E+00  8.42873E+00  8.69789E+00  8.93969E+00
   9.14835E+00  9.31899E+00  9.44787E+00  9.53250E+00  9.57162E+00  9.56525E+00  9.51460E+00  9.42194E+00  9.29045E+00  9.12403E+00
   8.92711E+00  8.70443E+00  8.46082E+00  8.20108E+00  7.92977E+00  7.65115E+00  7.36901E+00  7.08670E+00  6.80703E+00  6.53231E+00
   6.26438E+00  6.00459E+00  5.75393E+00  5.51299E+00  5.28210E+00  5.06133E+00  4.85055E+00  4.64952E+00  4.45787E+00  4.27515E+00
   4.10090E+00  3.93461E+00  3.77579E+00  3.62394E+00  3.47858E+00  3.33928E+00  3.20559E+00  3.07713E+00  2.95353E+00  2.83445E+00
   2.71959E+00  2.60865E+00  2.50137E+00  2.39752E+00  2.29688E+00  2.19925E+00  2.10444E+00  2.01228E+00  1.92262E+00  1.83533E+00
   1.75026E+00  1.66730E+00  1.58633E+00  1.50725E+00  1.42997E+00  1.35440E+00  1.28045E+00  1.20804E+00  1.13711E+00  1.06759E+00
   9.99413E-01  9.32523E-01  8.66864E-01  8.02381E-01  7.39026E-01  6.76750E-01  6.15512E-01  5.55269E-01  4.95978E-01  4.37599E-01
   3.80092E-01  3.23422E-01  2.67557E-01  2.12459E-01  1.58092E-01  1.04422E-01  5.14144E-02 -9.61583E-04 -5.27414E-02 -1.03960E-01
  -1.54656E-01 -2.04868E-01 -2.54634E-01 -3.03993E-01 -3.52991E-01 -4.01677E-01 -4.50106E-01 -4.98338E-01
 NY background values follow
     2.172E+01    2.167E+01    2.162E+01    2.158E+01    2.153E+01    2.148E+01    2.143E+01    2.138E+01    2.133E+01    2.128E+01
     2.124E+01    2.119E+01    2.114E+01    2.109E+01    2.104E+01    2.099E+01    2.094E+01    2.089E+01    2.084E+01    2.079E+01
     2.074E+01    2.069E+01    2.064E+01    2.059E+01    2.054E+01    2.049E+01    2.043E+01    2.038E+01    2.033E+01    2.028E+01
     2.023E+01    2.018E+01    2.012E+01    2.007E+01    2.002E+01    1.997E+01    1.992E+01    1.986E+01    1.981E+01    1.976E+01
     1.971E+01    1.965E+01    1.960E+01    1.955E+01    1.949E+01    1.944E+01    1.939E+01    1.933E+01    1.928E+01    1.923E+01
     1.917E+01    1.912E+01    1.906E+01    1.901E+01    1.895E+01    1.890E+01    1.885E+01    1.879E+01    1.874E+01    1.868E+01
     1.863E+01    1.857E+01    1.852E+01    1.846E+01    1.840E+01    1.835E+01    1.829E+01    1.824E+01    1.818E+01    1.813E+01
     1.807E+01    1.801E+01    1.796E+01    1.790E+01    1.785E+01    1.779E+01    1.773E+01    1.768E+01    1.762E+01    1.756E+01
     1.751E+01    1.745E+01    1.739E+01    1.734E+01    1.728E+01    1.722E+01    1.716E+01    1.711E+01    1.705E+01    1.699E+01
     1.693E+01    1.688E+01    1.682E+01    1.676E+01    1.670E+01    1.664E+01    1.659E+01    1.653E+01    1.647E+01    1.641E+01
     1.635E+01    1.630E+01    1.624E+01    1.618E+01    1.612E+01    1.606E+01    1.600E+01    1.594E+01    1.589E+01    1.583E+01
     1.577E+01    1.571E+01    1.565E+01    1.559E+01    1.553E+01    1.547E+01    1.541E+01    1.535E+01    1.529E+01    1.524E+01
     1.518E+01    1.512E+01    1.506E+01    1.500E+01    1.494E+01    1.488E+01    1.482E+01    1.476E+01    1.470E+01    1.464E+01
     1.458E+01    1.452E+01    1.446E+01    1.440E+01    1.434E+01    1.428E+01    1.422E+01    1.416E+01    1.410E+01    1.404E+01
     1.398E+01    1.392E+01    1.386E+01    1.380E+01    1.374E+01    1.368E+01    1.362E+01    1.356E+01    1.350E+01    1.344E+01
     1.338E+01    1.332E+01    1.326E+01    1.319E+01    1.313E+01    1.307E+01    1.301E+01    1.295E+01    1.289E+01    1.283E+01
     1.277E+01    1.271E+01    1.265E+01    1.259E+01    1.253E+01    1.247E+01    1.241E+01    1.235E+01    1.229E+01    1.223E+01
     1.216E+01    1.210E+01    1.204E+01    1.198E+01    1.192E+01    1.186E+01    1.180E+01    1.174E+01    1.168E+01    1.162E+01
     1.156E+01    1.150E+01    1.144E+01    1.138E+01    1.132E+01    1.125E+01    1.119E+01    1.113E+01    1.107E+01    1.101E+01
     1.095E+01    1.089E+01    1.083E+01    1.077E+01    1.071E+01    1.065E+01    1.059E+01    1.053E+01    1.047E+01    1.041E+01
     1.035E+01    1.029E+01    1.023E+01    1.017E+01    1.011E+01    1.005E+01    9.985E+00    9.925E+00    9.865E+00    9.805E+00
     9.745E+00    9.685E+00    9.625E+00    9.565E+00    9.505E+00    9.445E+00    9.385E+00    9.325E+00    9.265E+00    9.205E+00
     9.146E+00    9.086E+00    9.026E+00    8.967E+00    8.907E+00    8.847E+00    8.788E+00    8.728E+00    8.669E+00    8.610E+00
     8.550E+00    8.491E+00    8.432E+00    8.373E+00    8.314E+00    8.255E+00    8.196E+00    8.137E+00    8.078E+00    8.019E+00
     7.960E+00    7.901E+00    7.843E+00    7.784E+00    7.726E+00    7.667E+00    7.609E+00    7.550E+00    7.492E+00    7.434E+00
     7.376E+00    7.318E+00    7.259E+00    7.201E+00    7.144E+00    7.086E+00    7.028E+00    6.970E+00    6.913E+00    6.855E+00
     6.798E+00    6.740E+00    6.683E+00    6.626E+00    6.568E+00    6.511E+00    6.454E+00    6.397E+00    6.341E+00    6.284E+00
     6.227E+00    6.170E+00    6.114E+00    6.057E+00    6.001E+00    5.945E+00    5.889E+00    5.832E+00    5.776E+00    5.720E+00
     5.665E+00    5.609E+00    5.553E+00    5.498E+00    5.442E+00    5.387E+00    5.331E+00    5.276E+00    5.221E+00    5.166E+00
     5.111E+00    5.056E+00    5.002E+00    4.947E+00    4.893E+00    4.838E+00    4.784E+00    4.730E+00    4.676E+00    4.622E+00
     4.568E+00    4.514E+00    4.460E+00    4.407E+00    4.353E+00    4.300E+00    4.246E+00    4.193E+00    4.140E+00    4.087E+00
     4.035E+00    3.982E+00    3.929E+00    3.877E+00    3.825E+00    3.772E+00    3.720E+00    3.668E+00    3.616E+00    3.565E+00
     3.513E+00    3.461E+00    3.410E+00    3.359E+00    3.308E+00    3.257E+00    3.206E+00    3.155E+00    3.104E+00    3.054E+00
     3.003E+00    2.953E+00    2.903E+00    2.853E+00    2.803E+00    2.753E+00    2.704E+00    2.654E+00    2.605E+00    2.556E+00
     2.507E+00    2.458E+00    2.409E+00    2.360E+00    2.312E+00    2.263E+00    2.215E+00    2.167E+00    2.119E+00    2.071E+00
     2.023E+00    1.976E+00    1.928E+00    1.881E+00    1.834E+00    1.787E+00    1.740E+00    1.694E+00    1.647E+00    1.601E+00
     1.554E+00    1.508E+00    1.462E+00    1.417E+00    1.371E+00    1.326E+00    1.280E+00    1.235E+00    1.190E+00    1.145E+00
     1.101E+00    1.056E+00    1.012E+00    9.674E-01    9.233E-01    8.794E-01    8.356E-01    7.920E-01    7.486E-01    7.054E-01
     6.623E-01    6.193E-01    5.765E-01    5.339E-01    4.915E-01    4.492E-01    4.071E-01    3.651E-01    3.234E-01    2.818E-01
     2.403E-01    1.990E-01    1.579E-01    1.170E-01    7.626E-02    3.568E-02   -4.734E-03   -4.497E-02   -8.504E-02   -1.249E-01
    -1.646E-01   -2.042E-01   -2.435E-01   -2.827E-01   -3.217E-01   -3.606E-01   -3.992E-01   -4.377E-01   -4.760E-01   -5.141E-01
    -5.520E-01   -5.897E-01   -6.273E-01   -6.647E-01   -7.019E-01   -7.389E-01   -7.757E-01   -8.123E-01   -8.488E-01   -8.850E-01
    -9.211E-01   -9.570E-01   -9.927E-01   -1.028E+00   -1.064E+00   -1.099E+00   -1.134E+00   -1.168E+00   -1.203E+00   -1.237E+00
    -1.271E+00   -1.305E+00   -1.339E+00   -1.373E+00   -1.406E+00   -1.439E+00   -1.472E+00   -1.505E+00   -1.538E+00   -1.570E+00
    -1.602E+00   -1.634E+00   -1.666E+00   -1.698E+00   -1.729E+00   -1.760E+00   -1.791E+00   -1.822E+00   -1.853E+00   -1.883E+00
    -1.913E+00   -1.943E+00   -1.973E+00   -2.003E+00   -2.032E+00   -2.061E+00   -2.090E+00   -2.119E+00   -2.147E+00   -2.176E+00
    -2.204E+00   -2.232E+00   -2.259E+00   -2.287E+00   -2.314E+00   -2.341E+00   -2.368E+00   -2.395E+00   -2.421E+00   -2.447E+00
    -2.473E+00   -2.499E+00   -2.525E+00   -2.550E+00   -2.575E+00   -2.600E+00   -2.625E+00   -2.649E+00   -2.674E+00   -2.698E+00
    -2.721E+00   -2.745E+00   -2.768E+00   -2.792E+00   -2.814E+00   -2.837E+00   -2.860E+00   -2.882E+00   -2.904E+00   -2.926E+00
    -2.947E+00   -2.969E+00   -2.990E+00   -3.011E+00   -3.032E+00   -3.052E+00   -3.072E+00   -3.092E+00
 Asp      Conc. = 4.52E+01
