 LCModel (Version 6.3-1L) Copyright: S.W. Provencher.          Ref.: Magn. Reson. Med. 30:672-679 (1993).                
 Slice#2 Row#7 Col#5  PD_05_press_2_raw_act
 36 lines in following concentration table = NCONC+1
    Conc.  %SD /Cr+PCr  Metabolite                                         
  210.554 119% 9.1E-02 Ala                                                 
   10.913 999% 4.7E-03 Asp                                                 
  256.462 192%   0.111 Cr                                                  
 2.05E+03  25%   0.889 PCr                                                 
   32.901 952% 1.4E-02 GABA                                                
  157.151 200% 6.8E-02 Glc                                                 
  371.088 137%   0.161 Gln                                                 
 2.12E+03  29%   0.917 Glu                                                 
 1.15E+03   5%   0.496 GPC                                                 
    0.000 999%   0.000 PCh                                                 
  976.768  19%   0.423 GSH                                                 
 3.64E+03  18%   1.574 Ins                                                 
    0.000 999%   0.000 Lac                                                 
 4.57E+03   7%   1.978 NAA                                                 
  723.131  43%   0.313 NAAG                                                
  416.124  16%   0.180 Scyllo                                              
 1.40E+03  32%   0.606 Tau                                                 
  701.215  36%   0.303 -CrCH2                                              
 1.15E+03   5%   0.496 GPC+PCh                                             
 5.29E+03   4%   2.291 NAA+NAAG                                            
 2.31E+03   6%   1.000 Cr+PCr                                              
 2.49E+03  32%   1.078 Glu+Gln                                             
  205.125 675% 8.9E-02 Lip13a                                              
  521.817 147%   0.226 Lip13b                                              
    0.000 999%   0.000 Lip09                                               
 3.45E+03  16%   1.492 MM09                                                
    0.000 999%   0.000 Lip20                                               
 7.33E+03  14%   3.171 MM20                                                
 1.39E+03  36%   0.603 MM12                                                
 3.77E+03  24%   1.633 MM14                                                
 2.58E+03  28%   1.116 MM17                                                
  726.942 120%   0.315 Lip13a+Lip13b                                       
 5.89E+03  19%   2.551 MM14+Lip13a+Lip13b+MM12                             
 3.45E+03  16%   1.492 MM09+Lip09                                          
 7.33E+03  14%   3.171 MM20+Lip20                                          
   6 lines in following misc. output table
  FWHM = 0.054 ppm    S/N =  10                                            
  Data shift = 0.000 ppm                                                   
  Ph: -65 deg     -18.7 deg/ppm                                            
  alphaB,S = 1.3E+00,   5.9E+01                                            
   14 spline knots.   Ns = 7(1)                                            
  (10) 2 infls.   ( 5) 1 extrs.                                            
  498 points on ppm-axis = NY
      4.000000     3.992357     3.984714     3.977070     3.969427     3.961784     3.954141     3.946497     3.938854     3.931211
      3.923568     3.915925     3.908281     3.900638     3.892995     3.885352     3.877708     3.870065     3.862422     3.854779
      3.847136     3.839492     3.831849     3.824206     3.816563     3.808919     3.801276     3.793633     3.785990     3.778347
      3.770703     3.763060     3.755417     3.747774     3.740130     3.732487     3.724844     3.717201     3.709558     3.701914
      3.694271     3.686628     3.678985     3.671341     3.663698     3.656055     3.648412     3.640769     3.633125     3.625482
      3.617839     3.610196     3.602552     3.594909     3.587266     3.579623     3.571980     3.564336     3.556693     3.549050
      3.541407     3.533763     3.526120     3.518477     3.510834     3.503191     3.495547     3.487904     3.480261     3.472618
      3.464974     3.457331     3.449688     3.442045     3.434402     3.426758     3.419115     3.411472     3.403829     3.396185
      3.388542     3.380899     3.373256     3.365613     3.357969     3.350326     3.342683     3.335040     3.327396     3.319753
      3.312110     3.304467     3.296824     3.289180     3.281537     3.273894     3.266251     3.258607     3.250964     3.243321
      3.235678     3.228034     3.220391     3.212748     3.205105     3.197462     3.189818     3.182175     3.174532     3.166889
      3.159245     3.151602     3.143959     3.136316     3.128673     3.121029     3.113386     3.105743     3.098100     3.090456
      3.082813     3.075170     3.067527     3.059884     3.052240     3.044597     3.036954     3.029311     3.021667     3.014024
      3.006381     2.998738     2.991095     2.983451     2.975808     2.968165     2.960522     2.952878     2.945235     2.937592
      2.929949     2.922306     2.914662     2.907019     2.899376     2.891733     2.884089     2.876446     2.868803     2.861160
      2.853517     2.845873     2.838230     2.830587     2.822944     2.815300     2.807657     2.800014     2.792371     2.784728
      2.777084     2.769441     2.761798     2.754155     2.746511     2.738868     2.731225     2.723582     2.715939     2.708295
      2.700652     2.693009     2.685366     2.677722     2.670079     2.662436     2.654793     2.647150     2.639506     2.631863
      2.624220     2.616577     2.608933     2.601290     2.593647     2.586004     2.578361     2.570717     2.563074     2.555431
      2.547788     2.540144     2.532501     2.524858     2.517215     2.509572     2.501928     2.494285     2.486642     2.478999
      2.471355     2.463712     2.456069     2.448426     2.440783     2.433139     2.425496     2.417853     2.410210     2.402566
      2.394923     2.387280     2.379637     2.371994     2.364350     2.356707     2.349064     2.341421     2.333777     2.326134
      2.318491     2.310848     2.303205     2.295561     2.287918     2.280275     2.272632     2.264988     2.257345     2.249702
      2.242059     2.234416     2.226772     2.219129     2.211486     2.203843     2.196199     2.188556     2.180913     2.173270
      2.165627     2.157983     2.150340     2.142697     2.135054     2.127410     2.119767     2.112124     2.104481     2.096838
      2.089194     2.081551     2.073908     2.066265     2.058621     2.050978     2.043335     2.035692     2.028049     2.020405
      2.012762     2.005119     1.997476     1.989833     1.982190     1.974546     1.966903     1.959260     1.951617     1.943974
      1.936331     1.928688     1.921045     1.913402     1.905759     1.898115     1.890472     1.882829     1.875186     1.867543
      1.859900     1.852257     1.844614     1.836971     1.829327     1.821684     1.814041     1.806398     1.798755     1.791112
      1.783469     1.775826     1.768183     1.760540     1.752896     1.745253     1.737610     1.729967     1.722324     1.714681
      1.707038     1.699395     1.691752     1.684108     1.676465     1.668822     1.661179     1.653536     1.645893     1.638250
      1.630607     1.622964     1.615321     1.607677     1.600034     1.592391     1.584748     1.577105     1.569462     1.561819
      1.554176     1.546533     1.538890     1.531246     1.523603     1.515960     1.508317     1.500674     1.493031     1.485388
      1.477745     1.470102     1.462458     1.454815     1.447172     1.439529     1.431886     1.424243     1.416600     1.408957
      1.401314     1.393671     1.386027     1.378384     1.370741     1.363098     1.355455     1.347812     1.340169     1.332526
      1.324883     1.317240     1.309596     1.301953     1.294310     1.286667     1.279024     1.271381     1.263738     1.256095
      1.248452     1.240808     1.233165     1.225522     1.217879     1.210236     1.202593     1.194950     1.187307     1.179664
      1.172021     1.164377     1.156734     1.149091     1.141448     1.133805     1.126162     1.118519     1.110876     1.103233
      1.095590     1.087946     1.080303     1.072660     1.065017     1.057374     1.049731     1.042088     1.034445     1.026802
      1.019158     1.011515     1.003872     0.996229     0.988586     0.980943     0.973300     0.965657     0.958014     0.950371
      0.942727     0.935084     0.927441     0.919798     0.912155     0.904512     0.896869     0.889226     0.881583     0.873940
      0.866296     0.858653     0.851010     0.843367     0.835724     0.828081     0.820438     0.812795     0.805152     0.797508
      0.789865     0.782222     0.774579     0.766936     0.759293     0.751650     0.744007     0.736364     0.728721     0.721077
      0.713434     0.705791     0.698148     0.690505     0.682862     0.675219     0.667576     0.659933     0.652290     0.644646
      0.637003     0.629360     0.621717     0.614074     0.606431     0.598788     0.591145     0.583502     0.575858     0.568215
      0.560572     0.552929     0.545286     0.537643     0.530000     0.522357     0.514714     0.507071     0.499427     0.491784
      0.484141     0.476498     0.468855     0.461212     0.453569     0.445925     0.438282     0.430639     0.422996     0.415353
      0.407710     0.400067     0.392424     0.384780     0.377137     0.369494     0.361851     0.354208     0.346565     0.338922
      0.331278     0.323635     0.315992     0.308349     0.300706     0.293063     0.285420     0.277777     0.270133     0.262490
      0.254847     0.247204     0.239561     0.231918     0.224275     0.216631     0.208988     0.201345
 NY phased data points follow
  -1.12219E+02 -9.71666E+01 -1.08762E+02 -1.03241E+02 -9.07610E+01 -6.87152E+01 -7.17219E+01 -5.21202E+01 -3.85725E+01 -5.42455E+01
  -4.09185E+01 -4.91942E+01 -5.71326E+01 -6.99890E+01 -6.62657E+01 -7.19496E+01 -8.31061E+01 -8.91090E+01 -6.60279E+01 -8.78122E+01
  -8.11817E+01 -8.71423E+01 -7.14883E+01 -8.64776E+01 -7.27273E+01 -7.06526E+01 -7.29265E+01 -6.18790E+01 -4.92930E+01 -3.92530E+01
  -4.63522E+01 -5.87605E+01 -5.96332E+01 -6.49247E+01 -5.84536E+01 -6.26105E+01 -5.44145E+01 -6.21498E+01 -5.71688E+01 -5.96759E+01
  -5.50599E+01 -6.08725E+01 -4.75249E+01 -6.36257E+01 -4.55532E+01 -4.14141E+01 -3.31837E+01 -3.60538E+01 -2.69508E+01 -3.79851E+01
  -4.07340E+01 -5.53680E+01 -5.90340E+01 -6.16219E+01 -6.46402E+01 -5.22508E+01 -4.55842E+01 -4.81288E+01 -4.80824E+01 -3.78506E+01
  -4.96905E+01 -4.39996E+01 -4.57885E+01 -6.39791E+01 -5.20871E+01 -5.48208E+01 -3.73829E+01 -5.23699E+01 -3.90991E+01 -5.72777E+01
  -5.19096E+01 -5.67109E+01 -4.40361E+01 -4.27723E+01 -3.44980E+01 -4.41362E+01 -4.24939E+01 -5.20813E+01 -4.82612E+01 -3.17273E+01
  -3.31087E+01 -4.18658E+01 -2.72057E+01 -3.10019E+01 -3.13763E+01 -2.76957E+01 -3.66451E+01 -2.98609E+01 -1.73616E+01 -1.58436E+01
  -1.94032E+01 -2.98476E+01 -1.56807E+01 -1.98802E+01 -1.82674E+01 -3.17924E+01 -1.54041E+01 -7.33354E+00 -5.83155E+00  1.95036E+01
   3.84472E+01  4.30593E+01  6.84854E+01  8.74373E+01  6.11560E+01  4.14295E+01  2.52395E+01 -9.51680E+00 -1.42783E+01 -2.97525E+01
  -1.29979E+01 -1.60219E+01 -1.29438E+01 -1.44993E+01 -1.58413E+01 -3.04383E+01 -1.57547E+01 -1.31824E+01 -2.05876E+01 -2.02142E+01
  -2.34879E+01 -1.93026E+01 -4.69505E+00 -2.08706E+00  2.31927E+01  3.87912E+01  5.60209E+01  5.63421E+01  5.11281E+01  3.56798E+01
   1.70353E+01 -5.83571E-01 -2.89386E+00 -1.56440E+01 -9.23467E+00 -1.38549E+01 -2.09664E+01 -3.01114E+01 -3.12724E+01 -2.61067E+01
  -2.84803E+01 -2.53222E+01 -2.06833E+01 -1.70403E+01 -2.69891E+01 -2.95107E+01 -2.72506E+01 -3.09807E+01 -2.88912E+01 -1.38799E+01
  -3.08617E+01 -1.93992E+01 -2.60658E+01 -1.53774E+01 -2.63513E+01 -2.44971E+01 -1.75265E+01 -1.28047E+01 -2.88353E+01 -2.69686E+01
  -1.80583E+01 -2.34337E+01 -2.03377E+01 -3.16043E+01 -2.97495E+01 -2.11781E+01 -2.01748E+01 -4.67597E+01 -1.16789E+01 -2.98494E+01
  -2.79508E+01 -4.19584E+01 -1.94612E+01 -3.12455E+01 -4.37794E+01 -2.75012E+01 -3.26525E+01 -3.35605E+01 -3.86202E+01 -4.17639E+01
  -4.31227E+01 -2.09990E+01 -1.96251E+01 -2.25502E+01 -2.74695E+01 -3.48336E+01 -2.40262E+01 -2.04529E+01 -2.88033E+01 -1.21744E+01
  -4.17036E+00 -3.45836E+00 -2.41252E-01 -1.56914E+00  5.22788E+00  1.42048E+00 -1.59110E+01 -1.33472E+01 -2.27903E+01 -2.15652E+00
  -5.52881E+00  1.15391E-02 -1.64748E+01  1.13239E+01 -3.45988E+00  1.76001E+00  2.97865E-01  5.32715E+00 -9.28288E+00 -7.13432E+00
  -2.85520E-01 -1.34101E+01 -4.18621E+00  1.21695E+01  2.59039E+01  8.67353E+00  1.95533E+01  9.09965E+00  1.84401E+01  2.35134E+01
  -5.59300E+00 -1.29211E+00  5.99795E+00 -6.37411E+00 -4.12933E+00  8.06165E+00 -7.19373E+00  4.61812E+00  1.45585E+01  2.01150E+01
   1.27487E+01  5.80901E+00  1.32487E+01  2.33639E+01  1.22886E+01  2.67910E+01  1.64748E+01  2.40628E+01  1.74921E+01  2.01476E+01
   1.63998E+01  1.60485E+01  1.11509E+01  2.12154E+01  1.68130E+01  2.90764E+01  2.41400E+01  2.68244E+01  3.58646E+01  3.34187E+01
   4.45178E+01  4.99127E+01  4.41969E+01  5.52537E+01  6.78733E+01  8.44058E+01  9.25462E+01  1.16527E+02  1.44866E+02  1.79136E+02
   1.88757E+02  1.86375E+02  1.81314E+02  1.65690E+02  1.27935E+02  8.08089E+01  6.42055E+01  4.06517E+01  3.18822E+01  3.35045E+01
   3.31894E+01  2.66651E+01  3.06003E+01  2.20992E+01  2.74904E+01  2.97295E+01  3.24956E+01  1.34258E+01  2.88496E+01  1.89752E+01
   2.00639E+01  1.71819E+01  2.29870E+01  2.15397E+01  1.99972E+01  3.06480E+01  1.52549E+01  1.18314E+01  2.30659E+01  2.45201E+01
   2.58253E+01  2.53869E+01  1.71955E+01  2.70101E+01  3.07971E+01  2.32809E+01  2.24430E+01  2.04715E+01  3.37131E+01  1.51979E+01
   2.43818E+01  4.41864E+01  3.00851E+01  2.07618E+01  2.61540E+01  3.55296E+01  3.39846E+01  2.52758E+01  4.31235E+01  3.83586E+01
   1.89552E+01  4.98213E+01  3.68802E+01  3.88519E+01  3.10995E+01  2.80326E+01  3.33943E+01  2.95050E+01  2.55657E+01  4.79745E+01
   3.50344E+01  3.84192E+01  3.81886E+01  4.16044E+01  3.71281E+01  4.56266E+01  4.63358E+01  5.09208E+01  3.08954E+01  3.27724E+01
   3.08354E+01  2.83548E+01  4.16482E+01  3.45549E+01  4.26744E+01  4.95157E+01  3.14435E+01  3.39766E+01  4.04157E+01  3.29406E+01
   3.89650E+01  3.10298E+01  3.31753E+01  2.18470E+01  2.82597E+01  2.57782E+01  3.64868E+01  3.99567E+01  5.36644E+01  4.42442E+01
   3.29094E+01  3.45025E+01  5.06793E+01  4.68136E+01  1.89116E+01  3.42093E+01  3.42852E+01  3.98486E+01  3.93769E+01  4.58662E+01
   3.12963E+01  3.90157E+01  3.55381E+01  3.25355E+01  1.54375E+01  2.67808E+01  3.59157E+01  4.31689E+01  3.27545E+01  3.18279E+01
   3.57797E+01  3.11383E+01  3.67092E+01  3.24237E+01  3.82253E+01  3.00641E+01  3.16074E+01  3.41349E+01  3.15566E+01  2.66938E+01
   3.65171E+01  4.28066E+01  1.66046E+01  4.40033E+01  2.53627E+01  3.14622E+01  3.81595E+01  2.69624E+01  3.27308E+01  2.83628E+01
   2.29080E+01  3.51241E+01  2.67486E+01  3.44014E+01  4.08982E+01  2.40333E+01  3.97847E+01  4.92316E+01  3.81075E+01  3.78541E+01
   3.91063E+01  4.77484E+01  5.45265E+01  4.04159E+01  3.61474E+01  3.64629E+01  3.28645E+01  5.40666E+01  5.02733E+01  4.88285E+01
   4.10099E+01  4.45345E+01  4.38514E+01  5.32811E+01  4.37494E+01  4.42001E+01  2.74030E+01  4.76044E+01  2.39035E+01  4.09086E+01
   3.54793E+01  3.23788E+01  3.88313E+01  4.26077E+01  2.45544E+01  4.03593E+01  3.33218E+01  3.82308E+01  2.57902E+01  3.71673E+01
   3.47177E+01  3.09773E+01  2.81149E+01  3.05080E+01  2.31985E+01  4.75171E+01  1.77016E+01  2.53199E+01  2.00722E+01  2.92592E+01
   2.95780E+01  3.26963E+01  2.45419E+01  3.15770E+01  2.01619E+01  3.41513E+01  2.22675E+01  1.61817E+01  3.36186E+01  2.14354E+01
   1.90963E+01  2.25063E+01  2.01502E+01  2.03352E+01  1.25453E+01  2.26165E+01  1.05655E+01  2.99931E+01  9.36540E+00  2.49130E+01
   1.27927E+01  2.53840E+01  8.62878E+00  3.47070E+01  2.40737E+01  1.02115E+01  1.89651E+01  3.01649E+01  1.75061E+01  2.65898E+01
   1.60542E+01  1.66543E+01  2.10357E+01  2.13189E+01  2.56531E+01  2.86047E+01  2.44748E+01  1.96247E+01  1.92459E+01  2.14942E+01
   3.30787E+01  2.96556E+01  2.29225E+01  2.64967E+01  1.65726E+01  2.27399E+01  1.32410E+01  1.61096E+01  2.88538E+01  2.20812E+01
   3.71129E+01  3.58625E+01  9.80472E+00  2.42897E+01  1.94983E+01  3.51778E+01  2.19808E+01  1.48396E+01
 NY points of the fit to the data follow
  -8.89873E+01 -8.84715E+01 -8.58563E+01 -8.25432E+01 -7.82347E+01 -7.19831E+01 -6.41563E+01 -5.63007E+01 -5.00045E+01 -4.65201E+01
  -4.66737E+01 -5.05305E+01 -5.70533E+01 -6.41080E+01 -6.94946E+01 -7.27804E+01 -7.47729E+01 -7.62327E+01 -7.67999E+01 -7.70669E+01
  -7.72290E+01 -7.72292E+01 -7.66583E+01 -7.51200E+01 -7.35037E+01 -7.14753E+01 -6.79162E+01 -6.27584E+01 -5.72501E+01 -5.26488E+01
  -4.94801E+01 -4.81498E+01 -4.90629E+01 -5.19626E+01 -5.54186E+01 -5.81202E+01 -6.02333E+01 -6.26605E+01 -6.51391E+01 -6.60461E+01
  -6.51714E+01 -6.30977E+01 -5.98045E+01 -5.47563E+01 -4.82533E+01 -4.19052E+01 -3.72754E+01 -3.52383E+01 -3.62759E+01 -4.05108E+01
  -4.71607E+01 -5.40550E+01 -5.87170E+01 -6.05000E+01 -6.01904E+01 -5.86929E+01 -5.62839E+01 -5.32926E+01 -5.03787E+01 -4.81414E+01
  -4.69380E+01 -4.70304E+01 -4.82016E+01 -4.99180E+01 -5.12281E+01 -5.14038E+01 -5.04622E+01 -4.89135E+01 -4.69449E+01 -4.48431E+01
  -4.31922E+01 -4.20569E+01 -4.09904E+01 -3.98712E+01 -3.90271E+01 -3.87784E+01 -3.92356E+01 -4.04796E+01 -4.21375E+01 -4.37527E+01
  -4.40722E+01 -4.28645E+01 -4.06895E+01 -3.74981E+01 -3.32737E+01 -2.87938E+01 -2.54146E+01 -2.38339E+01 -2.39846E+01 -2.56430E+01
  -2.88089E+01 -3.26711E+01 -3.55243E+01 -3.67516E+01 -3.63317E+01 -3.24930E+01 -2.49208E+01 -1.61303E+01 -4.00101E+00  1.44586E+01
   3.69657E+01  5.75064E+01  7.07358E+01  7.35092E+01  6.49276E+01  4.63069E+01  2.18886E+01 -5.68163E-01 -1.50117E+01 -2.22715E+01
  -2.68071E+01 -3.00478E+01 -3.12511E+01 -3.17461E+01 -3.19080E+01 -3.18127E+01 -3.16133E+01 -3.12143E+01 -3.03261E+01 -2.75117E+01
  -2.18174E+01 -1.56030E+01 -7.83347E+00  4.42616E+00  2.08509E+01  3.72698E+01  4.94532E+01  5.45377E+01  5.10864E+01  3.95879E+01
   2.27476E+01  5.77194E+00 -6.31454E+00 -1.32554E+01 -1.80154E+01 -2.23530E+01 -2.49234E+01 -2.60005E+01 -2.55784E+01 -2.38739E+01
  -2.16788E+01 -1.98165E+01 -1.87014E+01 -1.84385E+01 -1.89083E+01 -1.97303E+01 -2.05097E+01 -2.11269E+01 -2.15495E+01 -2.18664E+01
  -2.21319E+01 -2.23723E+01 -2.25711E+01 -2.26749E+01 -2.27254E+01 -2.26754E+01 -2.24470E+01 -2.22268E+01 -2.22221E+01 -2.26025E+01
  -2.32809E+01 -2.37885E+01 -2.37741E+01 -2.32875E+01 -2.25630E+01 -2.18892E+01 -2.17097E+01 -2.22778E+01 -2.33878E+01 -2.45541E+01
  -2.53643E+01 -2.56215E+01 -2.57062E+01 -2.60958E+01 -2.67407E+01 -2.72269E+01 -2.72022E+01 -2.66565E+01 -2.58760E+01 -2.50623E+01
  -2.43976E+01 -2.39902E+01 -2.36837E+01 -2.32467E+01 -2.23911E+01 -2.08773E+01 -1.87920E+01 -1.61503E+01 -1.29365E+01 -9.36373E+00
  -6.06873E+00 -3.85497E+00 -3.12617E+00 -3.84673E+00 -5.49156E+00 -7.20244E+00 -8.29354E+00 -8.38704E+00 -7.53831E+00 -6.07594E+00
  -4.16690E+00 -1.98271E+00  1.37614E-01  1.66917E+00  2.39751E+00  2.25971E+00  1.04430E+00 -1.18721E+00 -3.74386E+00 -5.84339E+00
  -6.97278E+00 -7.11033E+00 -5.89705E+00 -3.00563E+00  1.04691E+00  4.96477E+00  7.61843E+00  8.50253E+00  7.41936E+00  4.13646E+00
  -6.03216E-01 -4.85130E+00 -6.96130E+00 -6.57122E+00 -4.13731E+00 -2.36460E-01  4.64001E+00  9.17431E+00  1.21511E+01  1.33722E+01
   1.37576E+01  1.41489E+01  1.48130E+01  1.60457E+01  1.80213E+01  2.02724E+01  2.18958E+01  2.24090E+01  2.19543E+01  2.08379E+01
   1.93555E+01  1.82258E+01  1.84021E+01  2.01715E+01  2.30676E+01  2.64221E+01  2.97810E+01  3.26409E+01  3.46524E+01  3.63546E+01
   3.78023E+01  3.96465E+01  4.35020E+01  5.24911E+01  6.78045E+01  8.32540E+01  9.91036E+01  1.20469E+02  1.47339E+02  1.72583E+02
   1.89325E+02  1.93885E+02  1.84096E+02  1.59411E+02  1.23491E+02  8.69931E+01  6.07062E+01  4.61153E+01  3.75541E+01  3.07981E+01
   2.75060E+01  2.59404E+01  2.49677E+01  2.43024E+01  2.38136E+01  2.33573E+01  2.28757E+01  2.23376E+01  2.17284E+01  2.11274E+01
   2.06537E+01  2.03516E+01  2.01758E+01  2.00886E+01  2.00869E+01  2.01647E+01  2.02791E+01  2.04094E+01  2.05880E+01  2.08661E+01
   2.12590E+01  2.17590E+01  2.23545E+01  2.30341E+01  2.37663E+01  2.45158E+01  2.52607E+01  2.60094E+01  2.67774E+01  2.75683E+01
   2.83716E+01  2.91808E+01  2.99817E+01  3.07508E+01  3.14595E+01  3.20887E+01  3.26323E+01  3.30917E+01  3.34661E+01  3.37617E+01
   3.39879E+01  3.41542E+01  3.42721E+01  3.43562E+01  3.44220E+01  3.44861E+01  3.45652E+01  3.46775E+01  3.48438E+01  3.50971E+01
   3.54790E+01  3.58990E+01  3.63158E+01  3.68221E+01  3.73834E+01  3.77906E+01  3.78509E+01  3.75109E+01  3.69104E+01  3.62125E+01
   3.54872E+01  3.49822E+01  3.50376E+01  3.57016E+01  3.66919E+01  3.77033E+01  3.85954E+01  3.92091E+01  3.93603E+01  3.90114E+01
   3.83345E+01  3.76111E+01  3.70001E+01  3.64766E+01  3.60278E+01  3.57202E+01  3.55552E+01  3.55357E+01  3.56633E+01  3.59291E+01
   3.63084E+01  3.67606E+01  3.72308E+01  3.76565E+01  3.79752E+01  3.81345E+01  3.81004E+01  3.78630E+01  3.74366E+01  3.68570E+01
   3.61732E+01  3.54390E+01  3.47043E+01  3.40089E+01  3.33786E+01  3.28254E+01  3.23490E+01  3.19413E+01  3.15898E+01  3.12812E+01
   3.10038E+01  3.07488E+01  3.05107E+01  3.02875E+01  3.00798E+01  2.98904E+01  2.97235E+01  2.95841E+01  2.94779E+01  2.94106E+01
   2.93881E+01  2.94162E+01  2.95005E+01  2.96462E+01  2.98582E+01  3.01413E+01  3.04996E+01  3.09366E+01  3.14550E+01  3.20562E+01
   3.27403E+01  3.35059E+01  3.43495E+01  3.52651E+01  3.62442E+01  3.72755E+01  3.83450E+01  3.94358E+01  4.05287E+01  4.16021E+01
   4.26331E+01  4.35980E+01  4.44732E+01  4.52364E+01  4.58670E+01  4.63477E+01  4.66647E+01  4.68089E+01  4.67761E+01  4.65673E+01
   4.61882E+01  4.56494E+01  4.49656E+01  4.41551E+01  4.32383E+01  4.22375E+01  4.11753E+01  4.00739E+01  3.89545E+01  3.78366E+01
   3.67370E+01  3.56703E+01  3.46478E+01  3.36784E+01  3.27682E+01  3.19209E+01  3.11381E+01  3.04195E+01  2.97635E+01  2.91672E+01
   2.86273E+01  2.81397E+01  2.77003E+01  2.73046E+01  2.69485E+01  2.66278E+01  2.63388E+01  2.60780E+01  2.58424E+01  2.56288E+01
   2.54349E+01  2.52584E+01  2.50974E+01  2.49501E+01  2.48150E+01  2.46906E+01  2.45759E+01  2.44700E+01  2.43718E+01  2.42806E+01
   2.41958E+01  2.41166E+01  2.40427E+01  2.39735E+01  2.39087E+01  2.38478E+01  2.37905E+01  2.37366E+01  2.36857E+01  2.36376E+01
   2.35922E+01  2.35491E+01  2.35082E+01  2.34694E+01  2.34325E+01  2.33975E+01  2.33641E+01  2.33323E+01  2.33018E+01  2.32728E+01
   2.32451E+01  2.32186E+01  2.31932E+01  2.31688E+01  2.31455E+01  2.31231E+01  2.31017E+01  2.30812E+01  2.30614E+01  2.30423E+01
   2.30240E+01  2.30065E+01  2.29896E+01  2.29733E+01  2.29576E+01  2.29424E+01  2.29279E+01  2.29138E+01  2.29003E+01  2.28873E+01
   2.28747E+01  2.28625E+01  2.28508E+01  2.28395E+01  2.28286E+01  2.28181E+01  2.28079E+01  2.27981E+01
 NY background values follow
    -9.908E+01   -9.849E+01   -9.790E+01   -9.732E+01   -9.673E+01   -9.614E+01   -9.555E+01   -9.496E+01   -9.438E+01   -9.379E+01
    -9.320E+01   -9.261E+01   -9.203E+01   -9.144E+01   -9.085E+01   -9.027E+01   -8.968E+01   -8.910E+01   -8.851E+01   -8.793E+01
    -8.734E+01   -8.676E+01   -8.618E+01   -8.559E+01   -8.501E+01   -8.443E+01   -8.385E+01   -8.327E+01   -8.269E+01   -8.212E+01
    -8.154E+01   -8.096E+01   -8.039E+01   -7.982E+01   -7.924E+01   -7.867E+01   -7.810E+01   -7.753E+01   -7.696E+01   -7.640E+01
    -7.583E+01   -7.526E+01   -7.470E+01   -7.414E+01   -7.358E+01   -7.302E+01   -7.246E+01   -7.190E+01   -7.135E+01   -7.079E+01
    -7.024E+01   -6.969E+01   -6.914E+01   -6.859E+01   -6.805E+01   -6.750E+01   -6.696E+01   -6.642E+01   -6.588E+01   -6.535E+01
    -6.481E+01   -6.428E+01   -6.375E+01   -6.322E+01   -6.269E+01   -6.216E+01   -6.164E+01   -6.112E+01   -6.060E+01   -6.008E+01
    -5.957E+01   -5.905E+01   -5.854E+01   -5.803E+01   -5.753E+01   -5.702E+01   -5.652E+01   -5.602E+01   -5.553E+01   -5.503E+01
    -5.454E+01   -5.405E+01   -5.356E+01   -5.308E+01   -5.260E+01   -5.212E+01   -5.164E+01   -5.117E+01   -5.070E+01   -5.023E+01
    -4.976E+01   -4.930E+01   -4.884E+01   -4.838E+01   -4.793E+01   -4.748E+01   -4.703E+01   -4.658E+01   -4.614E+01   -4.570E+01
    -4.526E+01   -4.482E+01   -4.439E+01   -4.396E+01   -4.353E+01   -4.311E+01   -4.268E+01   -4.226E+01   -4.184E+01   -4.143E+01
    -4.101E+01   -4.060E+01   -4.019E+01   -3.979E+01   -3.938E+01   -3.898E+01   -3.858E+01   -3.818E+01   -3.779E+01   -3.740E+01
    -3.700E+01   -3.662E+01   -3.623E+01   -3.584E+01   -3.546E+01   -3.508E+01   -3.470E+01   -3.433E+01   -3.395E+01   -3.358E+01
    -3.321E+01   -3.284E+01   -3.247E+01   -3.211E+01   -3.174E+01   -3.138E+01   -3.102E+01   -3.066E+01   -3.031E+01   -2.995E+01
    -2.960E+01   -2.925E+01   -2.890E+01   -2.855E+01   -2.820E+01   -2.786E+01   -2.751E+01   -2.717E+01   -2.683E+01   -2.649E+01
    -2.615E+01   -2.581E+01   -2.548E+01   -2.514E+01   -2.481E+01   -2.448E+01   -2.415E+01   -2.382E+01   -2.349E+01   -2.316E+01
    -2.284E+01   -2.251E+01   -2.219E+01   -2.187E+01   -2.154E+01   -2.122E+01   -2.090E+01   -2.058E+01   -2.027E+01   -1.995E+01
    -1.963E+01   -1.932E+01   -1.900E+01   -1.869E+01   -1.837E+01   -1.806E+01   -1.775E+01   -1.744E+01   -1.712E+01   -1.681E+01
    -1.650E+01   -1.619E+01   -1.589E+01   -1.558E+01   -1.527E+01   -1.496E+01   -1.465E+01   -1.435E+01   -1.404E+01   -1.374E+01
    -1.343E+01   -1.313E+01   -1.282E+01   -1.252E+01   -1.222E+01   -1.192E+01   -1.162E+01   -1.132E+01   -1.102E+01   -1.072E+01
    -1.043E+01   -1.013E+01   -9.837E+00   -9.543E+00   -9.251E+00   -8.959E+00   -8.668E+00   -8.378E+00   -8.089E+00   -7.802E+00
    -7.515E+00   -7.230E+00   -6.946E+00   -6.663E+00   -6.381E+00   -6.100E+00   -5.821E+00   -5.543E+00   -5.266E+00   -4.991E+00
    -4.716E+00   -4.444E+00   -4.172E+00   -3.902E+00   -3.634E+00   -3.367E+00   -3.101E+00   -2.837E+00   -2.575E+00   -2.314E+00
    -2.054E+00   -1.796E+00   -1.539E+00   -1.284E+00   -1.031E+00   -7.786E-01   -5.281E-01   -2.791E-01   -3.154E-02    2.145E-01
     4.590E-01    7.020E-01    9.435E-01    1.183E+00    1.422E+00    1.659E+00    1.894E+00    2.128E+00    2.361E+00    2.592E+00
     2.821E+00    3.049E+00    3.275E+00    3.500E+00    3.723E+00    3.945E+00    4.165E+00    4.384E+00    4.601E+00    4.817E+00
     5.031E+00    5.244E+00    5.455E+00    5.664E+00    5.872E+00    6.079E+00    6.284E+00    6.487E+00    6.689E+00    6.890E+00
     7.089E+00    7.286E+00    7.482E+00    7.676E+00    7.869E+00    8.060E+00    8.250E+00    8.438E+00    8.625E+00    8.810E+00
     8.993E+00    9.175E+00    9.356E+00    9.535E+00    9.712E+00    9.888E+00    1.006E+01    1.024E+01    1.041E+01    1.058E+01
     1.074E+01    1.091E+01    1.108E+01    1.124E+01    1.140E+01    1.156E+01    1.172E+01    1.188E+01    1.204E+01    1.219E+01
     1.234E+01    1.250E+01    1.265E+01    1.279E+01    1.294E+01    1.309E+01    1.323E+01    1.337E+01    1.351E+01    1.365E+01
     1.379E+01    1.393E+01    1.406E+01    1.420E+01    1.433E+01    1.446E+01    1.459E+01    1.472E+01    1.484E+01    1.497E+01
     1.509E+01    1.521E+01    1.533E+01    1.545E+01    1.557E+01    1.568E+01    1.580E+01    1.591E+01    1.602E+01    1.613E+01
     1.624E+01    1.634E+01    1.645E+01    1.655E+01    1.666E+01    1.676E+01    1.686E+01    1.696E+01    1.705E+01    1.715E+01
     1.724E+01    1.734E+01    1.743E+01    1.752E+01    1.761E+01    1.770E+01    1.778E+01    1.787E+01    1.795E+01    1.803E+01
     1.812E+01    1.820E+01    1.827E+01    1.835E+01    1.843E+01    1.850E+01    1.858E+01    1.865E+01    1.872E+01    1.879E+01
     1.886E+01    1.893E+01    1.899E+01    1.906E+01    1.912E+01    1.918E+01    1.924E+01    1.930E+01    1.936E+01    1.942E+01
     1.948E+01    1.953E+01    1.959E+01    1.964E+01    1.969E+01    1.975E+01    1.980E+01    1.985E+01    1.989E+01    1.994E+01
     1.999E+01    2.003E+01    2.008E+01    2.012E+01    2.016E+01    2.020E+01    2.024E+01    2.028E+01    2.032E+01    2.036E+01
     2.039E+01    2.043E+01    2.046E+01    2.050E+01    2.053E+01    2.056E+01    2.059E+01    2.063E+01    2.065E+01    2.068E+01
     2.071E+01    2.074E+01    2.077E+01    2.079E+01    2.082E+01    2.084E+01    2.086E+01    2.089E+01    2.091E+01    2.093E+01
     2.095E+01    2.097E+01    2.099E+01    2.101E+01    2.103E+01    2.104E+01    2.106E+01    2.108E+01    2.109E+01    2.111E+01
     2.112E+01    2.114E+01    2.115E+01    2.116E+01    2.117E+01    2.119E+01    2.120E+01    2.121E+01    2.122E+01    2.123E+01
     2.124E+01    2.125E+01    2.126E+01    2.127E+01    2.128E+01    2.128E+01    2.129E+01    2.130E+01    2.131E+01    2.131E+01
     2.132E+01    2.133E+01    2.133E+01    2.134E+01    2.135E+01    2.135E+01    2.136E+01    2.136E+01    2.137E+01    2.137E+01
     2.138E+01    2.138E+01    2.139E+01    2.139E+01    2.140E+01    2.140E+01    2.141E+01    2.141E+01    2.142E+01    2.142E+01
     2.142E+01    2.143E+01    2.143E+01    2.144E+01    2.144E+01    2.145E+01    2.145E+01    2.145E+01    2.146E+01    2.146E+01
     2.147E+01    2.147E+01    2.148E+01    2.148E+01    2.148E+01    2.149E+01    2.149E+01    2.150E+01    2.150E+01    2.150E+01
     2.151E+01    2.151E+01    2.152E+01    2.152E+01    2.152E+01    2.153E+01    2.153E+01    2.154E+01    2.154E+01    2.155E+01
     2.155E+01    2.155E+01    2.156E+01    2.156E+01    2.157E+01    2.157E+01    2.158E+01    2.158E+01
 Ala      Conc. = 2.11E+02
