 LCModel (Version 6.3-1L) Copyright: S.W. Provencher.          Ref.: Magn. Reson. Med. 30:672-679 (1993).                
 Slice#3 Row#2 Col#6  PD_05_press_2_raw_act
 36 lines in following concentration table = NCONC+1
    Conc.  %SD /Cr+PCr  Metabolite                                         
    0.000 999%   0.000 Ala                                                 
  172.197  54%   0.164 Asp                                                 
    0.000 999%   0.000 Cr                                                  
 1.05E+03  22%   1.000 PCr                                                 
  100.441  55% 9.6E-02 GABA                                                
  104.147  53% 9.9E-02 Glc                                                 
    0.000 999%   0.000 Gln                                                 
    0.000 999%   0.000 Glu                                                 
  442.537  21%   0.422 GPC                                                 
    0.000 999%   0.000 PCh                                                 
  935.392  40%   0.892 GSH                                                 
 2.71E+03  31%   2.587 Ins                                                 
    0.000 999%   0.000 Lac                                                 
 1.10E+03  26%   1.047 NAA                                                 
    0.000 999%   0.000 NAAG                                                
   34.562  53% 3.3E-02 Scyllo                                              
  172.618  53%   0.165 Tau                                                 
    0.000 999%   0.000 -CrCH2                                              
  442.537  21%   0.422 GPC+PCh                                             
 1.10E+03  26%   1.047 NAA+NAAG                                            
 1.05E+03  22%   1.000 Cr+PCr                                              
    0.000 999%   0.000 Glu+Gln                                             
    0.000 999%   0.000 Lip13a                                              
  851.967  32%   0.812 Lip13b                                              
  289.688  86%   0.276 Lip09                                               
  245.582 128%   0.234 MM09                                                
  169.470 109%   0.162 Lip20                                               
  269.067 205%   0.256 MM20                                                
   74.676 181% 7.1E-02 MM12                                                
    0.000 999%   0.000 MM14                                                
   68.788 395% 6.6E-02 MM17                                                
  851.967  32%   0.812 Lip13a+Lip13b                                       
  926.643  30%   0.883 MM14+Lip13a+Lip13b+MM12                             
  535.270  56%   0.510 MM09+Lip09                                          
  438.536 129%   0.418 MM20+Lip20                                          
   6 lines in following misc. output table
  FWHM = 0.168 ppm    S/N =   1                                            
  Data shift =-0.023 ppm                                                   
  Ph:   9 deg      19.2 deg/ppm                                            
  alphaB,S = 8.5E+01,   2.9E+02                                            
   13 spline knots.   Ns = 9(2)                                            
   2 inflections.     1 extrema                                            
  498 points on ppm-axis = NY
      4.000000     3.992357     3.984714     3.977070     3.969427     3.961784     3.954141     3.946497     3.938854     3.931211
      3.923568     3.915925     3.908281     3.900638     3.892995     3.885352     3.877708     3.870065     3.862422     3.854779
      3.847136     3.839492     3.831849     3.824206     3.816563     3.808919     3.801276     3.793633     3.785990     3.778347
      3.770703     3.763060     3.755417     3.747774     3.740130     3.732487     3.724844     3.717201     3.709558     3.701914
      3.694271     3.686628     3.678985     3.671341     3.663698     3.656055     3.648412     3.640769     3.633125     3.625482
      3.617839     3.610196     3.602552     3.594909     3.587266     3.579623     3.571980     3.564336     3.556693     3.549050
      3.541407     3.533763     3.526120     3.518477     3.510834     3.503191     3.495547     3.487904     3.480261     3.472618
      3.464974     3.457331     3.449688     3.442045     3.434402     3.426758     3.419115     3.411472     3.403829     3.396185
      3.388542     3.380899     3.373256     3.365613     3.357969     3.350326     3.342683     3.335040     3.327396     3.319753
      3.312110     3.304467     3.296824     3.289180     3.281537     3.273894     3.266251     3.258607     3.250964     3.243321
      3.235678     3.228034     3.220391     3.212748     3.205105     3.197462     3.189818     3.182175     3.174532     3.166889
      3.159245     3.151602     3.143959     3.136316     3.128673     3.121029     3.113386     3.105743     3.098100     3.090456
      3.082813     3.075170     3.067527     3.059884     3.052240     3.044597     3.036954     3.029311     3.021667     3.014024
      3.006381     2.998738     2.991095     2.983451     2.975808     2.968165     2.960522     2.952878     2.945235     2.937592
      2.929949     2.922306     2.914662     2.907019     2.899376     2.891733     2.884089     2.876446     2.868803     2.861160
      2.853517     2.845873     2.838230     2.830587     2.822944     2.815300     2.807657     2.800014     2.792371     2.784728
      2.777084     2.769441     2.761798     2.754155     2.746511     2.738868     2.731225     2.723582     2.715939     2.708295
      2.700652     2.693009     2.685366     2.677722     2.670079     2.662436     2.654793     2.647150     2.639506     2.631863
      2.624220     2.616577     2.608933     2.601290     2.593647     2.586004     2.578361     2.570717     2.563074     2.555431
      2.547788     2.540144     2.532501     2.524858     2.517215     2.509572     2.501928     2.494285     2.486642     2.478999
      2.471355     2.463712     2.456069     2.448426     2.440783     2.433139     2.425496     2.417853     2.410210     2.402566
      2.394923     2.387280     2.379637     2.371994     2.364350     2.356707     2.349064     2.341421     2.333777     2.326134
      2.318491     2.310848     2.303205     2.295561     2.287918     2.280275     2.272632     2.264988     2.257345     2.249702
      2.242059     2.234416     2.226772     2.219129     2.211486     2.203843     2.196199     2.188556     2.180913     2.173270
      2.165627     2.157983     2.150340     2.142697     2.135054     2.127410     2.119767     2.112124     2.104481     2.096838
      2.089194     2.081551     2.073908     2.066265     2.058621     2.050978     2.043335     2.035692     2.028049     2.020405
      2.012762     2.005119     1.997476     1.989833     1.982190     1.974546     1.966903     1.959260     1.951617     1.943974
      1.936331     1.928688     1.921045     1.913402     1.905759     1.898115     1.890472     1.882829     1.875186     1.867543
      1.859900     1.852257     1.844614     1.836971     1.829327     1.821684     1.814041     1.806398     1.798755     1.791112
      1.783469     1.775826     1.768183     1.760540     1.752896     1.745253     1.737610     1.729967     1.722324     1.714681
      1.707038     1.699395     1.691752     1.684108     1.676465     1.668822     1.661179     1.653536     1.645893     1.638250
      1.630607     1.622964     1.615321     1.607677     1.600034     1.592391     1.584748     1.577105     1.569462     1.561819
      1.554176     1.546533     1.538890     1.531246     1.523603     1.515960     1.508317     1.500674     1.493031     1.485388
      1.477745     1.470102     1.462458     1.454815     1.447172     1.439529     1.431886     1.424243     1.416600     1.408957
      1.401314     1.393671     1.386027     1.378384     1.370741     1.363098     1.355455     1.347812     1.340169     1.332526
      1.324883     1.317240     1.309596     1.301953     1.294310     1.286667     1.279024     1.271381     1.263738     1.256095
      1.248452     1.240808     1.233165     1.225522     1.217879     1.210236     1.202593     1.194950     1.187307     1.179664
      1.172021     1.164377     1.156734     1.149091     1.141448     1.133805     1.126162     1.118519     1.110876     1.103233
      1.095590     1.087946     1.080303     1.072660     1.065017     1.057374     1.049731     1.042088     1.034445     1.026802
      1.019158     1.011515     1.003872     0.996229     0.988586     0.980943     0.973300     0.965657     0.958014     0.950371
      0.942727     0.935084     0.927441     0.919798     0.912155     0.904512     0.896869     0.889226     0.881583     0.873940
      0.866296     0.858653     0.851010     0.843367     0.835724     0.828081     0.820438     0.812795     0.805152     0.797508
      0.789865     0.782222     0.774579     0.766936     0.759293     0.751650     0.744007     0.736364     0.728721     0.721077
      0.713434     0.705791     0.698148     0.690505     0.682862     0.675219     0.667576     0.659933     0.652290     0.644646
      0.637003     0.629360     0.621717     0.614074     0.606431     0.598788     0.591145     0.583502     0.575858     0.568215
      0.560572     0.552929     0.545286     0.537643     0.530000     0.522357     0.514714     0.507071     0.499427     0.491784
      0.484141     0.476498     0.468855     0.461212     0.453569     0.445925     0.438282     0.430639     0.422996     0.415353
      0.407710     0.400067     0.392424     0.384780     0.377137     0.369494     0.361851     0.354208     0.346565     0.338922
      0.331278     0.323635     0.315992     0.308349     0.300706     0.293063     0.285420     0.277777     0.270133     0.262490
      0.254847     0.247204     0.239561     0.231918     0.224275     0.216631     0.208988     0.201345
 NY phased data points follow
   5.53322E+01  3.59975E+01  1.31854E+01  2.83344E+01  5.24048E+01  7.69727E+01  4.69276E+01  3.07140E+01  5.81427E+00  3.65277E+01
   4.73215E+01  4.52286E+01  2.03601E+01  4.00313E+01  3.28458E+01  4.49656E+01  4.13570E+01  3.58642E+01  2.93253E+01  2.95255E+01
   2.58377E+01  2.59056E+01  3.29913E+01  2.66489E+01  2.96341E+01  2.28714E+01  4.05742E+01  2.57744E+01  3.23429E+01  2.49914E+01
   9.44964E+00  1.68588E+01  3.26112E+01  4.32824E+01  5.38802E+00  3.13023E+01  2.63306E+01  3.56578E+01  2.74356E+01  3.88917E+01
   2.87054E+01  1.93307E+01  3.21963E+01  3.53615E+01  2.66357E+01  1.82321E+01  1.92672E+01 -1.16709E+00 -1.25381E+00  1.16690E+01
   1.00467E+01  2.96626E+01  3.84684E+01  3.77396E+01  2.24306E+01  3.84127E+01  3.34291E+01  1.92944E+01  9.97190E+00  2.34993E+01
   1.28297E+01  2.45388E+01  1.73027E+01  3.08357E+01  2.37182E+01  3.64897E+01  3.09458E+01  2.81415E+01  1.24414E+01  9.02879E+00
   2.41291E+01  1.42331E+01  2.62498E+01  2.57847E+01  1.77678E+01  1.54256E+01  1.92231E+01  2.59194E+01  2.32187E+01  1.74528E+01
   1.91086E+01  3.74241E+01  1.31457E+01  1.90420E+01  3.26239E+00  2.82201E+01  3.88754E+00  9.84329E+00  1.28851E+01  2.63661E+01
   1.09097E+01  7.12509E+00  3.74109E+01  5.41766E+01  1.79560E+01  3.70690E+01  1.26278E+01  1.63860E+01  1.81364E+01  2.85026E+01
   1.63914E+01  2.91318E+01  1.20680E+01  3.01361E+01  2.20681E+01  3.92037E+01  3.26208E+01  2.46620E+01  1.79645E+01  2.69104E+01
   3.40528E+01  3.79438E+01  2.48190E+01  2.42366E+01  1.55590E+01  2.47445E+01  4.75491E+00  2.17491E+01  1.12739E+01  7.14743E+00
   3.57237E+01  1.69024E+01  2.03836E+01  2.25362E+01  1.70334E+01  2.21824E+01  1.63481E+01  1.99379E+01  2.36675E+01  2.29947E+01
   1.53204E+01  6.82024E+00  9.59767E+00  2.85983E+01  2.22036E+01  2.75138E+01  3.72547E+01  1.95846E+01  4.38931E-01  6.98238E-01
   4.13412E+00  5.61135E+00  1.45903E+01  2.32248E+01  2.55530E+01  1.19731E+01  9.62550E+00  2.40575E+01  8.42647E+00  2.10627E+01
   1.49665E+01  1.15688E+01  1.68931E+01  6.65710E+00  9.59250E+00  7.27285E+00  1.16872E+01 -4.90464E-01 -2.98986E+00  8.63383E+00
   7.03672E+00  2.11503E+01 -3.81751E+00  6.14242E+00  6.70112E+00  8.33700E+00  7.57404E+00  2.71166E+01  8.40417E+00  6.09551E+00
   1.77260E+01  4.71620E+00  1.47352E+01  2.41604E+01  4.83804E-01  2.03439E+01  3.62870E+00  1.54249E+01  1.15224E+01  1.75102E+01
  -1.49604E+00  5.80572E+00  1.35375E+01  1.75662E+01 -6.69911E+00  6.73630E+00  7.76041E+00  1.21187E+01 -3.56647E+00  6.96314E+00
   1.28558E+01  6.80618E+00  2.46692E+01  6.49404E+00  4.87380E+00  6.91219E+00  1.92315E+01  2.18244E+01  4.08333E+01  1.34007E+01
   7.90130E+00  2.42715E+01  3.31409E+01  2.15117E+01  5.85224E+00  2.62184E+01  1.40970E+01  4.39814E+00  4.50282E+00  2.12067E+01
   8.11825E+00  1.62255E+01  1.93836E+01  1.01453E+01  9.44502E+00  6.47521E+00 -1.74169E-01  1.84094E+01  2.12298E+01  1.27237E+01
   9.27262E+00  5.37178E+00  7.81438E+00  1.43434E+01  2.65787E+01  5.37581E-01  2.30337E+01  1.93454E+01  8.44536E+00  1.18188E+01
  -8.54873E+00  2.46566E+00 -5.66823E+00 -1.21806E+01 -1.10436E+01  5.97400E-01 -2.95293E+00 -5.55105E+00  1.08240E+01  6.69640E+00
  -5.78570E+00  6.04701E-02  1.62139E+01  1.51196E+01  9.03319E+00  3.70006E+00  5.44651E+00 -3.10629E+00  1.35582E+01  2.02696E+01
   2.68452E+01  2.05965E+01  1.12305E+01  1.15053E+01  1.80268E+01  1.23215E+01  9.93672E+00  2.48716E+01  2.01681E+01  1.96110E+01
   3.73488E+00  1.80617E+00  1.16081E+01  2.74982E+01  1.22146E+01  1.15606E+01  3.39156E+01  8.35188E+00  1.39297E+01  2.49363E+00
  -1.51479E+01  1.50223E+00  7.75902E-01  5.26667E+00 -1.02764E+01  8.19687E+00  5.53763E+00  3.99337E+00 -9.96790E+00 -1.94232E+01
  -2.19523E+01 -3.34720E+00  1.61814E+00 -6.19258E+00 -1.03261E+01 -1.77616E+00  8.22318E-01  3.40068E+00  2.81415E+00 -1.48959E+01
  -2.12202E+01  4.73469E-02 -3.71052E-01 -5.70386E+00 -8.67386E+00  2.41345E+00  1.42970E-01  1.54837E+01  6.37954E+00  3.77382E+00
   7.70622E+00 -6.79681E+00  1.18739E+01 -4.45685E+00 -8.16768E+00  9.05430E+00 -1.63606E-02  8.59271E+00  2.47436E+01  6.66885E+00
   1.34726E+01  3.31582E-01 -2.96286E-02  8.75971E+00  2.38095E+00 -6.28463E+00 -2.17635E+01 -1.84501E+01 -1.56896E+01  3.35281E+00
   3.79589E+00  2.64935E+00  1.44884E+01 -2.78517E+00 -1.05958E+01 -1.91464E+00 -3.87847E+00 -1.59569E+01 -1.73921E+01 -8.04367E+00
  -1.00756E+01 -1.84194E+00 -1.16048E+01  1.27918E+00 -9.12948E+00  5.93108E-01 -1.30225E+01 -1.95417E+01 -6.09089E+00  4.00355E+00
   4.03917E+00 -1.01696E+01 -3.49678E+00  3.72166E+00  7.89376E+00 -7.08370E+00 -1.20387E+01 -7.78699E+00  3.17626E+00  2.04287E+00
   3.47992E+00  1.26234E+01  2.18963E+01  1.80542E+01  1.64810E+01  7.80497E+00  1.30034E+01  9.99296E+00  3.74514E+00  1.69763E+01
   1.66953E+01  1.42454E+01  1.12012E+01 -1.20944E+00 -2.97273E+00  1.54555E+01  1.48218E+01 -2.87980E+00  3.48385E+00  8.47826E+00
  -5.68353E+00 -1.49799E+00  1.90416E+00  1.34539E+01 -4.37213E+00  1.19301E+01 -1.37081E+01 -1.47212E+01 -5.80659E+00 -1.84266E+01
  -7.08628E+00  2.78175E+00 -2.25676E+01  4.89646E+00  4.14528E+00 -6.93618E+00 -8.87967E+00 -4.75305E+00 -1.20691E+01 -5.98232E+00
   1.34093E+01  1.52683E+01  9.31628E+00  4.82384E+00  1.24653E+01 -5.62042E+00  9.69394E+00  8.74071E+00  8.27387E+00 -4.12067E+00
   2.70299E+00  4.92772E+00 -9.11992E+00  1.73945E+01  1.09030E+01 -7.97118E-01  6.80560E+00 -5.82687E+00  1.55832E+01 -2.08637E+01
  -1.56287E+01 -1.55066E+01 -1.38800E+00 -4.48037E+00 -5.71500E+00 -7.83294E+00  1.79589E+00 -4.22969E+00 -1.02210E+01 -3.64871E+00
  -1.23378E+01 -1.28230E+01 -4.38069E+00 -1.82020E+01 -1.07887E+01 -8.99919E+00  6.06549E-01 -9.65944E+00 -2.79265E+00 -4.86601E+00
   7.19324E+00 -4.02664E+00 -8.71529E+00 -7.35245E+00  2.00663E+01 -1.36904E+00 -1.95406E+00  9.10317E+00 -1.48122E+01 -7.71324E+00
   1.03957E+01  8.66048E+00 -5.13878E+00 -3.09065E+00 -1.74716E+01  3.73305E+00 -7.70852E+00 -1.85363E+01 -6.13046E+00 -6.84779E+00
   1.08683E+01 -6.05109E+00 -1.51776E+01  1.16683E+01  1.55744E+01 -5.56639E+00 -8.40073E+00  1.85535E+00 -1.16122E+01 -9.04662E-01
  -9.30149E+00  1.01994E+01 -3.36594E+00 -1.88791E+01 -2.16724E-01  1.99234E+00 -1.37493E+01  1.22842E+01 -1.18715E+01 -1.54495E+01
   8.03426E+00 -7.55620E+00 -7.10681E+00 -5.68264E+00 -8.07672E+00 -1.27034E+01 -2.28491E+01 -1.59320E+01  3.02075E+00 -4.01445E+00
   1.00658E+01 -1.55136E+01  2.81807E+00 -3.01807E+00 -1.98120E+00 -6.49338E+00 -3.44334E+00  1.01890E+01 -6.55547E+00 -3.39659E-01
  -1.53330E+01 -6.33781E+00  2.66653E+00  5.79820E+00  3.64156E+00 -5.49182E+00 -1.10163E+00  3.80987E+00
 NY points of the fit to the data follow
   3.19448E+01  3.32253E+01  3.21649E+01  3.34198E+01  3.20198E+01  3.32418E+01  3.15447E+01  3.27357E+01  3.08419E+01  3.20427E+01
   3.00643E+01  3.13852E+01  2.96692E+01  3.10042E+01  2.95412E+01  3.07670E+01  2.95508E+01  3.04376E+01  2.95178E+01  3.00106E+01
   2.94289E+01  2.95161E+01  2.92333E+01  2.89525E+01  2.89689E+01  2.84254E+01  2.87007E+01  2.80062E+01  2.85470E+01  2.79564E+01
   2.88593E+01  2.84918E+01  2.94586E+01  2.90438E+01  2.99308E+01  2.94024E+01  3.01112E+01  2.94506E+01  2.99023E+01  2.91243E+01
   2.92659E+01  2.84596E+01  2.84063E+01  2.76617E+01  2.75181E+01  2.68394E+01  2.66524E+01  2.60388E+01  2.59144E+01  2.53859E+01
   2.54309E+01  2.49538E+01  2.52068E+01  2.46017E+01  2.48350E+01  2.40759E+01  2.42728E+01  2.34128E+01  2.35974E+01  2.27222E+01
   2.29374E+01  2.20795E+01  2.23058E+01  2.14988E+01  2.17713E+01  2.10520E+01  2.13681E+01  2.07505E+01  2.11482E+01  2.06031E+01
   2.10109E+01  2.03839E+01  2.06542E+01  1.99121E+01  2.00931E+01  1.92988E+01  1.94365E+01  1.86434E+01  1.87724E+01  1.80349E+01
   1.81517E+01  1.75072E+01  1.76395E+01  1.71302E+01  1.74942E+01  1.75767E+01  1.79186E+01  1.86279E+01  1.87607E+01  2.01047E+01
   1.99020E+01  2.18483E+01  2.12029E+01  2.36555E+01  2.24961E+01  2.53175E+01  2.36229E+01  2.67073E+01  2.45087E+01  2.77267E+01
   2.50723E+01  2.82958E+01  2.52838E+01  2.84366E+01  2.51633E+01  2.81481E+01  2.46944E+01  2.74026E+01  2.41456E+01  2.67123E+01
   2.35527E+01  2.59037E+01  2.28895E+01  2.50378E+01  2.22696E+01  2.43268E+01  2.18337E+01  2.38120E+01  2.15074E+01  2.34252E+01
   2.12453E+01  2.31964E+01  2.11513E+01  2.32784E+01  2.13495E+01  2.37075E+01  2.15426E+01  2.37584E+01  2.14209E+01  2.34095E+01
   2.09275E+01  2.25708E+01  2.00075E+01  2.12121E+01  1.86474E+01  1.93338E+01  1.69040E+01  1.70576E+01  1.49464E+01  1.46594E+01
   1.30053E+01  1.24070E+01  1.12743E+01  1.05053E+01  9.91076E+00  9.12464E+00  9.04469E+00  8.40291E+00  8.70820E+00  8.28751E+00
   8.52040E+00  8.14754E+00  8.28535E+00  7.97755E+00  8.02435E+00  7.78091E+00  7.73164E+00  7.49221E+00  7.34209E+00  7.15033E+00
   6.96575E+00  6.85289E+00  6.68535E+00  6.61606E+00  6.47744E+00  6.41081E+00  6.29373E+00  6.20613E+00  6.10896E+00  5.98978E+00
   5.93359E+00  5.80922E+00  5.83258E+00  5.72721E+00  5.84713E+00  5.74636E+00  5.94820E+00  5.83835E+00  6.10258E+00  5.95325E+00
   6.23063E+00  6.08362E+00  6.36126E+00  6.24195E+00  6.51099E+00  6.46071E+00  6.71005E+00  6.73873E+00  6.94314E+00  7.05353E+00
   7.21213E+00  7.40081E+00  7.50084E+00  7.74886E+00  7.76711E+00  8.03383E+00  7.95709E+00  8.20951E+00  8.04139E+00  8.26858E+00
   8.04264E+00  8.23995E+00  7.98833E+00  8.15449E+00  7.92470E+00  8.07005E+00  7.89613E+00  8.00004E+00  7.89441E+00  7.95419E+00
   7.92887E+00  7.94711E+00  7.97296E+00  7.90428E+00  7.92924E+00  7.78356E+00  7.79744E+00  7.62460E+00  7.64690E+00  7.52259E+00
   7.55996E+00  7.49578E+00  7.53944E+00  7.49281E+00  7.52431E+00  7.46735E+00  7.48293E+00  7.42024E+00  7.44346E+00  7.37426E+00
   7.41638E+00  7.34245E+00  7.41105E+00  7.33092E+00  7.43143E+00  7.35682E+00  7.51111E+00  7.47142E+00  7.69404E+00  7.71517E+00
   8.03931E+00  8.23982E+00  9.00899E+00  9.37926E+00  1.03980E+01  1.08590E+01  1.19777E+01  1.24760E+01  1.35748E+01  1.40581E+01
   1.50101E+01  1.54122E+01  1.60917E+01  1.63733E+01  1.67499E+01  1.69267E+01  1.69946E+01  1.70485E+01  1.68086E+01  1.67293E+01
   1.62139E+01  1.59559E+01  1.51829E+01  1.47638E+01  1.37215E+01  1.31616E+01  1.18784E+01  1.12138E+01  9.72986E+00  8.98512E+00
   7.38509E+00  6.63976E+00  5.09177E+00  4.43083E+00  3.08001E+00  2.57083E+00  1.52533E+00  1.20860E+00  5.28786E-01  4.22229E-01
   1.54550E-01  2.41835E-01  3.64337E-01  4.73233E-01  5.60442E-01  6.38196E-01  7.04006E-01  7.62776E-01  8.15264E-01  8.61693E-01
   9.05183E-01  9.42851E-01  9.79364E-01  1.01218E+00  1.04330E+00  1.07147E+00  1.09695E+00  1.11910E+00  1.13741E+00  1.15145E+00
   1.15962E+00  1.16386E+00  1.16193E+00  1.15602E+00  1.14470E+00  1.13024E+00  1.11141E+00  1.09082E+00  1.06698E+00  1.04190E+00
   1.01500E+00  9.87795E-01  9.60146E-01  9.32799E-01  9.06491E-01  8.81237E-01  8.57951E-01  8.36523E-01  8.17680E-01  8.01223E-01
   7.87700E-01  7.76866E-01  7.69114E-01  7.64197E-01  7.62409E-01  7.63563E-01  7.67927E-01  7.75411E-01  7.86299E-01  8.00634E-01
   8.18805E-01  8.41019E-01  8.67823E-01  8.99690E-01  9.37438E-01  9.82001E-01  1.03479E+00  1.09770E+00  1.17351E+00  1.26626E+00
   1.38181E+00  1.52868E+00  1.71866E+00  1.96764E+00  2.29544E+00  2.72508E+00  3.27994E+00  3.97950E+00  4.83250E+00  5.82960E+00
   6.93583E+00  8.08644E+00  9.18746E+00  1.01237E+01  1.07733E+01  1.10284E+01  1.08152E+01  1.01119E+01  8.95549E+00  7.43910E+00
   5.69639E+00  3.87941E+00  2.13378E+00  5.77711E-01 -7.11301E-01 -1.70006E+00 -2.39476E+00 -2.83035E+00 -3.05772E+00 -3.13197E+00
  -3.10374E+00 -3.01420E+00 -2.89344E+00 -2.76121E+00 -2.62888E+00 -2.50188E+00 -2.38178E+00 -2.26797E+00 -2.15883E+00 -2.05239E+00
  -1.94668E+00 -1.83997E+00 -1.73079E+00 -1.61801E+00 -1.50078E+00 -1.37864E+00 -1.25144E+00 -1.11946E+00 -9.83406E-01 -8.44437E-01
  -7.04206E-01 -5.64874E-01 -4.29071E-01 -2.99886E-01 -1.80769E-01 -7.54569E-02  1.21929E-02  7.83378E-02  1.19364E-01  1.32043E-01
   1.13750E-01  6.26045E-02 -2.23639E-02 -1.41135E-01 -2.92645E-01 -4.74809E-01 -6.84588E-01 -9.18118E-01 -1.17088E+00 -1.43791E+00
  -1.71401E+00 -1.99398E+00 -2.27286E+00 -2.54606E+00 -2.80959E+00 -3.06008E+00 -3.29493E+00 -3.51224E+00 -3.71090E+00 -3.89041E+00
  -4.05089E+00 -4.19295E+00 -4.31759E+00 -4.42607E+00 -4.51986E+00 -4.60051E+00 -4.66960E+00 -4.72864E+00 -4.77909E+00 -4.82229E+00
  -4.85943E+00 -4.89159E+00 -4.91967E+00 -4.94447E+00 -4.96665E+00 -4.98678E+00 -5.00530E+00 -5.02260E+00 -5.03895E+00 -5.05463E+00
  -5.06981E+00 -5.08464E+00 -5.09925E+00 -5.11373E+00 -5.12813E+00 -5.14253E+00 -5.15696E+00 -5.17145E+00 -5.18602E+00 -5.20069E+00
  -5.21546E+00 -5.23034E+00 -5.24533E+00 -5.26044E+00 -5.27566E+00 -5.29098E+00 -5.30639E+00 -5.32190E+00 -5.33750E+00 -5.35318E+00
  -5.36892E+00 -5.38472E+00 -5.40057E+00 -5.41647E+00 -5.43240E+00 -5.44835E+00 -5.46431E+00 -5.48027E+00 -5.49622E+00 -5.51215E+00
  -5.52805E+00 -5.54391E+00 -5.55970E+00 -5.57543E+00 -5.59107E+00 -5.60662E+00 -5.62206E+00 -5.63737E+00 -5.65253E+00 -5.66753E+00
  -5.68234E+00 -5.69696E+00 -5.71135E+00 -5.72548E+00 -5.73934E+00 -5.75288E+00 -5.76609E+00 -5.77891E+00 -5.79130E+00 -5.80321E+00
  -5.81459E+00 -5.82536E+00 -5.83545E+00 -5.84476E+00 -5.85316E+00 -5.86053E+00 -5.86668E+00 -5.87138E+00
 NY background values follow
     1.729E+01    1.724E+01    1.719E+01    1.714E+01    1.709E+01    1.704E+01    1.699E+01    1.694E+01    1.689E+01    1.684E+01
     1.679E+01    1.674E+01    1.669E+01    1.664E+01    1.659E+01    1.654E+01    1.649E+01    1.644E+01    1.639E+01    1.634E+01
     1.629E+01    1.624E+01    1.619E+01    1.614E+01    1.609E+01    1.604E+01    1.599E+01    1.594E+01    1.589E+01    1.584E+01
     1.579E+01    1.574E+01    1.569E+01    1.564E+01    1.559E+01    1.554E+01    1.549E+01    1.544E+01    1.539E+01    1.534E+01
     1.529E+01    1.524E+01    1.518E+01    1.513E+01    1.508E+01    1.503E+01    1.498E+01    1.493E+01    1.488E+01    1.483E+01
     1.478E+01    1.473E+01    1.468E+01    1.463E+01    1.458E+01    1.453E+01    1.448E+01    1.443E+01    1.437E+01    1.432E+01
     1.427E+01    1.422E+01    1.417E+01    1.412E+01    1.407E+01    1.402E+01    1.397E+01    1.392E+01    1.387E+01    1.382E+01
     1.377E+01    1.371E+01    1.366E+01    1.361E+01    1.356E+01    1.351E+01    1.346E+01    1.341E+01    1.336E+01    1.331E+01
     1.326E+01    1.321E+01    1.316E+01    1.310E+01    1.305E+01    1.300E+01    1.295E+01    1.290E+01    1.285E+01    1.280E+01
     1.275E+01    1.270E+01    1.265E+01    1.260E+01    1.254E+01    1.249E+01    1.244E+01    1.239E+01    1.234E+01    1.229E+01
     1.224E+01    1.219E+01    1.214E+01    1.209E+01    1.204E+01    1.199E+01    1.193E+01    1.188E+01    1.183E+01    1.178E+01
     1.173E+01    1.168E+01    1.163E+01    1.158E+01    1.153E+01    1.148E+01    1.143E+01    1.138E+01    1.132E+01    1.127E+01
     1.122E+01    1.117E+01    1.112E+01    1.107E+01    1.102E+01    1.097E+01    1.092E+01    1.087E+01    1.082E+01    1.077E+01
     1.072E+01    1.067E+01    1.062E+01    1.056E+01    1.051E+01    1.046E+01    1.041E+01    1.036E+01    1.031E+01    1.026E+01
     1.021E+01    1.016E+01    1.011E+01    1.006E+01    1.001E+01    9.959E+00    9.909E+00    9.858E+00    9.808E+00    9.758E+00
     9.708E+00    9.657E+00    9.607E+00    9.557E+00    9.507E+00    9.456E+00    9.406E+00    9.356E+00    9.306E+00    9.256E+00
     9.206E+00    9.156E+00    9.106E+00    9.056E+00    9.006E+00    8.956E+00    8.906E+00    8.856E+00    8.806E+00    8.756E+00
     8.706E+00    8.656E+00    8.607E+00    8.557E+00    8.507E+00    8.457E+00    8.408E+00    8.358E+00    8.308E+00    8.259E+00
     8.209E+00    8.160E+00    8.110E+00    8.061E+00    8.011E+00    7.962E+00    7.913E+00    7.863E+00    7.814E+00    7.765E+00
     7.715E+00    7.666E+00    7.617E+00    7.568E+00    7.519E+00    7.470E+00    7.421E+00    7.371E+00    7.323E+00    7.274E+00
     7.225E+00    7.176E+00    7.127E+00    7.078E+00    7.029E+00    6.981E+00    6.932E+00    6.883E+00    6.835E+00    6.786E+00
     6.737E+00    6.689E+00    6.640E+00    6.592E+00    6.544E+00    6.495E+00    6.447E+00    6.399E+00    6.350E+00    6.302E+00
     6.254E+00    6.206E+00    6.158E+00    6.110E+00    6.062E+00    6.014E+00    5.966E+00    5.918E+00    5.870E+00    5.823E+00
     5.775E+00    5.727E+00    5.680E+00    5.632E+00    5.585E+00    5.537E+00    5.490E+00    5.442E+00    5.395E+00    5.348E+00
     5.300E+00    5.253E+00    5.206E+00    5.159E+00    5.112E+00    5.065E+00    5.018E+00    4.971E+00    4.924E+00    4.877E+00
     4.830E+00    4.784E+00    4.737E+00    4.691E+00    4.644E+00    4.597E+00    4.551E+00    4.505E+00    4.458E+00    4.412E+00
     4.366E+00    4.320E+00    4.273E+00    4.227E+00    4.181E+00    4.135E+00    4.089E+00    4.044E+00    3.998E+00    3.952E+00
     3.906E+00    3.861E+00    3.815E+00    3.770E+00    3.724E+00    3.679E+00    3.633E+00    3.588E+00    3.543E+00    3.498E+00
     3.453E+00    3.408E+00    3.363E+00    3.318E+00    3.273E+00    3.228E+00    3.183E+00    3.139E+00    3.094E+00    3.049E+00
     3.005E+00    2.961E+00    2.916E+00    2.872E+00    2.828E+00    2.783E+00    2.739E+00    2.695E+00    2.651E+00    2.607E+00
     2.564E+00    2.520E+00    2.476E+00    2.432E+00    2.389E+00    2.345E+00    2.302E+00    2.258E+00    2.215E+00    2.172E+00
     2.129E+00    2.086E+00    2.043E+00    2.000E+00    1.957E+00    1.914E+00    1.871E+00    1.828E+00    1.786E+00    1.743E+00
     1.701E+00    1.658E+00    1.616E+00    1.574E+00    1.532E+00    1.489E+00    1.447E+00    1.405E+00    1.363E+00    1.322E+00
     1.280E+00    1.238E+00    1.197E+00    1.155E+00    1.114E+00    1.072E+00    1.031E+00    9.897E-01    9.485E-01    9.074E-01
     8.664E-01    8.255E-01    7.846E-01    7.439E-01    7.032E-01    6.626E-01    6.220E-01    5.816E-01    5.412E-01    5.009E-01
     4.607E-01    4.205E-01    3.805E-01    3.405E-01    3.006E-01    2.608E-01    2.210E-01    1.814E-01    1.418E-01    1.023E-01
     6.287E-02    2.354E-02   -1.571E-02   -5.487E-02   -9.395E-02   -1.330E-01   -1.719E-01   -2.107E-01   -2.494E-01   -2.881E-01
    -3.267E-01   -3.652E-01   -4.036E-01   -4.419E-01   -4.801E-01   -5.183E-01   -5.564E-01   -5.943E-01   -6.322E-01   -6.700E-01
    -7.077E-01   -7.454E-01   -7.829E-01   -8.204E-01   -8.577E-01   -8.950E-01   -9.322E-01   -9.693E-01   -1.006E+00   -1.043E+00
    -1.080E+00   -1.117E+00   -1.153E+00   -1.190E+00   -1.226E+00   -1.263E+00   -1.299E+00   -1.335E+00   -1.371E+00   -1.407E+00
    -1.443E+00   -1.479E+00   -1.515E+00   -1.551E+00   -1.586E+00   -1.622E+00   -1.657E+00   -1.692E+00   -1.727E+00   -1.762E+00
    -1.797E+00   -1.832E+00   -1.867E+00   -1.902E+00   -1.936E+00   -1.971E+00   -2.005E+00   -2.040E+00   -2.074E+00   -2.108E+00
    -2.142E+00   -2.176E+00   -2.210E+00   -2.243E+00   -2.277E+00   -2.310E+00   -2.344E+00   -2.377E+00   -2.410E+00   -2.444E+00
    -2.477E+00   -2.510E+00   -2.542E+00   -2.575E+00   -2.608E+00   -2.640E+00   -2.673E+00   -2.705E+00   -2.737E+00   -2.769E+00
    -2.801E+00   -2.833E+00   -2.865E+00   -2.897E+00   -2.928E+00   -2.960E+00   -2.991E+00   -3.023E+00   -3.054E+00   -3.085E+00
    -3.116E+00   -3.147E+00   -3.178E+00   -3.208E+00   -3.239E+00   -3.269E+00   -3.300E+00   -3.330E+00   -3.360E+00   -3.390E+00
    -3.420E+00   -3.450E+00   -3.479E+00   -3.509E+00   -3.539E+00   -3.568E+00   -3.597E+00   -3.626E+00   -3.655E+00   -3.684E+00
    -3.713E+00   -3.742E+00   -3.771E+00   -3.799E+00   -3.828E+00   -3.856E+00   -3.884E+00   -3.912E+00   -3.940E+00   -3.968E+00
    -3.996E+00   -4.023E+00   -4.051E+00   -4.078E+00   -4.106E+00   -4.133E+00   -4.160E+00   -4.187E+00   -4.214E+00   -4.240E+00
    -4.267E+00   -4.293E+00   -4.320E+00   -4.346E+00   -4.372E+00   -4.398E+00   -4.424E+00   -4.450E+00
 Asp      Conc. = 1.72E+02
