 LCModel (Version 6.3-1L) Copyright: S.W. Provencher.          Ref.: Magn. Reson. Med. 30:672-679 (1993).                
 Slice#2 Row#1 Col#5  PD_05_press_2_raw_act
 36 lines in following concentration table = NCONC+1
    Conc.  %SD /Cr+PCr  Metabolite                                         
    0.000 999%   0.000 Ala                                                 
   43.787 113%   0.213 Asp                                                 
  205.327  50%   1.000 Cr                                                  
    0.000 999%   0.000 PCr                                                 
   30.652  96%   0.149 GABA                                                
   25.458 116%   0.124 Glc                                                 
    3.981 999% 1.9E-02 Gln                                                 
    0.000 999%   0.000 Glu                                                 
    0.000 999%   0.000 GPC                                                 
  119.106  34%   0.580 PCh                                                 
   27.523 471%   0.134 GSH                                                 
    0.000 999%   0.000 Ins                                                 
    0.000 999%   0.000 Lac                                                 
  356.060  39%   1.734 NAA                                                 
   33.404 399%   0.163 NAAG                                                
   10.633  92% 5.2E-02 Scyllo                                              
   48.422 101%   0.236 Tau                                                 
   28.898 167%   0.141 -CrCH2                                              
  119.106  34%   0.580 GPC+PCh                                             
  389.464  46%   1.897 NAA+NAAG                                            
  205.327  50%   1.000 Cr+PCr                                              
    3.981 999% 1.9E-02 Glu+Gln                                             
    0.000 999%   0.000 Lip13a                                              
    0.000 999%   0.000 Lip13b                                              
 8.26E-04 999% 4.0E-06 Lip09                                               
 1.42E+03  23%   6.920 MM09                                                
    0.000 999%   0.000 Lip20                                               
 1.86E+03  36%   9.076 MM20                                                
    0.000 999%   0.000 MM12                                                
    0.000 999%   0.000 MM14                                                
  299.474 146%   1.459 MM17                                                
    0.000 999%   0.000 Lip13a+Lip13b                                       
    0.000 999%   0.000 MM14+Lip13a+Lip13b+MM12                             
 1.42E+03  23%   6.920 MM09+Lip09                                          
 1.86E+03  36%   9.076 MM20+Lip20                                          
   6 lines in following misc. output table
  FWHM = 0.038 ppm    S/N =   1                                            
  Data shift = 0.000 ppm                                                   
  Ph: -60 deg     -12.3 deg/ppm                                            
  alphaB,S = 8.5E+01,   1.3E+01                                            
   14 spline knots.   Ns = 5(1)                                            
   2 inflections.     2 extrema                                            
  498 points on ppm-axis = NY
      4.000000     3.992357     3.984714     3.977070     3.969427     3.961784     3.954141     3.946497     3.938854     3.931211
      3.923568     3.915925     3.908281     3.900638     3.892995     3.885352     3.877708     3.870065     3.862422     3.854779
      3.847136     3.839492     3.831849     3.824206     3.816563     3.808919     3.801276     3.793633     3.785990     3.778347
      3.770703     3.763060     3.755417     3.747774     3.740130     3.732487     3.724844     3.717201     3.709558     3.701914
      3.694271     3.686628     3.678985     3.671341     3.663698     3.656055     3.648412     3.640769     3.633125     3.625482
      3.617839     3.610196     3.602552     3.594909     3.587266     3.579623     3.571980     3.564336     3.556693     3.549050
      3.541407     3.533763     3.526120     3.518477     3.510834     3.503191     3.495547     3.487904     3.480261     3.472618
      3.464974     3.457331     3.449688     3.442045     3.434402     3.426758     3.419115     3.411472     3.403829     3.396185
      3.388542     3.380899     3.373256     3.365613     3.357969     3.350326     3.342683     3.335040     3.327396     3.319753
      3.312110     3.304467     3.296824     3.289180     3.281537     3.273894     3.266251     3.258607     3.250964     3.243321
      3.235678     3.228034     3.220391     3.212748     3.205105     3.197462     3.189818     3.182175     3.174532     3.166889
      3.159245     3.151602     3.143959     3.136316     3.128673     3.121029     3.113386     3.105743     3.098100     3.090456
      3.082813     3.075170     3.067527     3.059884     3.052240     3.044597     3.036954     3.029311     3.021667     3.014024
      3.006381     2.998738     2.991095     2.983451     2.975808     2.968165     2.960522     2.952878     2.945235     2.937592
      2.929949     2.922306     2.914662     2.907019     2.899376     2.891733     2.884089     2.876446     2.868803     2.861160
      2.853517     2.845873     2.838230     2.830587     2.822944     2.815300     2.807657     2.800014     2.792371     2.784728
      2.777084     2.769441     2.761798     2.754155     2.746511     2.738868     2.731225     2.723582     2.715939     2.708295
      2.700652     2.693009     2.685366     2.677722     2.670079     2.662436     2.654793     2.647150     2.639506     2.631863
      2.624220     2.616577     2.608933     2.601290     2.593647     2.586004     2.578361     2.570717     2.563074     2.555431
      2.547788     2.540144     2.532501     2.524858     2.517215     2.509572     2.501928     2.494285     2.486642     2.478999
      2.471355     2.463712     2.456069     2.448426     2.440783     2.433139     2.425496     2.417853     2.410210     2.402566
      2.394923     2.387280     2.379637     2.371994     2.364350     2.356707     2.349064     2.341421     2.333777     2.326134
      2.318491     2.310848     2.303205     2.295561     2.287918     2.280275     2.272632     2.264988     2.257345     2.249702
      2.242059     2.234416     2.226772     2.219129     2.211486     2.203843     2.196199     2.188556     2.180913     2.173270
      2.165627     2.157983     2.150340     2.142697     2.135054     2.127410     2.119767     2.112124     2.104481     2.096838
      2.089194     2.081551     2.073908     2.066265     2.058621     2.050978     2.043335     2.035692     2.028049     2.020405
      2.012762     2.005119     1.997476     1.989833     1.982190     1.974546     1.966903     1.959260     1.951617     1.943974
      1.936331     1.928688     1.921045     1.913402     1.905759     1.898115     1.890472     1.882829     1.875186     1.867543
      1.859900     1.852257     1.844614     1.836971     1.829327     1.821684     1.814041     1.806398     1.798755     1.791112
      1.783469     1.775826     1.768183     1.760540     1.752896     1.745253     1.737610     1.729967     1.722324     1.714681
      1.707038     1.699395     1.691752     1.684108     1.676465     1.668822     1.661179     1.653536     1.645893     1.638250
      1.630607     1.622964     1.615321     1.607677     1.600034     1.592391     1.584748     1.577105     1.569462     1.561819
      1.554176     1.546533     1.538890     1.531246     1.523603     1.515960     1.508317     1.500674     1.493031     1.485388
      1.477745     1.470102     1.462458     1.454815     1.447172     1.439529     1.431886     1.424243     1.416600     1.408957
      1.401314     1.393671     1.386027     1.378384     1.370741     1.363098     1.355455     1.347812     1.340169     1.332526
      1.324883     1.317240     1.309596     1.301953     1.294310     1.286667     1.279024     1.271381     1.263738     1.256095
      1.248452     1.240808     1.233165     1.225522     1.217879     1.210236     1.202593     1.194950     1.187307     1.179664
      1.172021     1.164377     1.156734     1.149091     1.141448     1.133805     1.126162     1.118519     1.110876     1.103233
      1.095590     1.087946     1.080303     1.072660     1.065017     1.057374     1.049731     1.042088     1.034445     1.026802
      1.019158     1.011515     1.003872     0.996229     0.988586     0.980943     0.973300     0.965657     0.958014     0.950371
      0.942727     0.935084     0.927441     0.919798     0.912155     0.904512     0.896869     0.889226     0.881583     0.873940
      0.866296     0.858653     0.851010     0.843367     0.835724     0.828081     0.820438     0.812795     0.805152     0.797508
      0.789865     0.782222     0.774579     0.766936     0.759293     0.751650     0.744007     0.736364     0.728721     0.721077
      0.713434     0.705791     0.698148     0.690505     0.682862     0.675219     0.667576     0.659933     0.652290     0.644646
      0.637003     0.629360     0.621717     0.614074     0.606431     0.598788     0.591145     0.583502     0.575858     0.568215
      0.560572     0.552929     0.545286     0.537643     0.530000     0.522357     0.514714     0.507071     0.499427     0.491784
      0.484141     0.476498     0.468855     0.461212     0.453569     0.445925     0.438282     0.430639     0.422996     0.415353
      0.407710     0.400067     0.392424     0.384780     0.377137     0.369494     0.361851     0.354208     0.346565     0.338922
      0.331278     0.323635     0.315992     0.308349     0.300706     0.293063     0.285420     0.277777     0.270133     0.262490
      0.254847     0.247204     0.239561     0.231918     0.224275     0.216631     0.208988     0.201345
 NY phased data points follow
  -4.56246E+00 -3.78241E+01 -5.47254E+01 -2.78130E+01 -2.17773E+01 -1.83254E+01 -1.71396E+01 -4.06351E+01 -1.32944E+01 -1.27742E+01
   5.07086E+00 -9.16774E+00 -1.72816E+01 -7.62973E+00 -2.55922E+01 -2.02582E+01 -2.46999E+01 -1.19271E+01 -1.29617E+01 -4.26105E+00
  -9.21941E+00 -3.24626E+01 -1.53859E+01 -4.02554E+01 -3.49816E+01 -2.36527E+01 -1.41677E+01 -2.49104E+01 -2.42914E+01 -2.04280E+01
  -2.04356E+01 -1.64883E+01 -3.92940E+00 -2.78625E+01 -1.66778E+01 -3.72973E+01 -5.10969E+00 -1.07764E+01 -5.25212E+00 -1.97523E+01
  -2.23865E+01 -1.17032E+01 -3.23039E+00 -3.56965E+01 -2.09808E+01 -2.14587E+01 -1.15378E+01 -2.09596E+01 -2.08078E+01 -9.54351E+00
  -3.79329E+00 -2.78142E+01 -8.78058E+00 -2.31205E+01 -4.12332E+00 -2.53270E+01 -2.73150E+01 -1.30616E+01 -2.04401E+01 -1.50303E+01
  -1.93413E+01 -4.39423E+00 -2.64830E+01 -1.73153E+01 -1.61995E+01 -2.98668E+01 -1.81120E+01 -3.15016E+01 -3.31106E+01 -1.23924E+01
  -1.97849E+01 -7.28818E+00 -1.90802E+01 -1.73278E+01 -7.95604E+00 -1.81368E+01 -1.17580E+01 -1.12801E+01 -1.06132E+01 -1.87026E+01
  -1.52287E+01  5.09556E-01 -1.02778E+01 -1.48162E+01 -1.01088E+01 -9.79035E+00 -4.50994E+00 -1.96222E+01 -1.42123E+01 -2.06307E+01
  -8.43711E+00 -1.65800E+01 -1.94566E+01 -1.97077E+01 -2.62587E+01 -1.50641E+01 -5.12186E+00 -1.00380E+01 -1.01778E+01 -3.54529E+00
  -8.38993E+00  9.50196E+00  5.57303E+00 -6.83668E+00  1.07597E+01 -1.76214E+01 -1.61021E+01 -7.23321E+00 -1.36397E+01 -1.16297E+01
  -5.94184E+00 -4.35182E+00 -3.32718E+00 -2.60457E+01 -1.51404E+01 -1.57665E+01 -1.78630E+01 -1.51995E+01  3.69100E+00 -1.72393E+01
  -2.39109E+01 -2.09840E+01 -5.01867E+00 -2.39695E+01  1.70656E+00 -9.37625E+00 -1.35803E+01  1.36110E+01 -7.96922E+00 -8.38367E+00
  -1.57275E+01 -1.90887E+01 -1.44665E+00 -1.94662E+01 -8.57391E+00 -9.93072E+00 -2.79139E+01 -9.29746E+00 -1.56891E+01  3.11560E+00
  -2.48300E+00  4.95277E+00 -2.23770E+01 -4.40969E+00 -1.77778E+01 -1.46372E+01 -1.56388E+01 -1.33733E+01 -1.12187E+01  9.58412E+00
  -1.51368E+01 -6.36147E+00 -6.35859E+00 -1.53445E+01 -2.14948E+01 -9.54142E+00 -2.31503E+01 -1.32666E+01 -1.43557E+01 -1.50775E+01
  -1.94780E+01 -8.89064E+00 -3.02354E+01 -8.38863E+00 -2.92031E+01 -4.42673E+00 -1.05067E+01 -2.18287E+01 -2.47093E+01  2.71618E+00
  -1.76638E+01 -1.74267E+01 -1.43181E+01 -1.71545E+01 -2.33442E+01 -1.03458E+01  4.72607E+00 -2.74428E+01  5.22502E+00 -2.74669E+01
  -2.98023E+00 -1.66353E+01 -1.36199E+01 -2.68658E+01 -1.18328E+01 -3.54104E+00 -1.71088E+01 -1.86074E+01 -1.45985E+01 -1.01103E+01
  -7.54266E+00 -1.40175E+01 -1.15106E+01 -3.34034E+01 -1.43735E+01 -6.65256E+00 -2.17639E+01 -6.31438E+00 -2.15153E+01 -2.93553E+00
  -2.28057E+01 -1.31063E+01 -7.29764E+00 -1.79653E+01 -1.66048E+01  2.04060E+00 -7.54138E+00 -1.33954E+01 -1.82636E+01  5.35557E+00
  -2.68935E+01 -2.85871E+01 -1.11767E+01 -8.57714E+00 -2.86496E+00 -1.14432E+01 -2.39529E+01 -1.46131E+01  1.50482E+01  7.35724E+00
  -3.53086E+00  2.65882E+00  4.15604E+00  2.47613E+00 -2.26444E+01  3.09989E+00 -4.85148E+00 -2.69446E+00 -1.88397E+01 -7.59021E+00
   6.52676E+00 -2.34125E+01 -1.01998E+01 -1.92964E+00 -2.46260E+00 -7.34941E+00  7.28615E+00 -1.37362E+01 -1.26934E+01 -1.13191E+01
  -1.19688E+00 -1.23532E+01 -2.66413E+00  2.27405E+00 -1.90811E+01  8.23014E+00 -1.19435E+00  1.99395E+00 -1.85774E+00  8.30157E+00
  -1.47619E+01 -5.79223E+00 -1.61403E+01 -2.23286E+00 -4.66863E+00  1.14873E+01  4.63918E+00  9.86818E+00 -4.14523E+00  1.49187E+01
   1.34094E+01  1.25395E+01  8.52971E+00  7.73406E+00 -1.52572E+01 -2.07743E+01 -1.14896E-02 -1.28092E+01  3.29952E+00  8.54468E-01
  -1.78616E+01  6.78481E+00 -2.16787E+01 -9.12137E+00 -1.63974E+01 -2.09828E+01 -2.31457E+00 -1.12529E+00 -8.24333E-01 -1.73348E+01
  -1.55284E+01 -7.23346E+00 -1.26939E+01 -1.22944E+01 -1.18867E+00 -5.80681E+00 -1.90581E+00 -3.04837E+01  3.65149E+00 -1.88537E+01
  -1.19217E+01 -1.55959E+01 -7.98841E+00 -4.98219E+00 -1.85393E+00 -5.45429E+00 -8.22005E+00  6.41738E+00  7.58560E+00 -7.06097E+00
  -8.65736E+00 -9.00852E+00 -8.08585E+00 -2.13734E+01 -1.22318E+01 -1.32275E+01 -3.15572E+00 -2.40198E+01 -1.64804E+01 -2.15387E+01
   3.05481E-01  7.94511E+00 -3.12942E+00 -1.11531E+01 -1.03161E+01 -7.75191E+00  1.51317E+01  2.07143E+01 -1.40402E+01  1.30881E+01
  -1.22666E+01 -5.90961E+00  4.88570E-02 -2.55455E+01 -9.24492E+00 -3.75867E+00 -5.72903E+00 -1.35773E+01 -1.15957E+01 -6.55062E+00
  -6.81275E+00 -1.44390E+01 -1.45470E+01 -7.29270E+00 -8.65546E+00 -1.83865E+01 -1.88900E+00 -1.36736E+01 -2.27073E+01 -2.73478E+01
  -8.69941E+00 -2.43952E+01 -7.27854E+00 -1.87322E+01 -2.45985E+01 -1.98056E+01 -2.23895E+01  6.44651E+00 -1.24321E+01 -1.17932E+01
  -6.20002E+00 -2.51043E+00 -9.21019E+00 -1.48252E+01 -5.78535E+00 -2.20907E+01 -1.58484E+01 -2.91116E+01 -2.58685E+01 -5.90251E+00
  -1.34273E+01 -3.03654E+01  1.01238E+01 -1.20256E-01 -1.98473E+01 -1.44533E+01 -1.82840E+01 -2.75074E+01 -2.32902E+01 -2.31738E+01
  -1.48759E+01 -2.55101E+01 -2.48660E+01 -3.49209E+01 -1.49580E+01 -3.13436E+01 -4.11364E+01 -2.37776E+00 -1.47432E+01 -2.05687E+01
  -1.91760E+01 -2.98803E+00 -9.39271E+00 -7.70008E+00 -1.11382E+01 -1.03214E+01  6.33455E+00 -6.71262E+00 -8.38783E-01 -1.00514E+01
   2.31334E+01  4.82444E+00 -3.70972E+00  1.41103E+01  1.64299E+01  7.78855E+00  1.68395E+01  5.99011E+00  4.91380E+00  7.78941E+00
  -1.80339E+01  1.85931E+01 -4.13367E+00  2.67366E+01 -8.24771E+00  1.27982E+01 -2.42730E+00 -6.56927E+00  1.53296E+01  4.25961E+00
  -2.43566E+00  2.34801E+00  6.67097E+00  3.50335E+00  5.19993E+00 -1.27287E+00 -5.41686E+00  2.77288E+00  5.93307E+00 -4.00416E+00
   1.16325E+01  1.86633E+00 -2.70683E+00 -7.87624E-01  1.11772E+01  2.42694E+00  5.83044E+00 -4.04731E+00  2.67650E+00  1.21642E+01
  -5.89457E+00  1.15660E+01 -7.62761E+00 -3.82709E+00 -1.76162E+01  5.19781E+00  1.42269E+00  4.49591E+00  4.43409E+00 -1.21849E+01
  -3.86030E+00  1.62342E+00  1.26678E+00 -8.44865E+00 -1.06203E+01 -4.46880E+00 -1.54778E+01 -6.24726E+00 -2.58633E+00 -5.65093E+00
   2.68645E+00  9.90332E+00 -1.18151E+01 -8.12576E+00 -7.72838E+00 -4.34619E+00 -1.37294E+01 -8.54611E+00 -7.46290E+00 -1.39549E+01
   1.07112E+01  8.02815E-02 -7.03370E-01 -2.02177E+01 -2.85237E+00  8.53997E+00 -8.93883E+00  3.34779E+00  8.86393E-01 -8.14424E-01
  -3.97606E+00 -2.06564E+01 -8.04175E-01 -1.33993E+01  2.73207E+00 -1.27035E+01 -5.39041E+00 -1.72717E+01  1.06953E+01  1.11531E+01
  -7.53685E+00 -6.54491E-02 -2.05475E+01  6.78984E+00  5.06530E+00  7.95534E+00 -1.81000E+01 -1.12097E+01  1.08895E+01 -4.33798E+00
  -4.21433E+00  4.74355E-01 -3.06315E+00 -1.10253E+01  7.20174E+00 -2.08652E+01 -4.16748E+00 -3.01587E+00
 NY points of the fit to the data follow
  -1.73765E+01 -1.73233E+01 -1.72647E+01 -1.72303E+01 -1.72705E+01 -1.73206E+01 -1.70159E+01 -1.60468E+01 -1.44792E+01 -1.26208E+01
  -1.11212E+01 -1.06823E+01 -1.16316E+01 -1.36554E+01 -1.58694E+01 -1.73258E+01 -1.76717E+01 -1.73738E+01 -1.71014E+01 -1.70005E+01
  -1.69062E+01 -1.67981E+01 -1.67088E+01 -1.66588E+01 -1.66171E+01 -1.64894E+01 -1.62362E+01 -1.59005E+01 -1.55847E+01 -1.54136E+01
  -1.54641E+01 -1.57278E+01 -1.61010E+01 -1.64230E+01 -1.65639E+01 -1.65046E+01 -1.63407E+01 -1.61888E+01 -1.60956E+01 -1.60659E+01
  -1.61146E+01 -1.62230E+01 -1.63343E+01 -1.64012E+01 -1.63976E+01 -1.63244E+01 -1.62290E+01 -1.61548E+01 -1.61083E+01 -1.60633E+01
  -1.59867E+01 -1.58744E+01 -1.57480E+01 -1.56561E+01 -1.56326E+01 -1.56675E+01 -1.57247E+01 -1.57616E+01 -1.57539E+01 -1.57179E+01
  -1.56720E+01 -1.56180E+01 -1.55581E+01 -1.55004E+01 -1.54435E+01 -1.53998E+01 -1.53838E+01 -1.53957E+01 -1.54223E+01 -1.54407E+01
  -1.54097E+01 -1.53003E+01 -1.51318E+01 -1.49496E+01 -1.48144E+01 -1.47846E+01 -1.48787E+01 -1.50451E+01 -1.51990E+01 -1.52575E+01
  -1.51700E+01 -1.49241E+01 -1.45852E+01 -1.42408E+01 -1.39550E+01 -1.38017E+01 -1.38268E+01 -1.40146E+01 -1.42973E+01 -1.45709E+01
  -1.47368E+01 -1.47774E+01 -1.47626E+01 -1.47400E+01 -1.46529E+01 -1.44400E+01 -1.40744E+01 -1.34301E+01 -1.17789E+01 -8.58288E+00
  -4.28036E+00  2.01833E-01  3.28738E+00  3.47492E+00  2.87579E-01 -5.24719E+00 -1.09130E+01 -1.45114E+01 -1.53118E+01 -1.44936E+01
  -1.37718E+01 -1.35820E+01 -1.35086E+01 -1.34336E+01 -1.33499E+01 -1.32694E+01 -1.31916E+01 -1.31130E+01 -1.30307E+01 -1.29292E+01
  -1.27706E+01 -1.24067E+01 -1.13072E+01 -9.23609E+00 -6.51484E+00 -3.78351E+00 -2.03050E+00 -2.10365E+00 -4.16128E+00 -7.45813E+00
  -1.06542E+01 -1.25584E+01 -1.29230E+01 -1.25528E+01 -1.23641E+01 -1.24337E+01 -1.24853E+01 -1.24484E+01 -1.23397E+01 -1.22128E+01
  -1.21295E+01 -1.21149E+01 -1.21574E+01 -1.22303E+01 -1.23018E+01 -1.23637E+01 -1.24310E+01 -1.25121E+01 -1.25985E+01 -1.26733E+01
  -1.27261E+01 -1.27606E+01 -1.27859E+01 -1.28037E+01 -1.28060E+01 -1.28024E+01 -1.28343E+01 -1.29287E+01 -1.30808E+01 -1.32468E+01
  -1.33351E+01 -1.32860E+01 -1.31037E+01 -1.28645E+01 -1.26914E+01 -1.26783E+01 -1.28201E+01 -1.30139E+01 -1.31458E+01 -1.31763E+01
  -1.31445E+01 -1.31354E+01 -1.31994E+01 -1.32900E+01 -1.33516E+01 -1.33330E+01 -1.32257E+01 -1.30699E+01 -1.29337E+01 -1.28743E+01
  -1.28902E+01 -1.29221E+01 -1.29023E+01 -1.27997E+01 -1.26559E+01 -1.25290E+01 -1.23864E+01 -1.21610E+01 -1.18457E+01 -1.15314E+01
  -1.13408E+01 -1.13239E+01 -1.14128E+01 -1.15050E+01 -1.15342E+01 -1.15210E+01 -1.15192E+01 -1.15482E+01 -1.15826E+01 -1.15485E+01
  -1.14048E+01 -1.11682E+01 -1.09136E+01 -1.07353E+01 -1.06839E+01 -1.07464E+01 -1.08804E+01 -1.10200E+01 -1.11219E+01 -1.11773E+01
  -1.12099E+01 -1.12292E+01 -1.11902E+01 -1.10561E+01 -1.08269E+01 -1.05441E+01 -1.02733E+01 -1.00661E+01 -9.91678E+00 -9.76589E+00
  -9.56688E+00 -9.33923E+00 -9.12495E+00 -8.95630E+00 -8.85437E+00 -8.82527E+00 -8.85577E+00 -8.90128E+00 -8.90258E+00 -8.81664E+00
  -8.62060E+00 -8.31355E+00 -7.91737E+00 -7.48210E+00 -7.08289E+00 -6.77705E+00 -6.57373E+00 -6.43820E+00 -6.32139E+00 -6.18533E+00
  -5.99550E+00 -5.72024E+00 -5.35794E+00 -4.94094E+00 -4.52116E+00 -4.14243E+00 -3.82889E+00 -3.58988E+00 -3.41329E+00 -3.26770E+00
  -3.09632E+00 -2.79704E+00 -2.35258E+00 -1.79492E+00 -1.09060E+00  3.24325E-01  3.06836E+00  6.76468E+00  1.06605E+01  1.34065E+01
   1.35617E+01  1.04924E+01  4.92003E+00 -1.14557E+00 -5.41427E+00 -6.87094E+00 -6.47496E+00 -5.99643E+00 -6.07529E+00 -6.28884E+00
  -6.48263E+00 -6.63997E+00 -6.76973E+00 -6.89211E+00 -7.02602E+00 -7.17852E+00 -7.34534E+00 -7.51772E+00 -7.68638E+00 -7.83988E+00
  -7.96774E+00 -8.06466E+00 -8.13295E+00 -8.17819E+00 -8.20389E+00 -8.21416E+00 -8.21574E+00 -8.21200E+00 -8.20111E+00 -8.18013E+00
  -8.14581E+00 -8.09743E+00 -8.03844E+00 -7.97305E+00 -7.90312E+00 -7.82904E+00 -7.75084E+00 -7.66838E+00 -7.58304E+00 -7.49821E+00
  -7.41661E+00 -7.34061E+00 -7.27363E+00 -7.21895E+00 -7.17841E+00 -7.15224E+00 -7.13997E+00 -7.14146E+00 -7.15621E+00 -7.18333E+00
  -7.22166E+00 -7.26977E+00 -7.32590E+00 -7.38800E+00 -7.45395E+00 -7.52171E+00 -7.58946E+00 -7.65560E+00 -7.71872E+00 -7.77765E+00
  -7.83145E+00 -7.87950E+00 -7.92144E+00 -7.95713E+00 -7.98652E+00 -8.00978E+00 -8.02719E+00 -8.03920E+00 -8.04628E+00 -8.04889E+00
  -8.04742E+00 -8.04226E+00 -8.03385E+00 -8.02264E+00 -8.00900E+00 -7.99321E+00 -7.97550E+00 -7.95607E+00 -7.93514E+00 -7.91291E+00
  -7.88951E+00 -7.86504E+00 -7.83954E+00 -7.81311E+00 -7.78582E+00 -7.75775E+00 -7.72891E+00 -7.69926E+00 -7.66879E+00 -7.63753E+00
  -7.60549E+00 -7.57270E+00 -7.53908E+00 -7.50458E+00 -7.46912E+00 -7.43271E+00 -7.39530E+00 -7.35682E+00 -7.31715E+00 -7.27616E+00
  -7.23376E+00 -7.18984E+00 -7.14428E+00 -7.09687E+00 -7.04736E+00 -6.99550E+00 -6.94102E+00 -6.88362E+00 -6.82288E+00 -6.75831E+00
  -6.68930E+00 -6.61518E+00 -6.53518E+00 -6.44836E+00 -6.35354E+00 -6.24936E+00 -6.13420E+00 -6.00622E+00 -5.86331E+00 -5.70301E+00
  -5.52254E+00 -5.31883E+00 -5.08857E+00 -4.82833E+00 -4.53460E+00 -4.20396E+00 -3.83324E+00 -3.41986E+00 -2.96211E+00 -2.45941E+00
  -1.91265E+00 -1.32441E+00 -6.99284E-01 -4.40888E-02  6.32097E-01  1.31800E+00  2.00040E+00  2.66450E+00  3.29443E+00  3.87388E+00
   4.38686E+00  4.81857E+00  5.15617E+00  5.38951E+00  5.51169E+00  5.51945E+00  5.41341E+00  5.19803E+00  4.88137E+00  4.47457E+00
   3.99120E+00  3.44649E+00  2.85658E+00  2.23773E+00  1.60558E+00  9.74480E-01  3.57031E-01 -2.36251E-01 -7.97040E-01 -1.31924E+00
  -1.79890E+00 -2.23399E+00 -2.62420E+00 -2.97054E+00 -3.27505E+00 -3.54048E+00 -3.77007E+00 -3.96731E+00 -4.13576E+00 -4.27884E+00
  -4.39975E+00 -4.50145E+00 -4.58658E+00 -4.65753E+00 -4.71638E+00 -4.76488E+00 -4.80452E+00 -4.83659E+00 -4.86216E+00 -4.88219E+00
  -4.89744E+00 -4.90855E+00 -4.91604E+00 -4.92035E+00 -4.92191E+00 -4.92104E+00 -4.91804E+00 -4.91312E+00 -4.90646E+00 -4.89827E+00
  -4.88871E+00 -4.87794E+00 -4.86605E+00 -4.85313E+00 -4.83926E+00 -4.82455E+00 -4.80908E+00 -4.79293E+00 -4.77612E+00 -4.75870E+00
  -4.74071E+00 -4.72222E+00 -4.70328E+00 -4.68392E+00 -4.66414E+00 -4.64396E+00 -4.62343E+00 -4.60259E+00 -4.58146E+00 -4.56004E+00
  -4.53834E+00 -4.51638E+00 -4.49418E+00 -4.47178E+00 -4.44919E+00 -4.42639E+00 -4.40340E+00 -4.38022E+00 -4.35688E+00 -4.33341E+00
  -4.30980E+00 -4.28604E+00 -4.26212E+00 -4.23808E+00 -4.21394E+00 -4.18970E+00 -4.16535E+00 -4.14088E+00 -4.11630E+00 -4.09163E+00
  -4.06690E+00 -4.04208E+00 -4.01717E+00 -3.99216E+00 -3.96708E+00 -3.94193E+00 -3.91673E+00 -3.89146E+00
 NY background values follow
    -1.752E+01   -1.750E+01   -1.747E+01   -1.744E+01   -1.742E+01   -1.739E+01   -1.736E+01   -1.733E+01   -1.731E+01   -1.728E+01
    -1.725E+01   -1.723E+01   -1.720E+01   -1.717E+01   -1.714E+01   -1.712E+01   -1.709E+01   -1.706E+01   -1.703E+01   -1.701E+01
    -1.698E+01   -1.695E+01   -1.693E+01   -1.690E+01   -1.687E+01   -1.684E+01   -1.682E+01   -1.679E+01   -1.676E+01   -1.674E+01
    -1.671E+01   -1.668E+01   -1.665E+01   -1.663E+01   -1.660E+01   -1.657E+01   -1.654E+01   -1.652E+01   -1.649E+01   -1.646E+01
    -1.644E+01   -1.641E+01   -1.638E+01   -1.635E+01   -1.633E+01   -1.630E+01   -1.627E+01   -1.625E+01   -1.622E+01   -1.619E+01
    -1.616E+01   -1.614E+01   -1.611E+01   -1.608E+01   -1.605E+01   -1.603E+01   -1.600E+01   -1.597E+01   -1.595E+01   -1.592E+01
    -1.589E+01   -1.586E+01   -1.584E+01   -1.581E+01   -1.578E+01   -1.576E+01   -1.573E+01   -1.570E+01   -1.567E+01   -1.565E+01
    -1.562E+01   -1.559E+01   -1.556E+01   -1.554E+01   -1.551E+01   -1.548E+01   -1.546E+01   -1.543E+01   -1.540E+01   -1.537E+01
    -1.535E+01   -1.532E+01   -1.529E+01   -1.527E+01   -1.524E+01   -1.521E+01   -1.518E+01   -1.516E+01   -1.513E+01   -1.510E+01
    -1.507E+01   -1.505E+01   -1.502E+01   -1.499E+01   -1.497E+01   -1.494E+01   -1.491E+01   -1.488E+01   -1.486E+01   -1.483E+01
    -1.480E+01   -1.478E+01   -1.475E+01   -1.472E+01   -1.469E+01   -1.467E+01   -1.464E+01   -1.461E+01   -1.458E+01   -1.456E+01
    -1.453E+01   -1.450E+01   -1.448E+01   -1.445E+01   -1.442E+01   -1.439E+01   -1.437E+01   -1.434E+01   -1.431E+01   -1.429E+01
    -1.426E+01   -1.423E+01   -1.420E+01   -1.418E+01   -1.415E+01   -1.412E+01   -1.409E+01   -1.407E+01   -1.404E+01   -1.401E+01
    -1.399E+01   -1.396E+01   -1.393E+01   -1.390E+01   -1.388E+01   -1.385E+01   -1.382E+01   -1.380E+01   -1.377E+01   -1.374E+01
    -1.371E+01   -1.369E+01   -1.366E+01   -1.363E+01   -1.360E+01   -1.358E+01   -1.355E+01   -1.352E+01   -1.350E+01   -1.347E+01
    -1.344E+01   -1.341E+01   -1.339E+01   -1.336E+01   -1.333E+01   -1.331E+01   -1.328E+01   -1.325E+01   -1.322E+01   -1.320E+01
    -1.317E+01   -1.314E+01   -1.311E+01   -1.309E+01   -1.306E+01   -1.303E+01   -1.301E+01   -1.298E+01   -1.295E+01   -1.292E+01
    -1.290E+01   -1.287E+01   -1.284E+01   -1.282E+01   -1.279E+01   -1.276E+01   -1.273E+01   -1.271E+01   -1.268E+01   -1.265E+01
    -1.263E+01   -1.260E+01   -1.257E+01   -1.254E+01   -1.252E+01   -1.249E+01   -1.246E+01   -1.243E+01   -1.241E+01   -1.238E+01
    -1.235E+01   -1.233E+01   -1.230E+01   -1.227E+01   -1.224E+01   -1.222E+01   -1.219E+01   -1.216E+01   -1.214E+01   -1.211E+01
    -1.208E+01   -1.205E+01   -1.203E+01   -1.200E+01   -1.197E+01   -1.194E+01   -1.192E+01   -1.189E+01   -1.186E+01   -1.184E+01
    -1.181E+01   -1.178E+01   -1.175E+01   -1.173E+01   -1.170E+01   -1.167E+01   -1.165E+01   -1.162E+01   -1.159E+01   -1.156E+01
    -1.154E+01   -1.151E+01   -1.148E+01   -1.145E+01   -1.143E+01   -1.140E+01   -1.137E+01   -1.135E+01   -1.132E+01   -1.129E+01
    -1.126E+01   -1.124E+01   -1.121E+01   -1.118E+01   -1.116E+01   -1.113E+01   -1.110E+01   -1.107E+01   -1.105E+01   -1.102E+01
    -1.099E+01   -1.096E+01   -1.094E+01   -1.091E+01   -1.088E+01   -1.086E+01   -1.083E+01   -1.080E+01   -1.077E+01   -1.075E+01
    -1.072E+01   -1.069E+01   -1.067E+01   -1.064E+01   -1.061E+01   -1.058E+01   -1.056E+01   -1.053E+01   -1.050E+01   -1.047E+01
    -1.045E+01   -1.042E+01   -1.039E+01   -1.037E+01   -1.034E+01   -1.031E+01   -1.028E+01   -1.026E+01   -1.023E+01   -1.020E+01
    -1.018E+01   -1.015E+01   -1.012E+01   -1.009E+01   -1.007E+01   -1.004E+01   -1.001E+01   -9.985E+00   -9.958E+00   -9.930E+00
    -9.903E+00   -9.876E+00   -9.849E+00   -9.821E+00   -9.794E+00   -9.767E+00   -9.740E+00   -9.713E+00   -9.685E+00   -9.658E+00
    -9.631E+00   -9.604E+00   -9.577E+00   -9.549E+00   -9.522E+00   -9.495E+00   -9.468E+00   -9.440E+00   -9.413E+00   -9.386E+00
    -9.359E+00   -9.332E+00   -9.304E+00   -9.277E+00   -9.250E+00   -9.223E+00   -9.195E+00   -9.168E+00   -9.141E+00   -9.114E+00
    -9.087E+00   -9.059E+00   -9.032E+00   -9.005E+00   -8.978E+00   -8.951E+00   -8.923E+00   -8.896E+00   -8.869E+00   -8.842E+00
    -8.814E+00   -8.787E+00   -8.760E+00   -8.733E+00   -8.706E+00   -8.678E+00   -8.651E+00   -8.624E+00   -8.597E+00   -8.569E+00
    -8.542E+00   -8.515E+00   -8.488E+00   -8.461E+00   -8.433E+00   -8.406E+00   -8.379E+00   -8.352E+00   -8.324E+00   -8.297E+00
    -8.270E+00   -8.243E+00   -8.216E+00   -8.188E+00   -8.161E+00   -8.134E+00   -8.107E+00   -8.080E+00   -8.052E+00   -8.025E+00
    -7.998E+00   -7.971E+00   -7.943E+00   -7.916E+00   -7.889E+00   -7.862E+00   -7.835E+00   -7.807E+00   -7.780E+00   -7.753E+00
    -7.726E+00   -7.698E+00   -7.671E+00   -7.644E+00   -7.617E+00   -7.590E+00   -7.562E+00   -7.535E+00   -7.508E+00   -7.481E+00
    -7.453E+00   -7.426E+00   -7.399E+00   -7.372E+00   -7.345E+00   -7.317E+00   -7.290E+00   -7.263E+00   -7.236E+00   -7.208E+00
    -7.181E+00   -7.154E+00   -7.127E+00   -7.100E+00   -7.072E+00   -7.045E+00   -7.018E+00   -6.991E+00   -6.964E+00   -6.936E+00
    -6.909E+00   -6.882E+00   -6.855E+00   -6.827E+00   -6.800E+00   -6.773E+00   -6.746E+00   -6.719E+00   -6.691E+00   -6.664E+00
    -6.637E+00   -6.610E+00   -6.582E+00   -6.555E+00   -6.528E+00   -6.501E+00   -6.474E+00   -6.446E+00   -6.419E+00   -6.392E+00
    -6.365E+00   -6.337E+00   -6.310E+00   -6.283E+00   -6.256E+00   -6.229E+00   -6.201E+00   -6.174E+00   -6.147E+00   -6.120E+00
    -6.092E+00   -6.065E+00   -6.038E+00   -6.011E+00   -5.984E+00   -5.956E+00   -5.929E+00   -5.902E+00   -5.875E+00   -5.848E+00
    -5.820E+00   -5.793E+00   -5.766E+00   -5.739E+00   -5.711E+00   -5.684E+00   -5.657E+00   -5.630E+00   -5.603E+00   -5.575E+00
    -5.548E+00   -5.521E+00   -5.494E+00   -5.466E+00   -5.439E+00   -5.412E+00   -5.385E+00   -5.358E+00   -5.330E+00   -5.303E+00
    -5.276E+00   -5.249E+00   -5.221E+00   -5.194E+00   -5.167E+00   -5.140E+00   -5.113E+00   -5.085E+00   -5.058E+00   -5.031E+00
    -5.004E+00   -4.976E+00   -4.949E+00   -4.922E+00   -4.895E+00   -4.868E+00   -4.840E+00   -4.813E+00   -4.786E+00   -4.759E+00
    -4.731E+00   -4.704E+00   -4.677E+00   -4.650E+00   -4.623E+00   -4.595E+00   -4.568E+00   -4.541E+00   -4.514E+00   -4.487E+00
    -4.459E+00   -4.432E+00   -4.405E+00   -4.378E+00   -4.350E+00   -4.323E+00   -4.296E+00   -4.269E+00   -4.242E+00   -4.214E+00
    -4.187E+00   -4.160E+00   -4.133E+00   -4.105E+00   -4.078E+00   -4.051E+00   -4.024E+00   -3.997E+00
 Asp      Conc. = 4.38E+01
