 LCModel (Version 6.3-1L) Copyright: S.W. Provencher.          Ref.: Magn. Reson. Med. 30:672-679 (1993).                
 Slice#3 Row#5 Col#9  PD_05_press_2_raw_act
 36 lines in following concentration table = NCONC+1
    Conc.  %SD /Cr+PCr  Metabolite                                         
  584.655  53%   0.208 Ala                                                 
  491.629  98%   0.175 Asp                                                 
  691.606  82%   0.246 Cr                                                  
 2.12E+03  28%   0.754 PCr                                                 
   62.933 506% 2.2E-02 GABA                                                
  179.502 173% 6.4E-02 Glc                                                 
 1.18E+03  53%   0.420 Gln                                                 
 2.90E+03  25%   1.033 Glu                                                 
 1.15E+03   5%   0.409 GPC                                                 
    0.000 999%   0.000 PCh                                                 
 1.07E+03  18%   0.379 GSH                                                 
 2.07E+03  32%   0.736 Ins                                                 
  716.870  47%   0.255 Lac                                                 
 3.18E+03   9%   1.132 NAA                                                 
  901.928  33%   0.321 NAAG                                                
  172.937  37% 6.2E-02 Scyllo                                              
    0.000 999%   0.000 Tau                                                 
  453.526  58%   0.161 -CrCH2                                              
 1.15E+03   5%   0.409 GPC+PCh                                             
 4.08E+03   4%   1.453 NAA+NAAG                                            
 2.81E+03   5%   1.000 Cr+PCr                                              
 4.08E+03  26%   1.453 Glu+Gln                                             
 2.33E+03  33%   0.830 Lip13a                                              
    0.000 999%   0.000 Lip13b                                              
  468.721  51%   0.167 Lip09                                               
 1.59E+03  26%   0.566 MM09                                                
  354.315  41%   0.126 Lip20                                               
 2.88E+03  23%   1.025 MM20                                                
  450.487  38%   0.160 MM12                                                
 2.56E+03  20%   0.910 MM14                                                
 1.61E+03  17%   0.573 MM17                                                
 2.33E+03  33%   0.830 Lip13a+Lip13b                                       
 5.34E+03  14%   1.900 MM14+Lip13a+Lip13b+MM12                             
 2.06E+03  18%   0.733 MM09+Lip09                                          
 3.23E+03  20%   1.151 MM20+Lip20                                          
   6 lines in following misc. output table
  FWHM = 0.054 ppm    S/N =   7                                            
  Data shift = 0.031 ppm                                                   
  Ph: -38 deg      -9.7 deg/ppm                                            
  alphaB,S = 1.2E+00,   5.6E+01                                            
   14 spline knots.   Ns = 7(1)                                            
  (12) 5 infls.   (15) 1 extrs.                                            
  498 points on ppm-axis = NY
      4.000000     3.992357     3.984714     3.977070     3.969427     3.961784     3.954141     3.946497     3.938854     3.931211
      3.923568     3.915925     3.908281     3.900638     3.892995     3.885352     3.877708     3.870065     3.862422     3.854779
      3.847136     3.839492     3.831849     3.824206     3.816563     3.808919     3.801276     3.793633     3.785990     3.778347
      3.770703     3.763060     3.755417     3.747774     3.740130     3.732487     3.724844     3.717201     3.709558     3.701914
      3.694271     3.686628     3.678985     3.671341     3.663698     3.656055     3.648412     3.640769     3.633125     3.625482
      3.617839     3.610196     3.602552     3.594909     3.587266     3.579623     3.571980     3.564336     3.556693     3.549050
      3.541407     3.533763     3.526120     3.518477     3.510834     3.503191     3.495547     3.487904     3.480261     3.472618
      3.464974     3.457331     3.449688     3.442045     3.434402     3.426758     3.419115     3.411472     3.403829     3.396185
      3.388542     3.380899     3.373256     3.365613     3.357969     3.350326     3.342683     3.335040     3.327396     3.319753
      3.312110     3.304467     3.296824     3.289180     3.281537     3.273894     3.266251     3.258607     3.250964     3.243321
      3.235678     3.228034     3.220391     3.212748     3.205105     3.197462     3.189818     3.182175     3.174532     3.166889
      3.159245     3.151602     3.143959     3.136316     3.128673     3.121029     3.113386     3.105743     3.098100     3.090456
      3.082813     3.075170     3.067527     3.059884     3.052240     3.044597     3.036954     3.029311     3.021667     3.014024
      3.006381     2.998738     2.991095     2.983451     2.975808     2.968165     2.960522     2.952878     2.945235     2.937592
      2.929949     2.922306     2.914662     2.907019     2.899376     2.891733     2.884089     2.876446     2.868803     2.861160
      2.853517     2.845873     2.838230     2.830587     2.822944     2.815300     2.807657     2.800014     2.792371     2.784728
      2.777084     2.769441     2.761798     2.754155     2.746511     2.738868     2.731225     2.723582     2.715939     2.708295
      2.700652     2.693009     2.685366     2.677722     2.670079     2.662436     2.654793     2.647150     2.639506     2.631863
      2.624220     2.616577     2.608933     2.601290     2.593647     2.586004     2.578361     2.570717     2.563074     2.555431
      2.547788     2.540144     2.532501     2.524858     2.517215     2.509572     2.501928     2.494285     2.486642     2.478999
      2.471355     2.463712     2.456069     2.448426     2.440783     2.433139     2.425496     2.417853     2.410210     2.402566
      2.394923     2.387280     2.379637     2.371994     2.364350     2.356707     2.349064     2.341421     2.333777     2.326134
      2.318491     2.310848     2.303205     2.295561     2.287918     2.280275     2.272632     2.264988     2.257345     2.249702
      2.242059     2.234416     2.226772     2.219129     2.211486     2.203843     2.196199     2.188556     2.180913     2.173270
      2.165627     2.157983     2.150340     2.142697     2.135054     2.127410     2.119767     2.112124     2.104481     2.096838
      2.089194     2.081551     2.073908     2.066265     2.058621     2.050978     2.043335     2.035692     2.028049     2.020405
      2.012762     2.005119     1.997476     1.989833     1.982190     1.974546     1.966903     1.959260     1.951617     1.943974
      1.936331     1.928688     1.921045     1.913402     1.905759     1.898115     1.890472     1.882829     1.875186     1.867543
      1.859900     1.852257     1.844614     1.836971     1.829327     1.821684     1.814041     1.806398     1.798755     1.791112
      1.783469     1.775826     1.768183     1.760540     1.752896     1.745253     1.737610     1.729967     1.722324     1.714681
      1.707038     1.699395     1.691752     1.684108     1.676465     1.668822     1.661179     1.653536     1.645893     1.638250
      1.630607     1.622964     1.615321     1.607677     1.600034     1.592391     1.584748     1.577105     1.569462     1.561819
      1.554176     1.546533     1.538890     1.531246     1.523603     1.515960     1.508317     1.500674     1.493031     1.485388
      1.477745     1.470102     1.462458     1.454815     1.447172     1.439529     1.431886     1.424243     1.416600     1.408957
      1.401314     1.393671     1.386027     1.378384     1.370741     1.363098     1.355455     1.347812     1.340169     1.332526
      1.324883     1.317240     1.309596     1.301953     1.294310     1.286667     1.279024     1.271381     1.263738     1.256095
      1.248452     1.240808     1.233165     1.225522     1.217879     1.210236     1.202593     1.194950     1.187307     1.179664
      1.172021     1.164377     1.156734     1.149091     1.141448     1.133805     1.126162     1.118519     1.110876     1.103233
      1.095590     1.087946     1.080303     1.072660     1.065017     1.057374     1.049731     1.042088     1.034445     1.026802
      1.019158     1.011515     1.003872     0.996229     0.988586     0.980943     0.973300     0.965657     0.958014     0.950371
      0.942727     0.935084     0.927441     0.919798     0.912155     0.904512     0.896869     0.889226     0.881583     0.873940
      0.866296     0.858653     0.851010     0.843367     0.835724     0.828081     0.820438     0.812795     0.805152     0.797508
      0.789865     0.782222     0.774579     0.766936     0.759293     0.751650     0.744007     0.736364     0.728721     0.721077
      0.713434     0.705791     0.698148     0.690505     0.682862     0.675219     0.667576     0.659933     0.652290     0.644646
      0.637003     0.629360     0.621717     0.614074     0.606431     0.598788     0.591145     0.583502     0.575858     0.568215
      0.560572     0.552929     0.545286     0.537643     0.530000     0.522357     0.514714     0.507071     0.499427     0.491784
      0.484141     0.476498     0.468855     0.461212     0.453569     0.445925     0.438282     0.430639     0.422996     0.415353
      0.407710     0.400067     0.392424     0.384780     0.377137     0.369494     0.361851     0.354208     0.346565     0.338922
      0.331278     0.323635     0.315992     0.308349     0.300706     0.293063     0.285420     0.277777     0.270133     0.262490
      0.254847     0.247204     0.239561     0.231918     0.224275     0.216631     0.208988     0.201345
 NY phased data points follow
   1.31065E+01  1.14513E+01  9.59604E+00  1.07201E+01  1.44026E+01  2.39484E+01  2.10762E+01  3.86529E+01  4.18821E+01  4.35867E+01
   4.83082E+01  4.44807E+01  3.61291E+01  4.23559E+01  3.30234E+01  2.57324E+01  6.07253E+00  7.88348E+00  5.50440E+00  8.13097E+00
   1.47930E+01  1.29262E+01  8.82848E-02  1.91474E+01  1.16180E+01  1.76083E+01  3.29719E+00  2.06451E+01  1.69707E+01  1.22111E+01
   1.53307E+01  2.31536E+01  1.50238E+01  1.30363E+01  1.67200E+01  1.32637E+01  4.39679E+00  8.20092E+00  8.18265E+00 -4.88479E+00
   1.25652E+01  1.56785E+01  8.91873E+00  8.97953E-02  1.03795E+01  1.03365E+01  1.85032E+01  2.49390E+01  2.16134E+01  2.37922E+01
   1.26417E+01  1.77595E+01  5.25028E+00  1.08413E+01  6.37597E+00  7.51979E+00  5.92603E+00  6.73263E+00  8.32693E-02 -6.70309E+00
  -1.57307E+01 -7.37306E+00 -9.55082E+00 -8.26449E+00 -2.45515E+01 -1.67839E+01 -2.07111E+01 -1.32461E+01 -7.61044E+00 -1.09130E+01
  -9.48453E+00 -1.22567E+01 -1.54042E+01  3.00107E+00 -6.63605E+00 -5.26741E+00 -3.71794E+00 -8.19295E+00  9.45096E+00 -2.64536E+00
  -2.05326E+00 -2.00451E+00 -1.54654E+01 -4.72313E+00 -9.74846E+00  2.05781E+00  3.11755E+00  4.16317E+00 -5.70438E+00  7.44616E+00
   5.73962E+00  2.52588E+00  5.28867E+00  4.97725E+00  2.88789E+00  9.73161E+00  6.83847E+00  8.37660E+00  1.88702E+01  2.64913E+01
   6.65420E+01  7.70557E+01  8.30603E+01  9.42444E+01  9.85349E+01  7.66640E+01  6.39744E+01  4.01170E+01  1.19496E+01  1.99766E+01
   6.89699E+00  2.17647E+00 -4.48869E+00 -6.04461E-01 -7.11356E+00  2.85512E+00 -9.05345E+00  1.25884E+01 -7.76963E+00  5.83847E-01
   5.84355E+00  1.62523E+01  2.23585E+01  2.85190E+01  4.03293E+01  5.59584E+01  6.34106E+01  7.67644E+01  8.47999E+01  7.99051E+01
   6.39016E+01  4.16044E+01  1.61042E+01  6.93196E+00  1.05886E+01  1.33942E+01  1.14979E+01 -6.74383E+00 -4.47533E+00 -8.56990E+00
   1.35631E+00 -8.34113E+00  1.36806E-01 -1.13642E+01 -3.41149E+00 -8.03936E+00  2.19804E+00 -1.46310E+01 -1.93352E+01 -1.90017E+01
  -5.98082E+00 -1.83301E+01 -1.12996E+01 -1.74726E+01 -6.52490E+00 -2.01063E+01 -1.62017E+01 -1.79026E+01 -1.40065E+01 -2.03757E+01
  -7.91500E+00 -4.18171E+00 -1.70078E+01 -2.02166E+01 -1.04424E+01 -5.84529E+00 -1.66766E+01 -7.63393E+00 -2.21896E+01 -7.59149E+00
  -2.88717E+01 -2.35124E+01 -2.83995E+01 -2.78924E+01 -2.84090E+01 -2.76059E+01 -2.42045E+01 -2.58018E+01 -3.03311E+01 -9.70856E+00
  -1.36377E+01 -2.04973E+01 -2.09857E+01 -1.47639E+01 -2.56506E+01 -3.59379E+01 -1.73356E+01 -8.61991E+00  3.47334E+00 -1.00504E+01
  -8.72306E+00 -5.89361E+00 -5.19250E+00 -4.24752E+00 -1.33730E+01 -4.01432E+00 -1.70655E+01 -8.78169E+00 -1.29089E+01 -1.99243E+01
  -7.46849E-01 -5.45501E+00  1.55775E+00 -1.97886E+00  1.06744E+00 -1.34692E+01 -6.90619E+00 -1.01172E+00 -6.57334E+00  6.04338E+00
   1.08459E+01  2.34527E+00  2.22809E+00  4.18204E+00  1.56570E+01  1.34866E+01  1.97033E+01  1.28483E+01  1.12387E+01 -7.44091E-01
   2.37350E+00 -4.78674E+00 -1.10626E+00 -1.28652E+00 -6.31272E-01  7.61360E+00  9.91146E+00  1.50675E+01  2.18309E+01  7.03730E+00
   5.42016E+00  1.12314E+01  7.91235E+00  2.97847E+00  4.20986E+00  4.30876E+00  1.75061E+01  1.42119E+01  5.86233E-01  4.00633E+00
   9.40899E+00 -7.38015E+00  5.94449E+00 -3.33754E+00  7.15886E+00  2.97319E+00  1.60865E+01  1.32237E+01  1.41777E+01  3.39518E+01
   2.41136E+01  2.66439E+01  2.78576E+01  4.47966E+01  4.51479E+01  6.13243E+01  8.39941E+01  1.00886E+02  1.01636E+02  1.15841E+02
   1.05958E+02  1.17118E+02  1.14206E+02  8.19274E+01  4.94626E+01  3.30822E+01  3.17417E+01  2.12453E+01  2.29051E+01  1.68616E+01
  -2.35189E+00  6.56708E+00  2.14069E+01  1.21035E+01  2.02235E+01  1.61847E+01  6.74600E+00  9.23412E+00  5.13388E+00 -2.90274E+00
   1.42214E+00  6.32273E+00  6.30486E+00  1.53107E+01  4.25920E+00  8.70158E+00  6.15564E+00  6.69859E+00 -1.01011E+00  1.50790E+01
  -2.10214E+00 -6.77490E-01  3.18651E+00 -5.90992E+00  1.38730E+01 -6.37870E+00 -9.55387E+00  8.23067E+00 -7.44134E-01  7.46387E+00
   1.08483E+00  4.27175E-01  6.03889E+00  1.94520E+01  9.15578E+00  1.98026E+00  2.13423E+01  1.03326E+01  1.61325E+01  1.88543E+01
   2.26322E+01  1.94020E+01  3.40377E+01  2.99798E+01  3.42094E+01  2.27714E+01  2.21335E+01  2.62738E+01  2.21384E+01  3.16785E+01
   1.74312E+01  1.93380E+01  9.21789E+00  1.67405E+01  5.35749E+00  1.31031E+01  1.79586E+01  1.26725E+01  1.31335E+01  2.18142E+01
   1.45613E+01  1.00366E+01  2.05055E+01  1.78994E+01  1.97413E+01  1.47683E+01  3.31495E+01  2.12530E+01  2.58082E+01  2.78371E+01
   3.31050E+01  3.05981E+01  2.31024E+01  3.21267E+01  2.89121E+01  2.51194E+01  2.97052E+01  2.99841E+01  2.57886E+01  2.55683E+01
   1.80052E+01  2.21969E+01  2.02789E+01  1.93053E+01  1.08556E+01  1.35706E+01  2.00804E+01  1.51005E+01  2.16086E+01  2.65493E+01
   1.66966E+01  7.35175E+00  2.41965E+01  1.75254E+01  3.85257E+00  1.58816E+01  8.80702E+00  8.72410E+00  2.17917E+00  8.16056E+00
   3.40409E+00  1.71298E+00 -8.97901E+00 -5.57649E-01 -2.49379E+00  3.54974E+00 -7.14750E+00 -1.05493E+01 -9.99465E+00  2.03799E+00
   4.35293E+00 -7.24695E+00 -1.63607E+01  3.87349E+00 -1.46472E+00  2.62693E+00 -1.79702E+01  3.10241E+00  7.22540E+00 -2.61272E+00
   4.09851E+00 -2.98677E+00  4.08014E+00  5.23837E+00  4.26458E+00  6.12630E+00  9.21318E+00  4.87539E+00  4.95956E+00  1.33124E+01
  -6.35177E+00  5.47963E+00  6.54061E+00 -2.11395E+00  1.15051E+00  8.11249E+00  1.04881E+01  1.58833E+01  6.87534E+00  9.12105E+00
   1.20384E+01 -1.04907E+01  9.55450E+00  3.80518E+00  1.64913E+01  8.62197E+00  1.05359E+01  9.05440E+00 -7.49641E-01  4.26867E-01
   6.53174E+00 -2.55270E+00  6.26380E-01  8.43825E+00  7.49468E+00 -5.35786E+00 -4.66663E-01  6.65873E-01 -2.58062E+00  4.45185E+00
   6.40644E+00 -4.45980E-01  1.20310E+01 -1.08683E+01 -2.63083E+00  1.43549E+00  1.14184E+01  8.47279E+00  1.09995E+01 -7.15155E+00
  -5.06682E+00 -1.32758E+01  5.13169E+00 -1.37595E+00  6.95845E+00 -4.42299E+00 -3.05889E+00  3.14634E+00  1.02019E+01  3.46216E+00
   7.68685E+00  2.05689E+00  6.28257E+00  5.43934E+00 -8.99490E-01 -2.15049E+00 -9.56210E-01  1.29036E+01  1.87177E+01  9.17661E-02
  -5.68757E+00  2.33899E+00  5.91122E+00  1.41015E+00  4.90432E+00  4.58289E+00  6.39428E+00  8.74884E+00 -8.56724E+00  7.81564E-01
  -4.81335E+00  1.78654E+00 -5.60584E+00 -8.94451E-01  4.89935E+00  3.90609E+00 -3.01665E+00  4.37819E+00 -5.16121E+00  9.08132E+00
   8.19425E+00  7.97843E+00  8.58342E+00 -2.99045E+00  2.50268E+00  6.28236E-01 -6.49263E+00 -5.40078E+00  5.52517E+00  8.02905E+00
   1.60835E-01 -3.22609E+00  1.93668E+01 -4.51065E-01 -3.26169E+00  1.27943E+00 -3.63781E+00  2.20940E+00
 NY points of the fit to the data follow
   2.36561E+00  2.30976E+00  4.42437E+00  8.29063E+00  1.25406E+01  1.84324E+01  2.56282E+01  3.29783E+01  3.96683E+01  4.54455E+01
   4.92831E+01  4.92029E+01  4.45542E+01  3.66330E+01  2.79981E+01  2.12072E+01  1.63727E+01  1.19362E+01  8.34041E+00  6.13242E+00
   3.99779E+00  2.95495E+00  3.28122E+00  4.61005E+00  5.38228E+00  6.41965E+00  8.86702E+00  1.22099E+01  1.54440E+01  1.87558E+01
   2.25423E+01  2.50878E+01  2.43436E+01  2.04125E+01  1.52840E+01  1.11362E+01  8.23966E+00  4.89843E+00  1.66272E+00  1.18724E+00
   2.31157E+00  3.61802E+00  4.78000E+00  6.63033E+00  9.07783E+00  1.12318E+01  1.27480E+01  1.35688E+01  1.36510E+01  1.26305E+01
   9.71907E+00  5.68296E+00  2.52652E+00  9.49455E-01  1.62329E-02 -7.62251E-01 -1.08553E+00 -7.84946E-01 -3.51014E-01 -1.01698E-02
   1.95036E-01  1.00066E-01 -5.29896E-01 -1.76085E+00 -3.15103E+00 -4.00250E+00 -4.18624E+00 -3.98063E+00 -3.48666E+00 -2.81059E+00
  -2.21177E+00 -1.72501E+00 -1.36177E+00 -1.14865E+00 -1.20854E+00 -1.58459E+00 -2.07494E+00 -2.46047E+00 -2.62070E+00 -2.50783E+00
  -2.15514E+00 -1.83997E+00 -1.41088E+00 -6.84622E-01  4.87783E-02  4.60983E-01  6.48609E-01  6.52448E-01  3.79649E-03 -1.45787E+00
  -3.07936E+00 -3.97181E+00 -3.67366E+00 -2.68644E+00 -1.76175E+00  4.89129E-01  8.27403E+00  1.78576E+01  2.76784E+01  4.10158E+01
   5.72622E+01  7.21916E+01  8.40303E+01  9.32072E+01  9.54481E+01  8.46868E+01  6.26369E+01  3.86389E+01  2.24186E+01  1.54413E+01
   9.73259E+00 -8.82957E-02 -5.99529E+00 -6.92243E+00 -6.87859E+00 -6.59898E+00 -6.20878E+00 -5.64055E+00 -4.70864E+00 -2.68036E+00
   3.02073E+00  1.13613E+01  1.99026E+01  3.09216E+01  4.47373E+01  5.81700E+01  6.90248E+01  7.75421E+01  8.14102E+01  7.56249E+01
   5.95895E+01  3.95101E+01  2.37265E+01  1.55669E+01  1.00838E+01  1.16385E+00 -6.82462E+00 -9.39657E+00 -9.46077E+00 -8.17989E+00
  -6.53964E+00 -5.36042E+00 -4.65549E+00 -4.39378E+00 -4.71508E+00 -5.24588E+00 -5.71543E+00 -6.31515E+00 -7.05800E+00 -7.91419E+00
  -8.66174E+00 -9.16528E+00 -9.52798E+00 -9.86488E+00 -1.02626E+01 -1.05526E+01 -1.07154E+01 -1.08801E+01 -1.10301E+01 -1.13403E+01
  -1.18200E+01 -1.23008E+01 -1.25246E+01 -1.23918E+01 -1.19603E+01 -1.14798E+01 -1.14393E+01 -1.19270E+01 -1.25107E+01 -1.29566E+01
  -1.32822E+01 -1.34590E+01 -1.37271E+01 -1.41692E+01 -1.45735E+01 -1.49801E+01 -1.53670E+01 -1.54664E+01 -1.51470E+01 -1.46048E+01
  -1.42461E+01 -1.41865E+01 -1.41347E+01 -1.35060E+01 -1.19904E+01 -1.00811E+01 -8.43581E+00 -6.95113E+00 -5.24296E+00 -3.23548E+00
  -1.56617E+00 -9.56342E-01 -1.47909E+00 -2.90954E+00 -4.66350E+00 -5.90987E+00 -6.31340E+00 -5.78617E+00 -4.44680E+00 -2.47960E+00
  -5.39848E-02  2.50528E+00  4.15191E+00  4.10360E+00  3.08133E+00  1.36652E+00 -1.30426E+00 -4.62644E+00 -7.36636E+00 -8.58004E+00
  -8.53016E+00 -6.74132E+00 -3.02819E+00  1.46818E+00  5.09474E+00  6.87306E+00  6.87603E+00  5.42077E+00  1.86599E+00 -3.75111E+00
  -8.59881E+00 -1.07615E+01 -1.08115E+01 -9.60328E+00 -7.06143E+00 -2.36229E+00  2.64835E+00  5.79488E+00  6.72666E+00  6.77421E+00
   7.33673E+00  7.71494E+00  7.36517E+00  7.43105E+00  8.58530E+00  9.76793E+00  1.01018E+01  9.77328E+00  9.19059E+00  8.30099E+00
   6.84540E+00  5.42448E+00  4.79948E+00  5.17836E+00  6.45660E+00  8.29453E+00  1.06720E+01  1.30405E+01  1.51534E+01  1.79411E+01
   2.12565E+01  2.53821E+01  3.14199E+01  4.20245E+01  5.53749E+01  6.75244E+01  8.09366E+01  9.53905E+01  1.06055E+02  1.11081E+02
   1.13686E+02  1.13997E+02  1.05756E+02  8.52192E+01  5.86561E+01  3.82637E+01  2.83391E+01  2.25533E+01  1.34493E+01  5.17284E+00
   2.87376E+00  2.30179E+00  2.09891E+00  2.20056E+00  2.36603E+00  2.38550E+00  2.25403E+00  1.92634E+00  1.50818E+00  1.18444E+00
   1.00667E+00  8.67039E-01  7.29819E-01  6.53293E-01  6.57801E-01  6.99877E-01  6.97957E-01  6.65052E-01  6.80520E-01  7.71687E-01
   9.08964E-01  1.09009E+00  1.34618E+00  1.69202E+00  2.08383E+00  2.50389E+00  2.96577E+00  3.50304E+00  4.14910E+00  4.89705E+00
   5.73078E+00  6.67364E+00  7.72022E+00  8.83377E+00  9.97250E+00  1.11047E+01  1.22158E+01  1.32836E+01  1.42655E+01  1.51391E+01
   1.58882E+01  1.64951E+01  1.69543E+01  1.72667E+01  1.74432E+01  1.75041E+01  1.74820E+01  1.74201E+01  1.73833E+01  1.74836E+01
   1.78273E+01  1.80416E+01  1.81213E+01  1.82824E+01  1.82802E+01  1.77764E+01  1.67784E+01  1.54040E+01  1.37887E+01  1.19364E+01
   1.02488E+01  9.78449E+00  1.10524E+01  1.33557E+01  1.56475E+01  1.79416E+01  2.08916E+01  2.36053E+01  2.50443E+01  2.54057E+01
   2.56519E+01  2.63649E+01  2.70434E+01  2.72872E+01  2.72177E+01  2.68602E+01  2.58326E+01  2.42194E+01  2.22731E+01  1.98018E+01
   1.68795E+01  1.48486E+01  1.47660E+01  1.62513E+01  1.79729E+01  1.93468E+01  2.09651E+01  2.25563E+01  2.25740E+01  2.09934E+01
   1.87892E+01  1.69764E+01  1.55950E+01  1.38123E+01  1.17600E+01  1.01570E+01  8.84796E+00  7.72022E+00  6.73767E+00  5.88281E+00
   5.14563E+00  4.51728E+00  3.99043E+00  3.55636E+00  3.20726E+00  2.93469E+00  2.73224E+00  2.59330E+00  2.51302E+00  2.48597E+00
   2.50866E+00  2.57763E+00  2.69166E+00  2.84908E+00  3.04952E+00  3.29167E+00  3.57560E+00  3.90061E+00  4.26708E+00  4.67369E+00
   5.11929E+00  5.60074E+00  6.11519E+00  6.65784E+00  7.22366E+00  7.80492E+00  8.39341E+00  8.97868E+00  9.55055E+00  1.00971E+01
   1.06070E+01  1.10674E+01  1.14670E+01  1.17943E+01  1.20409E+01  1.21989E+01  1.22637E+01  1.22318E+01  1.21036E+01  1.18811E+01
   1.15704E+01  1.11786E+01  1.07158E+01  1.01921E+01  9.62003E+00  9.01194E+00  8.38116E+00  7.73933E+00  7.09804E+00  6.46670E+00
   5.85455E+00  5.26845E+00  4.71466E+00  4.19659E+00  3.71709E+00  3.27683E+00  2.87663E+00  2.51544E+00  2.19233E+00  1.90461E+00
   1.65020E+00  1.42603E+00  1.23013E+00  1.05952E+00  9.12069E-01  7.84602E-01  6.75244E-01  5.81534E-01  5.02333E-01  4.35546E-01
   3.80036E-01  3.33773E-01  2.96086E-01  2.65658E-01  2.42297E-01  2.24697E-01  2.12471E-01  2.04390E-01  2.00532E-01  2.00175E-01
   2.03523E-01  2.09605E-01  2.18410E-01  2.29135E-01  2.42216E-01  2.57151E-01  2.74253E-01  2.92678E-01  3.12613E-01  3.33491E-01
   3.55899E-01  3.79370E-01  4.04208E-01  4.29635E-01  4.55991E-01  4.82863E-01  5.10880E-01  5.39526E-01  5.69064E-01  5.98788E-01
   6.29173E-01  6.59901E-01  6.91568E-01  7.23587E-01  7.56213E-01  7.88838E-01  8.22042E-01  8.55529E-01  8.89815E-01  9.24246E-01
   9.59108E-01  9.93912E-01  1.02931E+00  1.06499E+00  1.10136E+00  1.13777E+00  1.17455E+00  1.21134E+00  1.24883E+00  1.28662E+00
   1.32507E+00  1.36352E+00  1.40245E+00  1.44158E+00  1.48158E+00  1.52202E+00  1.56321E+00  1.60461E+00
 NY background values follow
    -7.326E+00   -7.358E+00   -7.390E+00   -7.422E+00   -7.454E+00   -7.486E+00   -7.518E+00   -7.550E+00   -7.582E+00   -7.614E+00
    -7.646E+00   -7.678E+00   -7.710E+00   -7.742E+00   -7.774E+00   -7.806E+00   -7.838E+00   -7.870E+00   -7.901E+00   -7.933E+00
    -7.965E+00   -7.996E+00   -8.027E+00   -8.059E+00   -8.090E+00   -8.121E+00   -8.152E+00   -8.183E+00   -8.213E+00   -8.244E+00
    -8.274E+00   -8.305E+00   -8.335E+00   -8.365E+00   -8.394E+00   -8.424E+00   -8.453E+00   -8.483E+00   -8.512E+00   -8.540E+00
    -8.569E+00   -8.597E+00   -8.626E+00   -8.654E+00   -8.681E+00   -8.709E+00   -8.736E+00   -8.763E+00   -8.790E+00   -8.816E+00
    -8.842E+00   -8.868E+00   -8.894E+00   -8.919E+00   -8.944E+00   -8.969E+00   -8.993E+00   -9.018E+00   -9.041E+00   -9.065E+00
    -9.088E+00   -9.111E+00   -9.133E+00   -9.155E+00   -9.177E+00   -9.198E+00   -9.219E+00   -9.240E+00   -9.260E+00   -9.280E+00
    -9.299E+00   -9.318E+00   -9.337E+00   -9.355E+00   -9.373E+00   -9.390E+00   -9.407E+00   -9.424E+00   -9.440E+00   -9.456E+00
    -9.471E+00   -9.485E+00   -9.500E+00   -9.513E+00   -9.527E+00   -9.539E+00   -9.552E+00   -9.563E+00   -9.575E+00   -9.585E+00
    -9.595E+00   -9.605E+00   -9.614E+00   -9.623E+00   -9.631E+00   -9.639E+00   -9.646E+00   -9.652E+00   -9.658E+00   -9.663E+00
    -9.668E+00   -9.672E+00   -9.676E+00   -9.679E+00   -9.682E+00   -9.684E+00   -9.685E+00   -9.686E+00   -9.686E+00   -9.686E+00
    -9.685E+00   -9.684E+00   -9.682E+00   -9.679E+00   -9.676E+00   -9.672E+00   -9.668E+00   -9.663E+00   -9.658E+00   -9.651E+00
    -9.645E+00   -9.637E+00   -9.629E+00   -9.621E+00   -9.612E+00   -9.602E+00   -9.591E+00   -9.580E+00   -9.569E+00   -9.556E+00
    -9.543E+00   -9.530E+00   -9.516E+00   -9.501E+00   -9.485E+00   -9.469E+00   -9.453E+00   -9.435E+00   -9.417E+00   -9.398E+00
    -9.379E+00   -9.359E+00   -9.338E+00   -9.317E+00   -9.295E+00   -9.272E+00   -9.249E+00   -9.225E+00   -9.200E+00   -9.175E+00
    -9.149E+00   -9.122E+00   -9.095E+00   -9.067E+00   -9.038E+00   -9.008E+00   -8.978E+00   -8.947E+00   -8.915E+00   -8.883E+00
    -8.850E+00   -8.816E+00   -8.781E+00   -8.746E+00   -8.710E+00   -8.673E+00   -8.636E+00   -8.597E+00   -8.558E+00   -8.519E+00
    -8.478E+00   -8.437E+00   -8.395E+00   -8.352E+00   -8.309E+00   -8.264E+00   -8.219E+00   -8.173E+00   -8.127E+00   -8.079E+00
    -8.031E+00   -7.982E+00   -7.933E+00   -7.882E+00   -7.831E+00   -7.779E+00   -7.726E+00   -7.673E+00   -7.619E+00   -7.564E+00
    -7.509E+00   -7.453E+00   -7.397E+00   -7.340E+00   -7.283E+00   -7.225E+00   -7.166E+00   -7.108E+00   -7.048E+00   -6.988E+00
    -6.928E+00   -6.868E+00   -6.807E+00   -6.746E+00   -6.684E+00   -6.623E+00   -6.560E+00   -6.498E+00   -6.436E+00   -6.373E+00
    -6.310E+00   -6.247E+00   -6.184E+00   -6.120E+00   -6.057E+00   -5.994E+00   -5.930E+00   -5.866E+00   -5.803E+00   -5.739E+00
    -5.676E+00   -5.612E+00   -5.549E+00   -5.485E+00   -5.422E+00   -5.359E+00   -5.296E+00   -5.234E+00   -5.171E+00   -5.109E+00
    -5.047E+00   -4.985E+00   -4.923E+00   -4.862E+00   -4.800E+00   -4.739E+00   -4.679E+00   -4.618E+00   -4.558E+00   -4.499E+00
    -4.439E+00   -4.380E+00   -4.321E+00   -4.263E+00   -4.204E+00   -4.147E+00   -4.089E+00   -4.032E+00   -3.976E+00   -3.919E+00
    -3.863E+00   -3.808E+00   -3.753E+00   -3.698E+00   -3.644E+00   -3.591E+00   -3.537E+00   -3.485E+00   -3.432E+00   -3.381E+00
    -3.329E+00   -3.279E+00   -3.228E+00   -3.179E+00   -3.130E+00   -3.081E+00   -3.033E+00   -2.986E+00   -2.939E+00   -2.893E+00
    -2.847E+00   -2.802E+00   -2.757E+00   -2.714E+00   -2.670E+00   -2.628E+00   -2.586E+00   -2.545E+00   -2.504E+00   -2.464E+00
    -2.424E+00   -2.385E+00   -2.347E+00   -2.310E+00   -2.273E+00   -2.236E+00   -2.201E+00   -2.165E+00   -2.131E+00   -2.097E+00
    -2.064E+00   -2.031E+00   -1.999E+00   -1.967E+00   -1.937E+00   -1.906E+00   -1.877E+00   -1.848E+00   -1.819E+00   -1.791E+00
    -1.764E+00   -1.738E+00   -1.712E+00   -1.686E+00   -1.661E+00   -1.637E+00   -1.614E+00   -1.591E+00   -1.568E+00   -1.547E+00
    -1.525E+00   -1.505E+00   -1.485E+00   -1.465E+00   -1.447E+00   -1.429E+00   -1.411E+00   -1.394E+00   -1.378E+00   -1.362E+00
    -1.347E+00   -1.332E+00   -1.318E+00   -1.304E+00   -1.291E+00   -1.278E+00   -1.266E+00   -1.254E+00   -1.243E+00   -1.232E+00
    -1.221E+00   -1.211E+00   -1.201E+00   -1.191E+00   -1.182E+00   -1.173E+00   -1.165E+00   -1.157E+00   -1.149E+00   -1.141E+00
    -1.133E+00   -1.126E+00   -1.119E+00   -1.112E+00   -1.106E+00   -1.099E+00   -1.093E+00   -1.086E+00   -1.080E+00   -1.074E+00
    -1.068E+00   -1.062E+00   -1.056E+00   -1.051E+00   -1.045E+00   -1.039E+00   -1.033E+00   -1.027E+00   -1.021E+00   -1.016E+00
    -1.009E+00   -1.003E+00   -9.971E-01   -9.908E-01   -9.843E-01   -9.777E-01   -9.710E-01   -9.640E-01   -9.570E-01   -9.497E-01
    -9.423E-01   -9.347E-01   -9.268E-01   -9.188E-01   -9.106E-01   -9.021E-01   -8.934E-01   -8.844E-01   -8.752E-01   -8.658E-01
    -8.560E-01   -8.460E-01   -8.357E-01   -8.251E-01   -8.142E-01   -8.030E-01   -7.915E-01   -7.796E-01   -7.674E-01   -7.549E-01
    -7.420E-01   -7.287E-01   -7.150E-01   -7.010E-01   -6.866E-01   -6.717E-01   -6.565E-01   -6.408E-01   -6.248E-01   -6.082E-01
    -5.913E-01   -5.738E-01   -5.560E-01   -5.376E-01   -5.188E-01   -4.994E-01   -4.796E-01   -4.593E-01   -4.385E-01   -4.171E-01
    -3.953E-01   -3.730E-01   -3.502E-01   -3.270E-01   -3.033E-01   -2.792E-01   -2.547E-01   -2.297E-01   -2.044E-01   -1.786E-01
    -1.525E-01   -1.259E-01   -9.905E-02   -7.181E-02   -4.421E-02   -1.629E-02    1.197E-02    4.054E-02    6.942E-02    9.859E-02
     1.280E-01    1.578E-01    1.878E-01    2.180E-01    2.485E-01    2.793E-01    3.102E-01    3.414E-01    3.728E-01    4.044E-01
     4.361E-01    4.681E-01    5.002E-01    5.324E-01    5.648E-01    5.974E-01    6.300E-01    6.628E-01    6.957E-01    7.286E-01
     7.617E-01    7.948E-01    8.280E-01    8.613E-01    8.946E-01    9.279E-01    9.613E-01    9.948E-01    1.028E+00    1.062E+00
     1.095E+00    1.129E+00    1.163E+00    1.196E+00    1.230E+00    1.264E+00    1.298E+00    1.332E+00    1.365E+00    1.399E+00
     1.433E+00    1.467E+00    1.501E+00    1.535E+00    1.569E+00    1.603E+00    1.637E+00    1.671E+00    1.705E+00    1.740E+00
     1.774E+00    1.808E+00    1.842E+00    1.876E+00    1.910E+00    1.944E+00    1.978E+00    2.012E+00    2.047E+00    2.081E+00
     2.115E+00    2.149E+00    2.183E+00    2.217E+00    2.251E+00    2.285E+00    2.319E+00    2.353E+00
 Ala      Conc. = 5.85E+02
