 LCModel (Version 6.3-1L) Copyright: S.W. Provencher.          Ref.: Magn. Reson. Med. 30:672-679 (1993).                
 Slice#1 Row#3 Col#10  PD_05_press_2_raw_act
 36 lines in following concentration table = NCONC+1
    Conc.  %SD /Cr+PCr  Metabolite                                         
  151.613  77%   1.105 Ala                                                 
   12.756 861% 9.3E-02 Asp                                                 
  132.514 103%   0.966 Cr                                                  
    4.664 999% 3.4E-02 PCr                                                 
   18.782 379%   0.137 GABA                                                
    0.000 999%   0.000 Glc                                                 
    0.000 999%   0.000 Gln                                                 
   27.787 811%   0.203 Glu                                                 
    0.000 999%   0.000 GPC                                                 
   67.017  44%   0.489 PCh                                                 
    0.000 999%   0.000 GSH                                                 
  114.938 183%   0.838 Ins                                                 
    0.000 999%   0.000 Lac                                                 
    0.000 999%   0.000 NAA                                                 
  326.894  42%   2.383 NAAG                                                
   22.527  79%   0.164 Scyllo                                              
   49.602 222%   0.362 Tau                                                 
  287.999  41%   2.099 -CrCH2                                              
   67.017  44%   0.489 GPC+PCh                                             
  326.894  42%   2.383 NAA+NAAG                                            
  137.179  49%   1.000 Cr+PCr                                              
   27.787 811%   0.203 Glu+Gln                                             
    0.000 999%   0.000 Lip13a                                              
    0.000 999%   0.000 Lip13b                                              
 2.10E-03 999% 1.5E-05 Lip09                                               
 2.98E+03  13%  21.728 MM09                                                
 4.49E-03 999% 3.3E-05 Lip20                                               
 5.99E+03  11%  43.689 MM20                                                
    0.000 999%   0.000 MM12                                                
    0.000 999%   0.000 MM14                                                
    0.000 999%   0.000 MM17                                                
    0.000 999%   0.000 Lip13a+Lip13b                                       
    0.000 999%   0.000 MM14+Lip13a+Lip13b+MM12                             
 2.98E+03  13%  21.728 MM09+Lip09                                          
 5.99E+03  11%  43.689 MM20+Lip20                                          
   6 lines in following misc. output table
  FWHM = 0.076 ppm    S/N =   3                                            
  Data shift =-0.038 ppm                                                   
  Ph:  77 deg      39.9 deg/ppm                                            
  alphaB,S = 6.4E-01,   3.0E+00                                            
   14 spline knots.   Ns = 7(2)                                            
  ( 9)10 infls.   ( 8) 6 extrs.                                            
  498 points on ppm-axis = NY
      4.000000     3.992357     3.984714     3.977070     3.969427     3.961784     3.954141     3.946497     3.938854     3.931211
      3.923568     3.915925     3.908281     3.900638     3.892995     3.885352     3.877708     3.870065     3.862422     3.854779
      3.847136     3.839492     3.831849     3.824206     3.816563     3.808919     3.801276     3.793633     3.785990     3.778347
      3.770703     3.763060     3.755417     3.747774     3.740130     3.732487     3.724844     3.717201     3.709558     3.701914
      3.694271     3.686628     3.678985     3.671341     3.663698     3.656055     3.648412     3.640769     3.633125     3.625482
      3.617839     3.610196     3.602552     3.594909     3.587266     3.579623     3.571980     3.564336     3.556693     3.549050
      3.541407     3.533763     3.526120     3.518477     3.510834     3.503191     3.495547     3.487904     3.480261     3.472618
      3.464974     3.457331     3.449688     3.442045     3.434402     3.426758     3.419115     3.411472     3.403829     3.396185
      3.388542     3.380899     3.373256     3.365613     3.357969     3.350326     3.342683     3.335040     3.327396     3.319753
      3.312110     3.304467     3.296824     3.289180     3.281537     3.273894     3.266251     3.258607     3.250964     3.243321
      3.235678     3.228034     3.220391     3.212748     3.205105     3.197462     3.189818     3.182175     3.174532     3.166889
      3.159245     3.151602     3.143959     3.136316     3.128673     3.121029     3.113386     3.105743     3.098100     3.090456
      3.082813     3.075170     3.067527     3.059884     3.052240     3.044597     3.036954     3.029311     3.021667     3.014024
      3.006381     2.998738     2.991095     2.983451     2.975808     2.968165     2.960522     2.952878     2.945235     2.937592
      2.929949     2.922306     2.914662     2.907019     2.899376     2.891733     2.884089     2.876446     2.868803     2.861160
      2.853517     2.845873     2.838230     2.830587     2.822944     2.815300     2.807657     2.800014     2.792371     2.784728
      2.777084     2.769441     2.761798     2.754155     2.746511     2.738868     2.731225     2.723582     2.715939     2.708295
      2.700652     2.693009     2.685366     2.677722     2.670079     2.662436     2.654793     2.647150     2.639506     2.631863
      2.624220     2.616577     2.608933     2.601290     2.593647     2.586004     2.578361     2.570717     2.563074     2.555431
      2.547788     2.540144     2.532501     2.524858     2.517215     2.509572     2.501928     2.494285     2.486642     2.478999
      2.471355     2.463712     2.456069     2.448426     2.440783     2.433139     2.425496     2.417853     2.410210     2.402566
      2.394923     2.387280     2.379637     2.371994     2.364350     2.356707     2.349064     2.341421     2.333777     2.326134
      2.318491     2.310848     2.303205     2.295561     2.287918     2.280275     2.272632     2.264988     2.257345     2.249702
      2.242059     2.234416     2.226772     2.219129     2.211486     2.203843     2.196199     2.188556     2.180913     2.173270
      2.165627     2.157983     2.150340     2.142697     2.135054     2.127410     2.119767     2.112124     2.104481     2.096838
      2.089194     2.081551     2.073908     2.066265     2.058621     2.050978     2.043335     2.035692     2.028049     2.020405
      2.012762     2.005119     1.997476     1.989833     1.982190     1.974546     1.966903     1.959260     1.951617     1.943974
      1.936331     1.928688     1.921045     1.913402     1.905759     1.898115     1.890472     1.882829     1.875186     1.867543
      1.859900     1.852257     1.844614     1.836971     1.829327     1.821684     1.814041     1.806398     1.798755     1.791112
      1.783469     1.775826     1.768183     1.760540     1.752896     1.745253     1.737610     1.729967     1.722324     1.714681
      1.707038     1.699395     1.691752     1.684108     1.676465     1.668822     1.661179     1.653536     1.645893     1.638250
      1.630607     1.622964     1.615321     1.607677     1.600034     1.592391     1.584748     1.577105     1.569462     1.561819
      1.554176     1.546533     1.538890     1.531246     1.523603     1.515960     1.508317     1.500674     1.493031     1.485388
      1.477745     1.470102     1.462458     1.454815     1.447172     1.439529     1.431886     1.424243     1.416600     1.408957
      1.401314     1.393671     1.386027     1.378384     1.370741     1.363098     1.355455     1.347812     1.340169     1.332526
      1.324883     1.317240     1.309596     1.301953     1.294310     1.286667     1.279024     1.271381     1.263738     1.256095
      1.248452     1.240808     1.233165     1.225522     1.217879     1.210236     1.202593     1.194950     1.187307     1.179664
      1.172021     1.164377     1.156734     1.149091     1.141448     1.133805     1.126162     1.118519     1.110876     1.103233
      1.095590     1.087946     1.080303     1.072660     1.065017     1.057374     1.049731     1.042088     1.034445     1.026802
      1.019158     1.011515     1.003872     0.996229     0.988586     0.980943     0.973300     0.965657     0.958014     0.950371
      0.942727     0.935084     0.927441     0.919798     0.912155     0.904512     0.896869     0.889226     0.881583     0.873940
      0.866296     0.858653     0.851010     0.843367     0.835724     0.828081     0.820438     0.812795     0.805152     0.797508
      0.789865     0.782222     0.774579     0.766936     0.759293     0.751650     0.744007     0.736364     0.728721     0.721077
      0.713434     0.705791     0.698148     0.690505     0.682862     0.675219     0.667576     0.659933     0.652290     0.644646
      0.637003     0.629360     0.621717     0.614074     0.606431     0.598788     0.591145     0.583502     0.575858     0.568215
      0.560572     0.552929     0.545286     0.537643     0.530000     0.522357     0.514714     0.507071     0.499427     0.491784
      0.484141     0.476498     0.468855     0.461212     0.453569     0.445925     0.438282     0.430639     0.422996     0.415353
      0.407710     0.400067     0.392424     0.384780     0.377137     0.369494     0.361851     0.354208     0.346565     0.338922
      0.331278     0.323635     0.315992     0.308349     0.300706     0.293063     0.285420     0.277777     0.270133     0.262490
      0.254847     0.247204     0.239561     0.231918     0.224275     0.216631     0.208988     0.201345
 NY phased data points follow
   4.84504E+00  8.89648E+00  1.28439E+01  7.66236E+00 -1.15400E+00 -1.37072E+00  1.73357E+01 -1.12110E+00 -3.42386E+00 -6.81561E+00
   2.55084E+00  8.24267E+00 -1.11729E+01 -1.89681E+01 -5.73350E+00 -1.27956E+01  1.72658E+01 -9.08819E+00  6.18227E+00 -8.95149E+00
  -2.43443E+00 -5.05094E+00  1.13507E+00 -3.81978E+00  6.96206E+00  2.02275E+00  6.71521E+00 -5.94286E-01 -3.28276E+00 -6.96785E+00
   1.07931E+01  6.05196E+00  1.15478E+00 -3.50908E+00  4.28381E-01 -1.01597E+01 -9.20063E-01 -3.06755E+00 -1.37428E+01 -1.23331E+01
  -4.67955E+00 -3.38516E+00  3.24227E+00  4.51327E+00  9.62532E+00 -9.11292E+00  1.49501E+01  1.42248E+01  6.43324E-01  1.42276E+01
   2.66485E+00  3.62876E+00  5.43204E+00  6.30523E+00 -2.77921E-01  4.25213E+00  6.96030E+00 -5.16658E+00  1.05524E+01  4.85728E-02
  -5.42615E+00 -8.04990E+00  1.10142E+01  8.92947E+00  5.86899E+00  7.00662E+00  1.11525E+00 -1.81295E+00 -3.40516E-01 -1.05520E+01
   1.03984E+01  6.90410E+00  7.47642E+00 -3.35980E+00  6.40556E+00  2.33221E+00  2.20986E+00 -4.23942E+00  7.25516E-01  5.69255E+00
  -2.46050E+00 -8.10891E+00  8.84136E+00  2.78841E+00  9.60769E+00 -2.64016E+00 -9.33643E+00  5.78950E+00  6.06340E+00  5.72654E+00
   2.85341E+00  1.18779E+01 -5.36347E+00 -1.10867E+01  8.99808E+00 -9.03779E+00 -2.66340E+00  3.47952E+00 -1.14174E+00 -3.96697E+00
   6.96176E-01 -7.26718E+00  6.95643E+00  9.88295E+00  1.27103E+01  1.51780E+01  2.55163E+01  1.48659E+01  1.73689E+01  2.02256E+01
   9.70725E+00  1.04459E+01  1.13889E+01  6.40292E+00  1.83290E+01  9.43329E+00  7.91147E+00  8.86755E+00  1.62733E+01  3.25097E+00
   9.86434E+00  1.57020E+01  1.29876E+01  9.54614E+00  1.02866E+01  2.82119E+00  1.13169E+01  1.40395E+01  1.82438E+01  1.85361E+01
   2.76765E+01  1.38753E+01  1.88648E+01  2.15532E+01  7.90304E+00  7.22620E+00  2.17703E+01  1.26380E+01  2.78139E+01  1.92956E+01
   3.17541E+01  5.62346E+00  8.03855E+00  1.72066E+01  3.01049E+01  7.33034E+00  4.36835E+00  9.01267E+00  1.57377E+01  1.16278E+01
   1.04102E+01  4.54400E+00  2.15556E+01  1.75938E+01  2.52332E+01  1.15221E+01  1.15501E+01  4.70076E+00  1.79714E+01  1.76695E+01
   8.01161E+00  4.14842E+00  6.63214E+00  9.45822E+00  1.27652E+01 -1.41732E+01 -1.29804E+00  4.23797E-01  1.24041E+01  2.26402E+00
   4.50142E+00  1.10140E+00  5.27579E+00  8.94066E+00 -3.02007E+00  3.89037E+00  1.83175E+00  2.51958E+00 -2.71487E+00 -2.37276E+00
  -1.51065E+01 -5.69762E+00 -8.19404E+00 -1.23691E+01  4.81445E+00  1.54432E+00 -1.71908E-01  7.83395E+00  3.99664E+00 -6.29343E+00
   2.15860E+00 -6.84923E+00 -1.37954E+01  5.79607E+00  9.46035E-02 -7.90644E+00  5.32358E+00  9.44153E+00 -2.28022E+00 -4.15626E+00
  -7.64042E+00 -6.49064E+00  1.00437E+00  9.48784E+00 -7.29302E+00  1.14378E+01 -1.49047E+00  1.13868E+01  3.86331E+00 -9.06169E+00
   8.24626E-01  9.65377E-01  1.76750E+01  4.68773E-01  7.56843E+00 -2.81759E+00  1.95575E+01  1.24274E+01 -2.73869E-01  1.09390E+00
  -1.49750E+00 -3.69610E+00  1.92065E+00  6.04896E+00 -1.79164E+01  3.87668E+00  3.95384E+00  8.00953E+00  3.94474E+00  1.58411E+00
   1.44138E+01  4.18330E+00  1.07791E+01 -8.08393E+00  1.00116E+00  1.05177E+01  3.66037E+00  3.04088E+00  1.72130E+01  1.91968E+01
   6.99929E+00 -3.26638E-02  1.52516E+01 -1.02124E+01 -4.63534E+00 -1.30391E+00  1.20054E+01  1.15496E+01  1.23894E+01  1.63223E+01
   8.84151E+00  1.10234E+01  8.92853E+00  1.74293E+01  1.53732E+01  2.18209E+01  1.80003E+01  1.82288E+01  4.62627E+01  3.04449E+01
   4.34664E+01  4.01775E+01  3.71815E+01  2.69192E+01  4.07914E+01  3.02499E+01  1.54615E+01  9.65283E+00  2.78159E+00  9.00688E+00
   9.36013E+00  1.85044E+01  1.75480E+01  1.01993E+00  1.26184E+01 -3.27568E+00 -3.85231E+00 -7.38117E+00 -8.15462E-02  1.39307E+00
  -3.42112E+00 -2.98561E+00 -1.32651E+01 -1.92852E+01 -3.57274E+00 -3.14766E+00 -1.62354E+01 -1.05339E+01 -4.03778E+00 -1.04124E+00
  -9.28683E+00 -1.67744E+01 -1.23140E+01 -1.32084E+01 -4.49274E+00 -1.38288E+00 -4.65250E-01 -5.81572E+00 -1.75244E+01 -1.74688E+01
  -3.54612E+00 -6.99485E+00 -6.32100E+00 -2.94173E+01 -1.31266E+01 -1.30698E+01 -1.29677E+01 -1.67757E+01 -1.35499E+01  3.54284E+00
  -1.13021E+00 -4.55587E+00 -1.12906E+01 -3.38497E+00 -1.63348E+00 -5.37459E-01  1.28990E+00 -4.26612E+00 -8.08358E+00 -1.12338E+01
  -3.29911E+00 -1.06466E+01 -1.11121E+01 -3.01034E-01 -6.56571E+00  8.66746E-01 -1.24386E+00 -7.72003E+00 -1.28154E+01 -8.13605E+00
   1.54195E+00 -6.57744E+00 -1.50328E+01 -1.73858E+01 -1.71344E+01 -2.34006E+01 -2.33946E+01 -6.34437E+00 -1.00272E+01 -1.43373E+01
  -1.44383E+01 -1.28799E+01 -1.79741E+01 -1.30874E+01 -7.82719E+00 -1.07485E+01 -1.98680E+00 -3.74709E+00  5.80706E-01 -5.08454E+00
  -1.09384E+01 -1.08801E+01 -5.01005E+00 -1.67363E+01 -1.11958E+01 -8.60527E-02 -3.95473E+00 -1.34423E+01 -9.84456E+00 -1.03602E+01
  -1.21555E+01 -2.36316E+01 -1.21609E+01 -1.60758E+01 -5.49179E+00 -1.84230E+01 -2.84825E+01 -1.58779E+01 -1.70639E+01 -2.25783E+01
  -4.35523E+00  2.71458E+00  7.54528E+00  7.75625E+00 -1.00808E+01  1.70743E+01 -1.69980E-01 -1.83820E+00  2.86943E+00  1.37723E+01
  -1.28919E+01 -6.42797E+00  5.56710E+00  4.15804E+00  5.55126E+00  4.93623E+00  7.76906E+00  9.56968E+00  1.83644E+01  4.29962E+00
   1.35411E+01  1.05850E+01  8.50832E+00  2.40383E+01  2.19528E+01  1.42393E+01 -8.54774E+00  1.39907E+01  1.56590E+01  8.91305E+00
   2.07673E+01  1.38658E+01  1.57699E+01  2.16484E+01  1.81671E+01  5.15831E+00  2.00575E+01  7.58772E+00  1.24024E+01  1.57083E+01
   9.54398E+00  1.71518E+01  9.73922E+00  5.86787E+00  1.03452E+01  9.00049E+00  6.88695E+00  9.12756E+00  1.34709E+01  1.70206E+00
   4.95681E-02  1.83573E+00 -4.42687E+00 -4.11753E+00  3.14325E+00  7.82364E+00 -1.88201E+00 -4.77316E-01  4.12229E+00  5.30501E+00
  -1.75150E+00  3.87751E+00  5.93648E+00  9.20024E+00 -4.54011E+00 -2.35197E+00  1.60034E+00 -2.14137E+00  3.79258E+00  3.49621E+00
   9.71119E+00  2.28591E-01  7.47482E+00  1.24103E+01  3.03948E+00 -2.36583E+00  1.07179E+01 -3.50441E+00 -5.96758E+00  3.16056E+00
   2.91512E+00  6.86897E-01 -6.99287E+00  5.90290E+00 -6.61523E+00 -5.47701E+00  1.06929E+01  5.71730E-01 -6.78937E+00  2.15437E-01
   1.83160E-01  4.78043E-01 -7.05027E+00 -2.33576E+00  5.29321E+00  4.89807E+00 -1.74664E+00 -1.80366E+01  8.21876E+00  2.42825E-01
   2.62256E+00 -4.60214E+00  2.78666E+00  1.36631E+01  6.51765E-01  1.67053E+00  3.31315E+00 -1.36935E+00  1.74902E+00  3.28430E+00
  -2.86088E+00  6.85214E+00 -5.17613E+00 -5.57890E+00 -8.97033E+00  7.11896E+00  5.91953E+00 -3.97191E-01  4.85724E+00  5.19341E+00
  -6.52625E+00  9.93071E-01  1.03104E+00 -5.40879E+00 -8.40360E-01 -3.84902E+00 -8.37014E+00  1.48914E+01
 NY points of the fit to the data follow
   6.43374E+00  8.57498E+00  7.11609E+00  8.04186E+00  6.43572E+00  7.26154E+00  4.79390E+00  3.20614E+00  7.33056E-01 -1.81861E+00
  -3.23020E+00 -7.81913E+00 -5.82668E+00 -8.40429E+00 -2.55742E+00 -2.58231E+00  1.69851E+00 -9.51086E-01  1.68589E+00 -5.14797E-01
   1.86887E+00  7.42849E-01  2.66282E+00  2.19693E+00  4.23051E+00  5.58989E+00  5.72230E+00  4.85906E+00  3.89590E+00  3.93837E+00
   2.97390E+00  3.14313E+00  2.54615E+00  2.61116E+00  2.10534E+00  2.57689E+00  2.52892E+00  3.51661E+00  3.70342E+00  3.93670E+00
   3.67512E+00  3.58622E+00  3.50445E+00  3.43943E+00  3.41250E+00  3.35505E+00  3.61952E+00  3.66883E+00  3.95266E+00  4.18407E+00
   4.47351E+00  4.63502E+00  4.59736E+00  4.14372E+00  3.80580E+00  3.58257E+00  3.61682E+00  3.61462E+00  3.56037E+00  3.63817E+00
   3.52412E+00  3.54730E+00  3.52874E+00  3.38863E+00  3.32295E+00  3.44761E+00  3.59648E+00  3.60184E+00  3.53321E+00  3.53819E+00
   3.38186E+00  3.27359E+00  2.41843E+00  2.47025E+00  2.00717E+00  2.37251E+00  2.83574E+00  3.11880E+00  2.91978E+00  3.06648E+00
   3.00017E+00  2.99390E+00  2.85949E+00  3.02197E+00  3.32872E+00  3.50795E+00  4.20033E+00  4.20828E+00  4.68819E+00  2.40501E+00
  -3.73417E-01 -1.35962E+00 -4.71180E+00 -1.66145E+00 -1.88375E+00 -4.93572E-01 -1.67198E+00 -2.04917E-01 -1.29560E+00  1.27240E-01
  -6.61019E-01  2.21431E+00  2.89789E+00  6.08458E+00  8.96360E+00  1.21238E+01  1.71680E+01  1.68904E+01  2.08405E+01  1.64754E+01
   1.74097E+01  1.40296E+01  1.46921E+01  9.84161E+00  9.32103E+00  5.58439E+00  5.10417E+00  5.14087E+00  5.28942E+00  3.41617E+00
   1.90736E+00  2.64483E+00  2.48444E+00  3.30818E+00  3.40220E+00  5.50880E+00  6.52156E+00  9.00032E+00  1.08147E+01  1.37904E+01
   1.60593E+01  1.66835E+01  1.78769E+01  1.52132E+01  1.51770E+01  1.32981E+01  1.33389E+01  1.16690E+01  1.15716E+01  9.71956E+00
   9.53452E+00  8.09525E+00  7.57228E+00  5.39604E+00  4.30202E+00  3.83442E+00  3.62198E+00  3.34349E+00  3.39475E+00  3.23469E+00
   3.14361E+00  2.92628E+00  2.75419E+00  2.53651E+00  2.37202E+00  2.20296E+00  2.18658E+00  1.89539E+00  1.80662E+00  1.47885E+00
   1.39626E+00  1.58214E+00  1.47422E+00  1.48254E+00  1.12636E+00  8.18088E-01  5.75898E-01  4.43704E-01  2.77045E-01  2.64377E-01
  -1.50962E-01 -1.69849E-01 -9.50683E-01 -9.38010E-01 -1.28114E+00 -1.12908E+00 -1.25666E+00 -1.39423E+00 -1.88507E+00 -1.82751E+00
  -2.24297E+00 -1.85624E+00 -1.85323E+00 -1.73453E+00 -1.76806E+00 -1.76726E+00 -1.49156E+00 -1.48897E+00 -1.13433E+00 -8.40106E-01
  -4.29320E-01 -1.95548E-01  1.80211E-01  2.76698E-01  7.13848E-01  8.54427E-01  9.42087E-01  1.02954E+00  8.55069E-01  8.81340E-01
   7.24322E-01  8.30804E-01  8.89592E-01  1.00498E+00  1.14287E+00  1.18677E+00  1.20868E+00  1.13385E+00  1.11795E+00  1.01720E+00
   1.04726E+00  6.97008E-01  7.59791E-01  5.63448E-01  1.06861E+00  1.07943E+00  1.58061E+00  1.82854E+00  2.28349E+00  2.50994E+00
   2.76880E+00  2.61391E+00  2.80125E+00  2.89755E+00  3.39491E+00  3.92243E+00  4.54279E+00  5.04239E+00  5.76094E+00  6.25922E+00
   6.69557E+00  6.93715E+00  7.11260E+00  7.49866E+00  8.30121E+00  8.92602E+00  9.87121E+00  1.09264E+01  1.17107E+01  1.23952E+01
   1.23096E+01  1.03772E+01  4.63367E+00  4.72215E+00 -5.05958E-01  4.29191E+00  5.68197E+00  9.01242E+00  7.95912E+00  1.07349E+01
   9.71214E+00  1.17704E+01  1.03909E+01  1.38068E+01  1.61155E+01  1.95896E+01  2.46552E+01  2.77812E+01  3.66432E+01  3.55563E+01
   4.16864E+01  3.53690E+01  3.47424E+01  2.92500E+01  2.94796E+01  2.49145E+01  2.49834E+01  2.03118E+01  1.90221E+01  1.50880E+01
   1.36728E+01  9.40180E+00  5.24843E+00  3.96138E+00  3.13836E+00  2.52118E+00  1.95523E+00  1.37319E+00  6.61339E-01 -1.72564E-02
  -7.61212E-01 -1.37890E+00 -1.89035E+00 -2.27748E+00 -2.60460E+00 -2.84293E+00 -3.06813E+00 -3.32157E+00 -3.57287E+00 -3.91300E+00
  -4.11763E+00 -4.39981E+00 -4.51894E+00 -4.65936E+00 -4.65126E+00 -4.78262E+00 -4.73316E+00 -4.85689E+00 -4.89303E+00 -5.08821E+00
  -5.15668E+00 -5.34049E+00 -5.39058E+00 -5.54589E+00 -5.57195E+00 -5.66803E+00 -5.69954E+00 -5.80516E+00 -5.93325E+00 -6.10272E+00
  -6.30167E+00 -6.62370E+00 -7.24049E+00 -8.08155E+00 -7.48436E+00 -7.56607E+00 -5.87116E+00 -5.08906E+00 -4.37661E+00 -4.08646E+00
  -3.08939E+00 -3.91239E+00 -3.78795E+00 -5.02208E+00 -4.88945E+00 -4.17730E+00 -3.54585E+00 -2.98784E+00 -3.05841E+00 -2.46988E+00
  -4.09290E+00 -4.68679E+00 -7.46139E+00 -8.26384E+00 -9.70578E+00 -9.32817E+00 -1.00992E+01 -8.45463E+00 -8.25083E+00 -6.56688E+00
  -5.83902E+00 -5.57262E+00 -5.73485E+00 -5.78195E+00 -5.10630E+00 -4.54765E+00 -4.08620E+00 -3.94431E+00 -3.72254E+00 -3.60092E+00
  -3.42976E+00 -4.10243E+00 -4.48509E+00 -4.66231E+00 -4.76942E+00 -4.81763E+00 -4.84914E+00 -4.84668E+00 -4.84088E+00 -4.80882E+00
  -4.77796E+00 -4.72367E+00 -4.67226E+00 -4.59832E+00 -4.52734E+00 -4.43329E+00 -4.34111E+00 -4.22445E+00 -4.10781E+00 -3.96436E+00
  -3.81788E+00 -3.64098E+00 -3.45681E+00 -3.23741E+00 -3.00516E+00 -2.73132E+00 -2.43736E+00 -2.09380E+00 -1.72145E+00 -1.29040E+00
  -8.21025E-01 -2.83356E-01  3.01960E-01  9.63908E-01  1.68031E+00  2.47787E+00  3.33151E+00  4.26415E+00  5.24621E+00  6.29526E+00
   7.37592E+00  8.49962E+00  9.62506E+00  1.07579E+01  1.18520E+01  1.29089E+01  1.38802E+01  1.47670E+01  1.55225E+01  1.61513E+01
   1.66121E+01  1.69173E+01  1.70345E+01  1.69860E+01  1.67503E+01  1.63603E+01  1.58044E+01  1.51240E+01  1.43149E+01  1.34238E+01
   1.24498E+01  1.14408E+01  1.03948E+01  9.35715E+00  8.32210E+00  7.32983E+00  6.36893E+00  5.47349E+00  4.62614E+00  3.85533E+00
   3.13875E+00  2.50045E+00  1.91451E+00  1.40207E+00  9.35169E-01  5.33554E-01  1.68545E-01 -1.40480E-01 -4.22138E-01 -6.56792E-01
  -8.72465E-01 -1.04886E+00 -1.21320E+00 -1.34454E+00 -1.46940E+00 -1.56620E+00 -1.66076E+00 -1.73096E+00 -1.80208E+00 -1.85163E+00
  -1.90453E+00 -1.93799E+00 -1.97655E+00 -1.99721E+00 -2.02429E+00 -2.03469E+00 -2.05255E+00 -2.05468E+00 -2.06501E+00 -2.06030E+00
  -2.06438E+00 -2.05402E+00 -2.05296E+00 -2.03791E+00 -2.03250E+00 -2.01345E+00 -2.00432E+00 -1.98190E+00 -1.96966E+00 -1.94436E+00
  -1.92938E+00 -1.90154E+00 -1.88421E+00 -1.85423E+00 -1.83489E+00 -1.80301E+00 -1.78185E+00 -1.74828E+00 -1.72556E+00 -1.69058E+00
  -1.66648E+00 -1.63019E+00 -1.60483E+00 -1.56739E+00 -1.54096E+00 -1.50254E+00 -1.47513E+00 -1.43578E+00 -1.40746E+00 -1.36731E+00
  -1.33824E+00 -1.29738E+00 -1.26760E+00 -1.22606E+00 -1.19563E+00 -1.15352E+00 -1.12254E+00 -1.07992E+00 -1.04840E+00 -1.00528E+00
  -9.73282E-01 -9.29756E-01 -8.97367E-01 -8.53457E-01 -8.20654E-01 -7.76374E-01 -7.43238E-01 -6.98696E-01
 NY background values follow
     3.101E+00    3.090E+00    3.079E+00    3.068E+00    3.058E+00    3.047E+00    3.036E+00    3.025E+00    3.014E+00    3.004E+00
     2.993E+00    2.982E+00    2.971E+00    2.960E+00    2.950E+00    2.939E+00    2.928E+00    2.917E+00    2.906E+00    2.895E+00
     2.884E+00    2.874E+00    2.863E+00    2.852E+00    2.841E+00    2.830E+00    2.819E+00    2.808E+00    2.797E+00    2.786E+00
     2.775E+00    2.764E+00    2.752E+00    2.741E+00    2.730E+00    2.719E+00    2.707E+00    2.696E+00    2.685E+00    2.673E+00
     2.662E+00    2.651E+00    2.639E+00    2.627E+00    2.616E+00    2.604E+00    2.592E+00    2.581E+00    2.569E+00    2.557E+00
     2.545E+00    2.533E+00    2.521E+00    2.509E+00    2.497E+00    2.484E+00    2.472E+00    2.459E+00    2.447E+00    2.434E+00
     2.421E+00    2.408E+00    2.395E+00    2.382E+00    2.368E+00    2.355E+00    2.341E+00    2.328E+00    2.314E+00    2.300E+00
     2.286E+00    2.271E+00    2.257E+00    2.242E+00    2.227E+00    2.212E+00    2.197E+00    2.182E+00    2.166E+00    2.151E+00
     2.135E+00    2.119E+00    2.102E+00    2.086E+00    2.069E+00    2.052E+00    2.035E+00    2.017E+00    2.000E+00    1.982E+00
     1.964E+00    1.945E+00    1.927E+00    1.908E+00    1.889E+00    1.869E+00    1.850E+00    1.830E+00    1.810E+00    1.789E+00
     1.768E+00    1.747E+00    1.726E+00    1.704E+00    1.682E+00    1.660E+00    1.637E+00    1.615E+00    1.591E+00    1.568E+00
     1.544E+00    1.520E+00    1.495E+00    1.470E+00    1.445E+00    1.420E+00    1.394E+00    1.367E+00    1.341E+00    1.314E+00
     1.286E+00    1.258E+00    1.230E+00    1.202E+00    1.173E+00    1.143E+00    1.114E+00    1.083E+00    1.053E+00    1.022E+00
     9.904E-01    9.585E-01    9.263E-01    8.935E-01    8.604E-01    8.268E-01    7.927E-01    7.582E-01    7.232E-01    6.878E-01
     6.520E-01    6.158E-01    5.791E-01    5.420E-01    5.045E-01    4.665E-01    4.282E-01    3.895E-01    3.503E-01    3.108E-01
     2.709E-01    2.306E-01    1.900E-01    1.490E-01    1.076E-01    6.585E-02    2.375E-02   -1.870E-02   -6.149E-02   -1.046E-01
    -1.481E-01   -1.919E-01   -2.360E-01   -2.804E-01   -3.252E-01   -3.702E-01   -4.156E-01   -4.612E-01   -5.072E-01   -5.534E-01
    -5.999E-01   -6.467E-01   -6.938E-01   -7.411E-01   -7.887E-01   -8.366E-01   -8.847E-01   -9.330E-01   -9.816E-01   -1.030E+00
    -1.080E+00   -1.129E+00   -1.178E+00   -1.228E+00   -1.278E+00   -1.328E+00   -1.378E+00   -1.429E+00   -1.480E+00   -1.530E+00
    -1.581E+00   -1.632E+00   -1.684E+00   -1.735E+00   -1.787E+00   -1.838E+00   -1.890E+00   -1.942E+00   -1.994E+00   -2.046E+00
    -2.098E+00   -2.150E+00   -2.202E+00   -2.254E+00   -2.306E+00   -2.359E+00   -2.411E+00   -2.463E+00   -2.515E+00   -2.568E+00
    -2.620E+00   -2.672E+00   -2.725E+00   -2.777E+00   -2.829E+00   -2.881E+00   -2.933E+00   -2.985E+00   -3.037E+00   -3.089E+00
    -3.140E+00   -3.192E+00   -3.243E+00   -3.295E+00   -3.346E+00   -3.397E+00   -3.448E+00   -3.498E+00   -3.549E+00   -3.599E+00
    -3.650E+00   -3.700E+00   -3.749E+00   -3.799E+00   -3.849E+00   -3.898E+00   -3.947E+00   -3.996E+00   -4.044E+00   -4.092E+00
    -4.140E+00   -4.188E+00   -4.236E+00   -4.283E+00   -4.330E+00   -4.377E+00   -4.423E+00   -4.469E+00   -4.515E+00   -4.560E+00
    -4.605E+00   -4.650E+00   -4.695E+00   -4.739E+00   -4.783E+00   -4.826E+00   -4.869E+00   -4.912E+00   -4.954E+00   -4.996E+00
    -5.037E+00   -5.078E+00   -5.119E+00   -5.159E+00   -5.199E+00   -5.239E+00   -5.278E+00   -5.316E+00   -5.354E+00   -5.392E+00
    -5.429E+00   -5.466E+00   -5.502E+00   -5.537E+00   -5.573E+00   -5.607E+00   -5.642E+00   -5.675E+00   -5.708E+00   -5.741E+00
    -5.773E+00   -5.805E+00   -5.836E+00   -5.867E+00   -5.897E+00   -5.926E+00   -5.955E+00   -5.984E+00   -6.012E+00   -6.039E+00
    -6.066E+00   -6.092E+00   -6.118E+00   -6.143E+00   -6.168E+00   -6.192E+00   -6.215E+00   -6.238E+00   -6.260E+00   -6.282E+00
    -6.303E+00   -6.323E+00   -6.343E+00   -6.362E+00   -6.381E+00   -6.399E+00   -6.416E+00   -6.433E+00   -6.449E+00   -6.465E+00
    -6.480E+00   -6.494E+00   -6.508E+00   -6.521E+00   -6.533E+00   -6.545E+00   -6.556E+00   -6.566E+00   -6.576E+00   -6.585E+00
    -6.593E+00   -6.601E+00   -6.608E+00   -6.614E+00   -6.620E+00   -6.625E+00   -6.630E+00   -6.633E+00   -6.637E+00   -6.639E+00
    -6.641E+00   -6.642E+00   -6.643E+00   -6.643E+00   -6.642E+00   -6.641E+00   -6.639E+00   -6.636E+00   -6.633E+00   -6.630E+00
    -6.625E+00   -6.620E+00   -6.614E+00   -6.608E+00   -6.601E+00   -6.594E+00   -6.586E+00   -6.577E+00   -6.568E+00   -6.558E+00
    -6.547E+00   -6.536E+00   -6.524E+00   -6.512E+00   -6.499E+00   -6.485E+00   -6.471E+00   -6.456E+00   -6.441E+00   -6.425E+00
    -6.409E+00   -6.391E+00   -6.374E+00   -6.355E+00   -6.337E+00   -6.317E+00   -6.297E+00   -6.277E+00   -6.256E+00   -6.234E+00
    -6.212E+00   -6.189E+00   -6.166E+00   -6.142E+00   -6.118E+00   -6.094E+00   -6.068E+00   -6.043E+00   -6.017E+00   -5.990E+00
    -5.963E+00   -5.936E+00   -5.908E+00   -5.879E+00   -5.850E+00   -5.821E+00   -5.791E+00   -5.761E+00   -5.731E+00   -5.700E+00
    -5.669E+00   -5.637E+00   -5.605E+00   -5.573E+00   -5.540E+00   -5.507E+00   -5.473E+00   -5.439E+00   -5.405E+00   -5.371E+00
    -5.336E+00   -5.301E+00   -5.266E+00   -5.230E+00   -5.194E+00   -5.157E+00   -5.121E+00   -5.084E+00   -5.047E+00   -5.010E+00
    -4.972E+00   -4.934E+00   -4.896E+00   -4.858E+00   -4.819E+00   -4.780E+00   -4.741E+00   -4.702E+00   -4.662E+00   -4.623E+00
    -4.583E+00   -4.543E+00   -4.502E+00   -4.462E+00   -4.421E+00   -4.380E+00   -4.339E+00   -4.298E+00   -4.257E+00   -4.215E+00
    -4.173E+00   -4.132E+00   -4.090E+00   -4.048E+00   -4.005E+00   -3.963E+00   -3.920E+00   -3.878E+00   -3.835E+00   -3.792E+00
    -3.749E+00   -3.706E+00   -3.663E+00   -3.620E+00   -3.576E+00   -3.533E+00   -3.489E+00   -3.446E+00   -3.402E+00   -3.359E+00
    -3.315E+00   -3.271E+00   -3.227E+00   -3.183E+00   -3.139E+00   -3.096E+00   -3.052E+00   -3.008E+00   -2.963E+00   -2.919E+00
    -2.875E+00   -2.831E+00   -2.787E+00   -2.743E+00   -2.698E+00   -2.654E+00   -2.610E+00   -2.566E+00   -2.521E+00   -2.477E+00
    -2.432E+00   -2.388E+00   -2.344E+00   -2.299E+00   -2.255E+00   -2.210E+00   -2.166E+00   -2.121E+00   -2.077E+00   -2.032E+00
    -1.988E+00   -1.943E+00   -1.899E+00   -1.854E+00   -1.810E+00   -1.765E+00   -1.720E+00   -1.676E+00   -1.631E+00   -1.587E+00
    -1.542E+00   -1.498E+00   -1.453E+00   -1.409E+00   -1.364E+00   -1.320E+00   -1.275E+00   -1.231E+00
 Ala      Conc. = 1.52E+02
