 LCModel (Version 6.3-1L) Copyright: S.W. Provencher.          Ref.: Magn. Reson. Med. 30:672-679 (1993).                
 Slice#2 Row#4 Col#12  PD_05_press_2_raw_act
 36 lines in following concentration table = NCONC+1
    Conc.  %SD /Cr+PCr  Metabolite                                         
 4.84E+03  40%  89.674 Ala                                                 
   39.034  54%   0.724 Asp                                                 
   53.918 282%   1.000 Cr                                                  
    0.000 999%   0.000 PCr                                                 
   23.105  55%   0.429 GABA                                                
   23.332  55%   0.433 Glc                                                 
 2.84E+03  50%  52.682 Gln                                                 
    0.000 999%   0.000 Glu                                                 
  236.414  24%   4.385 GPC                                                 
    0.000 999%   0.000 PCh                                                 
  605.534  37%  11.231 GSH                                                 
 3.22E+03  18%  59.635 Ins                                                 
 1.02E+04  31% 190.005 Lac                                                 
    0.000 999%   0.000 NAA                                                 
    9.328 999%   0.173 NAAG                                                
    7.931  54%   0.147 Scyllo                                              
   39.124  54%   0.726 Tau                                                 
    3.854 565% 7.1E-02 -CrCH2                                              
  236.414  24%   4.385 GPC+PCh                                             
    9.328 999%   0.173 NAA+NAAG                                            
   53.918 282%   1.000 Cr+PCr                                              
 2.84E+03  50%  52.682 Glu+Gln                                             
 7.05E+03  45% 130.836 Lip13a                                              
  449.937 178%   8.345 Lip13b                                              
 2.60E+03  21%  48.259 Lip09                                               
 4.06E+03  12%  75.258 MM09                                                
    0.000 999%   0.000 Lip20                                               
 4.47E+03  16%  82.922 MM20                                                
 1.69E+03  44%  31.300 MM12                                                
 7.78E+03   7% 144.333 MM14                                                
 2.87E+03  11%  53.219 MM17                                                
 7.50E+03  33% 139.181 Lip13a+Lip13b                                       
 1.70E+04  14% 314.813 MM14+Lip13a+Lip13b+MM12                             
 6.66E+03  11% 123.517 MM09+Lip09                                          
 4.47E+03  16%  82.922 MM20+Lip20                                          
   6 lines in following misc. output table
  FWHM = 0.168 ppm    S/N =   7                                            
  Data shift = 0.245 ppm                                                   
  Ph:-133 deg     150.7 deg/ppm                                            
  alphaB,S = 1.1E+00,   1.7E+02                                            
    6 spline knots.   Ns = 9(2)                                            
  (13) 2 infls.   ( 6) 1 extrs.                                            
  498 points on ppm-axis = NY
      4.000000     3.992357     3.984714     3.977070     3.969427     3.961784     3.954141     3.946497     3.938854     3.931211
      3.923568     3.915925     3.908281     3.900638     3.892995     3.885352     3.877708     3.870065     3.862422     3.854779
      3.847136     3.839492     3.831849     3.824206     3.816563     3.808919     3.801276     3.793633     3.785990     3.778347
      3.770703     3.763060     3.755417     3.747774     3.740130     3.732487     3.724844     3.717201     3.709558     3.701914
      3.694271     3.686628     3.678985     3.671341     3.663698     3.656055     3.648412     3.640769     3.633125     3.625482
      3.617839     3.610196     3.602552     3.594909     3.587266     3.579623     3.571980     3.564336     3.556693     3.549050
      3.541407     3.533763     3.526120     3.518477     3.510834     3.503191     3.495547     3.487904     3.480261     3.472618
      3.464974     3.457331     3.449688     3.442045     3.434402     3.426758     3.419115     3.411472     3.403829     3.396185
      3.388542     3.380899     3.373256     3.365613     3.357969     3.350326     3.342683     3.335040     3.327396     3.319753
      3.312110     3.304467     3.296824     3.289180     3.281537     3.273894     3.266251     3.258607     3.250964     3.243321
      3.235678     3.228034     3.220391     3.212748     3.205105     3.197462     3.189818     3.182175     3.174532     3.166889
      3.159245     3.151602     3.143959     3.136316     3.128673     3.121029     3.113386     3.105743     3.098100     3.090456
      3.082813     3.075170     3.067527     3.059884     3.052240     3.044597     3.036954     3.029311     3.021667     3.014024
      3.006381     2.998738     2.991095     2.983451     2.975808     2.968165     2.960522     2.952878     2.945235     2.937592
      2.929949     2.922306     2.914662     2.907019     2.899376     2.891733     2.884089     2.876446     2.868803     2.861160
      2.853517     2.845873     2.838230     2.830587     2.822944     2.815300     2.807657     2.800014     2.792371     2.784728
      2.777084     2.769441     2.761798     2.754155     2.746511     2.738868     2.731225     2.723582     2.715939     2.708295
      2.700652     2.693009     2.685366     2.677722     2.670079     2.662436     2.654793     2.647150     2.639506     2.631863
      2.624220     2.616577     2.608933     2.601290     2.593647     2.586004     2.578361     2.570717     2.563074     2.555431
      2.547788     2.540144     2.532501     2.524858     2.517215     2.509572     2.501928     2.494285     2.486642     2.478999
      2.471355     2.463712     2.456069     2.448426     2.440783     2.433139     2.425496     2.417853     2.410210     2.402566
      2.394923     2.387280     2.379637     2.371994     2.364350     2.356707     2.349064     2.341421     2.333777     2.326134
      2.318491     2.310848     2.303205     2.295561     2.287918     2.280275     2.272632     2.264988     2.257345     2.249702
      2.242059     2.234416     2.226772     2.219129     2.211486     2.203843     2.196199     2.188556     2.180913     2.173270
      2.165627     2.157983     2.150340     2.142697     2.135054     2.127410     2.119767     2.112124     2.104481     2.096838
      2.089194     2.081551     2.073908     2.066265     2.058621     2.050978     2.043335     2.035692     2.028049     2.020405
      2.012762     2.005119     1.997476     1.989833     1.982190     1.974546     1.966903     1.959260     1.951617     1.943974
      1.936331     1.928688     1.921045     1.913402     1.905759     1.898115     1.890472     1.882829     1.875186     1.867543
      1.859900     1.852257     1.844614     1.836971     1.829327     1.821684     1.814041     1.806398     1.798755     1.791112
      1.783469     1.775826     1.768183     1.760540     1.752896     1.745253     1.737610     1.729967     1.722324     1.714681
      1.707038     1.699395     1.691752     1.684108     1.676465     1.668822     1.661179     1.653536     1.645893     1.638250
      1.630607     1.622964     1.615321     1.607677     1.600034     1.592391     1.584748     1.577105     1.569462     1.561819
      1.554176     1.546533     1.538890     1.531246     1.523603     1.515960     1.508317     1.500674     1.493031     1.485388
      1.477745     1.470102     1.462458     1.454815     1.447172     1.439529     1.431886     1.424243     1.416600     1.408957
      1.401314     1.393671     1.386027     1.378384     1.370741     1.363098     1.355455     1.347812     1.340169     1.332526
      1.324883     1.317240     1.309596     1.301953     1.294310     1.286667     1.279024     1.271381     1.263738     1.256095
      1.248452     1.240808     1.233165     1.225522     1.217879     1.210236     1.202593     1.194950     1.187307     1.179664
      1.172021     1.164377     1.156734     1.149091     1.141448     1.133805     1.126162     1.118519     1.110876     1.103233
      1.095590     1.087946     1.080303     1.072660     1.065017     1.057374     1.049731     1.042088     1.034445     1.026802
      1.019158     1.011515     1.003872     0.996229     0.988586     0.980943     0.973300     0.965657     0.958014     0.950371
      0.942727     0.935084     0.927441     0.919798     0.912155     0.904512     0.896869     0.889226     0.881583     0.873940
      0.866296     0.858653     0.851010     0.843367     0.835724     0.828081     0.820438     0.812795     0.805152     0.797508
      0.789865     0.782222     0.774579     0.766936     0.759293     0.751650     0.744007     0.736364     0.728721     0.721077
      0.713434     0.705791     0.698148     0.690505     0.682862     0.675219     0.667576     0.659933     0.652290     0.644646
      0.637003     0.629360     0.621717     0.614074     0.606431     0.598788     0.591145     0.583502     0.575858     0.568215
      0.560572     0.552929     0.545286     0.537643     0.530000     0.522357     0.514714     0.507071     0.499427     0.491784
      0.484141     0.476498     0.468855     0.461212     0.453569     0.445925     0.438282     0.430639     0.422996     0.415353
      0.407710     0.400067     0.392424     0.384780     0.377137     0.369494     0.361851     0.354208     0.346565     0.338922
      0.331278     0.323635     0.315992     0.308349     0.300706     0.293063     0.285420     0.277777     0.270133     0.262490
      0.254847     0.247204     0.239561     0.231918     0.224275     0.216631     0.208988     0.201345
 NY phased data points follow
   1.08632E+01  1.69713E+01  9.50257E+00  1.47714E+01  1.25786E+01  4.68413E+00  1.04385E+01  8.67877E+00  1.10171E+01  5.69535E+00
   1.12392E+01  8.70131E+00  1.29793E+01  9.00143E+00  1.81716E+01  4.93615E+00  7.27042E+00  1.04862E+01  1.47659E+01  1.23472E+01
   1.22225E+01  1.36705E+01  1.29366E+01  8.85683E+00  1.15907E+01  7.47717E+00  1.17610E+01  2.60020E+00  1.04978E+01  9.78324E+00
   8.92122E+00  8.65156E+00  4.20646E+00  7.35652E+00  7.73649E+00  8.50943E+00  8.86286E+00  1.01940E+01  1.28979E+01  1.04060E+01
   1.00846E+01  6.18801E+00  1.10021E+01  1.15287E+01  9.32081E-01  1.14857E+01  1.19419E+01  7.63032E+00  3.75146E+00  1.04906E+01
   1.18442E+01  1.25563E+00  2.00238E+00  6.75129E+00  6.79631E+00  8.86103E+00  1.12827E+01  7.36952E+00  4.64026E+00  2.49164E-01
   6.07275E+00  1.00867E+01  4.50611E+00  8.07181E+00  2.68813E+00  1.36631E+00  1.23829E+01  4.16393E-01  3.90208E+00  9.26722E+00
   6.84756E+00  1.24202E+01  1.09842E+01  9.86628E+00 -2.68223E-01  7.52670E+00  6.40560E+00  1.41699E+00  1.09621E+01 -9.56785E-01
   1.14005E+01  5.63150E+00  8.78221E+00  1.17364E+01  2.52039E+00  1.10123E+01  8.31384E+00  6.03692E+00  4.50490E+00  1.42437E+00
   1.18052E+01  5.79728E+00  1.34290E+01  1.30343E+01  8.74841E+00  7.38520E+00  8.37983E+00  9.97684E+00 -2.83127E+00  1.04804E+01
   8.36192E-01  8.37676E+00  1.50916E+01  2.39345E+00  1.10971E+01  6.81678E+00  8.91799E+00  4.71157E+00  8.17507E+00  1.03178E+01
   1.38993E+01 -6.89342E-01  1.52798E+00  4.02316E+00  5.87938E+00  2.81062E+00 -2.41721E+00  1.39300E+01  3.32051E+00  1.28306E+01
   8.52092E+00  6.37523E+00  6.39691E+00  7.10038E+00  1.84561E+00  4.31652E+00  8.29607E+00  2.07451E+00  3.67155E+00  1.08944E+01
   1.18947E+01  3.95478E+00  1.76278E+00  4.38764E+00  4.62636E+00  3.64842E+00  7.06367E+00  2.56986E-01  2.41568E+00 -2.77385E+00
   9.40335E+00 -6.52094E+00 -1.49146E+00  6.09710E+00  5.11450E+00  3.17882E+00  5.30216E+00  2.20810E+00 -8.18058E-01 -1.50092E+00
   3.92193E-01 -2.74982E+00  3.07968E+00  6.94421E+00 -2.45597E+00  1.69603E+00  5.14715E+00  3.98271E+00  2.22550E-01  4.32597E+00
   4.03922E+00 -4.08385E-01 -2.33740E+00 -3.78588E+00 -2.55370E+00  5.36207E-01  9.49145E+00 -4.32705E+00  4.28124E+00 -2.99844E+00
   1.39681E+00  4.74015E+00  1.60045E+00  9.07321E-01  9.54493E+00  5.79570E+00  2.93449E+00 -1.30674E+00  1.66655E+00  5.93406E+00
   1.67074E+00 -1.49703E+00 -8.51005E+00  5.01189E+00  1.37531E+00  2.47799E+00 -3.75263E+00  1.43656E+00 -9.26937E-01  1.97334E+00
   1.29539E+00 -3.23816E+00 -2.86265E-01 -2.09404E-01  4.86915E+00  4.81906E-01 -1.33541E+00  1.25317E+00 -1.02381E+01 -1.12541E+00
   6.82092E+00  7.57152E+00 -3.88311E+00 -6.36709E+00  1.30263E+00 -4.55655E-01  4.14773E+00 -3.92842E+00 -9.55770E+00 -3.29745E+00
  -2.57838E+00 -9.43815E-01 -1.71549E+00 -1.14723E+00 -2.43160E+00  7.14540E-01  1.15960E+00 -4.31457E+00  2.01532E-01 -1.78894E+00
  -2.67044E+00 -5.12562E+00 -2.49690E+00 -4.39091E+00  2.43838E+00  1.47311E-01 -1.83865E+00 -4.55832E+00 -5.53146E+00 -4.66392E+00
  -1.96889E+00 -3.61534E+00 -1.67811E+01 -1.02564E+01 -4.77143E+00 -2.62835E+00 -1.00373E+00 -2.37540E+00 -1.10770E+01 -1.82234E+00
  -3.79103E+00 -3.02340E-01 -7.80251E+00 -5.49972E+00 -7.31474E+00 -7.23504E+00 -4.93291E+00 -1.51223E+01 -1.21858E+01 -1.37895E+01
  -1.56040E+01 -1.24793E+01 -1.68663E+01 -9.07645E+00 -7.82999E+00 -9.06640E+00 -1.03160E+01 -1.20252E+01 -1.92943E+01 -2.15133E+01
  -2.29787E+01 -2.03838E+01 -2.46653E+01 -2.23203E+01 -2.38779E+01 -2.27789E+01 -2.23137E+01 -2.84827E+01 -2.51824E+01 -3.09144E+01
  -3.57938E+01 -3.56155E+01 -2.95626E+01 -3.39715E+01 -4.33650E+01 -3.62789E+01 -3.30372E+01 -3.98432E+01 -3.07162E+01 -3.11942E+01
  -3.77781E+01 -3.19507E+01 -3.05162E+01 -3.64322E+01 -4.60147E+01 -3.41399E+01 -3.42850E+01 -3.49413E+01 -3.23038E+01 -3.09209E+01
  -3.66885E+01 -2.73854E+01 -3.21254E+01 -2.41459E+01 -2.85061E+01 -2.45564E+01 -2.30411E+01 -2.04666E+01 -1.40113E+01 -1.39185E+01
  -1.79991E+01 -8.36283E+00 -1.07909E+01 -9.41467E+00 -1.44167E+01 -1.78147E+01 -1.17700E+01 -2.14315E+01 -1.67284E+01 -7.30330E+00
  -1.38572E+01 -1.43498E+01 -8.91271E+00 -1.36499E+01 -6.95720E+00 -5.79825E+00 -5.96967E+00 -1.11577E+00  8.91537E-01  3.43640E+00
   5.59435E+00  1.18498E+01  3.63902E+00  1.01339E+01  1.25586E+01  1.50120E+01  2.31854E+01  1.85084E+01  1.84341E+01  1.83243E+01
   2.09828E+01  1.99912E+01  1.74552E+01  1.89382E+01  1.49265E+01  9.36945E+00  1.66535E+01  1.41190E+01  1.34006E+01  1.09748E+01
   7.59899E+00  1.28094E+01  1.65759E+01  1.10955E+01  1.68249E+01  1.28720E+01  1.42240E+01  8.72415E+00  6.73953E+00  1.25416E+01
   1.05703E+01  2.01172E+01  2.10898E+01  6.32764E+00  1.33722E+01  1.05497E+01  1.76616E+01  1.57775E+01  1.86360E+01  1.62119E+01
   1.34314E+01  7.88467E+00  5.54506E+00  6.22168E+00  1.34286E+01  1.48615E+01  1.36846E+01  1.15778E+01  1.88411E+01  1.33416E+01
   9.63454E+00  9.38327E+00  1.31014E+01  1.43582E+01  1.81543E+01  6.47686E+00  6.20471E+00  1.00456E+01  9.74530E+00  1.25352E+01
   9.26892E+00  1.65134E+01  1.10401E+01  9.05277E+00  1.03697E+01  8.97410E+00  6.36687E+00  4.62669E+00  8.27113E+00  1.10597E+01
   1.53978E+01  6.87150E+00  1.21334E+01  6.60596E+00  1.19450E+01  4.83105E+00  6.45073E+00  3.20150E+00  1.11447E+01  5.59837E+00
  -3.55000E+00  5.24181E+00  6.08348E+00  4.37410E+00 -3.27260E-01  2.02452E+00  1.54395E+00  2.41152E+00  1.40806E+01  7.16129E+00
   1.10356E+01  3.49236E+00  1.26554E+00  1.02889E+00  6.25787E+00  1.10915E+00  9.60004E-01  2.23918E+00 -2.13410E+00  1.24631E+00
   5.30272E+00  5.54460E+00 -3.50612E-01  1.09940E+01  3.77492E+00  3.90692E+00  3.22748E+00  4.20116E+00  1.95396E+00  4.12872E+00
  -2.24111E+00  1.46441E-01  4.95051E+00 -5.80446E+00  5.47821E+00 -1.67956E+00  5.88104E-01  5.52008E+00  3.95180E-01  4.02109E+00
  -5.95188E-01  3.32589E+00 -2.95241E+00 -2.51526E+00  4.86834E+00 -4.28510E+00  5.19183E+00 -1.26602E+00  5.06102E+00  5.09408E+00
  -3.50931E+00  3.39731E+00  7.69778E+00  1.66392E+00  6.19027E+00  6.23107E-01  1.89928E+01  2.31713E+00  3.61762E+00 -4.24238E+00
  -1.12680E-01  7.49082E+00  3.27114E+00  8.55096E-01 -2.34275E+00  6.73205E+00  2.44341E+00 -3.90167E+00 -2.28590E+00  1.43695E+00
  -3.41117E+00  7.00760E-01  2.49905E+00  6.00847E+00 -4.62497E-01 -6.34916E-01  2.19026E+00 -3.58089E+00  4.91021E+00  4.87848E+00
   2.64378E+00  7.31278E+00 -1.82910E+00 -5.38560E+00  5.10666E+00  5.33607E+00  5.51842E+00  5.83517E+00 -1.41411E+00 -3.21964E+00
   6.19717E+00  2.65180E+00  5.38578E+00  5.86226E+00  5.50888E+00 -6.26200E-03 -3.01783E+00  2.72839E+00
 NY points of the fit to the data follow
   8.80735E+00  7.90873E+00  8.43028E+00  7.90159E+00  8.17144E+00  7.35644E+00  7.83178E+00  7.22475E+00  7.92649E+00  7.88170E+00
   8.68787E+00  9.48525E+00  1.07129E+01  1.11974E+01  1.21443E+01  1.23498E+01  1.26458E+01  1.28215E+01  1.25722E+01  1.25768E+01
   1.23151E+01  1.24341E+01  1.20841E+01  1.25163E+01  1.19552E+01  1.24124E+01  1.17616E+01  1.24820E+01  1.16556E+01  1.25791E+01
   1.13704E+01  1.21512E+01  1.06318E+01  1.11510E+01  9.51346E+00  1.02641E+01  8.76384E+00  9.85221E+00  8.45923E+00  9.41689E+00
   8.26579E+00  9.08722E+00  7.82767E+00  8.45935E+00  7.22226E+00  7.86248E+00  6.78501E+00  6.82103E+00  5.86409E+00  6.01512E+00
   5.33754E+00  5.79542E+00  5.42041E+00  5.82867E+00  5.77623E+00  6.00295E+00  5.80799E+00  5.71357E+00  5.52108E+00  5.38934E+00
   5.40967E+00  5.10672E+00  5.33290E+00  5.20386E+00  5.58662E+00  5.36597E+00  5.83212E+00  5.63192E+00  6.22784E+00  6.08966E+00
   6.55965E+00  6.02548E+00  6.34501E+00  5.72370E+00  6.11239E+00  5.59550E+00  6.05813E+00  5.61289E+00  6.12978E+00  5.70987E+00
   6.29435E+00  6.02372E+00  6.75384E+00  6.66072E+00  7.54943E+00  7.21387E+00  8.12171E+00  7.75596E+00  8.80996E+00  8.46385E+00
   9.65894E+00  9.28876E+00  1.05324E+01  1.00914E+01  1.13475E+01  1.07540E+01  1.19936E+01  1.10590E+01  1.21552E+01  1.10631E+01
   1.20262E+01  1.08590E+01  1.16474E+01  1.03125E+01  1.08587E+01  9.51668E+00  9.87760E+00  8.67954E+00  8.88296E+00  7.91923E+00
   8.10126E+00  7.26422E+00  7.37741E+00  6.71762E+00  6.73638E+00  6.41508E+00  6.41892E+00  6.39993E+00  6.47974E+00  6.51840E+00
   6.48745E+00  6.67944E+00  6.62878E+00  7.12704E+00  7.23867E+00  7.44553E+00  7.31887E+00  7.40384E+00  7.13801E+00  7.10150E+00
   6.77497E+00  6.66739E+00  6.33694E+00  6.19606E+00  5.88446E+00  5.68639E+00  5.38969E+00  5.13583E+00  4.88791E+00  4.61372E+00
   4.44168E+00  4.15650E+00  4.03115E+00  3.69642E+00  3.59763E+00  3.24182E+00  3.20780E+00  2.90998E+00  2.95551E+00  2.72839E+00
   2.75437E+00  2.51112E+00  2.51371E+00  2.28329E+00  2.29296E+00  2.14423E+00  2.11427E+00  1.93780E+00  1.86765E+00  1.69297E+00
   1.61179E+00  1.50393E+00  1.43682E+00  1.38436E+00  1.32024E+00  1.25528E+00  1.17526E+00  1.08188E+00  9.91767E-01  8.77706E-01
   7.83013E-01  6.64619E-01  5.77116E-01  4.43169E-01  3.32661E-01  1.24548E-01 -1.76762E-02 -2.81708E-01 -4.53568E-01 -7.20594E-01
  -8.74425E-01 -1.05141E+00 -1.14557E+00 -1.20887E+00 -1.32067E+00 -1.37003E+00 -1.53120E+00 -1.58632E+00 -1.89548E+00 -1.94506E+00
  -2.44670E+00 -2.52131E+00 -3.03505E+00 -2.76326E+00 -3.30087E+00 -2.77669E+00 -3.44333E+00 -2.77284E+00 -3.55906E+00 -2.76302E+00
  -3.69143E+00 -2.81689E+00 -3.94047E+00 -3.11247E+00 -4.31163E+00 -3.25011E+00 -4.47806E+00 -3.25566E+00 -4.43668E+00 -3.12876E+00
  -4.23462E+00 -2.85305E+00 -3.89245E+00 -2.59270E+00 -3.62768E+00 -2.50344E+00 -3.56467E+00 -2.81831E+00 -3.79753E+00 -3.01724E+00
  -3.78999E+00 -2.96004E+00 -3.51951E+00 -2.79957E+00 -3.49647E+00 -3.18249E+00 -3.90498E+00 -3.64249E+00 -4.43839E+00 -4.32960E+00
  -5.25815E+00 -5.34853E+00 -6.22737E+00 -5.88656E+00 -6.69471E+00 -6.15116E+00 -7.05778E+00 -6.31799E+00 -7.29928E+00 -6.46808E+00
  -7.50013E+00 -6.62453E+00 -7.74803E+00 -6.99491E+00 -8.11353E+00 -7.42696E+00 -8.51032E+00 -7.98416E+00 -9.03774E+00 -8.78920E+00
  -9.95787E+00 -1.01053E+01 -1.13848E+01 -1.18440E+01 -1.30712E+01 -1.36963E+01 -1.48166E+01 -1.57478E+01 -1.68297E+01 -1.77046E+01
  -1.86269E+01 -1.95048E+01 -2.02473E+01 -2.11033E+01 -2.19892E+01 -2.29046E+01 -2.38178E+01 -2.47437E+01 -2.56005E+01 -2.64668E+01
  -2.72549E+01 -2.80597E+01 -2.87036E+01 -2.93849E+01 -2.99490E+01 -3.05454E+01 -3.10330E+01 -3.15431E+01 -3.19718E+01 -3.23746E+01
  -3.27257E+01 -3.30037E+01 -3.31970E+01 -3.32925E+01 -3.32782E+01 -3.31427E+01 -3.28692E+01 -3.24524E+01 -3.18799E+01 -3.11508E+01
  -3.02616E+01 -2.92227E+01 -2.80414E+01 -2.67408E+01 -2.53444E+01 -2.38879E+01 -2.24076E+01 -2.09462E+01 -1.95440E+01 -1.82435E+01
  -1.70781E+01 -1.60751E+01 -1.52478E+01 -1.45979E+01 -1.41061E+01 -1.37356E+01 -1.34220E+01 -1.30576E+01 -1.24225E+01 -1.13951E+01
  -1.12194E+01 -1.02248E+01 -1.00857E+01 -8.75935E+00 -8.44928E+00 -6.72526E+00 -6.33561E+00 -3.21744E+00 -2.01581E+00  1.70498E+00
   3.34165E+00  7.48131E+00  8.57700E+00  1.20359E+01  1.25280E+01  1.52446E+01  1.54631E+01  1.74409E+01  1.76315E+01  2.02308E+01
   1.99333E+01  2.02245E+01  1.96441E+01  1.80469E+01  1.76406E+01  1.49584E+01  1.46093E+01  1.29519E+01  1.36765E+01  1.15391E+01
   1.32635E+01  1.16293E+01  1.32801E+01  1.13454E+01  1.31137E+01  1.08699E+01  1.31578E+01  1.06575E+01  1.28972E+01  1.17983E+01
   1.37704E+01  1.22418E+01  1.44296E+01  1.24048E+01  1.47712E+01  1.36837E+01  1.53641E+01  1.38775E+01  1.59453E+01  1.27864E+01
   1.46711E+01  1.05166E+01  1.21514E+01  1.01015E+01  1.22893E+01  1.06964E+01  1.31454E+01  1.11944E+01  1.38307E+01  1.40664E+01
   1.53958E+01  1.46296E+01  1.53052E+01  1.37169E+01  1.35895E+01  1.04223E+01  8.32165E+00  7.16085E+00  6.56028E+00  6.34482E+00
   6.40954E+00  6.67924E+00  7.09184E+00  7.59410E+00  8.13720E+00  8.67773E+00  9.17633E+00  9.60058E+00  9.92415E+00  1.01290E+01
   1.02040E+01  1.01458E+01  9.95773E+00  9.65064E+00  9.24032E+00  8.74768E+00  8.19563E+00  7.60905E+00  7.01214E+00  6.42868E+00
   5.87945E+00  5.38253E+00  4.95116E+00  4.59480E+00  4.31786E+00  4.12129E+00  4.00138E+00  3.95156E+00  3.96156E+00  4.01973E+00
   4.11248E+00  4.22646E+00  4.34773E+00  4.46366E+00  4.56217E+00  4.63368E+00  4.67008E+00  4.66618E+00  4.61829E+00  4.52544E+00
   4.38798E+00  4.20879E+00  3.99161E+00  3.74191E+00  3.46521E+00  3.16800E+00  2.85634E+00  2.53686E+00  2.21525E+00  1.89725E+00
   1.58721E+00  1.28944E+00  1.00693E+00  7.42708E-01  4.98434E-01  2.75758E-01  7.50436E-02 -1.03103E-01 -2.59040E-01 -3.92719E-01
  -5.05078E-01 -5.96601E-01 -6.68617E-01 -7.21764E-01 -7.57367E-01 -7.76051E-01 -7.79207E-01 -7.67549E-01 -7.42448E-01 -7.04436E-01
  -6.54676E-01 -5.93604E-01 -5.22394E-01 -4.41474E-01 -3.51871E-01 -2.53812E-01 -1.48174E-01 -3.51728E-02  8.43049E-02  2.10072E-01
   3.41394E-01  4.78227E-01  6.19921E-01  7.66372E-01  9.16905E-01  1.07147E+00  1.22955E+00  1.39118E+00  1.55584E+00  1.72347E+00
   1.89356E+00  2.06615E+00  2.24082E+00  2.41765E+00  2.59616E+00  2.77638E+00  2.95784E+00  3.14067E+00  3.32448E+00  3.50935E+00
   3.69481E+00  3.88092E+00  4.06727E+00  4.25398E+00  4.44064E+00  4.62732E+00  4.81351E+00  4.99927E+00  5.18414E+00  5.36819E+00
   5.55090E+00  5.73221E+00  5.91148E+00  6.08861E+00  6.26293E+00  6.43415E+00  6.60134E+00  6.76386E+00
 NY background values follow
     5.701E+00    5.663E+00    5.625E+00    5.586E+00    5.547E+00    5.507E+00    5.467E+00    5.427E+00    5.386E+00    5.345E+00
     5.304E+00    5.262E+00    5.220E+00    5.178E+00    5.135E+00    5.092E+00    5.049E+00    5.005E+00    4.961E+00    4.917E+00
     4.873E+00    4.828E+00    4.783E+00    4.737E+00    4.692E+00    4.646E+00    4.600E+00    4.553E+00    4.507E+00    4.460E+00
     4.413E+00    4.365E+00    4.317E+00    4.270E+00    4.221E+00    4.173E+00    4.124E+00    4.075E+00    4.026E+00    3.977E+00
     3.927E+00    3.877E+00    3.827E+00    3.776E+00    3.725E+00    3.674E+00    3.623E+00    3.571E+00    3.519E+00    3.467E+00
     3.415E+00    3.362E+00    3.309E+00    3.255E+00    3.201E+00    3.147E+00    3.093E+00    3.038E+00    2.983E+00    2.927E+00
     2.871E+00    2.814E+00    2.758E+00    2.700E+00    2.643E+00    2.585E+00    2.526E+00    2.467E+00    2.407E+00    2.347E+00
     2.287E+00    2.225E+00    2.164E+00    2.102E+00    2.039E+00    1.975E+00    1.911E+00    1.847E+00    1.781E+00    1.716E+00
     1.649E+00    1.582E+00    1.514E+00    1.445E+00    1.375E+00    1.305E+00    1.234E+00    1.162E+00    1.089E+00    1.016E+00
     9.410E-01    8.656E-01    7.893E-01    7.120E-01    6.338E-01    5.545E-01    4.743E-01    3.930E-01    3.106E-01    2.271E-01
     1.426E-01    5.684E-02   -3.004E-02   -1.181E-01   -2.074E-01   -2.979E-01   -3.897E-01   -4.828E-01   -5.773E-01   -6.730E-01
    -7.702E-01   -8.687E-01   -9.687E-01   -1.070E+00   -1.173E+00   -1.278E+00   -1.384E+00   -1.491E+00   -1.600E+00   -1.711E+00
    -1.824E+00   -1.938E+00   -2.054E+00   -2.171E+00   -2.291E+00   -2.412E+00   -2.535E+00   -2.660E+00   -2.787E+00   -2.916E+00
    -3.046E+00   -3.179E+00   -3.314E+00   -3.451E+00   -3.589E+00   -3.730E+00   -3.874E+00   -4.019E+00   -4.166E+00   -4.316E+00
    -4.468E+00   -4.623E+00   -4.779E+00   -4.938E+00   -5.100E+00   -5.264E+00   -5.430E+00   -5.599E+00   -5.770E+00   -5.944E+00
    -6.120E+00   -6.299E+00   -6.481E+00   -6.666E+00   -6.853E+00   -7.042E+00   -7.235E+00   -7.430E+00   -7.629E+00   -7.830E+00
    -8.033E+00   -8.240E+00   -8.450E+00   -8.663E+00   -8.878E+00   -9.097E+00   -9.319E+00   -9.544E+00   -9.772E+00   -1.000E+01
    -1.024E+01   -1.047E+01   -1.071E+01   -1.096E+01   -1.120E+01   -1.145E+01   -1.171E+01   -1.196E+01   -1.222E+01   -1.248E+01
    -1.275E+01   -1.301E+01   -1.328E+01   -1.356E+01   -1.383E+01   -1.411E+01   -1.440E+01   -1.468E+01   -1.497E+01   -1.526E+01
    -1.555E+01   -1.585E+01   -1.615E+01   -1.645E+01   -1.675E+01   -1.706E+01   -1.737E+01   -1.768E+01   -1.800E+01   -1.831E+01
    -1.863E+01   -1.896E+01   -1.928E+01   -1.961E+01   -1.994E+01   -2.027E+01   -2.060E+01   -2.093E+01   -2.127E+01   -2.161E+01
    -2.195E+01   -2.230E+01   -2.264E+01   -2.299E+01   -2.334E+01   -2.369E+01   -2.404E+01   -2.439E+01   -2.475E+01   -2.510E+01
    -2.546E+01   -2.582E+01   -2.618E+01   -2.654E+01   -2.690E+01   -2.726E+01   -2.763E+01   -2.799E+01   -2.836E+01   -2.873E+01
    -2.909E+01   -2.946E+01   -2.983E+01   -3.020E+01   -3.057E+01   -3.094E+01   -3.130E+01   -3.167E+01   -3.204E+01   -3.241E+01
    -3.278E+01   -3.315E+01   -3.352E+01   -3.389E+01   -3.426E+01   -3.463E+01   -3.499E+01   -3.536E+01   -3.572E+01   -3.609E+01
    -3.645E+01   -3.682E+01   -3.718E+01   -3.754E+01   -3.790E+01   -3.825E+01   -3.861E+01   -3.896E+01   -3.932E+01   -3.967E+01
    -4.002E+01   -4.037E+01   -4.071E+01   -4.106E+01   -4.140E+01   -4.174E+01   -4.207E+01   -4.241E+01   -4.274E+01   -4.307E+01
    -4.340E+01   -4.372E+01   -4.404E+01   -4.436E+01   -4.467E+01   -4.499E+01   -4.529E+01   -4.560E+01   -4.590E+01   -4.620E+01
    -4.650E+01   -4.679E+01   -4.708E+01   -4.736E+01   -4.764E+01   -4.792E+01   -4.819E+01   -4.846E+01   -4.872E+01   -4.898E+01
    -4.924E+01   -4.949E+01   -4.973E+01   -4.998E+01   -5.021E+01   -5.044E+01   -5.067E+01   -5.090E+01   -5.111E+01   -5.133E+01
    -5.153E+01   -5.174E+01   -5.193E+01   -5.213E+01   -5.231E+01   -5.249E+01   -5.267E+01   -5.284E+01   -5.300E+01   -5.316E+01
    -5.331E+01   -5.346E+01   -5.360E+01   -5.374E+01   -5.387E+01   -5.399E+01   -5.411E+01   -5.422E+01   -5.432E+01   -5.442E+01
    -5.451E+01   -5.460E+01   -5.468E+01   -5.475E+01   -5.482E+01   -5.488E+01   -5.493E+01   -5.498E+01   -5.502E+01   -5.505E+01
    -5.508E+01   -5.510E+01   -5.511E+01   -5.512E+01   -5.511E+01   -5.511E+01   -5.509E+01   -5.507E+01   -5.504E+01   -5.501E+01
    -5.497E+01   -5.492E+01   -5.487E+01   -5.481E+01   -5.474E+01   -5.467E+01   -5.459E+01   -5.451E+01   -5.442E+01   -5.432E+01
    -5.422E+01   -5.411E+01   -5.399E+01   -5.387E+01   -5.374E+01   -5.361E+01   -5.347E+01   -5.333E+01   -5.318E+01   -5.303E+01
    -5.286E+01   -5.270E+01   -5.253E+01   -5.235E+01   -5.217E+01   -5.198E+01   -5.179E+01   -5.159E+01   -5.139E+01   -5.119E+01
    -5.097E+01   -5.076E+01   -5.054E+01   -5.031E+01   -5.008E+01   -4.985E+01   -4.961E+01   -4.936E+01   -4.912E+01   -4.886E+01
    -4.861E+01   -4.835E+01   -4.808E+01   -4.782E+01   -4.754E+01   -4.727E+01   -4.699E+01   -4.671E+01   -4.642E+01   -4.613E+01
    -4.584E+01   -4.554E+01   -4.524E+01   -4.494E+01   -4.463E+01   -4.432E+01   -4.401E+01   -4.369E+01   -4.337E+01   -4.305E+01
    -4.273E+01   -4.240E+01   -4.207E+01   -4.174E+01   -4.141E+01   -4.107E+01   -4.073E+01   -4.039E+01   -4.005E+01   -3.971E+01
    -3.936E+01   -3.901E+01   -3.866E+01   -3.831E+01   -3.795E+01   -3.760E+01   -3.724E+01   -3.688E+01   -3.652E+01   -3.616E+01
    -3.579E+01   -3.543E+01   -3.506E+01   -3.469E+01   -3.432E+01   -3.396E+01   -3.358E+01   -3.321E+01   -3.284E+01   -3.247E+01
    -3.209E+01   -3.172E+01   -3.134E+01   -3.097E+01   -3.059E+01   -3.021E+01   -2.984E+01   -2.946E+01   -2.908E+01   -2.870E+01
    -2.832E+01   -2.794E+01   -2.757E+01   -2.719E+01   -2.681E+01   -2.643E+01   -2.605E+01   -2.567E+01   -2.529E+01   -2.491E+01
    -2.453E+01   -2.416E+01   -2.378E+01   -2.340E+01   -2.302E+01   -2.264E+01   -2.227E+01   -2.189E+01   -2.152E+01   -2.114E+01
    -2.077E+01   -2.039E+01   -2.002E+01   -1.964E+01   -1.927E+01   -1.890E+01   -1.853E+01   -1.816E+01   -1.779E+01   -1.742E+01
    -1.705E+01   -1.669E+01   -1.632E+01   -1.595E+01   -1.559E+01   -1.523E+01   -1.486E+01   -1.450E+01   -1.414E+01   -1.378E+01
    -1.342E+01   -1.306E+01   -1.270E+01   -1.235E+01   -1.199E+01   -1.164E+01   -1.128E+01   -1.093E+01   -1.058E+01   -1.023E+01
    -9.876E+00   -9.527E+00   -9.178E+00   -8.831E+00   -8.484E+00   -8.138E+00   -7.793E+00   -7.449E+00
 Ala      Conc. = 4.84E+03
