 LCModel (Version 6.3-1L) Copyright: S.W. Provencher.          Ref.: Magn. Reson. Med. 30:672-679 (1993).                
 Slice#2 Row#12 Col#4  PD_05_press_2_raw_act
 36 lines in following concentration table = NCONC+1
    Conc.  %SD /Cr+PCr  Metabolite                                         
 2.29E+03  11%  14.018 Ala                                                 
   15.677  34% 9.6E-02 Asp                                                 
  163.598  32%   1.000 Cr                                                  
    0.000 999%   0.000 PCr                                                 
    9.444  34% 5.8E-02 GABA                                                
    9.460  34% 5.8E-02 Glc                                                 
    0.000 999%   0.000 Gln                                                 
    0.000 999%   0.000 Glu                                                 
   50.717  38%   0.310 GPC                                                 
    0.000 999%   0.000 PCh                                                 
  115.772  70%   0.708 GSH                                                 
  788.244  22%   4.818 Ins                                                 
    0.000 999%   0.000 Lac                                                 
    0.000 999%   0.000 NAA                                                 
    0.000 999%   0.000 NAAG                                                
    3.155  34% 1.9E-02 Scyllo                                              
   15.720  34% 9.6E-02 Tau                                                 
   15.587  48% 9.5E-02 -CrCH2                                              
   50.717  38%   0.310 GPC+PCh                                             
    0.000 999%   0.000 NAA+NAAG                                            
  163.598  32%   1.000 Cr+PCr                                              
    0.000 999%   0.000 Glu+Gln                                             
    0.000 999%   0.000 Lip13a                                              
    0.000 999%   0.000 Lip13b                                              
 7.98E-04 999% 4.9E-06 Lip09                                               
    1.183 573% 7.2E-03 MM09                                                
    0.000 999%   0.000 Lip20                                               
    0.000 999%   0.000 MM20                                                
    0.163 999% 1.0E-03 MM12                                                
    0.000 999%   0.000 MM14                                                
    1.716 535% 1.0E-02 MM17                                                
    0.000 999%   0.000 Lip13a+Lip13b                                       
    0.163 999% 1.0E-03 MM14+Lip13a+Lip13b+MM12                             
    1.184 573% 7.2E-03 MM09+Lip09                                          
    0.000 999%   0.000 MM20+Lip20                                          
   6 lines in following misc. output table
  FWHM = 0.168 ppm    S/N =   1                                            
  Data shift = 0.107 ppm                                                   
  Ph:  56 deg     -28.5 deg/ppm                                            
  alphaB,S = 8.5E+01,   4.1E+02                                            
   11 spline knots.   Ns = 9(2)                                            
   2 inflections.     1 extrema                                            
  498 points on ppm-axis = NY
      4.000000     3.992357     3.984714     3.977070     3.969427     3.961784     3.954141     3.946497     3.938854     3.931211
      3.923568     3.915925     3.908281     3.900638     3.892995     3.885352     3.877708     3.870065     3.862422     3.854779
      3.847136     3.839492     3.831849     3.824206     3.816563     3.808919     3.801276     3.793633     3.785990     3.778347
      3.770703     3.763060     3.755417     3.747774     3.740130     3.732487     3.724844     3.717201     3.709558     3.701914
      3.694271     3.686628     3.678985     3.671341     3.663698     3.656055     3.648412     3.640769     3.633125     3.625482
      3.617839     3.610196     3.602552     3.594909     3.587266     3.579623     3.571980     3.564336     3.556693     3.549050
      3.541407     3.533763     3.526120     3.518477     3.510834     3.503191     3.495547     3.487904     3.480261     3.472618
      3.464974     3.457331     3.449688     3.442045     3.434402     3.426758     3.419115     3.411472     3.403829     3.396185
      3.388542     3.380899     3.373256     3.365613     3.357969     3.350326     3.342683     3.335040     3.327396     3.319753
      3.312110     3.304467     3.296824     3.289180     3.281537     3.273894     3.266251     3.258607     3.250964     3.243321
      3.235678     3.228034     3.220391     3.212748     3.205105     3.197462     3.189818     3.182175     3.174532     3.166889
      3.159245     3.151602     3.143959     3.136316     3.128673     3.121029     3.113386     3.105743     3.098100     3.090456
      3.082813     3.075170     3.067527     3.059884     3.052240     3.044597     3.036954     3.029311     3.021667     3.014024
      3.006381     2.998738     2.991095     2.983451     2.975808     2.968165     2.960522     2.952878     2.945235     2.937592
      2.929949     2.922306     2.914662     2.907019     2.899376     2.891733     2.884089     2.876446     2.868803     2.861160
      2.853517     2.845873     2.838230     2.830587     2.822944     2.815300     2.807657     2.800014     2.792371     2.784728
      2.777084     2.769441     2.761798     2.754155     2.746511     2.738868     2.731225     2.723582     2.715939     2.708295
      2.700652     2.693009     2.685366     2.677722     2.670079     2.662436     2.654793     2.647150     2.639506     2.631863
      2.624220     2.616577     2.608933     2.601290     2.593647     2.586004     2.578361     2.570717     2.563074     2.555431
      2.547788     2.540144     2.532501     2.524858     2.517215     2.509572     2.501928     2.494285     2.486642     2.478999
      2.471355     2.463712     2.456069     2.448426     2.440783     2.433139     2.425496     2.417853     2.410210     2.402566
      2.394923     2.387280     2.379637     2.371994     2.364350     2.356707     2.349064     2.341421     2.333777     2.326134
      2.318491     2.310848     2.303205     2.295561     2.287918     2.280275     2.272632     2.264988     2.257345     2.249702
      2.242059     2.234416     2.226772     2.219129     2.211486     2.203843     2.196199     2.188556     2.180913     2.173270
      2.165627     2.157983     2.150340     2.142697     2.135054     2.127410     2.119767     2.112124     2.104481     2.096838
      2.089194     2.081551     2.073908     2.066265     2.058621     2.050978     2.043335     2.035692     2.028049     2.020405
      2.012762     2.005119     1.997476     1.989833     1.982190     1.974546     1.966903     1.959260     1.951617     1.943974
      1.936331     1.928688     1.921045     1.913402     1.905759     1.898115     1.890472     1.882829     1.875186     1.867543
      1.859900     1.852257     1.844614     1.836971     1.829327     1.821684     1.814041     1.806398     1.798755     1.791112
      1.783469     1.775826     1.768183     1.760540     1.752896     1.745253     1.737610     1.729967     1.722324     1.714681
      1.707038     1.699395     1.691752     1.684108     1.676465     1.668822     1.661179     1.653536     1.645893     1.638250
      1.630607     1.622964     1.615321     1.607677     1.600034     1.592391     1.584748     1.577105     1.569462     1.561819
      1.554176     1.546533     1.538890     1.531246     1.523603     1.515960     1.508317     1.500674     1.493031     1.485388
      1.477745     1.470102     1.462458     1.454815     1.447172     1.439529     1.431886     1.424243     1.416600     1.408957
      1.401314     1.393671     1.386027     1.378384     1.370741     1.363098     1.355455     1.347812     1.340169     1.332526
      1.324883     1.317240     1.309596     1.301953     1.294310     1.286667     1.279024     1.271381     1.263738     1.256095
      1.248452     1.240808     1.233165     1.225522     1.217879     1.210236     1.202593     1.194950     1.187307     1.179664
      1.172021     1.164377     1.156734     1.149091     1.141448     1.133805     1.126162     1.118519     1.110876     1.103233
      1.095590     1.087946     1.080303     1.072660     1.065017     1.057374     1.049731     1.042088     1.034445     1.026802
      1.019158     1.011515     1.003872     0.996229     0.988586     0.980943     0.973300     0.965657     0.958014     0.950371
      0.942727     0.935084     0.927441     0.919798     0.912155     0.904512     0.896869     0.889226     0.881583     0.873940
      0.866296     0.858653     0.851010     0.843367     0.835724     0.828081     0.820438     0.812795     0.805152     0.797508
      0.789865     0.782222     0.774579     0.766936     0.759293     0.751650     0.744007     0.736364     0.728721     0.721077
      0.713434     0.705791     0.698148     0.690505     0.682862     0.675219     0.667576     0.659933     0.652290     0.644646
      0.637003     0.629360     0.621717     0.614074     0.606431     0.598788     0.591145     0.583502     0.575858     0.568215
      0.560572     0.552929     0.545286     0.537643     0.530000     0.522357     0.514714     0.507071     0.499427     0.491784
      0.484141     0.476498     0.468855     0.461212     0.453569     0.445925     0.438282     0.430639     0.422996     0.415353
      0.407710     0.400067     0.392424     0.384780     0.377137     0.369494     0.361851     0.354208     0.346565     0.338922
      0.331278     0.323635     0.315992     0.308349     0.300706     0.293063     0.285420     0.277777     0.270133     0.262490
      0.254847     0.247204     0.239561     0.231918     0.224275     0.216631     0.208988     0.201345
 NY phased data points follow
   7.81784E+00  4.82641E+00  6.19485E+00  2.95006E+00  7.42263E+00  4.91439E+00  7.50361E+00  9.00713E+00  4.37446E+00  3.74728E+00
   4.63841E+00  5.17168E+00  4.09565E+00  4.99804E+00  3.21002E+00  3.24466E+00  6.72541E+00  5.11098E+00  6.42410E+00  5.81707E+00
   2.85209E+00  4.76690E+00  4.92411E+00  1.25196E+00  4.26577E+00  8.65223E+00  6.77195E+00  6.64265E+00  3.69854E+00  1.70119E+00
   2.22142E+00  3.43471E+00  2.72533E+00  1.54382E+00  4.39642E+00  3.32979E+00 -2.59616E+00  4.41753E+00  3.05767E-01  6.25996E+00
   1.49717E+00  1.73286E+00  3.56159E+00  4.81277E+00  5.07313E+00  3.99033E+00  4.08447E+00  1.05566E+00  6.01635E+00  5.83461E+00
   5.11455E+00  2.67890E+00  7.44481E+00  4.71193E+00  3.90818E+00  3.15495E+00  9.64746E-01  3.91580E+00  2.16352E+00  2.86126E+00
   3.82925E+00  4.08786E+00  5.54315E+00  5.09740E+00  3.94711E+00 -3.91035E-01  1.81455E+00  5.17808E+00  2.90415E+00  1.78149E+00
   1.99993E+00  1.17007E+00  1.73274E+00  3.88810E+00  3.26383E+00  2.82678E+00  2.81896E+00  5.74575E+00 -1.07639E-01  5.59973E+00
   3.11884E+00  4.51526E+00  3.48992E+00  1.39690E+00  2.00885E+00  3.00500E+00  1.18027E+00 -1.02865E+00  1.61717E+00  2.09175E+00
   1.28283E+00  6.31001E-01 -1.45921E+00  2.30731E+00  3.23690E+00  2.83703E+00  3.67418E+00  5.29801E+00  3.63417E+00  4.06687E+00
  -1.11984E+00  7.38855E+00  7.85648E-01  8.15795E-01  5.61977E+00  6.44380E+00  1.86794E+00  5.11724E+00 -1.35993E-01  4.47858E+00
  -1.20956E+00 -1.02335E+00 -1.80795E-02  1.39603E+00 -1.35829E-01  2.90359E+00  2.45460E+00  3.31674E+00  2.60516E+00  6.53678E-01
   3.37655E+00 -1.03947E+00  1.75927E+00  2.25352E+00  1.76157E+00  3.32713E+00  2.62642E+00  4.34243E+00  2.65204E+00  2.41465E+00
   2.77795E+00  3.31909E+00  1.16625E+00  2.33630E+00  3.10188E+00  4.42252E+00  1.68992E+00  2.11890E+00 -2.51299E-01  2.09006E+00
   2.17183E+00  4.40569E+00  7.50620E-01  3.72303E+00  8.59169E-01 -3.72566E-01  2.41445E+00  4.08255E+00  1.09170E+00  2.61818E+00
   2.01260E+00  2.46691E+00  3.17651E+00  1.62505E+00  3.95057E+00  2.68055E+00  5.92000E+00  3.71678E+00  2.79574E+00  4.34518E+00
   1.92686E+00  2.36816E+00  4.18798E+00  3.14570E-01  2.45761E+00 -7.02989E-01  1.50385E+00  2.50803E+00  1.33956E+00  3.04700E+00
   2.89664E-01  1.12121E+00  1.45185E+00 -3.79639E-01  1.55939E+00 -3.39711E-02  3.40157E+00 -4.40002E-01  3.35910E+00  3.16405E+00
  -6.40186E-01 -4.34744E-01 -7.58555E-03 -5.31623E-01  1.04588E+00  2.27545E+00  3.49741E+00  2.38188E+00 -1.19160E+00  3.01151E+00
   3.44232E+00  4.43763E-01  5.56365E+00  4.96792E+00 -1.23776E-01 -2.61603E+00 -1.24902E+00  2.25741E+00  1.15426E+00  1.37207E+00
   4.67096E+00  2.89277E+00  3.97394E+00  2.54880E-01  3.39734E+00  1.16026E+00  4.69494E+00  4.41096E-03 -1.24466E+00  1.40772E+00
  -9.63131E-03  5.15987E-01 -8.40139E-01  1.95052E+00 -3.58445E+00 -2.93017E-01  3.86610E+00 -1.36511E+00 -2.57721E+00  3.38140E+00
   1.74104E+00  4.16044E-01  1.70349E+00  6.90055E-01 -1.24838E+00  1.49756E+00  1.40690E+00 -9.43118E-02 -1.61806E-01 -1.18227E-01
   3.05830E-01 -1.87269E+00  1.08581E+00 -4.65762E-01 -6.90297E-01  2.16459E-01  5.50293E-01  2.44026E+00 -2.20156E+00 -5.72748E-01
   1.08062E+00 -3.39811E+00 -3.48782E+00  2.22959E-01 -2.40790E+00 -1.93737E+00  2.17828E+00  3.29099E-01  1.08448E+00 -2.09832E+00
  -1.31252E-01 -4.82492E+00 -4.69507E+00  2.65723E+00 -5.87643E+00 -3.77569E+00  5.65969E-01  3.40394E-01 -2.40061E+00 -1.44646E-01
   1.70755E+00  1.21726E+00 -3.07366E-01  5.60627E-02 -1.30217E+00  2.04679E+00 -1.00050E-01  1.59196E+00 -1.08902E-01  6.70889E-01
  -3.12798E+00  1.59967E-01  1.61289E+00  6.72132E-01 -6.10099E-01  1.23317E+00 -2.35089E+00 -6.42987E-03  1.54681E-01  3.24180E+00
  -1.61893E+00 -1.30536E+00 -6.08644E-01 -3.87906E+00  8.03403E-01 -3.33715E+00  1.19835E+00 -9.39050E-01 -1.68691E+00 -1.30179E+00
  -2.56536E+00 -2.48199E+00 -2.64678E+00 -2.32776E+00 -5.44848E-01 -2.97119E+00 -4.09358E+00  5.48460E-01  1.34076E+00  2.84302E+00
  -1.96626E-01  1.37727E+00  4.74432E+00  4.56683E+00  2.06900E+00  4.02522E+00  1.37779E+00  3.70175E+00  1.08773E+00  4.87865E+00
   6.75916E+00  6.51680E+00  8.37072E+00  6.96263E+00  8.51517E+00  6.73676E+00  6.82998E+00  6.85341E+00  4.90312E+00  4.96931E+00
   5.34259E+00  9.00327E+00  7.04352E+00  6.48132E+00  9.66617E+00  6.30842E+00  8.78992E+00  2.60402E+00  2.70753E+00  7.43627E+00
  -1.78308E+00  1.65704E+00  8.24463E-01  1.80282E+00  3.25186E+00  3.35521E+00 -1.37552E-01  2.69112E+00 -1.23722E+00 -7.17313E-01
   4.84934E-01  3.90934E+00 -1.26053E+00  2.58830E+00  2.05686E+00  2.33655E-01  2.74228E-01 -6.62629E-01  5.38700E-01  2.08436E+00
   1.73964E+00  9.83291E-01  2.06939E+00  2.11583E+00 -3.13455E-01  1.48304E+00  3.64742E-01  6.39861E-02  1.72728E+00  3.14586E-02
   2.08489E+00  2.61530E+00  1.55084E+00  8.82805E-01 -4.07029E+00  1.13926E+00  1.18425E+00  1.07172E+00 -2.63237E+00 -5.20053E-01
  -1.79344E+00 -1.95035E-02  8.82150E-01 -3.90992E+00 -3.15730E+00 -2.33033E+00 -1.18670E+00 -1.26425E+00  1.91686E+00  7.28090E-01
   1.25242E-01  5.77575E-01 -1.05499E+00  4.01097E+00 -5.96316E-01 -2.32883E+00 -3.98941E-01  1.80037E+00  3.67503E+00  2.01935E+00
   2.28195E+00  3.17193E-01 -2.29552E+00  1.76883E+00  2.68092E+00  1.30000E+00  5.60470E-01 -4.52845E-01 -1.07551E+00 -6.32549E-01
   1.02519E-01  3.85058E-01 -1.01828E+00  2.22655E+00  1.63009E+00 -1.96572E-01  4.07727E+00 -3.25714E+00  7.30787E-01  9.12602E-01
   1.23667E+00 -7.57575E-01 -1.66152E+00  5.94240E-01  5.07530E+00  5.83958E-01  2.50655E+00  2.92728E+00 -1.40425E+00  2.83194E-01
  -3.76134E-01 -4.61050E-01 -1.03771E-01  1.78811E+00 -6.81567E-01 -1.10511E+00  1.82454E+00  1.75401E+00 -1.42463E+00 -6.25121E-01
  -3.88726E+00 -2.28544E+00  2.34070E+00 -4.68989E+00 -6.39329E-01 -3.24524E+00 -3.19818E-01 -6.08610E-01 -2.04251E-01 -3.83588E+00
   4.44434E-01 -1.96085E+00 -1.45365E+00 -6.20715E-01  2.08494E+00  2.10058E+00  1.94703E+00  2.06090E+00  2.46769E+00  6.40161E-01
   3.96936E-01 -1.75800E+00 -5.31349E-01 -1.53939E+00 -3.36290E+00  5.91044E-01 -2.52013E+00 -9.28125E-01 -2.72947E+00 -1.16139E+00
  -2.34239E+00 -9.84851E-02  4.24971E+00  4.35674E-01 -2.75115E+00 -2.00799E+00 -3.40216E+00  3.16831E+00 -1.18037E+00  7.70888E-01
   1.59623E-01 -3.70182E+00 -1.38610E-01  1.34227E+00  8.84602E-01 -1.85002E+00 -4.95936E+00  1.63646E+00  4.16302E+00  2.12230E+00
  -8.18779E-02  8.44505E-01  1.86946E+00  3.36260E-01  1.43258E+00 -1.34376E+00 -2.27983E+00  2.10331E+00 -7.24370E-01 -2.38264E+00
  -6.29327E-01 -8.50527E-01 -2.15712E+00 -1.60819E+00  1.87334E+00  7.12662E-01 -2.02987E+00  2.06777E+00
 NY points of the fit to the data follow
   4.83242E+00  4.75202E+00  4.72006E+00  4.60211E+00  4.59055E+00  4.48795E+00  4.55383E+00  4.42215E+00  4.51156E+00  4.31718E+00
   4.39626E+00  4.13142E+00  4.20526E+00  3.85385E+00  3.97777E+00  3.65119E+00  3.84351E+00  3.56011E+00  3.81026E+00  3.59016E+00
   3.84304E+00  3.64622E+00  3.81464E+00  3.63427E+00  3.68317E+00  3.54971E+00  3.48092E+00  3.44212E+00  3.28511E+00  3.40783E+00
   3.22635E+00  3.53828E+00  3.31943E+00  3.79876E+00  3.50438E+00  4.03937E+00  3.64420E+00  4.18076E+00  3.70448E+00  4.21557E+00
   3.71902E+00  4.25336E+00  3.81017E+00  4.35543E+00  4.01020E+00  4.50857E+00  4.24907E+00  4.57573E+00  4.28498E+00  4.44631E+00
   4.17891E+00  4.20475E+00  4.02985E+00  3.95062E+00  3.92147E+00  3.85710E+00  3.91562E+00  3.81978E+00  3.93211E+00  3.79211E+00
   3.92182E+00  3.71658E+00  3.80205E+00  3.57566E+00  3.64911E+00  3.42871E+00  3.50841E+00  3.31875E+00  3.42931E+00  3.28248E+00
   3.42456E+00  3.27284E+00  3.36762E+00  3.17669E+00  3.22597E+00  3.01379E+00  3.03130E+00  2.81786E+00  2.81729E+00  2.62309E+00
   2.60456E+00  2.43530E+00  2.41042E+00  2.26337E+00  2.25234E+00  2.15838E+00  2.12745E+00  2.10229E+00  2.04045E+00  2.09913E+00
   2.00553E+00  2.14773E+00  2.02204E+00  2.23927E+00  2.08460E+00  2.37370E+00  2.17842E+00  2.53108E+00  2.29029E+00  2.69428E+00
   2.40526E+00  2.84059E+00  2.49898E+00  2.93729E+00  2.55092E+00  2.96392E+00  2.55023E+00  2.91715E+00  2.51384E+00  2.87119E+00
   2.48875E+00  2.82821E+00  2.48410E+00  2.80288E+00  2.50786E+00  2.79984E+00  2.56024E+00  2.81774E+00  2.62227E+00  2.84398E+00
   2.68446E+00  2.88384E+00  2.76974E+00  2.97563E+00  2.91681E+00  3.14903E+00  3.06918E+00  3.26466E+00  3.16033E+00  3.29538E+00
   3.16784E+00  3.23369E+00  3.08988E+00  3.08947E+00  2.93769E+00  2.87508E+00  2.72427E+00  2.60811E+00  2.46802E+00  2.31095E+00
   2.18913E+00  2.00467E+00  1.90316E+00  1.70310E+00  1.62752E+00  1.43646E+00  1.39485E+00  1.24787E+00  1.24742E+00  1.18424E+00
   1.19542E+00  1.14532E+00  1.15246E+00  1.11441E+00  1.11778E+00  1.09119E+00  1.08834E+00  1.06050E+00  1.04585E+00  1.02066E+00
   9.99469E-01  9.83530E-01  9.64782E-01  9.57539E-01  9.43456E-01  9.38388E-01  9.26459E-01  9.20003E-01  9.09537E-01  9.00317E-01
   8.90923E-01  8.80394E-01  8.74891E-01  8.65770E-01  8.66448E-01  8.57777E-01  8.63107E-01  8.52344E-01  8.59550E-01  8.41435E-01
   8.45437E-01  8.24849E-01  8.26829E-01  8.08987E-01  8.10426E-01  7.99317E-01  8.00499E-01  7.97266E-01  7.96879E-01  8.01066E-01
   7.97097E-01  8.07215E-01  7.97510E-01  8.13719E-01  7.98049E-01  8.21054E-01  7.99890E-01  8.29249E-01  8.04107E-01  8.38209E-01
   8.10554E-01  8.46915E-01  8.18106E-01  8.53870E-01  8.25636E-01  8.58783E-01  8.33300E-01  8.61000E-01  8.39153E-01  8.62645E-01
   8.46772E-01  8.67133E-01  8.58788E-01  8.71969E-01  8.65200E-01  8.67119E-01  8.57547E-01  8.50233E-01  8.38982E-01  8.30175E-01
   8.20377E-01  8.15895E-01  8.08688E-01  8.01690E-01  7.92729E-01  7.78531E-01  7.65774E-01  7.47830E-01  7.36342E-01  7.18290E-01
   7.11674E-01  6.95845E-01  6.95259E-01  6.79385E-01  6.82277E-01  6.62997E-01  6.66432E-01  6.41755E-01  6.45132E-01  6.17359E-01
   6.21826E-01  5.94313E-01  6.01187E-01  5.76657E-01  5.86334E-01  5.65342E-01  5.76342E-01  5.58843E-01  5.68840E-01  5.54132E-01
   5.61144E-01  5.48413E-01  5.50584E-01  5.38454E-01  5.36279E-01  5.32631E-01  5.31515E-01  5.36965E-01  5.38103E-01  5.50151E-01
   5.50942E-01  5.56900E-01  5.51987E-01  5.53512E-01  5.46113E-01  5.46357E-01  5.39741E-01  5.43590E-01  5.42971E-01  5.48455E-01
   5.50904E-01  5.56451E-01  5.60464E-01  5.65306E-01  5.69264E-01  5.73704E-01  5.78023E-01  5.83291E-01  5.88576E-01  5.95013E-01
   6.01563E-01  6.09512E-01  6.17714E-01  6.27670E-01  6.38126E-01  6.50618E-01  6.63850E-01  6.79287E-01  6.95717E-01  7.14646E-01
   7.34959E-01  7.58179E-01  7.83262E-01  8.12257E-01  8.43880E-01  8.80568E-01  9.21107E-01  9.68211E-01  1.02106E+00  1.08277E+00
   1.15314E+00  1.23636E+00  1.33383E+00  1.45186E+00  1.59605E+00  1.77989E+00  2.02540E+00  2.39244E+00  2.95371E+00  3.31201E+00
   3.91100E+00  4.11569E+00  4.54662E+00  4.49970E+00  4.58029E+00  4.20063E+00  4.14911E+00  3.83527E+00  3.72009E+00  3.65905E+00
   3.45095E+00  3.68251E+00  3.24438E+00  3.70851E+00  2.92170E+00  3.55414E+00  2.35217E+00  3.17899E+00  1.63410E+00  2.76786E+00
   1.00301E+00  2.52595E+00  6.60658E-01  2.57529E+00  6.37353E-01  2.83897E+00  8.63669E-01  3.19996E+00  1.25323E+00  3.58033E+00
   1.75834E+00  3.96855E+00  2.32508E+00  4.34440E+00  2.98212E+00  4.74494E+00  3.74743E+00  5.15704E+00  4.50819E+00  5.24259E+00
   4.41853E+00  4.55890E+00  3.70947E+00  3.39134E+00  2.65676E+00  2.11969E+00  1.77720E+00  1.52878E+00  1.33498E+00  1.17843E+00
   1.04781E+00  9.37472E-01  8.42052E-01  7.59301E-01  6.85978E-01  6.21244E-01  5.62844E-01  5.10626E-01  4.62834E-01  4.19678E-01
   3.79685E-01  3.43290E-01  3.09207E-01  2.78009E-01  2.48520E-01  2.21393E-01  1.95528E-01  1.71647E-01  1.48703E-01  1.27462E-01
   1.06910E-01  8.78399E-02  6.92654E-02  5.20052E-02  3.50961E-02  1.93713E-02  3.87811E-03 -1.05408E-02 -2.48258E-02 -3.81223E-02
  -5.13632E-02 -6.36910E-02 -7.60378E-02 -8.75434E-02 -9.91350E-02 -1.09948E-01 -1.20908E-01 -1.31153E-01 -1.41609E-01 -1.51409E-01
  -1.61474E-01 -1.70933E-01 -1.80702E-01 -1.89909E-01 -1.99464E-01 -2.08485E-01 -2.17876E-01 -2.26746E-01 -2.35993E-01 -2.44725E-01
  -2.53833E-01 -2.62420E-01 -2.71371E-01 -2.79789E-01 -2.88561E-01 -2.96791E-01 -3.05365E-01 -3.13389E-01 -3.21750E-01 -3.29557E-01
  -3.37702E-01 -3.45298E-01 -3.53235E-01 -3.60629E-01 -3.68369E-01 -3.75576E-01 -3.83140E-01 -3.90181E-01 -3.97588E-01 -4.04481E-01
  -4.11748E-01 -4.18510E-01 -4.25657E-01 -4.32306E-01 -4.39345E-01 -4.45892E-01 -4.52835E-01 -4.59293E-01 -4.66153E-01 -4.72531E-01
  -4.79313E-01 -4.85618E-01 -4.92330E-01 -4.98569E-01 -5.05219E-01 -5.11398E-01 -5.17989E-01 -5.24111E-01 -5.30649E-01 -5.36720E-01
  -5.43209E-01 -5.49232E-01 -5.55674E-01 -5.61652E-01 -5.68051E-01 -5.73989E-01 -5.80348E-01 -5.86246E-01 -5.92567E-01 -5.98428E-01
  -6.04714E-01 -6.10542E-01 -6.16794E-01 -6.22589E-01 -6.28809E-01 -6.34573E-01 -6.40763E-01 -6.46498E-01 -6.52660E-01 -6.58366E-01
  -6.64499E-01 -6.70178E-01 -6.76285E-01 -6.81938E-01 -6.88019E-01 -6.93645E-01 -6.99700E-01 -7.05301E-01 -7.11330E-01 -7.16905E-01
  -7.22907E-01 -7.28455E-01 -7.34430E-01 -7.39950E-01 -7.45896E-01 -7.51385E-01 -7.57298E-01 -7.62752E-01 -7.68628E-01 -7.74044E-01
  -7.79875E-01 -7.85240E-01 -7.91014E-01 -7.96314E-01 -8.02013E-01 -8.07221E-01 -8.12806E-01 -8.17870E-01
 NY background values follow
     1.811E+00    1.806E+00    1.800E+00    1.795E+00    1.790E+00    1.784E+00    1.779E+00    1.773E+00    1.768E+00    1.763E+00
     1.757E+00    1.752E+00    1.747E+00    1.741E+00    1.736E+00    1.731E+00    1.725E+00    1.720E+00    1.715E+00    1.709E+00
     1.704E+00    1.699E+00    1.693E+00    1.688E+00    1.682E+00    1.677E+00    1.672E+00    1.666E+00    1.661E+00    1.656E+00
     1.650E+00    1.645E+00    1.640E+00    1.634E+00    1.629E+00    1.624E+00    1.618E+00    1.613E+00    1.608E+00    1.602E+00
     1.597E+00    1.591E+00    1.586E+00    1.581E+00    1.575E+00    1.570E+00    1.565E+00    1.559E+00    1.554E+00    1.549E+00
     1.543E+00    1.538E+00    1.533E+00    1.527E+00    1.522E+00    1.517E+00    1.511E+00    1.506E+00    1.501E+00    1.495E+00
     1.490E+00    1.484E+00    1.479E+00    1.474E+00    1.468E+00    1.463E+00    1.458E+00    1.452E+00    1.447E+00    1.442E+00
     1.436E+00    1.431E+00    1.426E+00    1.420E+00    1.415E+00    1.410E+00    1.404E+00    1.399E+00    1.393E+00    1.388E+00
     1.383E+00    1.377E+00    1.372E+00    1.367E+00    1.361E+00    1.356E+00    1.351E+00    1.345E+00    1.340E+00    1.335E+00
     1.329E+00    1.324E+00    1.319E+00    1.313E+00    1.308E+00    1.302E+00    1.297E+00    1.292E+00    1.286E+00    1.281E+00
     1.276E+00    1.270E+00    1.265E+00    1.260E+00    1.254E+00    1.249E+00    1.244E+00    1.238E+00    1.233E+00    1.228E+00
     1.222E+00    1.217E+00    1.211E+00    1.206E+00    1.201E+00    1.195E+00    1.190E+00    1.185E+00    1.179E+00    1.174E+00
     1.169E+00    1.163E+00    1.158E+00    1.153E+00    1.147E+00    1.142E+00    1.137E+00    1.131E+00    1.126E+00    1.121E+00
     1.115E+00    1.110E+00    1.104E+00    1.099E+00    1.094E+00    1.088E+00    1.083E+00    1.078E+00    1.072E+00    1.067E+00
     1.062E+00    1.056E+00    1.051E+00    1.046E+00    1.040E+00    1.035E+00    1.030E+00    1.024E+00    1.019E+00    1.013E+00
     1.008E+00    1.003E+00    9.974E-01    9.921E-01    9.867E-01    9.814E-01    9.760E-01    9.707E-01    9.653E-01    9.600E-01
     9.546E-01    9.493E-01    9.439E-01    9.386E-01    9.332E-01    9.279E-01    9.225E-01    9.172E-01    9.118E-01    9.065E-01
     9.011E-01    8.957E-01    8.904E-01    8.850E-01    8.797E-01    8.743E-01    8.690E-01    8.636E-01    8.583E-01    8.529E-01
     8.476E-01    8.422E-01    8.369E-01    8.315E-01    8.262E-01    8.208E-01    8.155E-01    8.101E-01    8.048E-01    7.994E-01
     7.941E-01    7.887E-01    7.834E-01    7.780E-01    7.727E-01    7.673E-01    7.620E-01    7.566E-01    7.513E-01    7.459E-01
     7.406E-01    7.352E-01    7.299E-01    7.245E-01    7.192E-01    7.138E-01    7.085E-01    7.031E-01    6.978E-01    6.924E-01
     6.871E-01    6.817E-01    6.764E-01    6.710E-01    6.657E-01    6.603E-01    6.550E-01    6.496E-01    6.443E-01    6.389E-01
     6.336E-01    6.282E-01    6.228E-01    6.175E-01    6.121E-01    6.068E-01    6.014E-01    5.961E-01    5.907E-01    5.854E-01
     5.800E-01    5.747E-01    5.693E-01    5.640E-01    5.586E-01    5.533E-01    5.479E-01    5.426E-01    5.372E-01    5.319E-01
     5.265E-01    5.212E-01    5.158E-01    5.105E-01    5.051E-01    4.998E-01    4.944E-01    4.891E-01    4.837E-01    4.784E-01
     4.730E-01    4.677E-01    4.623E-01    4.570E-01    4.516E-01    4.463E-01    4.409E-01    4.356E-01    4.302E-01    4.249E-01
     4.195E-01    4.142E-01    4.088E-01    4.035E-01    3.981E-01    3.928E-01    3.875E-01    3.821E-01    3.768E-01    3.714E-01
     3.661E-01    3.607E-01    3.554E-01    3.500E-01    3.447E-01    3.393E-01    3.340E-01    3.286E-01    3.233E-01    3.179E-01
     3.126E-01    3.072E-01    3.019E-01    2.965E-01    2.912E-01    2.858E-01    2.805E-01    2.751E-01    2.698E-01    2.644E-01
     2.591E-01    2.537E-01    2.484E-01    2.430E-01    2.377E-01    2.323E-01    2.270E-01    2.216E-01    2.163E-01    2.109E-01
     2.056E-01    2.002E-01    1.949E-01    1.895E-01    1.842E-01    1.788E-01    1.735E-01    1.681E-01    1.628E-01    1.575E-01
     1.521E-01    1.468E-01    1.414E-01    1.361E-01    1.307E-01    1.254E-01    1.200E-01    1.147E-01    1.093E-01    1.040E-01
     9.862E-02    9.327E-02    8.792E-02    8.258E-02    7.723E-02    7.188E-02    6.653E-02    6.118E-02    5.584E-02    5.049E-02
     4.514E-02    3.979E-02    3.444E-02    2.910E-02    2.375E-02    1.840E-02    1.305E-02    7.706E-03    2.358E-03   -2.989E-03
    -8.337E-03   -1.368E-02   -1.903E-02   -2.438E-02   -2.973E-02   -3.507E-02   -4.042E-02   -4.577E-02   -5.112E-02   -5.647E-02
    -6.181E-02   -6.716E-02   -7.251E-02   -7.785E-02   -8.320E-02   -8.855E-02   -9.390E-02   -9.924E-02   -1.046E-01   -1.099E-01
    -1.153E-01   -1.206E-01   -1.260E-01   -1.313E-01   -1.367E-01   -1.420E-01   -1.474E-01   -1.527E-01   -1.581E-01   -1.634E-01
    -1.688E-01   -1.741E-01   -1.795E-01   -1.848E-01   -1.901E-01   -1.955E-01   -2.008E-01   -2.062E-01   -2.115E-01   -2.169E-01
    -2.222E-01   -2.276E-01   -2.329E-01   -2.383E-01   -2.436E-01   -2.490E-01   -2.543E-01   -2.597E-01   -2.650E-01   -2.704E-01
    -2.757E-01   -2.810E-01   -2.864E-01   -2.917E-01   -2.971E-01   -3.024E-01   -3.078E-01   -3.131E-01   -3.185E-01   -3.238E-01
    -3.292E-01   -3.345E-01   -3.399E-01   -3.452E-01   -3.506E-01   -3.559E-01   -3.612E-01   -3.666E-01   -3.719E-01   -3.773E-01
    -3.826E-01   -3.880E-01   -3.933E-01   -3.987E-01   -4.040E-01   -4.094E-01   -4.147E-01   -4.201E-01   -4.254E-01   -4.308E-01
    -4.361E-01   -4.414E-01   -4.468E-01   -4.521E-01   -4.575E-01   -4.628E-01   -4.682E-01   -4.735E-01   -4.789E-01   -4.842E-01
    -4.896E-01   -4.949E-01   -5.003E-01   -5.056E-01   -5.109E-01   -5.163E-01   -5.216E-01   -5.270E-01   -5.323E-01   -5.377E-01
    -5.430E-01   -5.484E-01   -5.537E-01   -5.591E-01   -5.644E-01   -5.698E-01   -5.751E-01   -5.805E-01   -5.858E-01   -5.911E-01
    -5.965E-01   -6.018E-01   -6.072E-01   -6.125E-01   -6.179E-01   -6.232E-01   -6.286E-01   -6.339E-01   -6.393E-01   -6.446E-01
    -6.500E-01   -6.553E-01   -6.606E-01   -6.660E-01   -6.713E-01   -6.767E-01   -6.820E-01   -6.874E-01   -6.927E-01   -6.981E-01
    -7.034E-01   -7.088E-01   -7.141E-01   -7.195E-01   -7.248E-01   -7.301E-01   -7.355E-01   -7.408E-01   -7.462E-01   -7.515E-01
    -7.569E-01   -7.622E-01   -7.676E-01   -7.729E-01   -7.783E-01   -7.836E-01   -7.890E-01   -7.943E-01   -7.996E-01   -8.050E-01
    -8.103E-01   -8.157E-01   -8.210E-01   -8.264E-01   -8.317E-01   -8.371E-01   -8.424E-01   -8.478E-01
 Ala      Conc. = 2.29E+03
