 LCModel (Version 6.3-1L) Copyright: S.W. Provencher.          Ref.: Magn. Reson. Med. 30:672-679 (1993).                
 Slice#2 Row#9 Col#8  PD_05_press_2_raw_act
 36 lines in following concentration table = NCONC+1
    Conc.  %SD /Cr+PCr  Metabolite                                         
  336.101  61%   0.104 Ala                                                 
    0.000 999%   0.000 Asp                                                 
 1.83E+03  21%   0.569 Cr                                                  
 1.39E+03  29%   0.431 PCr                                                 
  356.304  87%   0.111 GABA                                                
    0.000 999%   0.000 Glc                                                 
 1.54E+03  28%   0.478 Gln                                                 
 3.92E+03  14%   1.218 Glu                                                 
  880.737   4%   0.274 GPC                                                 
    0.000 999%   0.000 PCh                                                 
 1.02E+03  12%   0.317 GSH                                                 
 2.03E+03  21%   0.631 Ins                                                 
  365.382  62%   0.114 Lac                                                 
 4.98E+03   5%   1.548 NAA                                                 
  547.236  54%   0.170 NAAG                                                
  187.611  24% 5.8E-02 Scyllo                                              
    0.000 999%   0.000 Tau                                                 
    0.000 999%   0.000 -CrCH2                                              
  880.737   4%   0.274 GPC+PCh                                             
 5.53E+03   3%   1.718 NAA+NAAG                                            
 3.22E+03   3%   1.000 Cr+PCr                                              
 5.46E+03  14%   1.697 Glu+Gln                                             
 1.42E+03  65%   0.441 Lip13a                                              
  215.714 188% 6.7E-02 Lip13b                                              
    0.000 999%   0.000 Lip09                                               
 3.43E+03  10%   1.065 MM09                                                
   34.213 760% 1.1E-02 Lip20                                               
 6.64E+03  10%   2.062 MM20                                                
 1.35E+03  23%   0.418 MM12                                                
 5.32E+03  15%   1.653 MM14                                                
 3.70E+03  17%   1.150 MM17                                                
 1.64E+03  42%   0.509 Lip13a+Lip13b                                       
 8.31E+03  10%   2.580 MM14+Lip13a+Lip13b+MM12                             
 3.43E+03  10%   1.065 MM09+Lip09                                          
 6.67E+03  10%   2.072 MM20+Lip20                                          
   6 lines in following misc. output table
  FWHM = 0.054 ppm    S/N =  17                                            
  Data shift = 0.008 ppm                                                   
  Ph: -16 deg       3.3 deg/ppm                                            
  alphaB,S = 2.0E+00,   8.8E+01                                            
   14 spline knots.   Ns = 8(1)                                            
  (14) 2 infls.   (11) 1 extrs.                                            
  498 points on ppm-axis = NY
      4.000000     3.992357     3.984714     3.977070     3.969427     3.961784     3.954141     3.946497     3.938854     3.931211
      3.923568     3.915925     3.908281     3.900638     3.892995     3.885352     3.877708     3.870065     3.862422     3.854779
      3.847136     3.839492     3.831849     3.824206     3.816563     3.808919     3.801276     3.793633     3.785990     3.778347
      3.770703     3.763060     3.755417     3.747774     3.740130     3.732487     3.724844     3.717201     3.709558     3.701914
      3.694271     3.686628     3.678985     3.671341     3.663698     3.656055     3.648412     3.640769     3.633125     3.625482
      3.617839     3.610196     3.602552     3.594909     3.587266     3.579623     3.571980     3.564336     3.556693     3.549050
      3.541407     3.533763     3.526120     3.518477     3.510834     3.503191     3.495547     3.487904     3.480261     3.472618
      3.464974     3.457331     3.449688     3.442045     3.434402     3.426758     3.419115     3.411472     3.403829     3.396185
      3.388542     3.380899     3.373256     3.365613     3.357969     3.350326     3.342683     3.335040     3.327396     3.319753
      3.312110     3.304467     3.296824     3.289180     3.281537     3.273894     3.266251     3.258607     3.250964     3.243321
      3.235678     3.228034     3.220391     3.212748     3.205105     3.197462     3.189818     3.182175     3.174532     3.166889
      3.159245     3.151602     3.143959     3.136316     3.128673     3.121029     3.113386     3.105743     3.098100     3.090456
      3.082813     3.075170     3.067527     3.059884     3.052240     3.044597     3.036954     3.029311     3.021667     3.014024
      3.006381     2.998738     2.991095     2.983451     2.975808     2.968165     2.960522     2.952878     2.945235     2.937592
      2.929949     2.922306     2.914662     2.907019     2.899376     2.891733     2.884089     2.876446     2.868803     2.861160
      2.853517     2.845873     2.838230     2.830587     2.822944     2.815300     2.807657     2.800014     2.792371     2.784728
      2.777084     2.769441     2.761798     2.754155     2.746511     2.738868     2.731225     2.723582     2.715939     2.708295
      2.700652     2.693009     2.685366     2.677722     2.670079     2.662436     2.654793     2.647150     2.639506     2.631863
      2.624220     2.616577     2.608933     2.601290     2.593647     2.586004     2.578361     2.570717     2.563074     2.555431
      2.547788     2.540144     2.532501     2.524858     2.517215     2.509572     2.501928     2.494285     2.486642     2.478999
      2.471355     2.463712     2.456069     2.448426     2.440783     2.433139     2.425496     2.417853     2.410210     2.402566
      2.394923     2.387280     2.379637     2.371994     2.364350     2.356707     2.349064     2.341421     2.333777     2.326134
      2.318491     2.310848     2.303205     2.295561     2.287918     2.280275     2.272632     2.264988     2.257345     2.249702
      2.242059     2.234416     2.226772     2.219129     2.211486     2.203843     2.196199     2.188556     2.180913     2.173270
      2.165627     2.157983     2.150340     2.142697     2.135054     2.127410     2.119767     2.112124     2.104481     2.096838
      2.089194     2.081551     2.073908     2.066265     2.058621     2.050978     2.043335     2.035692     2.028049     2.020405
      2.012762     2.005119     1.997476     1.989833     1.982190     1.974546     1.966903     1.959260     1.951617     1.943974
      1.936331     1.928688     1.921045     1.913402     1.905759     1.898115     1.890472     1.882829     1.875186     1.867543
      1.859900     1.852257     1.844614     1.836971     1.829327     1.821684     1.814041     1.806398     1.798755     1.791112
      1.783469     1.775826     1.768183     1.760540     1.752896     1.745253     1.737610     1.729967     1.722324     1.714681
      1.707038     1.699395     1.691752     1.684108     1.676465     1.668822     1.661179     1.653536     1.645893     1.638250
      1.630607     1.622964     1.615321     1.607677     1.600034     1.592391     1.584748     1.577105     1.569462     1.561819
      1.554176     1.546533     1.538890     1.531246     1.523603     1.515960     1.508317     1.500674     1.493031     1.485388
      1.477745     1.470102     1.462458     1.454815     1.447172     1.439529     1.431886     1.424243     1.416600     1.408957
      1.401314     1.393671     1.386027     1.378384     1.370741     1.363098     1.355455     1.347812     1.340169     1.332526
      1.324883     1.317240     1.309596     1.301953     1.294310     1.286667     1.279024     1.271381     1.263738     1.256095
      1.248452     1.240808     1.233165     1.225522     1.217879     1.210236     1.202593     1.194950     1.187307     1.179664
      1.172021     1.164377     1.156734     1.149091     1.141448     1.133805     1.126162     1.118519     1.110876     1.103233
      1.095590     1.087946     1.080303     1.072660     1.065017     1.057374     1.049731     1.042088     1.034445     1.026802
      1.019158     1.011515     1.003872     0.996229     0.988586     0.980943     0.973300     0.965657     0.958014     0.950371
      0.942727     0.935084     0.927441     0.919798     0.912155     0.904512     0.896869     0.889226     0.881583     0.873940
      0.866296     0.858653     0.851010     0.843367     0.835724     0.828081     0.820438     0.812795     0.805152     0.797508
      0.789865     0.782222     0.774579     0.766936     0.759293     0.751650     0.744007     0.736364     0.728721     0.721077
      0.713434     0.705791     0.698148     0.690505     0.682862     0.675219     0.667576     0.659933     0.652290     0.644646
      0.637003     0.629360     0.621717     0.614074     0.606431     0.598788     0.591145     0.583502     0.575858     0.568215
      0.560572     0.552929     0.545286     0.537643     0.530000     0.522357     0.514714     0.507071     0.499427     0.491784
      0.484141     0.476498     0.468855     0.461212     0.453569     0.445925     0.438282     0.430639     0.422996     0.415353
      0.407710     0.400067     0.392424     0.384780     0.377137     0.369494     0.361851     0.354208     0.346565     0.338922
      0.331278     0.323635     0.315992     0.308349     0.300706     0.293063     0.285420     0.277777     0.270133     0.262490
      0.254847     0.247204     0.239561     0.231918     0.224275     0.216631     0.208988     0.201345
 NY phased data points follow
  -9.08723E+00  7.95167E+00  1.28613E+01  1.02219E+01  1.20952E+01  2.35538E+01  3.84889E+01  5.84654E+01  6.01225E+01  6.10840E+01
   6.62845E+01  6.12397E+01  6.00008E+01  5.49871E+01  3.45150E+01  3.12187E+01  2.47101E+01  1.19356E+01  1.66079E+01  1.64029E+01
   1.75451E+01  1.20526E+01  1.77639E+01  1.77434E+01  1.08308E+01  1.58363E+01  1.27599E+01  2.22872E+01  1.82962E+01  2.00010E+01
   2.48267E+01  2.37611E+01  2.61575E+01  1.55244E+01  1.81772E+01  1.81105E+01  7.55079E+00  1.10810E+01  1.01543E+01  6.52115E+00
   1.36146E+01  4.40850E+00  1.35912E+00  1.33397E+01  1.84127E+01  2.08685E+01  1.70120E+01  2.15536E+01  9.83093E+00  8.49300E+00
   1.06443E+01  1.09240E+01  3.03808E+00  1.14528E+01  6.71443E-01  1.09414E+01  4.95978E+00  8.72667E+00  1.03485E+00  6.86928E-02
   1.16852E+00 -2.76960E+00 -2.72529E+00 -1.04924E+01 -5.20840E+00 -1.03760E+01 -7.63896E+00 -1.41141E+01 -1.33355E+01 -1.45238E+01
  -1.03265E+01 -7.64332E+00 -1.50833E+01 -1.43361E+01 -1.55131E+00 -4.60179E+00 -1.17186E+01 -6.16300E+00 -1.09191E+01 -7.98832E+00
  -7.73956E+00 -9.72103E+00 -5.69724E+00 -6.77841E+00 -1.95047E+00 -7.23075E+00 -1.62324E+00 -1.50312E+00 -4.50241E+00 -1.57310E+00
  -2.28499E+00  3.48700E+00 -1.06729E+01  2.59380E+00  4.58426E-01  5.46266E+00 -6.31542E+00  8.64761E+00  1.67655E+01  2.79716E+01
   3.49480E+01  5.23739E+01  5.82680E+01  5.51108E+01  5.58508E+01  4.53909E+01  4.17365E+01  3.09294E+01  2.02384E+01  1.62354E+01
   5.84144E+00  2.70214E+00  2.12661E+00 -1.03030E+00 -7.65378E+00 -5.47152E+00  3.37171E+00 -3.46330E+00 -1.26932E+00  2.70731E+00
   1.17208E+00  1.63004E+01  2.46566E+01  4.69320E+01  6.12489E+01  8.09313E+01  9.04507E+01  8.86768E+01  8.40807E+01  7.10605E+01
   4.71493E+01  3.98470E+01  2.61276E+01  1.56886E+01  7.03039E+00  6.46685E-01  1.27508E+00 -4.38130E+00 -5.94158E+00 -9.98383E+00
  -1.20608E+01 -7.93413E+00 -6.30182E+00 -1.29170E+01 -1.79147E+01 -1.47567E+01 -3.39813E+00 -1.41702E+01 -1.11182E+01 -5.66298E+00
  -1.40850E+01 -9.40835E+00 -1.92456E+01 -2.04550E+01 -1.78710E+01 -1.86549E+01 -1.92047E+01 -1.72418E+01 -1.72291E+01 -1.81578E+01
  -2.42156E+01 -1.83075E+01 -2.38081E+01 -1.86159E+01 -1.95919E+01 -1.12677E+01 -1.19241E+01 -4.33434E+00 -1.90353E+01 -2.86411E+01
  -2.73673E+01 -2.38028E+01 -2.83874E+01 -3.16600E+01 -3.33897E+01 -3.39242E+01 -3.35166E+01 -3.54724E+01 -2.89226E+01 -3.75186E+01
  -3.09772E+01 -3.73470E+01 -2.83018E+01 -3.02616E+01 -2.33679E+01 -2.55719E+01 -1.90380E+01 -2.10665E+01 -2.06683E+01 -1.13248E+01
  -4.69674E+00 -7.15255E+00 -8.79000E+00 -4.05600E+00 -8.58382E+00 -1.16225E+01 -1.27837E+01 -1.84075E+01 -2.57152E+01 -1.71583E+01
  -1.60384E+01 -1.43236E+01 -1.45659E+01 -1.14268E+01 -2.18714E+01 -1.66567E+01 -2.70004E+01 -2.98397E+01 -3.27583E+01 -3.03919E+01
  -3.12873E+01 -2.66952E+01 -1.60873E+01 -1.07109E+01 -5.44916E-01 -1.22126E+01  1.87190E+00 -7.04925E+00 -1.10997E+01 -2.02051E+01
  -2.14028E+01 -2.56316E+01 -2.73706E+01 -1.51388E+01 -1.71716E+01 -1.21663E+01 -1.25171E+01 -4.66242E+00 -7.74308E+00 -2.77586E+00
  -5.41967E+00 -8.14552E+00 -5.63574E-01  3.86456E+00 -2.32694E+00 -2.79640E+00 -3.77415E-01 -7.96287E+00 -7.83488E+00 -2.48822E+00
  -4.78301E+00 -4.14993E+00  2.34767E+00  7.31809E+00  2.70572E+00  7.90893E+00  1.90597E+01  1.93037E+01  2.12820E+01  3.06996E+01
   2.84329E+01  3.12423E+01  4.00261E+01  4.77122E+01  6.08842E+01  7.89376E+01  1.02401E+02  1.30710E+02  1.55127E+02  1.75059E+02
   1.69075E+02  1.56868E+02  1.28182E+02  1.00196E+02  7.34445E+01  4.76181E+01  3.20689E+01  2.04279E+01  8.56156E+00 -1.48633E-01
  -6.83041E-01 -7.72000E-01  1.80703E-01 -8.71500E+00 -7.31252E-01  1.81093E+00 -5.37765E+00 -9.59159E+00 -7.96005E+00 -4.56091E+00
   1.48541E+00 -4.48278E+00  1.29166E+00 -9.66103E+00 -7.25738E+00 -8.08684E+00 -5.20721E+00 -8.34803E+00 -1.68501E+00 -1.79483E+00
  -1.17170E+00 -9.80997E-01 -9.96700E+00 -3.04489E+00 -8.06464E-01 -2.68476E-02 -3.63560E+00 -1.39898E+00  4.13779E+00 -3.16683E+00
   8.53314E-01  2.62462E+00  1.50264E+00  8.40035E+00  9.97433E+00  4.91026E+00  4.94017E+00  1.06152E+01  1.17044E+01  1.02273E+01
   1.68028E+01  1.35462E+01  8.44031E+00  1.48899E+01  1.31698E+01  1.10008E+01  1.00398E+01  1.15608E+01  2.22436E+01  1.49975E+01
   1.41802E+01  1.34404E+01  1.35017E+01  1.46126E+01  1.71118E+01  1.35396E+01  1.35570E+01  1.37530E+01  1.08126E+01  5.80248E+00
   1.30777E+01  9.54445E+00  1.41022E+01  1.25067E+01  1.08930E+01  1.57055E+01  1.49405E+01  1.45703E+01  6.45032E+00  9.26809E+00
   5.16253E+00  4.51166E+00  7.87958E+00  6.16061E+00  1.64229E+00  3.81828E+00  6.70343E+00  3.97369E+00  1.49612E+00 -6.54096E+00
   4.01787E+00 -3.12503E+00 -6.77234E+00  2.71634E+00  6.38191E+00  7.59194E+00  1.08681E+01  6.95227E+00 -5.76765E-01  8.63700E+00
   1.80512E-01 -1.15063E+00  2.24882E+00  1.27129E+00  2.61418E+00  4.60406E+00  9.41446E+00 -4.19313E+00 -1.71365E+00  3.94721E+00
  -1.26682E+00  2.36154E+00 -3.24587E+00  1.13762E+00 -1.65696E+00 -4.65782E+00 -6.20482E+00 -1.87953E+00 -1.55906E+00 -9.10174E+00
  -3.28425E+00 -9.59296E+00 -3.98606E+00 -5.13183E+00 -7.13690E+00 -2.20933E+00 -4.02343E+00 -2.92389E+00 -6.10238E+00  4.08332E+00
  -4.49739E+00  7.21523E-03  3.25799E+00  4.92632E+00  1.72390E+00  5.58861E+00 -2.01217E+00  5.44674E+00  6.43755E+00 -1.56894E-01
   1.16382E+01  7.20443E+00  9.75363E+00  1.44809E+00 -2.11281E+00  8.51985E+00  5.94691E+00  5.45154E+00  3.61521E+00  8.48048E+00
   1.07741E+01  5.98543E+00 -2.04046E+00  7.92523E+00 -4.34476E+00  4.46104E-01  2.83964E+00 -9.34614E-01 -6.66180E+00 -1.13020E+01
  -2.20117E+00 -8.79800E+00 -5.38281E+00 -1.43895E+01 -7.15850E+00 -9.87524E+00 -9.66501E+00 -1.41905E+01 -8.30488E+00 -8.23908E+00
  -1.37181E+01 -8.42123E+00 -1.66563E+01 -7.47922E+00 -1.10642E+01 -1.32036E+01 -1.29485E+01 -1.09342E+01 -1.18253E+01 -9.40325E+00
  -1.00877E+00 -1.40798E+01 -1.52782E+01 -1.11950E+01 -1.50199E+01 -1.05932E+01 -3.32545E+00 -1.77167E+01 -1.74834E+01 -1.58657E+01
  -1.09721E+01 -9.60417E+00 -7.77630E+00 -1.21062E+01 -2.02854E+01 -9.73859E+00 -9.33516E+00 -1.14797E+01 -8.39581E+00 -1.43072E+01
  -9.04457E+00 -1.25143E+01 -6.20150E+00 -7.27465E+00 -1.16949E+01 -5.00293E+00 -1.50592E+01 -8.20035E+00 -8.49415E+00 -1.26748E+01
  -5.49894E+00 -9.05271E+00 -1.16349E+01 -1.49249E+01 -1.24100E+01 -1.92445E+01 -4.71837E+00 -1.34874E+01 -3.69989E+00 -9.05045E+00
  -1.10546E+01 -1.03281E+01 -1.67916E+01 -1.37418E+01 -9.46987E+00 -7.79993E+00 -6.38548E+00 -9.56397E+00 -1.01109E+01 -1.16304E+01
  -1.56291E+01 -9.58645E+00 -6.07622E+00 -1.19133E+01 -6.91562E+00 -9.24340E+00 -1.19674E+01 -1.43906E+01
 NY points of the fit to the data follow
   4.42439E+00  5.58125E+00  7.96095E+00  1.22158E+01  1.86273E+01  2.67368E+01  3.67822E+01  4.78137E+01  5.77231E+01  6.43855E+01
   6.62702E+01  6.31398E+01  5.62666E+01  4.74338E+01  3.83378E+01  3.02628E+01  2.37218E+01  1.86781E+01  1.46975E+01  1.17844E+01
   9.34004E+00  7.90761E+00  7.87269E+00  7.85305E+00  8.25178E+00  9.70079E+00  1.23484E+01  1.60243E+01  1.99214E+01  2.32705E+01
   2.53667E+01  2.56178E+01  2.40000E+01  2.06790E+01  1.61085E+01  1.13355E+01  7.26164E+00  4.34535E+00  2.74929E+00  2.69997E+00
   3.95350E+00  5.62941E+00  7.65722E+00  1.01183E+01  1.26376E+01  1.45572E+01  1.51520E+01  1.43009E+01  1.22291E+01  9.29011E+00
   6.22287E+00  3.66027E+00  1.75229E+00  5.87055E-01  8.79882E-02 -4.79326E-02  5.22987E-02  4.15763E-01  7.87099E-01  7.79779E-01
   1.99856E-01 -8.14793E-01 -2.04086E+00 -3.13670E+00 -3.89177E+00 -4.26025E+00 -4.23562E+00 -3.94619E+00 -3.55648E+00 -3.17683E+00
  -2.94302E+00 -2.92530E+00 -3.12426E+00 -3.50147E+00 -3.97907E+00 -4.48051E+00 -4.95085E+00 -5.33286E+00 -5.55065E+00 -5.38057E+00
  -5.19723E+00 -4.94592E+00 -4.33842E+00 -3.43046E+00 -2.49646E+00 -1.89402E+00 -1.92191E+00 -2.57013E+00 -3.56315E+00 -4.68963E+00
  -5.68337E+00 -6.37354E+00 -6.77166E+00 -6.91954E+00 -6.58134E+00 -4.34659E+00  9.77953E-03  5.18399E+00  1.27809E+01  2.39560E+01
   3.77366E+01  5.12398E+01  6.06810E+01  6.34717E+01  5.95973E+01  5.06269E+01  3.90229E+01  2.73284E+01  1.71695E+01  9.24330E+00
   3.54966E+00 -7.23003E-01 -4.45938E+00 -7.09558E+00 -7.96904E+00 -8.16272E+00 -8.09068E+00 -7.66198E+00 -5.92923E+00 -4.37803E-01
   6.80595E+00  1.53543E+01  2.79139E+01  4.49523E+01  6.40540E+01  8.08253E+01  9.04021E+01  9.07379E+01  8.30840E+01  6.99212E+01
   5.44080E+01  3.93747E+01  2.61414E+01  1.54048E+01  7.08131E+00  2.95233E-01 -5.18717E+00 -7.64183E+00 -7.62381E+00 -6.87747E+00
  -6.14646E+00 -5.83110E+00 -6.04493E+00 -6.60794E+00 -7.34994E+00 -8.21163E+00 -9.10688E+00 -1.00028E+01 -1.08992E+01 -1.17612E+01
  -1.25827E+01 -1.32756E+01 -1.38504E+01 -1.44440E+01 -1.48969E+01 -1.52614E+01 -1.57100E+01 -1.62942E+01 -1.71789E+01 -1.80645E+01
  -1.85540E+01 -1.86008E+01 -1.84165E+01 -1.82936E+01 -1.85379E+01 -1.92275E+01 -2.02384E+01 -2.14399E+01 -2.26948E+01 -2.37051E+01
  -2.43875E+01 -2.51700E+01 -2.61437E+01 -2.72245E+01 -2.79590E+01 -2.80274E+01 -2.77235E+01 -2.74467E+01 -2.73349E+01 -2.74496E+01
  -2.74611E+01 -2.72596E+01 -2.69329E+01 -2.63549E+01 -2.52726E+01 -2.35581E+01 -2.12549E+01 -1.85319E+01 -1.57740E+01 -1.35071E+01
  -1.22626E+01 -1.21343E+01 -1.29608E+01 -1.43145E+01 -1.56914E+01 -1.65601E+01 -1.65231E+01 -1.56278E+01 -1.38919E+01 -1.15378E+01
  -9.01301E+00 -6.82356E+00 -5.80234E+00 -6.04237E+00 -7.82007E+00 -1.13300E+01 -1.57263E+01 -1.99626E+01 -2.29046E+01 -2.39355E+01
  -2.29877E+01 -1.96992E+01 -1.45025E+01 -8.77386E+00 -4.33584E+00 -2.54258E+00 -3.57613E+00 -7.09908E+00 -1.26423E+01 -1.87463E+01
  -2.38248E+01 -2.63486E+01 -2.56848E+01 -2.26205E+01 -1.82429E+01 -1.36114E+01 -9.58867E+00 -6.80844E+00 -5.50051E+00 -4.91543E+00
  -4.45113E+00 -3.69261E+00 -2.54219E+00 -1.21132E+00  1.74089E-01  1.35878E+00  2.20481E+00  2.56114E+00  2.27606E+00  1.46341E+00
   7.19903E-01  5.31914E-01  1.21292E+00  2.86872E+00  5.26073E+00  7.97549E+00  1.04970E+01  1.28438E+01  1.53682E+01  1.77940E+01
   2.06074E+01  2.54327E+01  3.66097E+01  5.11729E+01  6.52905E+01  8.31493E+01  1.06633E+02  1.33044E+02  1.56234E+02  1.68961E+02
   1.67426E+02  1.52955E+02  1.29337E+02  1.01883E+02  7.55240E+01  5.30789E+01  3.59568E+01  2.36110E+01  1.37881E+01  4.78013E+00
  -9.43043E-01 -2.79918E+00 -3.54592E+00 -3.98289E+00 -4.31853E+00 -4.69374E+00 -5.26741E+00 -5.98708E+00 -6.75795E+00 -7.50276E+00
  -8.14450E+00 -8.61212E+00 -8.90368E+00 -9.03237E+00 -8.99408E+00 -8.81300E+00 -8.52070E+00 -8.12937E+00 -7.64439E+00 -7.06078E+00
  -6.37765E+00 -5.61991E+00 -4.79209E+00 -3.89731E+00 -2.95123E+00 -1.96374E+00 -9.35139E-01  1.26956E-01  1.21086E+00  2.30248E+00
   3.38300E+00  4.42909E+00  5.42218E+00  6.34580E+00  7.18377E+00  7.92670E+00  8.57218E+00  9.12396E+00  9.58865E+00  9.97380E+00
   1.02933E+01  1.05631E+01  1.08000E+01  1.10224E+01  1.12493E+01  1.14988E+01  1.17898E+01  1.21473E+01  1.26185E+01  1.32319E+01
   1.38008E+01  1.43591E+01  1.49615E+01  1.54602E+01  1.56274E+01  1.52630E+01  1.43227E+01  1.31283E+01  1.18800E+01  1.06910E+01
   9.83615E+00  9.51202E+00  9.73507E+00  1.03490E+01  1.10285E+01  1.14682E+01  1.15561E+01  1.13422E+01  1.08559E+01  1.02534E+01
   9.53392E+00  8.75747E+00  8.13109E+00  7.56310E+00  6.78504E+00  5.65745E+00  4.15512E+00  2.54950E+00  1.03449E+00 -2.29129E-01
  -9.20800E-01 -8.24362E-01  4.07999E-02  1.43965E+00  2.95894E+00  4.20514E+00  4.98402E+00  5.31570E+00  5.22965E+00  4.77365E+00
   4.09734E+00  3.33763E+00  2.57932E+00  1.81981E+00  1.01987E+00  2.80886E-01 -3.51609E-01 -9.21480E-01 -1.45062E+00 -1.94945E+00
  -2.42296E+00 -2.87234E+00 -3.29572E+00 -3.68885E+00 -4.04577E+00 -4.35956E+00 -4.62296E+00 -4.82885E+00 -4.97049E+00 -5.04172E+00
  -5.03707E+00 -4.95198E+00 -4.78300E+00 -4.52779E+00 -4.18525E+00 -3.75556E+00 -3.24040E+00 -2.64321E+00 -1.96938E+00 -1.22633E+00
  -4.23637E-01  4.26997E-01  1.31165E+00  2.21428E+00  3.11695E+00  4.00033E+00  4.84419E+00  5.62806E+00  6.33182E+00  6.93644E+00
   7.42479E+00  7.78245E+00  7.99837E+00  8.06529E+00  7.98003E+00  7.74364E+00  7.36134E+00  6.84237E+00  6.19941E+00  5.44799E+00
   4.60568E+00  3.69132E+00  2.72434E+00  1.72400E+00  7.08675E-01 -3.04772E-01 -1.30143E+00 -2.26859E+00 -3.19582E+00 -4.07504E+00
  -4.90043E+00 -5.66835E+00 -6.37708E+00 -7.02646E+00 -7.61760E+00 -8.15261E+00 -8.63436E+00 -9.06632E+00 -9.45225E+00 -9.79597E+00
  -1.01012E+01 -1.03717E+01 -1.06109E+01 -1.08221E+01 -1.10084E+01 -1.11725E+01 -1.13167E+01 -1.14432E+01 -1.15540E+01 -1.16509E+01
  -1.17354E+01 -1.18087E+01 -1.18721E+01 -1.19265E+01 -1.19729E+01 -1.20121E+01 -1.20449E+01 -1.20718E+01 -1.20932E+01 -1.21098E+01
  -1.21221E+01 -1.21303E+01 -1.21348E+01 -1.21359E+01 -1.21339E+01 -1.21289E+01 -1.21214E+01 -1.21114E+01 -1.20991E+01 -1.20847E+01
  -1.20684E+01 -1.20502E+01 -1.20303E+01 -1.20089E+01 -1.19860E+01 -1.19617E+01 -1.19360E+01 -1.19091E+01 -1.18812E+01 -1.18522E+01
  -1.18221E+01 -1.17910E+01 -1.17590E+01 -1.17261E+01 -1.16925E+01 -1.16580E+01 -1.16228E+01 -1.15869E+01 -1.15503E+01 -1.15131E+01
  -1.14753E+01 -1.14369E+01 -1.13978E+01 -1.13582E+01 -1.13182E+01 -1.12776E+01 -1.12365E+01 -1.11949E+01 -1.11528E+01 -1.11102E+01
  -1.10672E+01 -1.10238E+01 -1.09798E+01 -1.09353E+01 -1.08904E+01 -1.08449E+01 -1.07990E+01 -1.07525E+01
 NY background values follow
    -1.539E+00   -1.646E+00   -1.753E+00   -1.860E+00   -1.967E+00   -2.074E+00   -2.181E+00   -2.288E+00   -2.396E+00   -2.503E+00
    -2.610E+00   -2.717E+00   -2.825E+00   -2.932E+00   -3.039E+00   -3.146E+00   -3.254E+00   -3.361E+00   -3.468E+00   -3.576E+00
    -3.683E+00   -3.790E+00   -3.897E+00   -4.005E+00   -4.112E+00   -4.219E+00   -4.326E+00   -4.433E+00   -4.540E+00   -4.647E+00
    -4.755E+00   -4.862E+00   -4.968E+00   -5.075E+00   -5.182E+00   -5.289E+00   -5.396E+00   -5.503E+00   -5.609E+00   -5.716E+00
    -5.823E+00   -5.929E+00   -6.035E+00   -6.142E+00   -6.248E+00   -6.354E+00   -6.461E+00   -6.567E+00   -6.673E+00   -6.778E+00
    -6.884E+00   -6.990E+00   -7.096E+00   -7.201E+00   -7.306E+00   -7.412E+00   -7.517E+00   -7.622E+00   -7.727E+00   -7.831E+00
    -7.936E+00   -8.040E+00   -8.144E+00   -8.248E+00   -8.352E+00   -8.456E+00   -8.560E+00   -8.663E+00   -8.766E+00   -8.869E+00
    -8.972E+00   -9.074E+00   -9.177E+00   -9.279E+00   -9.380E+00   -9.482E+00   -9.583E+00   -9.685E+00   -9.785E+00   -9.886E+00
    -9.986E+00   -1.009E+01   -1.019E+01   -1.029E+01   -1.039E+01   -1.048E+01   -1.058E+01   -1.068E+01   -1.078E+01   -1.088E+01
    -1.097E+01   -1.107E+01   -1.117E+01   -1.126E+01   -1.136E+01   -1.146E+01   -1.155E+01   -1.165E+01   -1.174E+01   -1.184E+01
    -1.193E+01   -1.202E+01   -1.212E+01   -1.221E+01   -1.230E+01   -1.240E+01   -1.249E+01   -1.258E+01   -1.267E+01   -1.276E+01
    -1.285E+01   -1.294E+01   -1.303E+01   -1.312E+01   -1.321E+01   -1.330E+01   -1.338E+01   -1.347E+01   -1.356E+01   -1.364E+01
    -1.373E+01   -1.381E+01   -1.390E+01   -1.398E+01   -1.407E+01   -1.415E+01   -1.424E+01   -1.432E+01   -1.440E+01   -1.448E+01
    -1.456E+01   -1.464E+01   -1.472E+01   -1.480E+01   -1.488E+01   -1.496E+01   -1.504E+01   -1.512E+01   -1.519E+01   -1.527E+01
    -1.535E+01   -1.542E+01   -1.550E+01   -1.557E+01   -1.565E+01   -1.572E+01   -1.579E+01   -1.586E+01   -1.594E+01   -1.601E+01
    -1.608E+01   -1.615E+01   -1.622E+01   -1.628E+01   -1.635E+01   -1.642E+01   -1.649E+01   -1.655E+01   -1.662E+01   -1.668E+01
    -1.675E+01   -1.681E+01   -1.687E+01   -1.694E+01   -1.700E+01   -1.706E+01   -1.712E+01   -1.718E+01   -1.724E+01   -1.730E+01
    -1.735E+01   -1.741E+01   -1.747E+01   -1.752E+01   -1.758E+01   -1.763E+01   -1.768E+01   -1.774E+01   -1.779E+01   -1.784E+01
    -1.789E+01   -1.794E+01   -1.799E+01   -1.803E+01   -1.808E+01   -1.813E+01   -1.817E+01   -1.822E+01   -1.826E+01   -1.831E+01
    -1.835E+01   -1.839E+01   -1.843E+01   -1.847E+01   -1.851E+01   -1.855E+01   -1.859E+01   -1.863E+01   -1.866E+01   -1.870E+01
    -1.874E+01   -1.877E+01   -1.880E+01   -1.884E+01   -1.887E+01   -1.890E+01   -1.893E+01   -1.896E+01   -1.899E+01   -1.902E+01
    -1.905E+01   -1.908E+01   -1.910E+01   -1.913E+01   -1.915E+01   -1.918E+01   -1.920E+01   -1.922E+01   -1.925E+01   -1.927E+01
    -1.929E+01   -1.931E+01   -1.933E+01   -1.935E+01   -1.937E+01   -1.938E+01   -1.940E+01   -1.942E+01   -1.943E+01   -1.945E+01
    -1.946E+01   -1.947E+01   -1.949E+01   -1.950E+01   -1.951E+01   -1.952E+01   -1.953E+01   -1.954E+01   -1.955E+01   -1.956E+01
    -1.957E+01   -1.957E+01   -1.958E+01   -1.958E+01   -1.959E+01   -1.959E+01   -1.960E+01   -1.960E+01   -1.960E+01   -1.961E+01
    -1.961E+01   -1.961E+01   -1.961E+01   -1.961E+01   -1.961E+01   -1.961E+01   -1.961E+01   -1.961E+01   -1.960E+01   -1.960E+01
    -1.960E+01   -1.959E+01   -1.959E+01   -1.958E+01   -1.958E+01   -1.957E+01   -1.956E+01   -1.956E+01   -1.955E+01   -1.954E+01
    -1.953E+01   -1.953E+01   -1.952E+01   -1.951E+01   -1.950E+01   -1.949E+01   -1.948E+01   -1.947E+01   -1.945E+01   -1.944E+01
    -1.943E+01   -1.942E+01   -1.940E+01   -1.939E+01   -1.938E+01   -1.936E+01   -1.935E+01   -1.933E+01   -1.932E+01   -1.930E+01
    -1.928E+01   -1.927E+01   -1.925E+01   -1.923E+01   -1.922E+01   -1.920E+01   -1.918E+01   -1.916E+01   -1.914E+01   -1.912E+01
    -1.910E+01   -1.908E+01   -1.906E+01   -1.904E+01   -1.902E+01   -1.900E+01   -1.898E+01   -1.896E+01   -1.893E+01   -1.891E+01
    -1.889E+01   -1.886E+01   -1.884E+01   -1.882E+01   -1.879E+01   -1.877E+01   -1.874E+01   -1.872E+01   -1.869E+01   -1.867E+01
    -1.864E+01   -1.861E+01   -1.859E+01   -1.856E+01   -1.853E+01   -1.851E+01   -1.848E+01   -1.845E+01   -1.842E+01   -1.839E+01
    -1.836E+01   -1.834E+01   -1.831E+01   -1.828E+01   -1.825E+01   -1.822E+01   -1.819E+01   -1.816E+01   -1.813E+01   -1.809E+01
    -1.806E+01   -1.803E+01   -1.800E+01   -1.797E+01   -1.793E+01   -1.790E+01   -1.787E+01   -1.784E+01   -1.780E+01   -1.777E+01
    -1.774E+01   -1.770E+01   -1.767E+01   -1.763E+01   -1.760E+01   -1.756E+01   -1.753E+01   -1.749E+01   -1.746E+01   -1.742E+01
    -1.738E+01   -1.735E+01   -1.731E+01   -1.727E+01   -1.724E+01   -1.720E+01   -1.716E+01   -1.713E+01   -1.709E+01   -1.705E+01
    -1.701E+01   -1.697E+01   -1.693E+01   -1.690E+01   -1.686E+01   -1.682E+01   -1.678E+01   -1.674E+01   -1.670E+01   -1.666E+01
    -1.662E+01   -1.658E+01   -1.654E+01   -1.650E+01   -1.645E+01   -1.641E+01   -1.637E+01   -1.633E+01   -1.629E+01   -1.625E+01
    -1.620E+01   -1.616E+01   -1.612E+01   -1.608E+01   -1.603E+01   -1.599E+01   -1.595E+01   -1.590E+01   -1.586E+01   -1.581E+01
    -1.577E+01   -1.573E+01   -1.568E+01   -1.564E+01   -1.559E+01   -1.555E+01   -1.550E+01   -1.545E+01   -1.541E+01   -1.536E+01
    -1.532E+01   -1.527E+01   -1.522E+01   -1.518E+01   -1.513E+01   -1.508E+01   -1.504E+01   -1.499E+01   -1.494E+01   -1.490E+01
    -1.485E+01   -1.480E+01   -1.475E+01   -1.470E+01   -1.466E+01   -1.461E+01   -1.456E+01   -1.451E+01   -1.446E+01   -1.441E+01
    -1.436E+01   -1.431E+01   -1.426E+01   -1.422E+01   -1.417E+01   -1.412E+01   -1.407E+01   -1.402E+01   -1.397E+01   -1.392E+01
    -1.387E+01   -1.382E+01   -1.377E+01   -1.372E+01   -1.367E+01   -1.362E+01   -1.356E+01   -1.351E+01   -1.346E+01   -1.341E+01
    -1.336E+01   -1.331E+01   -1.326E+01   -1.321E+01   -1.316E+01   -1.311E+01   -1.306E+01   -1.300E+01   -1.295E+01   -1.290E+01
    -1.285E+01   -1.280E+01   -1.275E+01   -1.270E+01   -1.264E+01   -1.259E+01   -1.254E+01   -1.249E+01   -1.244E+01   -1.239E+01
    -1.234E+01   -1.228E+01   -1.223E+01   -1.218E+01   -1.213E+01   -1.208E+01   -1.202E+01   -1.197E+01   -1.192E+01   -1.187E+01
    -1.182E+01   -1.177E+01   -1.171E+01   -1.166E+01   -1.161E+01   -1.156E+01   -1.151E+01   -1.145E+01   -1.140E+01   -1.135E+01
    -1.130E+01   -1.125E+01   -1.120E+01   -1.114E+01   -1.109E+01   -1.104E+01   -1.099E+01   -1.094E+01
 Ala      Conc. = 3.36E+02
