 LCModel (Version 6.3-1L) Copyright: S.W. Provencher.          Ref.: Magn. Reson. Med. 30:672-679 (1993).                
 Slice#1 Row#7 Col#5  PD_05_press_2_raw_act
 36 lines in following concentration table = NCONC+1
    Conc.  %SD /Cr+PCr  Metabolite                                         
    0.000 999%   0.000 Ala                                                 
  234.801 120%   0.179 Asp                                                 
  799.781  39%   0.609 Cr                                                  
  514.484  64%   0.391 PCr                                                 
  189.558  90%   0.144 GABA                                                
  159.768 109%   0.122 Glc                                                 
  807.102  48%   0.614 Gln                                                 
 2.07E+03  21%   1.573 Glu                                                 
  454.476  10%   0.346 GPC                                                 
    0.000 999%   0.000 PCh                                                 
  620.219  23%   0.472 GSH                                                 
 2.22E+03  21%   1.688 Ins                                                 
  119.436 171% 9.1E-02 Lac                                                 
 3.32E+03   7%   2.525 NAA                                                 
  641.493  35%   0.488 NAAG                                                
   97.445  44% 7.4E-02 Scyllo                                              
  333.432  78%   0.254 Tau                                                 
   67.632 263% 5.1E-02 -CrCH2                                              
  454.476  10%   0.346 GPC+PCh                                             
 3.96E+03   5%   3.013 NAA+NAAG                                            
 1.31E+03   9%   1.000 Cr+PCr                                              
 2.87E+03  20%   2.187 Glu+Gln                                             
 3.07E+03  32%   2.334 Lip13a                                              
    0.000 999%   0.000 Lip13b                                              
    0.000 999%   0.000 Lip09                                               
 3.21E+03  13%   2.444 MM09                                                
  165.203 261%   0.126 Lip20                                               
 6.46E+03  12%   4.915 MM20                                                
 1.11E+03  25%   0.842 MM12                                                
 4.48E+03  16%   3.411 MM14                                                
 2.13E+03  22%   1.617 MM17                                                
 3.07E+03  32%   2.334 Lip13a+Lip13b                                       
 8.66E+03  10%   6.587 MM14+Lip13a+Lip13b+MM12                             
 3.21E+03  13%   2.444 MM09+Lip09                                          
 6.62E+03  12%   5.040 MM20+Lip20                                          
   6 lines in following misc. output table
  FWHM = 0.038 ppm    S/N =   9                                            
  Data shift = 0.000 ppm                                                   
  Ph:  -5 deg       9.7 deg/ppm                                            
  alphaB,S = 3.6E+00,   1.1E+01                                            
   14 spline knots.   Ns = 5(1)                                            
  ( 7) 2 infls.   ( 3) 1 extrs.                                            
  498 points on ppm-axis = NY
      4.000000     3.992357     3.984714     3.977070     3.969427     3.961784     3.954141     3.946497     3.938854     3.931211
      3.923568     3.915925     3.908281     3.900638     3.892995     3.885352     3.877708     3.870065     3.862422     3.854779
      3.847136     3.839492     3.831849     3.824206     3.816563     3.808919     3.801276     3.793633     3.785990     3.778347
      3.770703     3.763060     3.755417     3.747774     3.740130     3.732487     3.724844     3.717201     3.709558     3.701914
      3.694271     3.686628     3.678985     3.671341     3.663698     3.656055     3.648412     3.640769     3.633125     3.625482
      3.617839     3.610196     3.602552     3.594909     3.587266     3.579623     3.571980     3.564336     3.556693     3.549050
      3.541407     3.533763     3.526120     3.518477     3.510834     3.503191     3.495547     3.487904     3.480261     3.472618
      3.464974     3.457331     3.449688     3.442045     3.434402     3.426758     3.419115     3.411472     3.403829     3.396185
      3.388542     3.380899     3.373256     3.365613     3.357969     3.350326     3.342683     3.335040     3.327396     3.319753
      3.312110     3.304467     3.296824     3.289180     3.281537     3.273894     3.266251     3.258607     3.250964     3.243321
      3.235678     3.228034     3.220391     3.212748     3.205105     3.197462     3.189818     3.182175     3.174532     3.166889
      3.159245     3.151602     3.143959     3.136316     3.128673     3.121029     3.113386     3.105743     3.098100     3.090456
      3.082813     3.075170     3.067527     3.059884     3.052240     3.044597     3.036954     3.029311     3.021667     3.014024
      3.006381     2.998738     2.991095     2.983451     2.975808     2.968165     2.960522     2.952878     2.945235     2.937592
      2.929949     2.922306     2.914662     2.907019     2.899376     2.891733     2.884089     2.876446     2.868803     2.861160
      2.853517     2.845873     2.838230     2.830587     2.822944     2.815300     2.807657     2.800014     2.792371     2.784728
      2.777084     2.769441     2.761798     2.754155     2.746511     2.738868     2.731225     2.723582     2.715939     2.708295
      2.700652     2.693009     2.685366     2.677722     2.670079     2.662436     2.654793     2.647150     2.639506     2.631863
      2.624220     2.616577     2.608933     2.601290     2.593647     2.586004     2.578361     2.570717     2.563074     2.555431
      2.547788     2.540144     2.532501     2.524858     2.517215     2.509572     2.501928     2.494285     2.486642     2.478999
      2.471355     2.463712     2.456069     2.448426     2.440783     2.433139     2.425496     2.417853     2.410210     2.402566
      2.394923     2.387280     2.379637     2.371994     2.364350     2.356707     2.349064     2.341421     2.333777     2.326134
      2.318491     2.310848     2.303205     2.295561     2.287918     2.280275     2.272632     2.264988     2.257345     2.249702
      2.242059     2.234416     2.226772     2.219129     2.211486     2.203843     2.196199     2.188556     2.180913     2.173270
      2.165627     2.157983     2.150340     2.142697     2.135054     2.127410     2.119767     2.112124     2.104481     2.096838
      2.089194     2.081551     2.073908     2.066265     2.058621     2.050978     2.043335     2.035692     2.028049     2.020405
      2.012762     2.005119     1.997476     1.989833     1.982190     1.974546     1.966903     1.959260     1.951617     1.943974
      1.936331     1.928688     1.921045     1.913402     1.905759     1.898115     1.890472     1.882829     1.875186     1.867543
      1.859900     1.852257     1.844614     1.836971     1.829327     1.821684     1.814041     1.806398     1.798755     1.791112
      1.783469     1.775826     1.768183     1.760540     1.752896     1.745253     1.737610     1.729967     1.722324     1.714681
      1.707038     1.699395     1.691752     1.684108     1.676465     1.668822     1.661179     1.653536     1.645893     1.638250
      1.630607     1.622964     1.615321     1.607677     1.600034     1.592391     1.584748     1.577105     1.569462     1.561819
      1.554176     1.546533     1.538890     1.531246     1.523603     1.515960     1.508317     1.500674     1.493031     1.485388
      1.477745     1.470102     1.462458     1.454815     1.447172     1.439529     1.431886     1.424243     1.416600     1.408957
      1.401314     1.393671     1.386027     1.378384     1.370741     1.363098     1.355455     1.347812     1.340169     1.332526
      1.324883     1.317240     1.309596     1.301953     1.294310     1.286667     1.279024     1.271381     1.263738     1.256095
      1.248452     1.240808     1.233165     1.225522     1.217879     1.210236     1.202593     1.194950     1.187307     1.179664
      1.172021     1.164377     1.156734     1.149091     1.141448     1.133805     1.126162     1.118519     1.110876     1.103233
      1.095590     1.087946     1.080303     1.072660     1.065017     1.057374     1.049731     1.042088     1.034445     1.026802
      1.019158     1.011515     1.003872     0.996229     0.988586     0.980943     0.973300     0.965657     0.958014     0.950371
      0.942727     0.935084     0.927441     0.919798     0.912155     0.904512     0.896869     0.889226     0.881583     0.873940
      0.866296     0.858653     0.851010     0.843367     0.835724     0.828081     0.820438     0.812795     0.805152     0.797508
      0.789865     0.782222     0.774579     0.766936     0.759293     0.751650     0.744007     0.736364     0.728721     0.721077
      0.713434     0.705791     0.698148     0.690505     0.682862     0.675219     0.667576     0.659933     0.652290     0.644646
      0.637003     0.629360     0.621717     0.614074     0.606431     0.598788     0.591145     0.583502     0.575858     0.568215
      0.560572     0.552929     0.545286     0.537643     0.530000     0.522357     0.514714     0.507071     0.499427     0.491784
      0.484141     0.476498     0.468855     0.461212     0.453569     0.445925     0.438282     0.430639     0.422996     0.415353
      0.407710     0.400067     0.392424     0.384780     0.377137     0.369494     0.361851     0.354208     0.346565     0.338922
      0.331278     0.323635     0.315992     0.308349     0.300706     0.293063     0.285420     0.277777     0.270133     0.262490
      0.254847     0.247204     0.239561     0.231918     0.224275     0.216631     0.208988     0.201345
 NY phased data points follow
   2.22033E+01  2.85670E+01  3.66623E+01  2.16558E+01  2.67623E+01  3.67767E+01  4.36819E+01  2.72328E+01  5.04414E+01  4.87768E+01
   5.55810E+01  6.67621E+01  4.50530E+01  4.48396E+01  3.29484E+01  3.60434E+01  4.56819E+01  3.83003E+01  2.20087E+01  4.60871E+01
   3.83074E+01  1.56747E+01  3.27514E+01  3.42226E+01  3.07016E+01  2.95559E+01  3.32671E+01  3.53031E+01  3.38875E+01  4.37802E+01
   3.03651E+01  3.98007E+01  2.98031E+01  2.37041E+01  2.98905E+01  2.75741E+01  2.74311E+01  4.12771E+01  3.20690E+01  3.50725E+01
   2.72609E+01  3.48731E+01  2.83314E+01  4.42299E+01  2.28104E+01  2.71369E+01  3.96886E+01  4.47610E+01  3.47927E+01  4.59732E+01
   3.06453E+01  3.42195E+01  1.10668E+01  2.82501E+01  2.62516E+01  1.69250E+01  3.30663E+01  3.07186E+01  1.73630E+01  2.76938E+01
   2.16915E+01  1.87809E+01  2.63247E+01  2.81911E+01  2.03082E+01  8.40617E+00  1.52103E+01  1.95600E+01  2.06640E+01  1.43592E+01
   2.15232E+01  2.20826E+00  1.43965E+01  2.91090E+01  1.63113E+01  1.98517E+01  1.55145E+01  1.27732E+01  1.67886E+01  1.19639E+01
   3.63129E+00  1.51657E+01  5.07626E+00  1.84248E+01  2.89643E+01  1.40336E+01  1.86076E+01  2.04670E+01  1.88364E+01  2.12728E+01
   1.02547E+01  1.54127E+01  1.34361E+01  2.20933E+01  1.58887E+01  1.34405E+01  1.17283E+01  1.98452E+01  2.41729E+01  1.26304E+01
   3.87251E+01  4.71999E+01  4.98403E+01  6.61640E+01  6.87360E+01  4.49584E+01  4.73424E+01  3.40329E+01  2.01992E+01  8.36025E+00
   9.51389E+00  2.82734E+01  1.81951E+01  1.73755E+01  2.18663E+01  1.27259E+01  2.26325E+01  3.04382E+01  2.64837E+01  2.19065E+01
   1.79524E+01  4.75395E+00  1.57350E+01  2.93738E+01  2.78798E+01  5.34507E+01  6.62747E+01  7.18644E+01  7.85239E+01  5.50191E+01
   4.63634E+01  2.89200E+01 -1.67364E-01  1.10974E+01  1.39559E+01  2.48152E+01  9.03125E+00  8.96812E+00  1.35742E+01  1.89866E+01
   1.55045E+01  1.91018E+01  1.28080E+01  1.54869E+01  2.02549E+01  9.41441E+00  3.83131E+00  4.23820E+00  2.34510E-01 -4.12411E+00
   2.42688E+00  1.17525E+01  8.58732E+00  8.94520E+00  7.69067E+00  1.30098E+01  7.56987E+00  1.01729E+01 -4.75574E+00 -4.46553E+00
   8.94027E+00  3.64495E+00  1.01957E+01 -1.09777E+01  2.44266E+00  3.16654E+00 -6.73655E+00 -8.85838E+00  5.91993E+00  2.37929E+00
  -2.13773E+01 -7.85895E+00 -1.06126E+01 -8.29958E+00 -1.34059E+01 -1.80394E+01 -6.51521E+00 -1.04485E+01 -2.70229E+01 -2.97333E+01
  -9.21328E+00 -2.25876E+01 -8.35349E+00 -1.24555E+01 -2.96016E+01 -4.52462E+00  1.45281E+00  1.05566E+01 -5.65416E+00  1.06090E+01
   1.03687E+01 -1.64458E+00  3.87830E+00 -8.19690E+00 -6.11464E+00 -3.83567E+00 -9.05075E+00 -9.23621E+00 -1.45292E+01 -3.95614E+00
  -4.51133E+00  7.10340E+00  8.73388E+00  1.53913E+00  1.56673E+01  1.16601E+01  1.14555E+00 -7.17028E+00 -2.44078E+00 -1.47512E+00
  -9.21859E-01  1.17583E+01  7.84176E+00  1.78117E+01  1.85745E+01  1.38847E+01  2.14356E+01  2.12516E+01  1.08990E+01  1.12003E+01
   3.29947E+00 -1.09312E+01 -1.39880E+01  4.72722E+00 -1.74044E+00  2.84339E+00  1.74739E+00  2.39566E+01  2.01976E+01  1.40999E+01
   6.90697E+00  8.47193E+00  1.39704E+01  2.10307E+01  4.80132E-01  1.98439E+01  2.14322E+01  2.40838E+01  1.47745E+01  3.65535E+01
   1.74077E+01  1.52663E+01  1.54660E+01  1.56640E+01  2.32243E+01  3.36283E+01  3.57166E+01  1.99152E+01  4.62048E+01  3.76694E+01
   3.06619E+01  4.61288E+01  4.40611E+01  4.40379E+01  6.29211E+01  5.78284E+01  8.17902E+01  1.03363E+02  1.20410E+02  1.41065E+02
   1.77982E+02  1.72840E+02  1.41866E+02  1.05567E+02  6.79832E+01  2.41289E+01  1.93813E+01  2.27615E+01  5.19267E+00  1.10937E+01
   2.58316E+01  1.03607E+01  1.39744E+01  1.03856E+01  8.59685E+00  2.03533E+01  1.38642E+01  5.46244E+00  2.54833E+00  1.25254E+00
   9.36616E-01  8.70556E+00 -2.23854E+00  8.71595E+00 -1.88915E-01  7.03702E+00  5.48402E+00  4.35323E+00  5.34318E+00  2.31554E+00
   2.36627E+00  1.27071E+01  9.36673E+00  1.22334E+01  1.59787E+01  3.08454E+00  1.49935E+01  5.52617E+00  1.93841E+01  1.99198E+01
   1.72694E+00  2.67796E+01  6.02708E+00  1.61564E+00  3.82839E+00  2.17056E+01  1.87076E+01  1.31864E+01  1.97865E+01  1.04837E+01
   1.06265E+01  2.27509E+01  2.19953E+01  1.24990E+01  7.16903E+00  6.88852E+00  1.77608E+00  1.76540E+00  1.02338E+01  1.72967E+01
   7.80548E+00 -5.00627E+00 -9.69422E-02  1.01788E+01  1.02552E+01  2.50020E+01  1.56246E+01  2.91539E+01  1.57235E+01  2.51414E+01
   3.50565E+01  2.71051E+01  3.19234E+01  2.62578E+01  3.31488E+01  3.11608E+01  2.53834E+01  9.82002E+00  3.41553E+01  2.68646E+01
   2.43202E+01  2.49169E+01  1.98376E+01  2.12410E+01  3.02598E+01  3.15349E+01  3.29448E+01  3.59297E+01  2.42162E+01  3.03894E+01
   6.50560E+00  1.53958E+01  1.11778E+01  3.77292E+01  1.43184E+00  1.34353E+01  1.35074E+01  1.61934E+01  2.51170E+00  1.01355E+01
   9.90560E+00  1.60799E+01  7.35054E+00  1.98892E+01  3.04611E+00  9.90391E+00  2.17808E+01  2.93761E+01  2.64528E+01  1.53118E+01
   2.05765E+01  1.83292E+01  1.52972E+01  2.22611E+01  1.91254E+01  8.57409E+00  1.16354E+01  9.71004E+00  3.64552E+00  6.84264E+00
   7.06232E+00  1.41202E+01 -2.26596E+00  1.58652E+01 -6.96057E+00  4.85856E+00  4.28970E+00 -4.54790E+00 -1.41920E+00  3.83827E+00
   7.06955E+00  1.55894E+01  7.39318E+00  6.50688E+00  2.06482E+01  1.55771E+01  8.29806E+00  2.16106E+01  1.51870E+01  1.52397E+01
   1.34594E+01  2.34464E+01  1.06087E+01  2.82706E+01  9.91959E-01 -1.97786E+00  1.24125E+01  1.15501E+01  6.32779E+00 -2.93929E+00
   8.87748E+00 -5.59075E-01  1.40186E+01  7.44746E+00 -1.20097E+00  3.70879E+00 -1.22044E+01  8.23649E+00 -1.09727E+00 -4.97196E+00
  -4.99673E+00 -6.90618E+00 -7.15804E+00 -6.83165E+00 -9.19570E+00 -1.27034E+01 -7.30460E+00 -9.07027E+00 -1.23482E+01 -4.99699E+00
  -1.84627E+01 -1.40138E+01 -2.21102E+01  1.26789E+00 -1.22612E+01  6.51526E+00 -1.77638E+01 -7.75649E+00 -1.09706E+01 -1.03396E+01
  -2.11229E+00 -8.30037E+00 -1.15541E+01  2.67815E+00 -1.61720E+01 -6.08822E+00 -9.94512E+00 -1.26690E+01 -6.03085E+00 -1.99168E+01
  -2.74218E+01  7.78918E+00 -3.83161E+00  4.67098E+00 -1.12297E+01 -3.45536E+00 -1.55987E+01  3.75911E+00 -9.63835E+00 -5.59615E+00
  -1.99224E+01  4.11435E+00 -6.75296E+00 -6.86087E+00 -4.23991E+00 -8.78628E+00  1.95831E+00 -6.81735E+00 -1.02910E+01  2.99748E+00
  -1.06730E+01 -7.41712E+00  9.95567E-01 -1.25674E+01 -2.22644E+00 -4.47526E+00 -5.09679E+00 -2.95880E+00 -9.49519E+00 -7.93493E-02
  -8.63869E+00 -8.34868E+00 -1.04938E+01 -1.39124E+01  1.62179E+00 -9.48849E+00 -2.00839E+01 -1.53623E+01  7.84721E+00 -1.04106E+01
  -3.88173E+00 -4.45853E+00 -2.29931E+01  9.05279E+00  3.96390E+00 -4.57481E+00 -1.37210E+01 -1.81805E+01
 NY points of the fit to the data follow
   2.54889E+01  2.46525E+01  2.48022E+01  2.55813E+01  2.72606E+01  3.00384E+01  3.40719E+01  3.95708E+01  4.62723E+01  5.19949E+01
   5.52926E+01  5.64358E+01  5.26278E+01  4.43101E+01  3.65691E+01  3.02097E+01  2.55595E+01  2.42124E+01  2.42042E+01  2.40196E+01
   2.38938E+01  2.39442E+01  2.39405E+01  2.39133E+01  2.47006E+01  2.63790E+01  2.87737E+01  3.17563E+01  3.61458E+01  4.06156E+01
   4.16036E+01  4.01484E+01  3.79313E+01  3.35872E+01  2.89480E+01  2.55512E+01  2.25838E+01  2.05120E+01  1.94309E+01  1.93608E+01
   2.02401E+01  2.11572E+01  2.25759E+01  2.54584E+01  2.88806E+01  3.24373E+01  3.67214E+01  4.03918E+01  4.05308E+01  3.64053E+01
   2.99591E+01  2.30630E+01  1.74798E+01  1.49504E+01  1.52547E+01  1.68945E+01  1.88525E+01  2.07109E+01  2.26196E+01  2.45903E+01
   2.55849E+01  2.51624E+01  2.36090E+01  2.10529E+01  1.84370E+01  1.68841E+01  1.65972E+01  1.74640E+01  1.89486E+01  2.03393E+01
   2.12713E+01  2.21928E+01  2.30011E+01  2.29556E+01  2.25662E+01  2.21523E+01  2.09396E+01  1.93742E+01  1.82332E+01  1.73027E+01
   1.67102E+01  1.71204E+01  1.82288E+01  1.91256E+01  1.95084E+01  1.96741E+01  1.90824E+01  1.67800E+01  1.38685E+01  1.19516E+01
   1.10150E+01  1.13403E+01  1.29559E+01  1.45349E+01  1.54080E+01  1.58173E+01  1.61020E+01  1.66627E+01  1.93424E+01  2.56716E+01
   3.42724E+01  4.41097E+01  5.63654E+01  6.77799E+01  6.77582E+01  5.68862E+01  4.35644E+01  2.87448E+01  1.64911E+01  1.26395E+01
   1.27963E+01  1.29623E+01  1.30176E+01  1.31569E+01  1.33419E+01  1.34627E+01  1.35437E+01  1.36342E+01  1.37079E+01  1.38793E+01
   1.44883E+01  1.62061E+01  2.09858E+01  2.95375E+01  4.00372E+01  5.13185E+01  6.47922E+01  7.43259E+01  7.07938E+01  5.90069E+01
   4.54160E+01  3.01787E+01  1.93944E+01  1.54057E+01  1.28801E+01  1.04803E+01  9.10069E+00  8.88763E+00  1.03806E+01  1.26378E+01
   1.43832E+01  1.51898E+01  1.47971E+01  1.36722E+01  1.24825E+01  1.13655E+01  1.05991E+01  1.00388E+01  9.42109E+00  8.70742E+00
   7.95685E+00  7.31704E+00  6.81686E+00  6.40384E+00  6.19851E+00  6.26293E+00  6.21078E+00  5.80803E+00  5.17541E+00  4.15454E+00
   2.72025E+00  1.71456E+00  1.82714E+00  2.64824E+00  3.83804E+00  4.61313E+00  3.96619E+00  2.54496E+00  1.16602E+00 -7.58675E-02
  -6.02306E-01 -6.52352E-01 -1.09228E+00 -1.83845E+00 -2.62756E+00 -3.53361E+00 -4.15007E+00 -3.58796E+00 -2.42565E+00 -1.77083E+00
  -1.75880E+00 -2.26590E+00 -2.82534E+00 -2.74329E+00 -1.95414E+00 -5.43946E-01  9.19391E-01  2.66488E+00  5.54708E+00  8.54603E+00
   1.04296E+01  1.09809E+01  9.55631E+00  6.64882E+00  4.08928E+00  2.47578E+00  2.04573E+00  3.01397E+00  4.78064E+00  7.06028E+00
   9.67187E+00  1.18967E+01  1.33535E+01  1.42175E+01  1.37639E+01  1.11448E+01  7.20000E+00  2.70282E+00 -1.98810E+00 -5.49750E+00
  -5.83778E+00 -2.77129E+00  1.73920E+00  7.15226E+00  1.33018E+01  1.82838E+01  2.04153E+01  1.81972E+01  1.22564E+01  4.95600E+00
  -2.00490E+00 -6.72243E+00 -7.80291E+00 -4.89871E+00  1.27647E+00  7.92666E+00  1.31979E+01  1.64668E+01  1.68396E+01  1.50770E+01
   1.30412E+01  1.19797E+01  1.26835E+01  1.45760E+01  1.67780E+01  1.91573E+01  2.13223E+01  2.19822E+01  2.09551E+01  1.95791E+01
   1.81757E+01  1.66247E+01  1.60536E+01  1.75132E+01  2.07643E+01  2.44609E+01  2.75780E+01  2.97811E+01  3.06682E+01  3.05583E+01
   3.08738E+01  3.33732E+01  3.81651E+01  4.42672E+01  5.19481E+01  6.56773E+01  8.53422E+01  1.04444E+02  1.23186E+02  1.47640E+02
   1.71966E+02  1.70383E+02  1.42472E+02  1.08314E+02  6.86998E+01  3.34180E+01  2.00950E+01  1.80318E+01  1.59268E+01  1.38660E+01
   1.25314E+01  1.15776E+01  1.09264E+01  1.06910E+01  1.05974E+01  1.02421E+01  9.55007E+00  8.59809E+00  7.51035E+00  6.49709E+00
   5.67048E+00  5.10432E+00  4.82667E+00  4.71600E+00  4.69469E+00  4.79734E+00  4.93873E+00  5.06204E+00  5.26143E+00  5.57623E+00
   5.97852E+00  6.52363E+00  7.19956E+00  7.89603E+00  8.57748E+00  9.24189E+00  9.85469E+00  1.04283E+01  1.09724E+01  1.14899E+01
   1.19779E+01  1.23963E+01  1.27247E+01  1.29524E+01  1.30390E+01  1.29817E+01  1.28058E+01  1.25281E+01  1.21702E+01  1.17595E+01
   1.13213E+01  1.08814E+01  1.04666E+01  1.01034E+01  9.81824E+00  9.63610E+00  9.57690E+00  9.65633E+00  9.88614E+00  1.02727E+01
   1.08176E+01  1.15174E+01  1.23632E+01  1.33409E+01  1.44326E+01  1.56170E+01  1.68688E+01  1.81598E+01  1.94596E+01  2.07373E+01
   2.19625E+01  2.31069E+01  2.41442E+01  2.50512E+01  2.58091E+01  2.64047E+01  2.68316E+01  2.70894E+01  2.71848E+01  2.71313E+01
   2.69524E+01  2.66893E+01  2.64162E+01  2.61326E+01  2.57304E+01  2.51664E+01  2.44789E+01  2.34597E+01  2.18523E+01  2.00724E+01
   1.86231E+01  1.75621E+01  1.70494E+01  1.70900E+01  1.74965E+01  1.80800E+01  1.83574E+01  1.82074E+01  1.77929E+01  1.70293E+01
   1.61249E+01  1.53978E+01  1.47886E+01  1.41876E+01  1.35781E+01  1.29567E+01  1.23231E+01  1.16801E+01  1.10327E+01  1.03878E+01
   9.75385E+00  9.13974E+00  8.55482E+00  8.00844E+00  7.51021E+00  7.06964E+00  6.69588E+00  6.39707E+00  6.18051E+00  6.05244E+00
   6.01829E+00  6.08218E+00  6.24663E+00  6.51202E+00  6.87666E+00  7.33665E+00  7.88592E+00  8.51565E+00  9.21413E+00  9.96661E+00
   1.07558E+01  1.15623E+01  1.23649E+01  1.31410E+01  1.38673E+01  1.45204E+01  1.50784E+01  1.55215E+01  1.58330E+01  1.59996E+01
   1.60121E+01  1.58660E+01  1.55616E+01  1.51044E+01  1.45039E+01  1.37735E+01  1.29295E+01  1.19906E+01  1.09771E+01  9.90994E+00
   8.80948E+00  7.69486E+00  6.58353E+00  5.49093E+00  4.43028E+00  3.41216E+00  2.44448E+00  1.53250E+00  6.79408E-01 -1.13437E-01
  -8.46093E-01 -1.52012E+00 -2.13816E+00 -2.70368E+00 -3.22036E+00 -3.69202E+00 -4.12243E+00 -4.51558E+00 -4.87532E+00 -5.20531E+00
  -5.50867E+00 -5.78819E+00 -6.04637E+00 -6.28571E+00 -6.50839E+00 -6.71639E+00 -6.91115E+00 -7.09398E+00 -7.26607E+00 -7.42871E+00
  -7.58295E+00 -7.72965E+00 -7.86933E+00 -8.00258E+00 -8.13000E+00 -8.25233E+00 -8.37003E+00 -8.48347E+00 -8.59280E+00 -8.69835E+00
  -8.80050E+00 -8.89970E+00 -8.99612E+00 -9.08986E+00 -9.18095E+00 -9.26965E+00 -9.35623E+00 -9.44098E+00 -9.52391E+00 -9.60504E+00
  -9.68436E+00 -9.76215E+00 -9.83860E+00 -9.91384E+00 -9.98776E+00 -1.00604E+01 -1.01317E+01 -1.02021E+01 -1.02716E+01 -1.03402E+01
  -1.04079E+01 -1.04746E+01 -1.05404E+01 -1.06056E+01 -1.06701E+01 -1.07340E+01 -1.07971E+01 -1.08595E+01 -1.09213E+01 -1.09827E+01
  -1.10437E+01 -1.11041E+01 -1.11640E+01 -1.12233E+01 -1.12823E+01 -1.13410E+01 -1.13994E+01 -1.14573E+01 -1.15148E+01 -1.15719E+01
  -1.16289E+01 -1.16858E+01 -1.17423E+01 -1.17985E+01 -1.18544E+01 -1.19102E+01 -1.19660E+01 -1.20217E+01
 NY background values follow
     1.882E+01    1.873E+01    1.864E+01    1.855E+01    1.846E+01    1.837E+01    1.828E+01    1.819E+01    1.810E+01    1.801E+01
     1.792E+01    1.783E+01    1.774E+01    1.765E+01    1.756E+01    1.747E+01    1.738E+01    1.728E+01    1.719E+01    1.710E+01
     1.701E+01    1.692E+01    1.683E+01    1.674E+01    1.665E+01    1.656E+01    1.647E+01    1.638E+01    1.629E+01    1.620E+01
     1.611E+01    1.602E+01    1.593E+01    1.584E+01    1.575E+01    1.566E+01    1.556E+01    1.547E+01    1.538E+01    1.529E+01
     1.520E+01    1.511E+01    1.502E+01    1.493E+01    1.484E+01    1.475E+01    1.466E+01    1.457E+01    1.448E+01    1.439E+01
     1.430E+01    1.421E+01    1.412E+01    1.403E+01    1.394E+01    1.385E+01    1.376E+01    1.367E+01    1.358E+01    1.349E+01
     1.340E+01    1.331E+01    1.322E+01    1.313E+01    1.304E+01    1.295E+01    1.286E+01    1.277E+01    1.268E+01    1.259E+01
     1.250E+01    1.241E+01    1.232E+01    1.223E+01    1.214E+01    1.205E+01    1.196E+01    1.187E+01    1.178E+01    1.169E+01
     1.161E+01    1.152E+01    1.143E+01    1.134E+01    1.125E+01    1.116E+01    1.107E+01    1.098E+01    1.090E+01    1.081E+01
     1.072E+01    1.063E+01    1.054E+01    1.045E+01    1.037E+01    1.028E+01    1.019E+01    1.010E+01    1.002E+01    9.927E+00
     9.840E+00    9.753E+00    9.665E+00    9.578E+00    9.491E+00    9.404E+00    9.317E+00    9.231E+00    9.144E+00    9.057E+00
     8.971E+00    8.885E+00    8.798E+00    8.712E+00    8.626E+00    8.540E+00    8.455E+00    8.369E+00    8.283E+00    8.198E+00
     8.113E+00    8.028E+00    7.943E+00    7.858E+00    7.773E+00    7.688E+00    7.604E+00    7.519E+00    7.435E+00    7.351E+00
     7.267E+00    7.183E+00    7.099E+00    7.016E+00    6.932E+00    6.849E+00    6.766E+00    6.683E+00    6.600E+00    6.517E+00
     6.435E+00    6.352E+00    6.270E+00    6.188E+00    6.106E+00    6.024E+00    5.943E+00    5.861E+00    5.780E+00    5.699E+00
     5.618E+00    5.537E+00    5.457E+00    5.376E+00    5.296E+00    5.216E+00    5.136E+00    5.056E+00    4.977E+00    4.897E+00
     4.818E+00    4.739E+00    4.660E+00    4.581E+00    4.503E+00    4.425E+00    4.347E+00    4.269E+00    4.191E+00    4.114E+00
     4.036E+00    3.959E+00    3.882E+00    3.806E+00    3.729E+00    3.653E+00    3.577E+00    3.501E+00    3.425E+00    3.350E+00
     3.274E+00    3.199E+00    3.125E+00    3.050E+00    2.976E+00    2.901E+00    2.827E+00    2.754E+00    2.680E+00    2.607E+00
     2.534E+00    2.461E+00    2.388E+00    2.316E+00    2.243E+00    2.171E+00    2.099E+00    2.028E+00    1.956E+00    1.885E+00
     1.814E+00    1.743E+00    1.672E+00    1.602E+00    1.532E+00    1.462E+00    1.392E+00    1.322E+00    1.253E+00    1.183E+00
     1.114E+00    1.045E+00    9.765E-01    9.080E-01    8.397E-01    7.715E-01    7.035E-01    6.358E-01    5.682E-01    5.008E-01
     4.336E-01    3.665E-01    2.997E-01    2.330E-01    1.665E-01    1.002E-01    3.408E-02   -3.187E-02   -9.764E-02   -1.632E-01
    -2.286E-01   -2.939E-01   -3.589E-01   -4.238E-01   -4.886E-01   -5.531E-01   -6.175E-01   -6.817E-01   -7.457E-01   -8.096E-01
    -8.733E-01   -9.368E-01   -1.000E+00   -1.063E+00   -1.126E+00   -1.189E+00   -1.252E+00   -1.315E+00   -1.377E+00   -1.439E+00
    -1.501E+00   -1.563E+00   -1.625E+00   -1.686E+00   -1.748E+00   -1.809E+00   -1.870E+00   -1.931E+00   -1.992E+00   -2.053E+00
    -2.113E+00   -2.173E+00   -2.234E+00   -2.294E+00   -2.354E+00   -2.413E+00   -2.473E+00   -2.532E+00   -2.592E+00   -2.651E+00
    -2.710E+00   -2.769E+00   -2.828E+00   -2.886E+00   -2.945E+00   -3.003E+00   -3.061E+00   -3.119E+00   -3.177E+00   -3.235E+00
    -3.293E+00   -3.350E+00   -3.407E+00   -3.465E+00   -3.522E+00   -3.579E+00   -3.636E+00   -3.692E+00   -3.749E+00   -3.805E+00
    -3.862E+00   -3.918E+00   -3.974E+00   -4.030E+00   -4.085E+00   -4.141E+00   -4.197E+00   -4.252E+00   -4.307E+00   -4.363E+00
    -4.418E+00   -4.472E+00   -4.527E+00   -4.582E+00   -4.636E+00   -4.691E+00   -4.745E+00   -4.799E+00   -4.853E+00   -4.907E+00
    -4.961E+00   -5.015E+00   -5.068E+00   -5.122E+00   -5.175E+00   -5.228E+00   -5.282E+00   -5.335E+00   -5.387E+00   -5.440E+00
    -5.493E+00   -5.546E+00   -5.598E+00   -5.650E+00   -5.703E+00   -5.755E+00   -5.807E+00   -5.859E+00   -5.910E+00   -5.962E+00
    -6.014E+00   -6.065E+00   -6.116E+00   -6.168E+00   -6.219E+00   -6.270E+00   -6.321E+00   -6.372E+00   -6.422E+00   -6.473E+00
    -6.524E+00   -6.574E+00   -6.624E+00   -6.675E+00   -6.725E+00   -6.775E+00   -6.825E+00   -6.874E+00   -6.924E+00   -6.974E+00
    -7.023E+00   -7.073E+00   -7.122E+00   -7.171E+00   -7.221E+00   -7.270E+00   -7.319E+00   -7.368E+00   -7.416E+00   -7.465E+00
    -7.514E+00   -7.562E+00   -7.611E+00   -7.659E+00   -7.707E+00   -7.755E+00   -7.803E+00   -7.851E+00   -7.899E+00   -7.947E+00
    -7.995E+00   -8.042E+00   -8.090E+00   -8.137E+00   -8.185E+00   -8.232E+00   -8.279E+00   -8.326E+00   -8.373E+00   -8.420E+00
    -8.467E+00   -8.514E+00   -8.561E+00   -8.607E+00   -8.654E+00   -8.700E+00   -8.746E+00   -8.793E+00   -8.839E+00   -8.885E+00
    -8.931E+00   -8.977E+00   -9.022E+00   -9.068E+00   -9.114E+00   -9.159E+00   -9.205E+00   -9.250E+00   -9.295E+00   -9.341E+00
    -9.386E+00   -9.431E+00   -9.476E+00   -9.521E+00   -9.565E+00   -9.610E+00   -9.655E+00   -9.699E+00   -9.744E+00   -9.788E+00
    -9.832E+00   -9.876E+00   -9.921E+00   -9.965E+00   -1.001E+01   -1.005E+01   -1.010E+01   -1.014E+01   -1.018E+01   -1.023E+01
    -1.027E+01   -1.031E+01   -1.036E+01   -1.040E+01   -1.044E+01   -1.049E+01   -1.053E+01   -1.057E+01   -1.062E+01   -1.066E+01
    -1.070E+01   -1.075E+01   -1.079E+01   -1.083E+01   -1.087E+01   -1.092E+01   -1.096E+01   -1.100E+01   -1.104E+01   -1.109E+01
    -1.113E+01   -1.117E+01   -1.121E+01   -1.125E+01   -1.130E+01   -1.134E+01   -1.138E+01   -1.142E+01   -1.146E+01   -1.151E+01
    -1.155E+01   -1.159E+01   -1.163E+01   -1.167E+01   -1.172E+01   -1.176E+01   -1.180E+01   -1.184E+01   -1.188E+01   -1.192E+01
    -1.197E+01   -1.201E+01   -1.205E+01   -1.209E+01   -1.213E+01   -1.217E+01   -1.221E+01   -1.226E+01   -1.230E+01   -1.234E+01
    -1.238E+01   -1.242E+01   -1.246E+01   -1.250E+01   -1.254E+01   -1.259E+01   -1.263E+01   -1.267E+01   -1.271E+01   -1.275E+01
    -1.279E+01   -1.283E+01   -1.287E+01   -1.291E+01   -1.296E+01   -1.300E+01   -1.304E+01   -1.308E+01   -1.312E+01   -1.316E+01
    -1.320E+01   -1.324E+01   -1.328E+01   -1.332E+01   -1.337E+01   -1.341E+01   -1.345E+01   -1.349E+01
 Asp      Conc. = 2.35E+02
