 LCModel (Version 6.3-1L) Copyright: S.W. Provencher.          Ref.: Magn. Reson. Med. 30:672-679 (1993).                
 Slice#3 Row#12 Col#12  PD_05_press_2_raw_act
 36 lines in following concentration table = NCONC+1
    Conc.  %SD /Cr+PCr  Metabolite                                         
    0.000 999%   0.000 Ala                                                 
   11.055  33%   0.126 Asp                                                 
    0.000 999%   0.000 Cr                                                  
   88.008  20%   1.000 PCr                                                 
    6.667  33% 7.6E-02 GABA                                                
    6.591  34% 7.5E-02 Glc                                                 
    0.000 999%   0.000 Gln                                                 
   66.840 122%   0.759 Glu                                                 
    0.000 999%   0.000 GPC                                                 
   26.626  25%   0.303 PCh                                                 
    1.907 999% 2.2E-02 GSH                                                 
    0.000 999%   0.000 Ins                                                 
    0.000 999%   0.000 Lac                                                 
    0.000 999%   0.000 NAA                                                 
   53.605  37%   0.609 NAAG                                                
    2.302  32% 2.6E-02 Scyllo                                              
   11.001  33%   0.125 Tau                                                 
    8.822  53%   0.100 -CrCH2                                              
   26.626  25%   0.303 GPC+PCh                                             
   53.605  37%   0.609 NAA+NAAG                                            
   88.008  20%   1.000 Cr+PCr                                              
   66.840 122%   0.759 Glu+Gln                                             
 1.47E+03  10%  16.656 Lip13a                                              
    0.000 999%   0.000 Lip13b                                              
  255.099  26%   2.899 Lip09                                               
    0.000 999%   0.000 MM09                                                
   70.595  95%   0.802 Lip20                                               
    0.000 999%   0.000 MM20                                                
    0.544 999% 6.2E-03 MM12                                                
   15.669 200%   0.178 MM14                                                
    0.000 999%   0.000 MM17                                                
 1.47E+03  10%  16.656 Lip13a+Lip13b                                       
 1.48E+03  10%  16.840 MM14+Lip13a+Lip13b+MM12                             
  255.099  26%   2.899 MM09+Lip09                                          
   70.595  95%   0.802 MM20+Lip20                                          
   6 lines in following misc. output table
  FWHM = 0.046 ppm    S/N =   2                                            
  Data shift =-0.023 ppm                                                   
  Ph: -73 deg      19.8 deg/ppm                                            
  alphaB,S = 8.5E+01,   5.1E+01                                            
   14 spline knots.   Ns = 5(1)                                            
   2 inflections.     1 extrema                                            
  498 points on ppm-axis = NY
      4.000000     3.992357     3.984714     3.977070     3.969427     3.961784     3.954141     3.946497     3.938854     3.931211
      3.923568     3.915925     3.908281     3.900638     3.892995     3.885352     3.877708     3.870065     3.862422     3.854779
      3.847136     3.839492     3.831849     3.824206     3.816563     3.808919     3.801276     3.793633     3.785990     3.778347
      3.770703     3.763060     3.755417     3.747774     3.740130     3.732487     3.724844     3.717201     3.709558     3.701914
      3.694271     3.686628     3.678985     3.671341     3.663698     3.656055     3.648412     3.640769     3.633125     3.625482
      3.617839     3.610196     3.602552     3.594909     3.587266     3.579623     3.571980     3.564336     3.556693     3.549050
      3.541407     3.533763     3.526120     3.518477     3.510834     3.503191     3.495547     3.487904     3.480261     3.472618
      3.464974     3.457331     3.449688     3.442045     3.434402     3.426758     3.419115     3.411472     3.403829     3.396185
      3.388542     3.380899     3.373256     3.365613     3.357969     3.350326     3.342683     3.335040     3.327396     3.319753
      3.312110     3.304467     3.296824     3.289180     3.281537     3.273894     3.266251     3.258607     3.250964     3.243321
      3.235678     3.228034     3.220391     3.212748     3.205105     3.197462     3.189818     3.182175     3.174532     3.166889
      3.159245     3.151602     3.143959     3.136316     3.128673     3.121029     3.113386     3.105743     3.098100     3.090456
      3.082813     3.075170     3.067527     3.059884     3.052240     3.044597     3.036954     3.029311     3.021667     3.014024
      3.006381     2.998738     2.991095     2.983451     2.975808     2.968165     2.960522     2.952878     2.945235     2.937592
      2.929949     2.922306     2.914662     2.907019     2.899376     2.891733     2.884089     2.876446     2.868803     2.861160
      2.853517     2.845873     2.838230     2.830587     2.822944     2.815300     2.807657     2.800014     2.792371     2.784728
      2.777084     2.769441     2.761798     2.754155     2.746511     2.738868     2.731225     2.723582     2.715939     2.708295
      2.700652     2.693009     2.685366     2.677722     2.670079     2.662436     2.654793     2.647150     2.639506     2.631863
      2.624220     2.616577     2.608933     2.601290     2.593647     2.586004     2.578361     2.570717     2.563074     2.555431
      2.547788     2.540144     2.532501     2.524858     2.517215     2.509572     2.501928     2.494285     2.486642     2.478999
      2.471355     2.463712     2.456069     2.448426     2.440783     2.433139     2.425496     2.417853     2.410210     2.402566
      2.394923     2.387280     2.379637     2.371994     2.364350     2.356707     2.349064     2.341421     2.333777     2.326134
      2.318491     2.310848     2.303205     2.295561     2.287918     2.280275     2.272632     2.264988     2.257345     2.249702
      2.242059     2.234416     2.226772     2.219129     2.211486     2.203843     2.196199     2.188556     2.180913     2.173270
      2.165627     2.157983     2.150340     2.142697     2.135054     2.127410     2.119767     2.112124     2.104481     2.096838
      2.089194     2.081551     2.073908     2.066265     2.058621     2.050978     2.043335     2.035692     2.028049     2.020405
      2.012762     2.005119     1.997476     1.989833     1.982190     1.974546     1.966903     1.959260     1.951617     1.943974
      1.936331     1.928688     1.921045     1.913402     1.905759     1.898115     1.890472     1.882829     1.875186     1.867543
      1.859900     1.852257     1.844614     1.836971     1.829327     1.821684     1.814041     1.806398     1.798755     1.791112
      1.783469     1.775826     1.768183     1.760540     1.752896     1.745253     1.737610     1.729967     1.722324     1.714681
      1.707038     1.699395     1.691752     1.684108     1.676465     1.668822     1.661179     1.653536     1.645893     1.638250
      1.630607     1.622964     1.615321     1.607677     1.600034     1.592391     1.584748     1.577105     1.569462     1.561819
      1.554176     1.546533     1.538890     1.531246     1.523603     1.515960     1.508317     1.500674     1.493031     1.485388
      1.477745     1.470102     1.462458     1.454815     1.447172     1.439529     1.431886     1.424243     1.416600     1.408957
      1.401314     1.393671     1.386027     1.378384     1.370741     1.363098     1.355455     1.347812     1.340169     1.332526
      1.324883     1.317240     1.309596     1.301953     1.294310     1.286667     1.279024     1.271381     1.263738     1.256095
      1.248452     1.240808     1.233165     1.225522     1.217879     1.210236     1.202593     1.194950     1.187307     1.179664
      1.172021     1.164377     1.156734     1.149091     1.141448     1.133805     1.126162     1.118519     1.110876     1.103233
      1.095590     1.087946     1.080303     1.072660     1.065017     1.057374     1.049731     1.042088     1.034445     1.026802
      1.019158     1.011515     1.003872     0.996229     0.988586     0.980943     0.973300     0.965657     0.958014     0.950371
      0.942727     0.935084     0.927441     0.919798     0.912155     0.904512     0.896869     0.889226     0.881583     0.873940
      0.866296     0.858653     0.851010     0.843367     0.835724     0.828081     0.820438     0.812795     0.805152     0.797508
      0.789865     0.782222     0.774579     0.766936     0.759293     0.751650     0.744007     0.736364     0.728721     0.721077
      0.713434     0.705791     0.698148     0.690505     0.682862     0.675219     0.667576     0.659933     0.652290     0.644646
      0.637003     0.629360     0.621717     0.614074     0.606431     0.598788     0.591145     0.583502     0.575858     0.568215
      0.560572     0.552929     0.545286     0.537643     0.530000     0.522357     0.514714     0.507071     0.499427     0.491784
      0.484141     0.476498     0.468855     0.461212     0.453569     0.445925     0.438282     0.430639     0.422996     0.415353
      0.407710     0.400067     0.392424     0.384780     0.377137     0.369494     0.361851     0.354208     0.346565     0.338922
      0.331278     0.323635     0.315992     0.308349     0.300706     0.293063     0.285420     0.277777     0.270133     0.262490
      0.254847     0.247204     0.239561     0.231918     0.224275     0.216631     0.208988     0.201345
 NY phased data points follow
  -2.39281E+00 -1.50029E+00 -1.78258E+00 -1.87895E+00 -1.17618E+00 -9.19137E-01 -8.12708E-01 -1.02485E+00 -7.65395E-01  1.77010E+00
   1.33678E+00 -1.75345E+00 -1.26897E+00 -2.19873E+00 -4.70033E-01 -1.54052E+00 -4.11999E+00 -2.70266E+00 -3.02671E+00 -3.46120E+00
  -7.11327E-01 -2.85720E+00 -3.33886E+00 -1.29190E+00 -2.08747E+00 -3.91055E+00 -3.72661E+00 -4.44013E+00 -2.26808E+00 -3.13232E-01
   1.54840E-01 -2.49269E+00 -1.22533E+00 -2.99615E+00 -3.10252E+00  8.98768E-01  4.33517E-01 -2.41112E+00 -3.85352E+00 -2.50618E+00
   2.18954E-01 -2.21433E+00 -7.41720E-01 -1.96734E+00 -3.95775E+00 -1.98155E+00  3.21767E-01 -3.02352E+00 -2.74369E+00 -2.47439E+00
  -1.05530E+00 -1.06692E+00 -1.85494E+00 -2.52823E+00 -1.04670E+00 -2.44500E+00 -2.34023E+00 -3.42287E+00 -2.29779E+00  6.09033E-01
  -2.19482E+00 -9.50963E-01 -1.18947E+00 -2.60047E+00 -4.99532E+00 -4.27854E+00 -2.34364E+00 -1.95230E+00 -1.86061E+00 -1.05380E+00
  -2.91547E+00 -2.53004E+00  1.68706E-01 -2.48802E+00 -1.67195E+00 -4.89977E+00 -3.29746E+00  5.66155E-01 -2.74501E+00 -4.48440E-01
  -2.76998E+00 -6.27660E-01  7.63380E-02  1.95840E+00 -2.64909E-01 -1.82480E+00 -1.89509E+00  1.08912E+00 -2.13228E+00  1.60772E+00
  -1.70144E+00 -3.37471E-01 -2.78951E+00 -2.75274E+00  2.63138E-01  3.14489E-01 -2.61359E-01 -2.10778E+00  1.01146E+00 -2.07300E+00
  -6.59169E-01  1.86827E+00  2.64686E+00  1.66777E+00 -5.59547E-01  1.23937E+00  5.82456E-02 -1.47053E+00 -1.99401E+00 -1.94207E+00
  -7.36499E-01 -1.69011E+00 -1.21814E+00 -1.70793E+00 -1.65703E+00 -1.74477E+00 -9.85995E-01 -2.49371E+00 -1.11569E+00 -2.75395E+00
  -6.38571E-01 -1.78171E+00 -8.45757E-01 -2.92669E-01  1.83271E-01  2.75564E+00  7.99782E-01  2.11310E+00  1.93289E+00  5.34400E-01
   6.24286E-01 -2.99283E+00  9.29126E-02 -3.71569E+00 -2.69238E+00 -3.19009E+00 -3.16040E+00 -2.75794E+00 -2.70887E+00 -1.41075E+00
  -2.31617E+00 -7.93418E-01  7.59671E-01  2.46487E+00 -2.17185E+00 -7.99772E-01  5.84489E-01 -2.20122E+00 -1.39649E+00 -6.13291E-01
  -1.01193E+00 -9.59739E-01  6.18824E-01 -4.79687E-01 -3.49443E+00  6.73778E-01 -1.41018E+00 -9.06841E-01 -2.18884E+00 -1.41450E+00
  -2.91218E+00 -2.96618E+00 -4.59161E+00  3.86179E-02 -4.91103E-01 -3.07792E+00 -2.40547E+00 -3.97569E+00 -2.24274E+00 -2.18905E+00
   3.23960E-01 -2.22038E+00 -4.63314E-01 -9.45376E-01 -4.48448E-01 -1.41320E+00 -4.24220E+00 -8.29585E-01 -1.24480E+00 -2.55821E-01
  -9.00005E-01 -2.92506E+00 -2.88012E+00 -1.43096E+00  5.24640E-02 -1.91631E+00 -1.25909E+00  3.85344E-02 -3.33625E-01 -2.80777E+00
  -3.64373E-01 -6.41258E-01 -5.02151E-01  2.83865E-01 -1.69268E+00  2.97978E+00 -1.39001E+00 -1.54502E+00 -9.46962E-01 -2.64675E-01
  -1.57568E+00 -2.13062E+00  4.10111E-01 -7.51876E-01 -7.25532E-01 -2.11660E+00 -2.37319E+00 -1.44349E+00 -3.17201E+00 -4.79719E-01
  -1.35633E+00 -3.07995E+00 -2.85965E+00  8.05899E-01 -2.62497E+00 -1.92434E-01 -4.32144E-01 -2.97773E-01 -9.58185E-01 -3.50404E+00
  -3.31197E+00 -2.35916E+00 -2.42556E+00 -4.30364E-01 -1.53399E+00  1.77923E+00 -4.15850E-01 -1.38683E+00 -2.66255E+00 -3.07638E-01
  -1.21072E+00 -1.76765E+00 -1.46189E+00  1.01034E-01 -3.69969E-01 -8.08610E-01 -5.00347E-01 -2.25232E+00 -1.57156E+00 -1.18845E+00
  -1.95734E+00 -9.29599E-01 -1.51772E+00 -1.67939E+00  4.24476E-01 -8.33598E-01 -4.35103E-01 -7.22287E-01 -2.67281E+00 -1.88454E+00
  -2.25788E-01  1.68538E+00  4.86764E-01 -1.39953E-01  9.07782E-01 -1.32472E+00 -2.56906E-01  1.47057E+00  2.06344E+00  1.91486E+00
   2.72952E+00 -2.44554E+00 -5.36664E-01 -4.32730E+00 -3.39563E+00 -4.72792E+00 -4.25715E+00 -5.09576E+00 -4.68460E+00 -2.95107E+00
  -1.05962E+00  6.80185E-01 -9.49276E-01 -1.52642E+00 -4.54987E+00  1.56089E-01 -3.57880E+00 -1.99761E+00 -1.48626E+00 -6.76237E-01
  -1.19704E+00 -1.43292E+00 -1.11111E+00 -1.44461E+00  1.19142E+00 -1.36474E+00 -8.96874E-01 -2.53698E+00  2.02657E-01  1.05831E+00
   1.26075E+00 -2.45450E+00 -8.79882E-01 -2.54934E+00 -3.69359E+00 -2.36858E+00  1.78861E+00 -9.33879E-01 -2.83379E+00 -9.69594E-01
  -1.69096E+00 -3.10341E+00  6.08965E-01 -2.74722E+00  2.44019E-01 -2.68224E-01 -3.61456E+00 -5.28848E-01 -2.25398E+00 -1.07575E+00
  -3.61063E+00 -2.51274E+00 -2.13306E-01 -3.16151E-02  2.12502E+00 -4.72519E-01  2.74430E-01 -1.89969E+00 -1.40712E+00 -1.68838E+00
   7.27798E-01 -1.73420E+00  4.69268E-01  2.06504E-01  1.78116E+00  3.70855E-01  1.85996E+00  3.64943E+00  4.83213E-01  5.26006E-01
   3.71225E+00  1.80061E+00  1.31286E+00  1.99218E+00  1.41837E+00  2.06234E+00  1.58676E+00  4.81129E+00 -6.62236E-01  3.87008E+00
   1.35052E+00  2.93819E+00  2.32482E+00  1.48872E+00  2.83900E+00  2.91013E+00  9.11413E-01  2.79411E+00  3.59945E+00  6.72397E+00
   6.56894E+00  5.21420E+00  5.00354E+00  4.32843E+00  3.67297E+00  3.84170E+00  5.32198E+00  3.27501E+00  6.21932E+00  7.69239E+00
   4.29475E+00  9.12019E+00  3.57522E+00  4.69151E+00  2.00180E+00  3.51478E+00  2.26116E+00  5.52500E+00  3.68918E+00  2.82899E+00
   1.19315E+00  4.40573E+00  3.63283E+00  1.18774E+00  2.45130E+00  2.37179E+00  2.39104E+00  1.13964E+00  1.17855E+00  1.43202E+00
   1.75425E+00  1.94398E+00  2.03711E+00  3.54903E+00 -7.87454E-01  3.90452E-01  3.83934E+00 -5.51909E-01  2.92835E+00  1.80904E+00
   6.75147E-01  2.42891E+00  1.70387E+00  5.78731E-01 -2.01797E-01  4.54865E-01  3.64645E-02  6.92640E-01 -4.23021E-01 -7.85930E-01
   4.10737E-01  1.65746E+00 -1.91612E+00  6.70562E-01  5.77521E-01 -1.36538E+00  1.95262E+00  5.74661E-01 -9.11963E-01  2.09393E+00
   2.35662E+00 -2.81546E-01  1.48045E+00 -2.45149E+00  1.08587E+00 -9.80219E-01 -2.25335E-01 -1.23947E+00 -1.10519E+00  1.29597E-01
  -1.79401E-03  5.58342E-01 -8.97446E-01 -3.00904E+00 -4.08820E-01  2.07250E-01 -1.07791E+00 -4.21498E-01 -1.55344E+00 -4.89597E-02
  -5.72131E-02 -8.74975E-01  9.01609E-01 -2.52281E+00  6.43555E-01 -3.90436E-01 -1.14625E+00  1.89800E+00 -1.12635E+00  1.82147E+00
  -4.70632E-01 -2.96461E+00  3.32181E+00  5.09057E-01 -4.29006E-01 -1.07208E+00 -1.86826E-01  1.12059E+00 -4.57705E-01 -1.15875E+00
  -1.90972E+00 -2.31017E+00  5.98874E-03 -1.88401E+00 -1.02078E+00  1.90806E-01  2.76770E-01 -4.34562E+00 -5.69076E-01  7.42786E-01
  -2.63308E+00  1.01340E+00 -1.08797E-01 -1.37480E+00 -1.46352E+00  3.18763E-01 -3.11549E+00 -1.27606E+00  1.29219E+00 -2.01384E+00
   1.07192E+00  5.19223E-01 -7.32132E-01 -1.77938E-01  1.19369E+00 -1.07858E+00 -1.83169E+00  1.12933E-01 -3.25194E-01 -4.23634E-01
  -3.28749E+00 -9.82786E-01  4.61971E-01 -1.59397E+00  9.54822E-01 -3.38575E+00 -1.71851E+00  4.25952E-01 -7.40066E-01 -2.06221E+00
  -2.33530E+00 -3.26869E+00  1.86346E+00 -1.14390E-01  1.42695E+00 -6.07198E-01 -2.63605E+00 -1.15221E+00
 NY points of the fit to the data follow
  -1.90033E+00 -1.88786E+00 -1.86354E+00 -1.78482E+00 -1.52406E+00 -1.09318E+00 -6.17236E-01 -2.17338E-01  1.77852E-02  5.01724E-02
  -1.12369E-01 -4.25818E-01 -8.17852E-01 -1.20223E+00 -1.50394E+00 -1.68773E+00 -1.76683E+00 -1.79459E+00 -1.80313E+00 -1.79957E+00
  -1.78585E+00 -1.76112E+00 -1.73257E+00 -1.71852E+00 -1.72608E+00 -1.74954E+00 -1.77783E+00 -1.79468E+00 -1.78502E+00 -1.74294E+00
  -1.68055E+00 -1.62027E+00 -1.58352E+00 -1.58666E+00 -1.63100E+00 -1.69434E+00 -1.75045E+00 -1.78421E+00 -1.79360E+00 -1.78124E+00
  -1.75787E+00 -1.73586E+00 -1.72281E+00 -1.72236E+00 -1.73198E+00 -1.74463E+00 -1.75582E+00 -1.76089E+00 -1.75844E+00 -1.75075E+00
  -1.73999E+00 -1.72757E+00 -1.71575E+00 -1.70662E+00 -1.70162E+00 -1.70148E+00 -1.70503E+00 -1.71032E+00 -1.71524E+00 -1.71759E+00
  -1.71674E+00 -1.71266E+00 -1.70560E+00 -1.69820E+00 -1.69125E+00 -1.68673E+00 -1.68616E+00 -1.68858E+00 -1.69221E+00 -1.69548E+00
  -1.69272E+00 -1.67874E+00 -1.65697E+00 -1.63443E+00 -1.61813E+00 -1.61321E+00 -1.62014E+00 -1.63454E+00 -1.65028E+00 -1.66202E+00
  -1.66412E+00 -1.64538E+00 -1.60436E+00 -1.55509E+00 -1.51251E+00 -1.48627E+00 -1.47918E+00 -1.48849E+00 -1.51083E+00 -1.54329E+00
  -1.58056E+00 -1.61522E+00 -1.64047E+00 -1.65018E+00 -1.64115E+00 -1.61590E+00 -1.57157E+00 -1.47061E+00 -1.14714E+00 -5.36612E-01
   1.86935E-01  8.29009E-01  1.24085E+00  1.35120E+00  1.16049E+00  7.22522E-01  1.35732E-01 -4.71150E-01 -9.72646E-01 -1.29447E+00
  -1.44076E+00 -1.48938E+00 -1.51071E+00 -1.52228E+00 -1.52840E+00 -1.53163E+00 -1.53281E+00 -1.53090E+00 -1.52467E+00 -1.50967E+00
  -1.46781E+00 -1.29634E+00 -7.88620E-01 -2.61741E-02  7.68006E-01  1.39283E+00  1.71537E+00  1.69097E+00  1.34704E+00  7.67326E-01
   8.11688E-02 -5.60719E-01 -1.03761E+00 -1.30533E+00 -1.40781E+00 -1.44368E+00 -1.45810E+00 -1.46152E+00 -1.45921E+00 -1.45378E+00
  -1.44636E+00 -1.43680E+00 -1.42615E+00 -1.41649E+00 -1.40891E+00 -1.40350E+00 -1.39987E+00 -1.39789E+00 -1.39777E+00 -1.40201E+00
  -1.41201E+00 -1.42386E+00 -1.43301E+00 -1.43512E+00 -1.42752E+00 -1.41544E+00 -1.40414E+00 -1.39668E+00 -1.39508E+00 -1.40052E+00
  -1.41274E+00 -1.42901E+00 -1.44332E+00 -1.45155E+00 -1.45470E+00 -1.45804E+00 -1.46174E+00 -1.46111E+00 -1.45336E+00 -1.43905E+00
  -1.42388E+00 -1.41465E+00 -1.41155E+00 -1.41305E+00 -1.41786E+00 -1.42519E+00 -1.43404E+00 -1.44415E+00 -1.45517E+00 -1.45959E+00
  -1.45242E+00 -1.43419E+00 -1.40783E+00 -1.37676E+00 -1.34429E+00 -1.31417E+00 -1.28913E+00 -1.26939E+00 -1.25756E+00 -1.25624E+00
  -1.26362E+00 -1.27663E+00 -1.29396E+00 -1.31402E+00 -1.33101E+00 -1.33640E+00 -1.32792E+00 -1.30802E+00 -1.28170E+00 -1.25451E+00
  -1.23039E+00 -1.21119E+00 -1.20247E+00 -1.20688E+00 -1.22857E+00 -1.26870E+00 -1.31890E+00 -1.36809E+00 -1.40316E+00 -1.40753E+00
  -1.36514E+00 -1.26035E+00 -1.12089E+00 -9.89964E-01 -9.04226E-01 -8.86606E-01 -9.48647E-01 -1.09296E+00 -1.29148E+00 -1.48253E+00
  -1.60721E+00 -1.63726E+00 -1.57251E+00 -1.43986E+00 -1.27860E+00 -1.12397E+00 -1.00988E+00 -9.53196E-01 -9.48654E-01 -9.75162E-01
  -1.00162E+00 -1.00710E+00 -9.90796E-01 -9.63176E-01 -9.34165E-01 -9.17070E-01 -9.21253E-01 -9.52595E-01 -1.00717E+00 -1.06106E+00
  -1.09113E+00 -1.08741E+00 -1.05177E+00 -9.92903E-01 -9.27056E-01 -8.73076E-01 -8.44458E-01 -8.40947E-01 -8.47259E-01 -8.40550E-01
  -7.62072E-01 -4.81969E-01 -2.30947E-02  4.70645E-01  8.67860E-01  1.08188E+00  1.08303E+00  8.89183E-01  5.53429E-01  1.55895E-01
  -2.19002E-01 -5.02731E-01 -6.66777E-01 -7.36106E-01 -7.72521E-01 -8.09054E-01 -8.46395E-01 -8.79210E-01 -9.02067E-01 -9.10976E-01
  -9.05504E-01 -8.89779E-01 -8.72016E-01 -8.58451E-01 -8.52623E-01 -8.56279E-01 -8.68534E-01 -8.85509E-01 -9.01086E-01 -9.10016E-01
  -9.10828E-01 -9.04199E-01 -8.93202E-01 -8.81609E-01 -8.71951E-01 -8.65514E-01 -8.62634E-01 -8.60840E-01 -8.57307E-01 -8.50452E-01
  -8.40050E-01 -8.27065E-01 -8.12906E-01 -7.99076E-01 -7.87761E-01 -7.79588E-01 -7.73547E-01 -7.67956E-01 -7.60889E-01 -7.51031E-01
  -7.38242E-01 -7.22942E-01 -7.05729E-01 -6.87347E-01 -6.68484E-01 -6.49537E-01 -6.30455E-01 -6.10761E-01 -5.90055E-01 -5.68127E-01
  -5.44816E-01 -5.20018E-01 -4.93617E-01 -4.65476E-01 -4.35416E-01 -4.03241E-01 -3.68726E-01 -3.31642E-01 -2.91738E-01 -2.48750E-01
  -2.02385E-01 -1.52321E-01 -9.81965E-02 -3.96166E-02  2.38615E-02  9.27234E-02  1.67506E-01  2.48784E-01  3.37177E-01  4.33333E-01
   5.37941E-01  6.51704E-01  7.75331E-01  9.09493E-01  1.05481E+00  1.21180E+00  1.38085E+00  1.56219E+00  1.75578E+00  1.96132E+00
   2.17813E+00  2.40519E+00  2.64103E+00  2.88372E+00  3.13089E+00  3.37970E+00  3.62689E+00  3.86885E+00  4.10167E+00  4.32128E+00
   4.52355E+00  4.70442E+00  4.86009E+00  4.98712E+00  5.08261E+00  5.14429E+00  5.17066E+00  5.16101E+00  5.11549E+00  5.03512E+00
   4.92173E+00  4.77788E+00  4.60678E+00  4.41212E+00  4.19799E+00  3.96870E+00  3.72860E+00  3.48200E+00  3.23298E+00  2.98532E+00
   2.74244E+00  2.50729E+00  2.28236E+00  2.06966E+00  1.87071E+00  1.68660E+00  1.51805E+00  1.36537E+00  1.22863E+00  1.10760E+00
   1.00189E+00  9.10958E-01  8.34139E-01  7.70695E-01  7.19832E-01  6.80710E-01  6.52461E-01  6.34188E-01  6.24970E-01  6.23840E-01
   6.29797E-01  6.41790E-01  6.58730E-01  6.79475E-01  7.02847E-01  7.27628E-01  7.52588E-01  7.76500E-01  7.98172E-01  8.16469E-01
   8.30345E-01  8.38871E-01  8.41267E-01  8.36928E-01  8.25446E-01  8.06611E-01  7.80425E-01  7.47089E-01  7.06998E-01  6.60717E-01
   6.08958E-01  5.52539E-01  4.92354E-01  4.29337E-01  3.64433E-01  2.98558E-01  2.32580E-01  1.67282E-01  1.03361E-01  4.14041E-02
  -1.81020E-02 -7.47830E-02 -1.28366E-01 -1.78682E-01 -2.25641E-01 -2.69234E-01 -3.09505E-01 -3.46553E-01 -3.80513E-01 -4.11551E-01
  -4.39847E-01 -4.65592E-01 -4.88975E-01 -5.10187E-01 -5.29411E-01 -5.46826E-01 -5.62596E-01 -5.76872E-01 -5.89792E-01 -6.01486E-01
  -6.12070E-01 -6.21652E-01 -6.30324E-01 -6.38172E-01 -6.45270E-01 -6.51688E-01 -6.57488E-01 -6.62727E-01 -6.67452E-01 -6.71705E-01
  -6.75526E-01 -6.78953E-01 -6.82017E-01 -6.84749E-01 -6.87170E-01 -6.89307E-01 -6.91178E-01 -6.92806E-01 -6.94209E-01 -6.95403E-01
  -6.96399E-01 -6.97212E-01 -6.97853E-01 -6.98338E-01 -6.98673E-01 -6.98870E-01 -6.98933E-01 -6.98874E-01 -6.98699E-01 -6.98417E-01
  -6.98033E-01 -6.97551E-01 -6.96976E-01 -6.96316E-01 -6.95573E-01 -6.94755E-01 -6.93862E-01 -6.92900E-01 -6.91870E-01 -6.90778E-01
  -6.89626E-01 -6.88419E-01 -6.87156E-01 -6.85841E-01 -6.84475E-01 -6.83062E-01 -6.81604E-01 -6.80102E-01 -6.78557E-01 -6.76971E-01
  -6.75345E-01 -6.73682E-01 -6.71982E-01 -6.70246E-01 -6.68473E-01 -6.66666E-01 -6.64823E-01 -6.62949E-01
 NY background values follow
    -1.887E+00   -1.885E+00   -1.882E+00   -1.880E+00   -1.877E+00   -1.875E+00   -1.872E+00   -1.870E+00   -1.868E+00   -1.865E+00
    -1.863E+00   -1.860E+00   -1.858E+00   -1.855E+00   -1.853E+00   -1.850E+00   -1.848E+00   -1.846E+00   -1.843E+00   -1.841E+00
    -1.838E+00   -1.836E+00   -1.833E+00   -1.831E+00   -1.828E+00   -1.826E+00   -1.824E+00   -1.821E+00   -1.819E+00   -1.816E+00
    -1.814E+00   -1.811E+00   -1.809E+00   -1.806E+00   -1.804E+00   -1.801E+00   -1.799E+00   -1.797E+00   -1.794E+00   -1.792E+00
    -1.789E+00   -1.787E+00   -1.784E+00   -1.782E+00   -1.779E+00   -1.777E+00   -1.774E+00   -1.772E+00   -1.770E+00   -1.767E+00
    -1.765E+00   -1.762E+00   -1.760E+00   -1.757E+00   -1.755E+00   -1.752E+00   -1.750E+00   -1.747E+00   -1.745E+00   -1.743E+00
    -1.740E+00   -1.738E+00   -1.735E+00   -1.733E+00   -1.730E+00   -1.728E+00   -1.725E+00   -1.723E+00   -1.720E+00   -1.718E+00
    -1.715E+00   -1.713E+00   -1.711E+00   -1.708E+00   -1.706E+00   -1.703E+00   -1.701E+00   -1.698E+00   -1.696E+00   -1.693E+00
    -1.691E+00   -1.688E+00   -1.686E+00   -1.683E+00   -1.681E+00   -1.679E+00   -1.676E+00   -1.674E+00   -1.671E+00   -1.669E+00
    -1.666E+00   -1.664E+00   -1.661E+00   -1.659E+00   -1.656E+00   -1.654E+00   -1.651E+00   -1.649E+00   -1.646E+00   -1.644E+00
    -1.641E+00   -1.639E+00   -1.637E+00   -1.634E+00   -1.632E+00   -1.629E+00   -1.627E+00   -1.624E+00   -1.622E+00   -1.619E+00
    -1.617E+00   -1.614E+00   -1.612E+00   -1.609E+00   -1.607E+00   -1.604E+00   -1.602E+00   -1.599E+00   -1.597E+00   -1.594E+00
    -1.592E+00   -1.589E+00   -1.587E+00   -1.585E+00   -1.582E+00   -1.580E+00   -1.577E+00   -1.575E+00   -1.572E+00   -1.570E+00
    -1.567E+00   -1.565E+00   -1.562E+00   -1.560E+00   -1.557E+00   -1.555E+00   -1.552E+00   -1.550E+00   -1.547E+00   -1.545E+00
    -1.542E+00   -1.540E+00   -1.537E+00   -1.535E+00   -1.532E+00   -1.530E+00   -1.527E+00   -1.525E+00   -1.522E+00   -1.520E+00
    -1.518E+00   -1.515E+00   -1.513E+00   -1.510E+00   -1.508E+00   -1.505E+00   -1.503E+00   -1.500E+00   -1.498E+00   -1.495E+00
    -1.493E+00   -1.490E+00   -1.488E+00   -1.485E+00   -1.483E+00   -1.480E+00   -1.478E+00   -1.475E+00   -1.473E+00   -1.470E+00
    -1.468E+00   -1.465E+00   -1.463E+00   -1.460E+00   -1.458E+00   -1.455E+00   -1.453E+00   -1.450E+00   -1.448E+00   -1.445E+00
    -1.443E+00   -1.440E+00   -1.438E+00   -1.435E+00   -1.433E+00   -1.430E+00   -1.428E+00   -1.425E+00   -1.423E+00   -1.420E+00
    -1.418E+00   -1.415E+00   -1.413E+00   -1.410E+00   -1.408E+00   -1.405E+00   -1.403E+00   -1.400E+00   -1.398E+00   -1.395E+00
    -1.393E+00   -1.391E+00   -1.388E+00   -1.386E+00   -1.383E+00   -1.381E+00   -1.378E+00   -1.376E+00   -1.373E+00   -1.371E+00
    -1.368E+00   -1.366E+00   -1.363E+00   -1.361E+00   -1.358E+00   -1.356E+00   -1.353E+00   -1.351E+00   -1.348E+00   -1.346E+00
    -1.343E+00   -1.341E+00   -1.338E+00   -1.336E+00   -1.333E+00   -1.331E+00   -1.328E+00   -1.326E+00   -1.323E+00   -1.321E+00
    -1.318E+00   -1.316E+00   -1.313E+00   -1.311E+00   -1.308E+00   -1.306E+00   -1.303E+00   -1.301E+00   -1.298E+00   -1.296E+00
    -1.293E+00   -1.291E+00   -1.288E+00   -1.286E+00   -1.283E+00   -1.281E+00   -1.278E+00   -1.276E+00   -1.273E+00   -1.271E+00
    -1.268E+00   -1.266E+00   -1.263E+00   -1.260E+00   -1.258E+00   -1.255E+00   -1.253E+00   -1.250E+00   -1.248E+00   -1.245E+00
    -1.243E+00   -1.240E+00   -1.238E+00   -1.235E+00   -1.233E+00   -1.230E+00   -1.228E+00   -1.225E+00   -1.223E+00   -1.220E+00
    -1.218E+00   -1.215E+00   -1.213E+00   -1.210E+00   -1.208E+00   -1.205E+00   -1.203E+00   -1.200E+00   -1.198E+00   -1.195E+00
    -1.193E+00   -1.190E+00   -1.188E+00   -1.185E+00   -1.183E+00   -1.180E+00   -1.178E+00   -1.175E+00   -1.173E+00   -1.170E+00
    -1.168E+00   -1.165E+00   -1.163E+00   -1.160E+00   -1.158E+00   -1.155E+00   -1.153E+00   -1.150E+00   -1.148E+00   -1.145E+00
    -1.143E+00   -1.140E+00   -1.138E+00   -1.135E+00   -1.133E+00   -1.130E+00   -1.128E+00   -1.125E+00   -1.123E+00   -1.120E+00
    -1.118E+00   -1.115E+00   -1.113E+00   -1.110E+00   -1.108E+00   -1.105E+00   -1.103E+00   -1.100E+00   -1.098E+00   -1.095E+00
    -1.093E+00   -1.090E+00   -1.087E+00   -1.085E+00   -1.082E+00   -1.080E+00   -1.077E+00   -1.075E+00   -1.072E+00   -1.070E+00
    -1.067E+00   -1.065E+00   -1.062E+00   -1.060E+00   -1.057E+00   -1.055E+00   -1.052E+00   -1.050E+00   -1.047E+00   -1.045E+00
    -1.042E+00   -1.040E+00   -1.037E+00   -1.035E+00   -1.032E+00   -1.030E+00   -1.027E+00   -1.025E+00   -1.022E+00   -1.020E+00
    -1.017E+00   -1.015E+00   -1.012E+00   -1.010E+00   -1.007E+00   -1.005E+00   -1.002E+00   -9.996E-01   -9.971E-01   -9.946E-01
    -9.921E-01   -9.896E-01   -9.871E-01   -9.845E-01   -9.820E-01   -9.795E-01   -9.770E-01   -9.745E-01   -9.720E-01   -9.695E-01
    -9.670E-01   -9.645E-01   -9.619E-01   -9.594E-01   -9.569E-01   -9.544E-01   -9.519E-01   -9.494E-01   -9.469E-01   -9.444E-01
    -9.419E-01   -9.393E-01   -9.368E-01   -9.343E-01   -9.318E-01   -9.293E-01   -9.268E-01   -9.243E-01   -9.218E-01   -9.193E-01
    -9.167E-01   -9.142E-01   -9.117E-01   -9.092E-01   -9.067E-01   -9.042E-01   -9.017E-01   -8.992E-01   -8.967E-01   -8.941E-01
    -8.916E-01   -8.891E-01   -8.866E-01   -8.841E-01   -8.816E-01   -8.791E-01   -8.766E-01   -8.741E-01   -8.715E-01   -8.690E-01
    -8.665E-01   -8.640E-01   -8.615E-01   -8.590E-01   -8.565E-01   -8.540E-01   -8.515E-01   -8.490E-01   -8.464E-01   -8.439E-01
    -8.414E-01   -8.389E-01   -8.364E-01   -8.339E-01   -8.314E-01   -8.289E-01   -8.264E-01   -8.239E-01   -8.213E-01   -8.188E-01
    -8.163E-01   -8.138E-01   -8.113E-01   -8.088E-01   -8.063E-01   -8.038E-01   -8.013E-01   -7.988E-01   -7.963E-01   -7.937E-01
    -7.912E-01   -7.887E-01   -7.862E-01   -7.837E-01   -7.812E-01   -7.787E-01   -7.762E-01   -7.737E-01   -7.712E-01   -7.687E-01
    -7.662E-01   -7.636E-01   -7.611E-01   -7.586E-01   -7.561E-01   -7.536E-01   -7.511E-01   -7.486E-01   -7.461E-01   -7.436E-01
    -7.411E-01   -7.386E-01   -7.361E-01   -7.336E-01   -7.311E-01   -7.285E-01   -7.260E-01   -7.235E-01   -7.210E-01   -7.185E-01
    -7.160E-01   -7.135E-01   -7.110E-01   -7.085E-01   -7.060E-01   -7.035E-01   -7.010E-01   -6.985E-01   -6.960E-01   -6.935E-01
    -6.910E-01   -6.885E-01   -6.860E-01   -6.834E-01   -6.809E-01   -6.784E-01   -6.759E-01   -6.734E-01   -6.709E-01   -6.684E-01
    -6.659E-01   -6.634E-01   -6.609E-01   -6.584E-01   -6.559E-01   -6.534E-01   -6.509E-01   -6.484E-01
 Asp      Conc. = 1.11E+01
