 LCModel (Version 6.3-1L) Copyright: S.W. Provencher.          Ref.: Magn. Reson. Med. 30:672-679 (1993).                
 Slice#3 Row#6 Col#2  PD_05_press_2_raw_act
 36 lines in following concentration table = NCONC+1
    Conc.  %SD /Cr+PCr  Metabolite                                         
  124.029 199% 4.3E-02 Ala                                                 
    0.000 999%   0.000 Asp                                                 
 1.41E+03  36%   0.482 Cr                                                  
 1.51E+03  34%   0.518 PCr                                                 
  183.872 165% 6.3E-02 GABA                                                
    0.000 999%   0.000 Glc                                                 
 1.66E+03  33%   0.570 Gln                                                 
 2.95E+03  21%   1.011 Glu                                                 
  780.609   5%   0.268 GPC                                                 
    0.000 999%   0.000 PCh                                                 
 1.44E+03  11%   0.494 GSH                                                 
 2.37E+03  22%   0.814 Ins                                                 
  227.002 124% 7.8E-02 Lac                                                 
 4.16E+03   6%   1.425 NAA                                                 
  506.910  56%   0.174 NAAG                                                
   78.300  66% 2.7E-02 Scyllo                                              
    0.000 999%   0.000 Tau                                                 
    0.000 999%   0.000 -CrCH2                                              
  780.609   5%   0.268 GPC+PCh                                             
 4.66E+03   3%   1.599 NAA+NAAG                                            
 2.92E+03   4%   1.000 Cr+PCr                                              
 4.61E+03  20%   1.581 Glu+Gln                                             
 1.85E+03  42%   0.636 Lip13a                                              
  165.395 195% 5.7E-02 Lip13b                                              
    0.000 999%   0.000 Lip09                                               
 1.41E+03  23%   0.485 MM09                                                
  506.271  52%   0.174 Lip20                                               
 3.26E+03  17%   1.118 MM20                                                
  471.510  33%   0.162 MM12                                                
  421.425 102%   0.144 MM14                                                
  499.775  59%   0.171 MM17                                                
 2.02E+03  30%   0.692 Lip13a+Lip13b                                       
 2.91E+03  22%   0.999 MM14+Lip13a+Lip13b+MM12                             
 1.41E+03  23%   0.485 MM09+Lip09                                          
 3.77E+03  16%   1.292 MM20+Lip20                                          
   6 lines in following misc. output table
  FWHM = 0.061 ppm    S/N =  10                                            
  Data shift = 0.000 ppm                                                   
  Ph:  -8 deg      -1.6 deg/ppm                                            
  alphaB,S = 1.2E+00,   9.0E+01                                            
   14 spline knots.   Ns = 7(1)                                            
  (12) 4 infls.   (11) 1 extrs.                                            
  498 points on ppm-axis = NY
      4.000000     3.992357     3.984714     3.977070     3.969427     3.961784     3.954141     3.946497     3.938854     3.931211
      3.923568     3.915925     3.908281     3.900638     3.892995     3.885352     3.877708     3.870065     3.862422     3.854779
      3.847136     3.839492     3.831849     3.824206     3.816563     3.808919     3.801276     3.793633     3.785990     3.778347
      3.770703     3.763060     3.755417     3.747774     3.740130     3.732487     3.724844     3.717201     3.709558     3.701914
      3.694271     3.686628     3.678985     3.671341     3.663698     3.656055     3.648412     3.640769     3.633125     3.625482
      3.617839     3.610196     3.602552     3.594909     3.587266     3.579623     3.571980     3.564336     3.556693     3.549050
      3.541407     3.533763     3.526120     3.518477     3.510834     3.503191     3.495547     3.487904     3.480261     3.472618
      3.464974     3.457331     3.449688     3.442045     3.434402     3.426758     3.419115     3.411472     3.403829     3.396185
      3.388542     3.380899     3.373256     3.365613     3.357969     3.350326     3.342683     3.335040     3.327396     3.319753
      3.312110     3.304467     3.296824     3.289180     3.281537     3.273894     3.266251     3.258607     3.250964     3.243321
      3.235678     3.228034     3.220391     3.212748     3.205105     3.197462     3.189818     3.182175     3.174532     3.166889
      3.159245     3.151602     3.143959     3.136316     3.128673     3.121029     3.113386     3.105743     3.098100     3.090456
      3.082813     3.075170     3.067527     3.059884     3.052240     3.044597     3.036954     3.029311     3.021667     3.014024
      3.006381     2.998738     2.991095     2.983451     2.975808     2.968165     2.960522     2.952878     2.945235     2.937592
      2.929949     2.922306     2.914662     2.907019     2.899376     2.891733     2.884089     2.876446     2.868803     2.861160
      2.853517     2.845873     2.838230     2.830587     2.822944     2.815300     2.807657     2.800014     2.792371     2.784728
      2.777084     2.769441     2.761798     2.754155     2.746511     2.738868     2.731225     2.723582     2.715939     2.708295
      2.700652     2.693009     2.685366     2.677722     2.670079     2.662436     2.654793     2.647150     2.639506     2.631863
      2.624220     2.616577     2.608933     2.601290     2.593647     2.586004     2.578361     2.570717     2.563074     2.555431
      2.547788     2.540144     2.532501     2.524858     2.517215     2.509572     2.501928     2.494285     2.486642     2.478999
      2.471355     2.463712     2.456069     2.448426     2.440783     2.433139     2.425496     2.417853     2.410210     2.402566
      2.394923     2.387280     2.379637     2.371994     2.364350     2.356707     2.349064     2.341421     2.333777     2.326134
      2.318491     2.310848     2.303205     2.295561     2.287918     2.280275     2.272632     2.264988     2.257345     2.249702
      2.242059     2.234416     2.226772     2.219129     2.211486     2.203843     2.196199     2.188556     2.180913     2.173270
      2.165627     2.157983     2.150340     2.142697     2.135054     2.127410     2.119767     2.112124     2.104481     2.096838
      2.089194     2.081551     2.073908     2.066265     2.058621     2.050978     2.043335     2.035692     2.028049     2.020405
      2.012762     2.005119     1.997476     1.989833     1.982190     1.974546     1.966903     1.959260     1.951617     1.943974
      1.936331     1.928688     1.921045     1.913402     1.905759     1.898115     1.890472     1.882829     1.875186     1.867543
      1.859900     1.852257     1.844614     1.836971     1.829327     1.821684     1.814041     1.806398     1.798755     1.791112
      1.783469     1.775826     1.768183     1.760540     1.752896     1.745253     1.737610     1.729967     1.722324     1.714681
      1.707038     1.699395     1.691752     1.684108     1.676465     1.668822     1.661179     1.653536     1.645893     1.638250
      1.630607     1.622964     1.615321     1.607677     1.600034     1.592391     1.584748     1.577105     1.569462     1.561819
      1.554176     1.546533     1.538890     1.531246     1.523603     1.515960     1.508317     1.500674     1.493031     1.485388
      1.477745     1.470102     1.462458     1.454815     1.447172     1.439529     1.431886     1.424243     1.416600     1.408957
      1.401314     1.393671     1.386027     1.378384     1.370741     1.363098     1.355455     1.347812     1.340169     1.332526
      1.324883     1.317240     1.309596     1.301953     1.294310     1.286667     1.279024     1.271381     1.263738     1.256095
      1.248452     1.240808     1.233165     1.225522     1.217879     1.210236     1.202593     1.194950     1.187307     1.179664
      1.172021     1.164377     1.156734     1.149091     1.141448     1.133805     1.126162     1.118519     1.110876     1.103233
      1.095590     1.087946     1.080303     1.072660     1.065017     1.057374     1.049731     1.042088     1.034445     1.026802
      1.019158     1.011515     1.003872     0.996229     0.988586     0.980943     0.973300     0.965657     0.958014     0.950371
      0.942727     0.935084     0.927441     0.919798     0.912155     0.904512     0.896869     0.889226     0.881583     0.873940
      0.866296     0.858653     0.851010     0.843367     0.835724     0.828081     0.820438     0.812795     0.805152     0.797508
      0.789865     0.782222     0.774579     0.766936     0.759293     0.751650     0.744007     0.736364     0.728721     0.721077
      0.713434     0.705791     0.698148     0.690505     0.682862     0.675219     0.667576     0.659933     0.652290     0.644646
      0.637003     0.629360     0.621717     0.614074     0.606431     0.598788     0.591145     0.583502     0.575858     0.568215
      0.560572     0.552929     0.545286     0.537643     0.530000     0.522357     0.514714     0.507071     0.499427     0.491784
      0.484141     0.476498     0.468855     0.461212     0.453569     0.445925     0.438282     0.430639     0.422996     0.415353
      0.407710     0.400067     0.392424     0.384780     0.377137     0.369494     0.361851     0.354208     0.346565     0.338922
      0.331278     0.323635     0.315992     0.308349     0.300706     0.293063     0.285420     0.277777     0.270133     0.262490
      0.254847     0.247204     0.239561     0.231918     0.224275     0.216631     0.208988     0.201345
 NY phased data points follow
   2.92520E+01  1.61292E+01  2.08532E+01  2.09255E+01  3.82581E+01  4.12128E+01  6.41591E+01  6.10686E+01  7.28268E+01  7.73932E+01
   7.76173E+01  7.51708E+01  7.93310E+01  6.80896E+01  6.57472E+01  4.67698E+01  3.57580E+01  3.00180E+01  3.25070E+01  2.37516E+01
   2.83047E+01  2.05902E+01  2.91904E+01  3.16075E+01  3.59003E+01  3.49881E+01  2.97301E+01  4.01162E+01  4.68642E+01  3.60093E+01
   5.00562E+01  3.34839E+01  4.26734E+01  3.18396E+01  3.97664E+01  2.77743E+01  2.41754E+01  2.50035E+01  3.17696E+01  1.61759E+01
   2.43210E+01  2.61165E+01  2.01040E+01  2.85164E+01  3.21289E+01  3.67740E+01  3.34706E+01  3.38718E+01  2.68583E+01  2.60169E+01
   1.83450E+01  1.54419E+01  1.93012E+01  1.48335E+01  1.89780E+01  1.83064E+01  2.36248E+01  2.40294E+01  1.67394E+01  2.21055E+01
   9.52224E+00  5.03911E+00  1.23100E+01 -1.95372E+00 -7.27695E+00 -6.89048E+00  4.23424E+00  1.58506E+00  1.88384E+00 -1.19802E+00
   8.55203E+00  4.46431E+00  3.07020E+00  6.70861E+00  1.85593E+00  6.79929E-01 -1.20978E+00  4.07023E+00  6.88156E+00 -6.06639E+00
   1.03537E+01  3.45741E-01  3.64576E+00 -4.49174E+00  8.07858E+00  8.39467E+00  7.66328E+00  4.14619E+00  3.28700E+00  3.54592E+00
   9.97427E+00  3.43024E-01 -1.09482E+00  6.77273E+00  1.02774E+01  1.16751E+00  1.17636E+01  2.23677E+01  2.67665E+01  4.55025E+01
   4.38048E+01  6.17030E+01  6.46601E+01  6.56408E+01  5.47729E+01  4.84063E+01  4.43405E+01  2.34981E+01  2.98505E+01  1.38689E+01
   1.46282E+01  2.49413E+00  8.70571E+00  3.08047E+00  1.43091E+01  7.51257E+00  8.87741E+00  6.46307E+00  1.06199E+01 -2.18969E+00
   1.38480E+01  1.35401E+01  2.81553E+01  4.31151E+01  4.87895E+01  7.62652E+01  8.26505E+01  8.26245E+01  8.47132E+01  6.75529E+01
   6.11709E+01  4.51611E+01  4.77186E+01  2.82414E+01  1.38405E+01  1.10661E+01  1.64474E+01  7.75200E+00  1.04321E+01  5.77925E+00
   8.11041E+00 -2.52640E+00  5.21908E+00  4.00268E+00  7.65115E+00 -4.76050E-01  1.60131E+00  1.92469E+00  2.90400E+00 -2.78014E+00
  -2.30989E+00  6.58160E+00  2.04007E+00 -6.30159E+00  2.60789E+00 -6.66858E+00  2.20132E+00 -3.37493E+00  4.17767E+00 -7.50613E-01
  -1.28089E+01 -2.37955E+00 -1.03405E+01 -9.96397E+00 -5.84889E+00 -1.05756E+01 -2.94471E+00 -8.74587E+00 -8.80326E+00 -1.64021E+01
  -1.17918E+01 -2.18489E+01 -2.22741E+01 -2.09628E+01 -2.29709E+01 -1.92884E+01 -3.47691E+01 -2.65793E+01 -3.15705E+01 -2.97604E+01
  -2.38494E+01 -3.44478E+01 -2.72257E+01 -2.75858E+01 -2.89078E+01 -2.46920E+01 -2.82736E+01 -2.29178E+01 -1.24583E+01 -1.46134E+01
  -2.70196E-01 -4.84280E+00  1.88324E+00  1.02499E+01  7.42423E+00 -1.13893E+01 -3.65734E+00 -5.22397E+00  6.54662E+00 -8.72228E+00
   2.02933E-01 -1.12647E+01 -1.92031E+00 -8.63955E-01 -4.55196E+00 -6.64670E+00  7.97124E-01 -9.60111E+00 -1.38861E+01 -1.11749E+01
  -1.07774E+01 -5.90768E+00 -7.13139E-01  4.02724E+00  7.25662E+00  5.29959E+00  1.24913E+01  1.23382E+01  5.07825E-01 -1.87402E+00
  -5.29870E+00 -5.52873E+00 -6.58974E+00 -6.80356E-01  1.60194E+00 -5.46690E+00  3.15893E+00  6.32236E+00  7.47747E+00  1.03840E+01
   9.73166E+00  7.02509E+00  2.67159E+00 -5.68702E+00  4.21656E+00  1.45902E+01  9.11415E+00  7.59096E+00  1.11158E+01  2.30157E+00
  -3.22969E+00  1.12053E+01  8.72903E-01  6.89534E+00  1.29666E+00  9.72139E+00  9.20549E+00  1.30095E+01  1.45255E+01  2.89156E+01
   1.30666E+01  2.08298E+01  2.69070E+01  3.43350E+01  4.87180E+01  5.83085E+01  8.19655E+01  9.67210E+01  1.14434E+02  1.40963E+02
   1.35058E+02  1.29153E+02  1.15753E+02  9.28550E+01  7.03189E+01  4.97033E+01  3.53936E+01  1.98228E+01  1.70450E+01  6.72582E+00
   2.52663E+00  1.64037E+01  1.46529E+01  6.66098E+00  4.90819E+00  2.37205E+00  5.11362E+00 -5.63510E+00 -8.11550E+00  4.11682E-01
   9.15967E+00  5.16540E-01 -4.40918E+00 -9.95160E+00 -5.02026E+00  3.44336E-01 -8.38224E+00 -4.10762E+00  1.68831E+00  2.25075E+00
  -4.07393E+00 -1.19756E+00 -1.62741E+00 -2.62870E+00 -8.21075E+00 -6.55063E+00  2.63100E+00 -7.41756E+00  8.51031E-01 -7.46963E+00
   6.55003E+00  4.64574E+00 -4.30149E+00 -5.92843E+00 -5.69004E+00 -4.49993E+00 -4.84453E+00 -6.73042E+00 -3.33383E+00  7.43308E-01
  -1.07642E+01 -5.05475E-01  1.26550E+00 -1.40719E+00  5.40763E+00  1.91057E+00 -8.69882E+00 -1.56942E+00  8.24580E+00  9.91220E-01
  -5.11160E+00 -2.70730E-01  4.67956E+00  2.56362E-01  1.90660E-01 -9.18746E+00 -7.36470E+00 -4.56656E+00 -7.62865E+00 -1.67004E+00
  -2.04041E+00 -1.03914E+00  2.36253E+00 -5.61793E-01  6.46205E-01 -6.81302E+00  1.11721E+00 -4.47759E+00  1.53690E+00  3.43027E+00
   7.48131E+00  1.97253E+00  2.80120E+00  6.98040E-01  5.14899E-01 -2.43430E+00  3.58610E+00 -2.72165E+00 -1.51777E+00 -2.75222E+00
   3.39336E+00  1.56951E+00  8.37408E+00  6.03773E+00  2.70847E+00  2.16258E+01  8.14151E+00  7.74917E+00  1.19264E+01  9.77569E+00
   9.80700E+00  7.44515E+00  4.74835E+00  1.01761E+01  8.08052E+00  9.27874E+00  7.09700E+00  8.30621E+00  7.22943E+00  6.30463E+00
   4.49794E+00  8.19339E+00  1.13545E+01  6.62296E+00  1.26889E+01  4.51913E+00  8.98550E-01 -7.68401E+00  1.09616E+01  2.38589E+00
   6.00481E-01  1.03652E+00  5.92976E+00  7.77239E+00  4.64651E+00  7.48009E+00 -1.55158E+00  3.68263E+00  1.18070E+01  1.17268E+00
   4.92147E+00  3.29989E+00 -7.19989E+00  7.86414E+00 -3.62022E+00  1.37147E+01  9.05757E-01  4.43437E+00  3.36328E+00 -5.12437E+00
   5.73945E-01 -7.80192E+00 -5.75546E+00  2.40650E+00  1.01165E+00  4.01162E+00  2.11533E+00 -2.16732E+00  1.60031E+00  6.28469E+00
  -2.48938E+00  1.15097E+00  8.54378E+00  2.13868E+00  3.86758E+00 -4.99346E-01  1.17255E+00  4.58586E+00  7.73001E+00  6.62692E-01
   9.02437E+00  3.11082E+00  1.13644E+01 -1.53419E+00  6.14235E+00 -8.44008E-01  1.10192E+01 -9.00110E-01  9.31235E+00 -1.46439E-01
  -2.26840E+00  5.25253E+00  6.95363E+00 -5.14626E+00  9.70055E-01 -4.66203E+00 -3.05711E+00 -6.99540E-01 -2.84192E-01  1.93554E+00
  -5.34514E+00  5.83403E-01  1.44722E+00  7.22259E+00  4.22586E+00  3.87003E+00 -2.88463E-01  3.78558E+00 -2.76778E+00  4.74095E+00
   3.97778E-01 -9.41277E-01  4.94430E+00  4.64483E+00 -4.23630E+00  1.45305E+00 -5.80041E-01 -2.77691E+00  6.66573E+00 -5.88430E+00
  -7.61123E+00  9.59467E+00 -4.04307E+00  2.05572E+00 -1.24501E+00 -4.33750E+00  2.34988E-01 -4.56600E+00  4.30428E+00 -2.69203E+00
  -3.68639E+00  6.18600E+00  9.69055E+00 -4.60613E-01 -1.49012E+00  1.27381E+00  4.78838E+00  5.81043E+00  3.36873E+00 -2.98138E+00
   3.88795E+00 -4.69774E-01 -7.56567E+00  1.00158E+00  2.59409E-01  1.00548E+00 -2.93623E+00 -9.88928E+00  3.33288E+00 -3.21277E+00
   8.00013E+00  4.04255E+00 -1.29579E+00  9.95136E-01  3.74496E+00 -2.66461E-01  5.84064E+00  6.61412E+00
 NY points of the fit to the data follow
   2.16662E+01  2.16530E+01  2.29769E+01  2.66430E+01  3.27331E+01  4.07460E+01  4.94723E+01  5.84880E+01  6.69931E+01  7.32543E+01
   7.56662E+01  7.37052E+01  6.82923E+01  6.09129E+01  5.29356E+01  4.53124E+01  3.85074E+01  3.25273E+01  2.74554E+01  2.38247E+01
   2.15416E+01  2.02410E+01  1.98582E+01  2.14168E+01  2.40368E+01  2.74322E+01  3.19275E+01  3.75340E+01  4.30954E+01  4.68108E+01
   4.80082E+01  4.66829E+01  4.31976E+01  3.82888E+01  3.28070E+01  2.74625E+01  2.29213E+01  1.91369E+01  1.63423E+01  1.58372E+01
   1.72441E+01  1.96327E+01  2.21867E+01  2.47905E+01  2.73548E+01  2.91433E+01  2.95100E+01  2.82543E+01  2.57415E+01  2.27006E+01
   1.95540E+01  1.67383E+01  1.47436E+01  1.35243E+01  1.28211E+01  1.26039E+01  1.30287E+01  1.37767E+01  1.42425E+01  1.41856E+01
   1.36111E+01  1.26366E+01  1.14971E+01  1.04100E+01  9.69974E+00  9.46271E+00  9.49998E+00  9.68354E+00  1.00340E+01  1.04493E+01
   1.07886E+01  1.08960E+01  1.07250E+01  1.03376E+01  9.80834E+00  9.21783E+00  8.65763E+00  8.15574E+00  7.75305E+00  7.43813E+00
   7.21338E+00  6.88559E+00  6.45047E+00  5.96067E+00  5.38407E+00  4.67313E+00  3.91262E+00  3.30301E+00  2.99353E+00  3.05768E+00
   3.35314E+00  3.74946E+00  4.15825E+00  4.55247E+00  5.06208E+00  6.84022E+00  1.27391E+01  2.11188E+01  3.00518E+01  3.98703E+01
   5.06623E+01  6.03932E+01  6.57096E+01  6.52073E+01  5.98278E+01  5.14840E+01  4.18717E+01  3.23703E+01  2.38240E+01  1.65238E+01
   1.02973E+01  5.00990E+00  2.54029E+00  1.99259E+00  1.87031E+00  1.89258E+00  1.99736E+00  2.23981E+00  2.82307E+00  4.39630E+00
   9.58672E+00  1.98967E+01  3.20278E+01  4.49208E+01  5.90125E+01  7.33219E+01  8.44212E+01  8.88346E+01  8.59241E+01  7.74535E+01
   6.58032E+01  5.28251E+01  3.99221E+01  2.78851E+01  1.72626E+01  8.18016E+00  1.93014E+00  8.07794E-02  3.74322E-01  1.40042E+00
   2.49753E+00  3.26383E+00  3.70082E+00  3.86405E+00  3.61340E+00  3.02190E+00  2.22007E+00  1.20027E+00  1.08832E-01 -9.08088E-01
  -1.74962E+00 -2.34343E+00 -2.75916E+00 -3.05969E+00 -3.42384E+00 -3.86247E+00 -4.29781E+00 -4.73441E+00 -5.11794E+00 -5.55090E+00
  -5.98291E+00 -6.22067E+00 -6.25589E+00 -6.30831E+00 -6.60491E+00 -7.15140E+00 -7.85197E+00 -8.61379E+00 -9.39360E+00 -1.02254E+01
  -1.11785E+01 -1.20427E+01 -1.28102E+01 -1.35657E+01 -1.42370E+01 -1.46633E+01 -1.47280E+01 -1.45715E+01 -1.45289E+01 -1.47134E+01
  -1.50502E+01 -1.52512E+01 -1.50290E+01 -1.43423E+01 -1.31589E+01 -1.14606E+01 -9.32102E+00 -6.78587E+00 -4.16318E+00 -2.01379E+00
  -9.12178E-01 -1.17613E+00 -2.32066E+00 -3.80056E+00 -5.23548E+00 -6.24550E+00 -6.54730E+00 -5.73171E+00 -3.78603E+00 -1.19432E+00
   1.44370E+00  3.63316E+00  4.79423E+00  4.24426E+00  2.41465E+00 -3.97916E-01 -4.04647E+00 -7.91351E+00 -1.07320E+01 -1.13206E+01
  -9.85771E+00 -7.17494E+00 -3.65786E+00  3.25829E-01  3.80344E+00  5.39616E+00  4.54117E+00  1.97646E+00 -1.34893E+00 -5.26053E+00
  -8.73375E+00 -1.06748E+01 -1.07169E+01 -9.11843E+00 -6.77529E+00 -4.09340E+00 -1.39073E+00  6.89370E-01  1.82817E+00  2.21080E+00
   2.71675E+00  3.55377E+00  4.30738E+00  5.08003E+00  6.19882E+00  7.22620E+00  7.46797E+00  6.83988E+00  5.67088E+00  4.25628E+00
   2.59992E+00  1.12785E+00  5.32230E-01  1.02099E+00  2.22554E+00  3.62358E+00  5.26898E+00  7.09585E+00  9.09123E+00  1.17761E+01
   1.49696E+01  1.83946E+01  2.27788E+01  3.23989E+01  4.89654E+01  6.65652E+01  8.37882E+01  1.01937E+02  1.19956E+02  1.32620E+02
   1.35256E+02  1.27849E+02  1.13222E+02  9.46659E+01  7.50659E+01  5.69853E+01  4.12632E+01  2.77334E+01  1.56916E+01  6.99477E+00
   3.76434E+00  2.51093E+00  1.84915E+00  1.47659E+00  1.20038E+00  8.48754E-01  4.45555E-01 -4.54459E-03 -4.96679E-01 -1.00076E+00
  -1.46508E+00 -1.88266E+00 -2.24471E+00 -2.52280E+00 -2.71848E+00 -2.84881E+00 -2.93455E+00 -2.99162E+00 -3.02094E+00 -3.01797E+00
  -2.99617E+00 -2.96008E+00 -2.91395E+00 -2.86014E+00 -2.80258E+00 -2.73896E+00 -2.66943E+00 -2.59459E+00 -2.51182E+00 -2.42087E+00
  -2.32814E+00 -2.23383E+00 -2.14092E+00 -2.05758E+00 -1.98935E+00 -1.93904E+00 -1.90714E+00 -1.89314E+00 -1.89911E+00 -1.92138E+00
  -1.95557E+00 -1.99866E+00 -2.04625E+00 -2.09333E+00 -2.13529E+00 -2.16731E+00 -2.18418E+00 -2.17914E+00 -2.14146E+00 -2.04848E+00
  -1.86816E+00 -1.67459E+00 -1.53448E+00 -1.43232E+00 -1.37559E+00 -1.41975E+00 -1.62284E+00 -1.96573E+00 -2.29554E+00 -2.47629E+00
  -2.50510E+00 -2.37265E+00 -2.04845E+00 -1.53000E+00 -8.90993E-01 -2.32879E-01  4.17072E-01  1.01210E+00  1.53083E+00  2.04536E+00
   2.65414E+00  3.24202E+00  3.70057E+00  4.04797E+00  4.30796E+00  4.42790E+00  4.27609E+00  3.90865E+00  3.65048E+00  3.64982E+00
   3.90776E+00  4.45631E+00  5.32690E+00  6.44483E+00  7.59523E+00  8.57846E+00  9.35246E+00  9.82513E+00  9.93651E+00  9.75980E+00
   9.37790E+00  8.85885E+00  8.24085E+00  7.53057E+00  6.86437E+00  6.28342E+00  5.75354E+00  5.26043E+00  4.79731E+00  4.35992E+00
   3.94564E+00  3.55328E+00  3.18296E+00  2.83599E+00  2.51450E+00  2.22099E+00  1.95790E+00  1.72741E+00  1.53143E+00  1.37167E+00
   1.24954E+00  1.16608E+00  1.12189E+00  1.11720E+00  1.15202E+00  1.22619E+00  1.33925E+00  1.49031E+00  1.67793E+00  1.90019E+00
   2.15469E+00  2.43851E+00  2.74801E+00  3.07869E+00  3.42527E+00  3.78175E+00  4.14163E+00  4.49793E+00  4.84322E+00  5.16983E+00
   5.47010E+00  5.73684E+00  5.96355E+00  6.14458E+00  6.27534E+00  6.35240E+00  6.37383E+00  6.33930E+00  6.25007E+00  6.10879E+00
   5.91930E+00  5.68653E+00  5.41637E+00  5.11539E+00  4.79055E+00  4.44878E+00  4.09675E+00  3.74074E+00  3.38654E+00  3.03933E+00
   2.70347E+00  2.38240E+00  2.07871E+00  1.79426E+00  1.53030E+00  1.28749E+00  1.06587E+00  8.64999E-01  6.84056E-01  5.22073E-01
   3.77984E-01  2.50613E-01  1.38647E-01  4.07158E-02 -4.44890E-02 -1.18120E-01 -1.81209E-01 -2.34763E-01 -2.79791E-01 -3.17235E-01
  -3.47882E-01 -3.72357E-01 -3.91213E-01 -4.05017E-01 -4.14338E-01 -4.19676E-01 -4.21395E-01 -4.19763E-01 -4.15046E-01 -4.07564E-01
  -3.97637E-01 -3.85505E-01 -3.71299E-01 -3.55122E-01 -3.37119E-01 -3.17499E-01 -2.96454E-01 -2.74082E-01 -2.50412E-01 -2.25488E-01
  -1.99427E-01 -1.72381E-01 -1.44453E-01 -1.15660E-01 -8.59858E-02 -5.54713E-02 -2.42284E-02  7.62940E-03  4.00645E-02  7.31090E-02
   1.06785E-01  1.41040E-01  1.75768E-01  2.10903E-01  2.46456E-01  2.82476E-01  3.18963E-01  3.55845E-01  3.93029E-01  4.30488E-01
   4.68268E-01  5.06414E-01  5.44900E-01  5.83642E-01  6.22579E-01  6.61723E-01  7.01137E-01  7.40845E-01  7.80794E-01  8.20901E-01
   8.61140E-01  9.01558E-01  9.42215E-01  9.83106E-01  1.02416E+00  1.06532E+00  1.10660E+00  1.14807E+00
 NY background values follow
     1.304E+01    1.290E+01    1.277E+01    1.263E+01    1.249E+01    1.235E+01    1.221E+01    1.207E+01    1.193E+01    1.180E+01
     1.166E+01    1.152E+01    1.138E+01    1.124E+01    1.110E+01    1.096E+01    1.083E+01    1.069E+01    1.055E+01    1.041E+01
     1.027E+01    1.013E+01    9.995E+00    9.857E+00    9.718E+00    9.581E+00    9.443E+00    9.305E+00    9.167E+00    9.030E+00
     8.892E+00    8.755E+00    8.618E+00    8.481E+00    8.344E+00    8.207E+00    8.071E+00    7.935E+00    7.798E+00    7.663E+00
     7.527E+00    7.391E+00    7.256E+00    7.121E+00    6.986E+00    6.851E+00    6.717E+00    6.582E+00    6.448E+00    6.315E+00
     6.181E+00    6.048E+00    5.915E+00    5.783E+00    5.650E+00    5.518E+00    5.387E+00    5.256E+00    5.125E+00    4.994E+00
     4.864E+00    4.734E+00    4.604E+00    4.475E+00    4.346E+00    4.218E+00    4.090E+00    3.963E+00    3.835E+00    3.709E+00
     3.583E+00    3.457E+00    3.332E+00    3.207E+00    3.082E+00    2.959E+00    2.835E+00    2.712E+00    2.590E+00    2.468E+00
     2.347E+00    2.226E+00    2.106E+00    1.986E+00    1.867E+00    1.749E+00    1.631E+00    1.514E+00    1.397E+00    1.281E+00
     1.165E+00    1.051E+00    9.365E-01    8.229E-01    7.100E-01    5.978E-01    4.861E-01    3.751E-01    2.648E-01    1.551E-01
     4.610E-02   -6.228E-02   -1.700E-01   -2.771E-01   -3.835E-01   -4.892E-01   -5.943E-01   -6.988E-01   -8.025E-01   -9.056E-01
    -1.008E+00   -1.110E+00   -1.211E+00   -1.311E+00   -1.411E+00   -1.510E+00   -1.608E+00   -1.706E+00   -1.803E+00   -1.899E+00
    -1.995E+00   -2.090E+00   -2.184E+00   -2.278E+00   -2.370E+00   -2.463E+00   -2.554E+00   -2.645E+00   -2.735E+00   -2.824E+00
    -2.913E+00   -3.001E+00   -3.088E+00   -3.174E+00   -3.260E+00   -3.345E+00   -3.430E+00   -3.513E+00   -3.596E+00   -3.678E+00
    -3.760E+00   -3.840E+00   -3.920E+00   -3.999E+00   -4.078E+00   -4.155E+00   -4.232E+00   -4.308E+00   -4.383E+00   -4.458E+00
    -4.531E+00   -4.604E+00   -4.676E+00   -4.748E+00   -4.818E+00   -4.888E+00   -4.956E+00   -5.024E+00   -5.091E+00   -5.157E+00
    -5.223E+00   -5.287E+00   -5.351E+00   -5.414E+00   -5.475E+00   -5.536E+00   -5.596E+00   -5.656E+00   -5.714E+00   -5.771E+00
    -5.828E+00   -5.883E+00   -5.938E+00   -5.991E+00   -6.044E+00   -6.096E+00   -6.146E+00   -6.196E+00   -6.245E+00   -6.293E+00
    -6.340E+00   -6.386E+00   -6.431E+00   -6.475E+00   -6.518E+00   -6.560E+00   -6.601E+00   -6.641E+00   -6.681E+00   -6.719E+00
    -6.756E+00   -6.793E+00   -6.829E+00   -6.863E+00   -6.897E+00   -6.930E+00   -6.963E+00   -6.994E+00   -7.025E+00   -7.055E+00
    -7.084E+00   -7.112E+00   -7.139E+00   -7.166E+00   -7.192E+00   -7.217E+00   -7.242E+00   -7.265E+00   -7.288E+00   -7.311E+00
    -7.332E+00   -7.353E+00   -7.373E+00   -7.393E+00   -7.412E+00   -7.430E+00   -7.448E+00   -7.465E+00   -7.481E+00   -7.497E+00
    -7.512E+00   -7.527E+00   -7.541E+00   -7.555E+00   -7.568E+00   -7.580E+00   -7.592E+00   -7.603E+00   -7.614E+00   -7.625E+00
    -7.634E+00   -7.644E+00   -7.653E+00   -7.661E+00   -7.669E+00   -7.676E+00   -7.683E+00   -7.689E+00   -7.695E+00   -7.701E+00
    -7.706E+00   -7.710E+00   -7.714E+00   -7.718E+00   -7.721E+00   -7.724E+00   -7.726E+00   -7.728E+00   -7.729E+00   -7.730E+00
    -7.730E+00   -7.730E+00   -7.730E+00   -7.729E+00   -7.728E+00   -7.726E+00   -7.724E+00   -7.721E+00   -7.718E+00   -7.715E+00
    -7.711E+00   -7.707E+00   -7.703E+00   -7.698E+00   -7.692E+00   -7.687E+00   -7.681E+00   -7.674E+00   -7.667E+00   -7.660E+00
    -7.652E+00   -7.645E+00   -7.636E+00   -7.628E+00   -7.619E+00   -7.609E+00   -7.599E+00   -7.589E+00   -7.579E+00   -7.568E+00
    -7.557E+00   -7.545E+00   -7.534E+00   -7.521E+00   -7.509E+00   -7.496E+00   -7.483E+00   -7.469E+00   -7.455E+00   -7.441E+00
    -7.426E+00   -7.411E+00   -7.396E+00   -7.380E+00   -7.364E+00   -7.348E+00   -7.331E+00   -7.314E+00   -7.297E+00   -7.279E+00
    -7.261E+00   -7.243E+00   -7.224E+00   -7.205E+00   -7.186E+00   -7.166E+00   -7.146E+00   -7.126E+00   -7.105E+00   -7.084E+00
    -7.063E+00   -7.041E+00   -7.019E+00   -6.997E+00   -6.975E+00   -6.952E+00   -6.928E+00   -6.905E+00   -6.881E+00   -6.857E+00
    -6.832E+00   -6.807E+00   -6.782E+00   -6.757E+00   -6.731E+00   -6.705E+00   -6.679E+00   -6.652E+00   -6.625E+00   -6.598E+00
    -6.570E+00   -6.543E+00   -6.515E+00   -6.486E+00   -6.458E+00   -6.429E+00   -6.399E+00   -6.370E+00   -6.340E+00   -6.310E+00
    -6.280E+00   -6.250E+00   -6.219E+00   -6.188E+00   -6.157E+00   -6.125E+00   -6.093E+00   -6.061E+00   -6.029E+00   -5.996E+00
    -5.964E+00   -5.931E+00   -5.898E+00   -5.864E+00   -5.830E+00   -5.797E+00   -5.762E+00   -5.728E+00   -5.694E+00   -5.659E+00
    -5.624E+00   -5.589E+00   -5.553E+00   -5.518E+00   -5.482E+00   -5.446E+00   -5.410E+00   -5.373E+00   -5.337E+00   -5.300E+00
    -5.263E+00   -5.226E+00   -5.188E+00   -5.150E+00   -5.113E+00   -5.075E+00   -5.036E+00   -4.998E+00   -4.960E+00   -4.921E+00
    -4.882E+00   -4.843E+00   -4.803E+00   -4.764E+00   -4.724E+00   -4.684E+00   -4.644E+00   -4.604E+00   -4.563E+00   -4.523E+00
    -4.482E+00   -4.441E+00   -4.400E+00   -4.358E+00   -4.317E+00   -4.275E+00   -4.233E+00   -4.191E+00   -4.149E+00   -4.107E+00
    -4.064E+00   -4.022E+00   -3.979E+00   -3.936E+00   -3.892E+00   -3.849E+00   -3.805E+00   -3.762E+00   -3.718E+00   -3.674E+00
    -3.630E+00   -3.585E+00   -3.541E+00   -3.496E+00   -3.451E+00   -3.406E+00   -3.361E+00   -3.316E+00   -3.271E+00   -3.225E+00
    -3.180E+00   -3.134E+00   -3.088E+00   -3.042E+00   -2.996E+00   -2.950E+00   -2.904E+00   -2.857E+00   -2.811E+00   -2.764E+00
    -2.718E+00   -2.671E+00   -2.624E+00   -2.577E+00   -2.530E+00   -2.483E+00   -2.436E+00   -2.389E+00   -2.342E+00   -2.294E+00
    -2.247E+00   -2.199E+00   -2.152E+00   -2.104E+00   -2.057E+00   -2.009E+00   -1.961E+00   -1.914E+00   -1.866E+00   -1.818E+00
    -1.770E+00   -1.722E+00   -1.674E+00   -1.626E+00   -1.578E+00   -1.531E+00   -1.483E+00   -1.435E+00   -1.386E+00   -1.338E+00
    -1.290E+00   -1.242E+00   -1.194E+00   -1.146E+00   -1.098E+00   -1.050E+00   -1.002E+00   -9.535E-01   -9.053E-01   -8.571E-01
    -8.088E-01   -7.606E-01   -7.124E-01   -6.641E-01   -6.158E-01   -5.675E-01   -5.192E-01   -4.709E-01   -4.226E-01   -3.743E-01
    -3.259E-01   -2.776E-01   -2.292E-01   -1.808E-01   -1.325E-01   -8.409E-02   -3.570E-02    1.270E-02    6.110E-02    1.095E-01
     1.579E-01    2.064E-01    2.548E-01    3.032E-01    3.516E-01    4.001E-01    4.485E-01    4.970E-01
 Ala      Conc. = 1.24E+02
