 LCModel (Version 6.3-1L) Copyright: S.W. Provencher.          Ref.: Magn. Reson. Med. 30:672-679 (1993).                
 Slice#3 Row#2 Col#11  PD_05_press_2_raw_act
 36 lines in following concentration table = NCONC+1
    Conc.  %SD /Cr+PCr  Metabolite                                         
  610.721 129%  37.768 Ala                                                 
   19.932 138%   1.233 Asp                                                 
   16.170 753%   1.000 Cr                                                  
    0.000 999%   0.000 PCr                                                 
   13.683 120%   0.846 GABA                                                
   12.457 133%   0.770 Glc                                                 
    0.000 999%   0.000 Gln                                                 
    0.000 999%   0.000 Glu                                                 
    0.000 999%   0.000 GPC                                                 
  103.346  41%   6.391 PCh                                                 
    0.000 999%   0.000 GSH                                                 
    0.000 999%   0.000 Ins                                                 
 3.78E+03  17% 233.498 Lac                                                 
  113.233 112%   7.002 NAA                                                 
    0.000 999%   0.000 NAAG                                                
    4.436 124%   0.274 Scyllo                                              
   23.104 118%   1.429 Tau                                                 
   20.099 175%   1.243 -CrCH2                                              
  103.346  41%   6.391 GPC+PCh                                             
  113.233 112%   7.002 NAA+NAAG                                            
   16.170 753%   1.000 Cr+PCr                                              
    0.000 999%   0.000 Glu+Gln                                             
    0.000 999%   0.000 Lip13a                                              
    0.000 999%   0.000 Lip13b                                              
    0.000 999%   0.000 Lip09                                               
 5.41E-02 999% 3.3E-03 MM09                                                
 5.63E-04 999% 3.5E-05 Lip20                                               
 9.10E-02 999% 5.6E-03 MM20                                                
 1.47E-02 999% 9.1E-04 MM12                                                
 5.59E-02 999% 3.5E-03 MM14                                                
    0.000 999%   0.000 MM17                                                
    0.000 999%   0.000 Lip13a+Lip13b                                       
 7.05E-02 999% 4.4E-03 MM14+Lip13a+Lip13b+MM12                             
 5.41E-02 999% 3.3E-03 MM09+Lip09                                          
 9.15E-02 999% 5.7E-03 MM20+Lip20                                          
   6 lines in following misc. output table
  FWHM = 0.153 ppm    S/N =   1                                            
  Data shift = 0.015 ppm                                                   
  Ph:-158 deg     -45.0 deg/ppm                                            
  alphaB,S = 8.5E+01,   1.7E+02                                            
   13 spline knots.   Ns = 9(2)                                            
  (10) 5 infls.   ( 3) 3 extrs.                                            
  498 points on ppm-axis = NY
      4.000000     3.992357     3.984714     3.977070     3.969427     3.961784     3.954141     3.946497     3.938854     3.931211
      3.923568     3.915925     3.908281     3.900638     3.892995     3.885352     3.877708     3.870065     3.862422     3.854779
      3.847136     3.839492     3.831849     3.824206     3.816563     3.808919     3.801276     3.793633     3.785990     3.778347
      3.770703     3.763060     3.755417     3.747774     3.740130     3.732487     3.724844     3.717201     3.709558     3.701914
      3.694271     3.686628     3.678985     3.671341     3.663698     3.656055     3.648412     3.640769     3.633125     3.625482
      3.617839     3.610196     3.602552     3.594909     3.587266     3.579623     3.571980     3.564336     3.556693     3.549050
      3.541407     3.533763     3.526120     3.518477     3.510834     3.503191     3.495547     3.487904     3.480261     3.472618
      3.464974     3.457331     3.449688     3.442045     3.434402     3.426758     3.419115     3.411472     3.403829     3.396185
      3.388542     3.380899     3.373256     3.365613     3.357969     3.350326     3.342683     3.335040     3.327396     3.319753
      3.312110     3.304467     3.296824     3.289180     3.281537     3.273894     3.266251     3.258607     3.250964     3.243321
      3.235678     3.228034     3.220391     3.212748     3.205105     3.197462     3.189818     3.182175     3.174532     3.166889
      3.159245     3.151602     3.143959     3.136316     3.128673     3.121029     3.113386     3.105743     3.098100     3.090456
      3.082813     3.075170     3.067527     3.059884     3.052240     3.044597     3.036954     3.029311     3.021667     3.014024
      3.006381     2.998738     2.991095     2.983451     2.975808     2.968165     2.960522     2.952878     2.945235     2.937592
      2.929949     2.922306     2.914662     2.907019     2.899376     2.891733     2.884089     2.876446     2.868803     2.861160
      2.853517     2.845873     2.838230     2.830587     2.822944     2.815300     2.807657     2.800014     2.792371     2.784728
      2.777084     2.769441     2.761798     2.754155     2.746511     2.738868     2.731225     2.723582     2.715939     2.708295
      2.700652     2.693009     2.685366     2.677722     2.670079     2.662436     2.654793     2.647150     2.639506     2.631863
      2.624220     2.616577     2.608933     2.601290     2.593647     2.586004     2.578361     2.570717     2.563074     2.555431
      2.547788     2.540144     2.532501     2.524858     2.517215     2.509572     2.501928     2.494285     2.486642     2.478999
      2.471355     2.463712     2.456069     2.448426     2.440783     2.433139     2.425496     2.417853     2.410210     2.402566
      2.394923     2.387280     2.379637     2.371994     2.364350     2.356707     2.349064     2.341421     2.333777     2.326134
      2.318491     2.310848     2.303205     2.295561     2.287918     2.280275     2.272632     2.264988     2.257345     2.249702
      2.242059     2.234416     2.226772     2.219129     2.211486     2.203843     2.196199     2.188556     2.180913     2.173270
      2.165627     2.157983     2.150340     2.142697     2.135054     2.127410     2.119767     2.112124     2.104481     2.096838
      2.089194     2.081551     2.073908     2.066265     2.058621     2.050978     2.043335     2.035692     2.028049     2.020405
      2.012762     2.005119     1.997476     1.989833     1.982190     1.974546     1.966903     1.959260     1.951617     1.943974
      1.936331     1.928688     1.921045     1.913402     1.905759     1.898115     1.890472     1.882829     1.875186     1.867543
      1.859900     1.852257     1.844614     1.836971     1.829327     1.821684     1.814041     1.806398     1.798755     1.791112
      1.783469     1.775826     1.768183     1.760540     1.752896     1.745253     1.737610     1.729967     1.722324     1.714681
      1.707038     1.699395     1.691752     1.684108     1.676465     1.668822     1.661179     1.653536     1.645893     1.638250
      1.630607     1.622964     1.615321     1.607677     1.600034     1.592391     1.584748     1.577105     1.569462     1.561819
      1.554176     1.546533     1.538890     1.531246     1.523603     1.515960     1.508317     1.500674     1.493031     1.485388
      1.477745     1.470102     1.462458     1.454815     1.447172     1.439529     1.431886     1.424243     1.416600     1.408957
      1.401314     1.393671     1.386027     1.378384     1.370741     1.363098     1.355455     1.347812     1.340169     1.332526
      1.324883     1.317240     1.309596     1.301953     1.294310     1.286667     1.279024     1.271381     1.263738     1.256095
      1.248452     1.240808     1.233165     1.225522     1.217879     1.210236     1.202593     1.194950     1.187307     1.179664
      1.172021     1.164377     1.156734     1.149091     1.141448     1.133805     1.126162     1.118519     1.110876     1.103233
      1.095590     1.087946     1.080303     1.072660     1.065017     1.057374     1.049731     1.042088     1.034445     1.026802
      1.019158     1.011515     1.003872     0.996229     0.988586     0.980943     0.973300     0.965657     0.958014     0.950371
      0.942727     0.935084     0.927441     0.919798     0.912155     0.904512     0.896869     0.889226     0.881583     0.873940
      0.866296     0.858653     0.851010     0.843367     0.835724     0.828081     0.820438     0.812795     0.805152     0.797508
      0.789865     0.782222     0.774579     0.766936     0.759293     0.751650     0.744007     0.736364     0.728721     0.721077
      0.713434     0.705791     0.698148     0.690505     0.682862     0.675219     0.667576     0.659933     0.652290     0.644646
      0.637003     0.629360     0.621717     0.614074     0.606431     0.598788     0.591145     0.583502     0.575858     0.568215
      0.560572     0.552929     0.545286     0.537643     0.530000     0.522357     0.514714     0.507071     0.499427     0.491784
      0.484141     0.476498     0.468855     0.461212     0.453569     0.445925     0.438282     0.430639     0.422996     0.415353
      0.407710     0.400067     0.392424     0.384780     0.377137     0.369494     0.361851     0.354208     0.346565     0.338922
      0.331278     0.323635     0.315992     0.308349     0.300706     0.293063     0.285420     0.277777     0.270133     0.262490
      0.254847     0.247204     0.239561     0.231918     0.224275     0.216631     0.208988     0.201345
 NY phased data points follow
  -2.08335E+01 -3.78919E+01 -1.52817E+01 -1.29215E+01 -5.30046E+00 -2.17520E+01 -1.79165E+01 -2.48456E+01 -2.31373E+01 -1.97462E+01
  -1.68108E+01 -1.16233E+01 -1.31492E+01 -1.40377E+01 -1.83647E+01 -1.76850E+01 -7.03448E+00 -1.04433E+01 -1.03853E+01 -1.57801E+01
  -1.75825E+01 -2.10625E+01 -2.11224E+01 -2.71557E+01 -1.48476E+01 -1.92064E+01 -9.40930E+00 -2.31961E+01 -1.55495E+01 -2.04518E+01
  -1.93851E+01 -1.71570E+01 -1.03481E+01 -1.47514E+01 -8.01172E+00 -1.16502E+01 -1.63334E+01 -1.58721E+01 -1.52836E+01 -1.13932E+01
  -1.49052E+01 -1.49507E+01 -1.42509E+01 -4.93978E+00 -5.65163E+00 -1.12862E+01 -1.48346E+01 -1.38479E+01 -5.73533E+00 -1.58740E+01
  -1.12312E+01 -1.82262E+01 -1.22350E+01 -1.24056E+01 -4.04738E+00 -1.36479E+01 -1.87676E+00 -9.88832E+00 -1.45911E+01 -1.30196E+01
  -1.58697E+01 -1.51873E+01 -1.20112E+01 -3.78083E+00 -8.72104E+00 -1.37011E+01 -1.54499E+01 -3.64780E+00 -5.21331E+00 -9.24631E+00
  -8.55929E+00 -8.73501E+00 -8.47846E+00 -7.48740E+00 -1.07843E+01 -1.03213E+01 -1.43426E+01 -1.32249E+01 -6.53501E+00 -1.37865E+01
  -1.45338E+01 -1.08168E+01 -7.73827E+00 -1.46367E+01 -9.53706E+00 -1.21088E+01 -1.14947E+01  3.37847E+00 -1.07489E+01 -1.14746E+01
  -8.20230E+00  3.75992E+00 -1.80792E+01 -2.14080E+01 -5.63984E+00 -2.87712E+00 -1.13080E+01  3.20101E+00 -1.13564E+01 -1.26644E+01
  -4.91118E-01  3.03380E+00 -4.46101E+00 -7.07542E+00 -1.37326E+01 -8.84810E+00 -7.20930E+00 -2.99928E+00 -1.01396E+01  2.39110E+00
  -9.45745E+00 -8.95649E+00 -5.89996E+00 -1.28970E+01 -8.46765E+00 -3.91020E+00 -4.20457E+00 -1.13518E+01 -6.45232E+00 -1.03192E+01
  -1.60387E+00 -9.16719E-01 -1.44542E+01 -1.32355E+01  2.67626E+00 -6.59273E+00 -5.02649E+00 -5.46917E+00 -5.86555E+00 -1.22248E+01
  -2.31347E+00 -1.03062E+01 -7.12465E+00 -2.75459E+00  1.40571E+00 -6.72757E+00 -1.36366E+01 -1.70701E+01 -1.52974E+00 -1.57966E+00
  -7.01241E+00 -8.08637E+00 -8.26072E+00 -6.41957E+00 -1.72100E+01 -3.02712E+00 -1.16013E+01 -1.50051E+01 -8.35327E+00 -5.62656E+00
  -9.81095E+00 -2.54580E+00  9.91763E-01  5.15054E+00  3.25610E+00 -1.10162E+01 -1.50211E+00 -9.38124E+00 -6.83246E+00 -2.52889E+00
  -3.54484E-01 -1.10392E+00 -1.25524E+01 -1.78249E+01 -3.25455E+00 -2.03492E+00 -7.19104E+00 -2.25988E+00 -5.65249E+00 -5.31495E+00
  -5.68721E+00 -1.04953E+01 -1.35220E+01 -1.29020E+01 -7.77179E+00  8.60647E-01 -4.39506E+00 -1.14488E+01 -8.01341E+00  2.41118E+00
  -1.57975E+01 -7.97765E+00 -3.39416E+00 -7.47204E+00  3.57679E+00 -1.02154E+01 -1.08753E+01 -1.33348E+01  5.38922E-01 -5.19531E+00
  -7.45436E-01 -8.88041E+00 -5.46271E+00 -3.88064E+00 -1.05599E+01 -1.37936E+01 -1.10630E+01 -1.03210E+01  9.02276E-01 -8.80764E+00
  -5.30448E+00 -1.08131E+01 -1.13507E+01 -7.83611E+00 -1.40972E+01 -5.29680E+00 -1.17482E+01 -2.69704E+00 -3.56917E+00 -1.09089E+01
  -1.13290E+01 -4.71017E+00 -8.69268E+00 -6.15268E+00 -1.26361E+01 -8.00822E-01 -4.94377E+00 -1.47277E+00 -1.44413E+01 -3.76001E+00
  -1.55275E+01 -1.37646E+01 -6.80516E+00 -2.45798E+00 -4.12289E+00  9.38404E-01 -6.40036E+00 -3.06883E+00 -1.13462E+00 -5.33715E+00
   1.20035E+00 -5.36143E+00  2.02927E+00 -8.90978E-01  9.69274E-01 -1.15103E+01  2.14370E+00 -3.68574E+00 -1.34681E+00 -1.71101E+00
   2.79605E+00  3.29509E-01 -2.46770E+00 -3.54675E+00 -1.46324E+00  1.60897E+00 -9.97629E+00 -1.44341E+01 -4.97035E+00 -7.19483E+00
  -5.26122E+00 -7.87047E+00 -4.80755E-01  7.10430E+00 -7.36798E+00 -3.82333E+00 -1.02170E+01 -7.00611E+00 -2.84968E-01 -1.90900E+00
   2.87324E+00 -1.55384E+00  2.04059E+00 -9.65760E+00 -1.33680E+01 -2.38632E+00  8.47904E-01 -1.70672E+00 -3.93693E+00 -2.24285E+00
  -1.22680E+01  9.58614E+00  4.77011E+00  1.58702E-01 -1.17287E+01 -5.74312E+00  8.22057E-01 -4.96812E+00 -9.31795E+00 -9.95235E+00
  -1.92689E+01 -4.77915E+00 -1.61265E+00 -1.00716E+01 -7.79150E+00 -6.32560E-01 -1.15195E+01 -2.22460E+00 -9.02999E+00 -6.30037E+00
  -5.94790E+00 -7.95459E+00 -1.59324E+00  3.34475E-01 -3.69654E+00 -7.22957E+00 -2.87928E+00 -1.30013E+01 -4.59319E+00 -8.82179E+00
  -2.26887E+00 -9.96462E+00 -2.26932E+00 -2.38971E+00 -7.37163E+00 -7.06594E+00 -3.39826E+00 -1.70024E+00 -1.49461E-01 -9.12855E+00
   1.02672E+01 -3.90006E+00 -1.07014E+00 -7.19378E+00 -6.88349E+00 -6.24951E+00 -1.07771E+00  3.00754E+00  8.07437E+00  4.82601E+00
   8.24007E+00 -1.35145E+00 -2.99974E+00  1.30152E+01 -3.28431E+00 -3.69725E-01  9.95190E+00  1.15623E+00  1.32435E+00  1.03651E+01
   4.54167E+00  2.34865E+00  1.28413E+01  4.64001E+00  9.98464E+00  1.08182E+01  2.79723E+00  1.24617E+01  1.42067E+01  1.73039E+01
   1.29290E+01  2.09359E+01  7.02587E+00  1.08267E+01  1.17507E+01  4.88359E+00  5.02055E+00  3.00002E+00 -2.06559E+00  6.19810E+00
   4.26885E+00  9.99766E+00 -3.98159E+00 -3.32697E+00 -3.63435E+00  2.97316E+00  1.28257E+00  9.15942E+00 -4.73175E+00 -2.21683E+00
   2.94627E+00  4.78416E+00 -1.09072E+01 -1.18390E+00  2.46914E+00  2.18982E+00 -9.30146E+00  5.19009E+00  1.97630E+00 -3.12426E+00
  -6.55848E+00  1.01843E+00  5.57422E+00 -2.49027E+00 -1.36170E+01 -2.69501E+00 -4.63461E+00 -2.49964E+00  1.01348E-01 -1.01714E+01
  -6.70062E+00 -2.74776E+00 -2.03916E+00 -6.35096E+00  1.34788E+00  6.02306E+00 -5.06359E+00 -1.09703E+01 -8.98641E-01  4.57090E+00
  -6.23138E+00 -5.17591E+00 -1.81747E-01  1.85401E+00 -1.58574E+01 -6.16933E+00 -2.58631E+00  1.19768E+00 -1.96293E+00  1.56741E+00
   1.30208E+01 -2.05203E+00  4.85258E+00  1.30024E+00 -4.48871E+00 -1.71589E+00  1.54826E+01 -4.57838E-01 -3.63074E+00 -2.77684E+00
  -2.72502E-01  2.48676E+00 -3.52523E+00 -6.10427E+00 -7.11991E+00 -7.18769E+00 -1.00074E+01 -6.41351E+00 -9.27345E-01  3.79165E+00
  -1.02385E-01 -5.40420E+00 -4.31224E+00 -3.31774E+00  5.98056E-01 -1.66372E+00  2.16829E+00  1.15555E+00 -4.64852E+00 -3.03276E+00
  -3.52618E-01 -2.74025E+00  3.58704E+00  1.62854E-01  1.86627E-01 -1.19903E+00 -1.82720E-01  7.48233E+00 -1.10014E+01  4.38953E-01
   5.50557E+00 -3.13292E+00 -1.34548E+01 -1.01779E+01 -2.21210E+00  1.94534E+00  2.18362E+00  8.20511E+00  1.23094E+00 -2.80372E+00
  -2.02788E+00 -4.23181E+00  7.93955E+00  2.88639E+00 -1.05984E+01 -9.40826E-01  3.38013E+00 -2.70605E+00  1.90194E+00  2.05860E-01
   2.42554E+00 -8.48737E-01  6.98679E+00  3.90281E+00  4.31053E+00  4.65469E+00  1.47475E+00  2.00625E+00 -1.38769E+00  5.99561E-01
   8.96143E+00  6.44755E-02  8.03327E+00  4.12906E+00 -6.21415E-01  2.05224E+00  1.05864E+01 -5.48925E+00 -3.08513E+00  7.87366E+00
   1.20303E-01  1.08672E+01 -2.06410E+00 -3.20713E-01 -3.27557E+00  4.78896E+00 -3.40104E-01  9.60277E-01  8.57797E+00 -4.17851E+00
   4.86959E-01 -1.35857E+00 -4.29006E-01  8.33528E+00  3.45553E+00  6.39885E+00  6.04330E+00  7.42492E+00
 NY points of the fit to the data follow
  -1.44149E+01 -1.33638E+01 -1.40890E+01 -1.31436E+01 -1.36501E+01 -1.29256E+01 -1.33692E+01 -1.29492E+01 -1.33247E+01 -1.31375E+01
  -1.34111E+01 -1.32851E+01 -1.34074E+01 -1.32025E+01 -1.31970E+01 -1.29985E+01 -1.29212E+01 -1.27808E+01 -1.27152E+01 -1.26532E+01
  -1.26425E+01 -1.26177E+01 -1.26178E+01 -1.26220E+01 -1.26039E+01 -1.26251E+01 -1.25654E+01 -1.26034E+01 -1.24941E+01 -1.25566E+01
  -1.24049E+01 -1.24959E+01 -1.23041E+01 -1.24187E+01 -1.21966E+01 -1.23403E+01 -1.21033E+01 -1.22747E+01 -1.20389E+01 -1.22267E+01
  -1.20013E+01 -1.21771E+01 -1.19508E+01 -1.20972E+01 -1.18701E+01 -1.19799E+01 -1.17706E+01 -1.18543E+01 -1.16909E+01 -1.17680E+01
  -1.16473E+01 -1.17086E+01 -1.16220E+01 -1.16549E+01 -1.15815E+01 -1.15762E+01 -1.14999E+01 -1.14702E+01 -1.14032E+01 -1.13598E+01
  -1.13081E+01 -1.12608E+01 -1.12246E+01 -1.11790E+01 -1.11482E+01 -1.11013E+01 -1.10721E+01 -1.10224E+01 -1.09910E+01 -1.09396E+01
  -1.09079E+01 -1.08585E+01 -1.08243E+01 -1.07766E+01 -1.07362E+01 -1.06890E+01 -1.06426E+01 -1.05966E+01 -1.05440E+01 -1.04991E+01
  -1.04404E+01 -1.03951E+01 -1.03311E+01 -1.02782E+01 -1.01810E+01 -1.00184E+01 -9.88585E+00 -9.69657E+00 -9.55389E+00 -9.35296E+00
  -9.19387E+00 -8.94085E+00 -8.74590E+00 -8.40003E+00 -8.15959E+00 -7.71968E+00 -7.45746E+00 -7.00630E+00 -6.77204E+00 -6.41483E+00
  -6.24554E+00 -6.02221E+00 -5.92788E+00 -5.84062E+00 -5.82179E+00 -5.87462E+00 -5.92770E+00 -6.11286E+00 -6.22473E+00 -6.50961E+00
  -6.65646E+00 -6.97241E+00 -7.12937E+00 -7.44769E+00 -7.60731E+00 -7.92862E+00 -8.08689E+00 -8.40067E+00 -8.54122E+00 -8.80632E+00
  -8.91040E+00 -9.09113E+00 -9.14043E+00 -9.19272E+00 -9.18400E+00 -9.12390E+00 -9.09501E+00 -9.03721E+00 -9.01265E+00 -8.96254E+00
  -8.94218E+00 -8.90051E+00 -8.88317E+00 -8.84874E+00 -8.83178E+00 -8.80090E+00 -8.78247E+00 -8.75354E+00 -8.73305E+00 -8.70641E+00
  -8.68405E+00 -8.65983E+00 -8.63576E+00 -8.61294E+00 -8.58528E+00 -8.56076E+00 -8.52744E+00 -8.49666E+00 -8.45959E+00 -8.42323E+00
  -8.38651E+00 -8.35084E+00 -8.31549E+00 -8.28070E+00 -8.24646E+00 -8.21165E+00 -8.17812E+00 -8.14226E+00 -8.11071E+00 -8.07296E+00
  -8.04233E+00 -8.00289E+00 -7.97354E+00 -7.93414E+00 -7.90558E+00 -7.86548E+00 -7.83639E+00 -7.79595E+00 -7.76655E+00 -7.72799E+00
  -7.69542E+00 -7.65802E+00 -7.62025E+00 -7.58395E+00 -7.54110E+00 -7.50576E+00 -7.45760E+00 -7.42238E+00 -7.36860E+00 -7.33286E+00
  -7.27519E+00 -7.23924E+00 -7.17858E+00 -7.14152E+00 -7.07871E+00 -7.03783E+00 -6.97343E+00 -6.92937E+00 -6.86629E+00 -6.82069E+00
  -6.76113E+00 -6.71493E+00 -6.66022E+00 -6.61415E+00 -6.56472E+00 -6.52078E+00 -6.47482E+00 -6.43319E+00 -6.38944E+00 -6.35111E+00
  -6.30879E+00 -6.27542E+00 -6.23484E+00 -6.20684E+00 -6.16601E+00 -6.14129E+00 -6.09917E+00 -6.07689E+00 -6.03349E+00 -6.01191E+00
  -5.96636E+00 -5.94277E+00 -5.89547E+00 -5.86892E+00 -5.81883E+00 -5.78799E+00 -5.73560E+00 -5.70038E+00 -5.64838E+00 -5.60981E+00
  -5.56071E+00 -5.52008E+00 -5.47319E+00 -5.42994E+00 -5.38351E+00 -5.33729E+00 -5.29036E+00 -5.24230E+00 -5.19574E+00 -5.14652E+00
  -5.10036E+00 -5.05029E+00 -5.00412E+00 -4.95373E+00 -4.90684E+00 -4.85618E+00 -4.80737E+00 -4.75516E+00 -4.70379E+00 -4.64834E+00
  -4.59052E+00 -4.52037E+00 -4.42142E+00 -4.33593E+00 -4.23041E+00 -4.13764E+00 -4.03169E+00 -3.92911E+00 -3.81004E+00 -3.69082E+00
  -3.54786E+00 -3.40989E+00 -3.24812E+00 -3.10025E+00 -2.95240E+00 -2.81199E+00 -2.71403E+00 -2.59385E+00 -2.55478E+00 -2.45866E+00
  -2.47426E+00 -2.40350E+00 -2.47013E+00 -2.42456E+00 -2.53396E+00 -2.50965E+00 -2.64618E+00 -2.63313E+00 -2.76743E+00 -2.75766E+00
  -2.87961E+00 -2.87177E+00 -2.98272E+00 -2.97614E+00 -3.07288E+00 -3.06206E+00 -3.13020E+00 -3.10738E+00 -3.13469E+00 -3.09175E+00
  -3.06443E+00 -3.00018E+00 -2.92922E+00 -2.85731E+00 -2.78608E+00 -2.71415E+00 -2.64219E+00 -2.56937E+00 -2.49604E+00 -2.42168E+00
  -2.34640E+00 -2.26975E+00 -2.19170E+00 -2.11145E+00 -2.02943E+00 -1.94453E+00 -1.85739E+00 -1.76676E+00 -1.67331E+00 -1.57567E+00
  -1.47447E+00 -1.36802E+00 -1.25657E+00 -1.13817E+00 -1.01223E+00 -8.75972E-01 -7.27089E-01 -5.59279E-01 -3.61084E-01 -1.30748E-01
   1.66266E-02  2.30465E-01  3.41756E-01  5.50440E-01  6.48082E-01  8.71980E-01  9.43426E-01  1.28053E+00  1.35653E+00  1.72372E+00
   1.72101E+00  2.03660E+00  1.94252E+00  2.21736E+00  2.13640E+00  2.47311E+00  2.56267E+00  3.11015E+00  3.62763E+00  4.54973E+00
   4.80444E+00  5.59676E+00  5.64720E+00  6.36175E+00  6.32253E+00  7.09962E+00  6.96094E+00  8.57407E+00  7.86039E+00  9.84015E+00
   7.85834E+00  9.72891E+00  6.34922E+00  8.24380E+00  3.94504E+00  6.46552E+00  1.71796E+00  5.39436E+00  3.27604E-01  5.02444E+00
  -3.36764E-01  4.83973E+00 -5.50336E-01  4.81467E+00 -2.37716E-01  5.21113E+00  5.28970E-01  5.65466E+00  1.33265E+00  5.62856E+00
   1.77130E+00  5.03879E+00  1.95877E+00  4.51746E+00  2.32651E+00  4.36145E+00  2.94005E+00  4.39773E+00  3.23723E+00  3.81562E+00
   2.44916E+00  2.03997E+00  8.63989E-01 -2.95803E-02 -8.10636E-01 -1.54435E+00 -1.86552E+00 -2.03190E+00 -2.12808E+00 -2.18338E+00
  -2.21238E+00 -2.22320E+00 -2.22114E+00 -2.20948E+00 -2.19068E+00 -2.16632E+00 -2.13783E+00 -2.10604E+00 -2.07181E+00 -2.03554E+00
  -1.99777E+00 -1.95872E+00 -1.91882E+00 -1.87818E+00 -1.83709E+00 -1.79555E+00 -1.75378E+00 -1.71177E+00 -1.66974E+00 -1.62765E+00
  -1.58564E+00 -1.54362E+00 -1.50175E+00 -1.45996E+00 -1.41838E+00 -1.37694E+00 -1.33573E+00 -1.29464E+00 -1.25381E+00 -1.21315E+00
  -1.17277E+00 -1.13256E+00 -1.09262E+00 -1.05283E+00 -1.01332E+00 -9.73985E-01 -9.34943E-01 -8.96063E-01 -8.57446E-01 -8.18979E-01
  -7.80789E-01 -7.42764E-01 -7.05012E-01 -6.67403E-01 -6.30043E-01 -5.92823E-01 -5.55866E-01 -5.19056E-01 -4.82496E-01 -4.46057E-01
  -4.09852E-01 -3.73773E-01 -3.37941E-01 -3.02231E-01 -2.66749E-01 -2.31367E-01 -1.96206E-01 -1.61154E-01 -1.26330E-01 -9.16053E-02
  -5.70869E-02 -2.26508E-02  1.15775E-02  4.57137E-02  7.96413E-02  1.13493E-01  1.47157E-01  1.80753E-01  2.14154E-01  2.47482E-01
   2.80621E-01  3.13706E-01  3.46617E-01  3.79476E-01  4.12153E-01  4.44777E-01  4.77232E-01  5.09652E-01  5.41914E-01  5.74138E-01
   6.06198E-01  6.38225E-01  6.70105E-01  7.01970E-01  7.33692E-01  7.65394E-01  7.96954E-01  8.28505E-01  8.59934E-01  8.91367E-01
   9.22681E-01  9.53997E-01  9.85201E-01  1.01643E+00  1.04756E+00  1.07873E+00  1.10980E+00  1.14092E+00  1.17197E+00  1.20308E+00
   1.23414E+00  1.26528E+00  1.29639E+00  1.32760E+00  1.35880E+00  1.39015E+00  1.42152E+00  1.45306E+00  1.48467E+00  1.51650E+00
   1.54845E+00  1.58070E+00  1.61315E+00  1.64598E+00  1.67912E+00  1.71277E+00  1.74690E+00  1.78176E+00
 NY background values follow
    -1.367E+01   -1.364E+01   -1.361E+01   -1.358E+01   -1.354E+01   -1.351E+01   -1.348E+01   -1.344E+01   -1.341E+01   -1.338E+01
    -1.334E+01   -1.331E+01   -1.328E+01   -1.324E+01   -1.321E+01   -1.318E+01   -1.314E+01   -1.311E+01   -1.308E+01   -1.304E+01
    -1.301E+01   -1.298E+01   -1.294E+01   -1.291E+01   -1.288E+01   -1.284E+01   -1.281E+01   -1.277E+01   -1.274E+01   -1.271E+01
    -1.267E+01   -1.264E+01   -1.261E+01   -1.257E+01   -1.254E+01   -1.250E+01   -1.247E+01   -1.244E+01   -1.240E+01   -1.237E+01
    -1.234E+01   -1.230E+01   -1.227E+01   -1.223E+01   -1.220E+01   -1.217E+01   -1.213E+01   -1.210E+01   -1.206E+01   -1.203E+01
    -1.200E+01   -1.196E+01   -1.193E+01   -1.189E+01   -1.186E+01   -1.182E+01   -1.179E+01   -1.176E+01   -1.172E+01   -1.169E+01
    -1.165E+01   -1.162E+01   -1.158E+01   -1.155E+01   -1.152E+01   -1.148E+01   -1.145E+01   -1.141E+01   -1.138E+01   -1.134E+01
    -1.131E+01   -1.128E+01   -1.124E+01   -1.121E+01   -1.117E+01   -1.114E+01   -1.110E+01   -1.107E+01   -1.103E+01   -1.100E+01
    -1.096E+01   -1.093E+01   -1.090E+01   -1.086E+01   -1.083E+01   -1.079E+01   -1.076E+01   -1.072E+01   -1.069E+01   -1.065E+01
    -1.062E+01   -1.058E+01   -1.055E+01   -1.051E+01   -1.048E+01   -1.044E+01   -1.041E+01   -1.038E+01   -1.034E+01   -1.031E+01
    -1.027E+01   -1.024E+01   -1.020E+01   -1.017E+01   -1.013E+01   -1.010E+01   -1.006E+01   -1.003E+01   -9.992E+00   -9.957E+00
    -9.923E+00   -9.888E+00   -9.853E+00   -9.818E+00   -9.783E+00   -9.748E+00   -9.713E+00   -9.678E+00   -9.643E+00   -9.609E+00
    -9.574E+00   -9.539E+00   -9.504E+00   -9.469E+00   -9.434E+00   -9.399E+00   -9.364E+00   -9.329E+00   -9.294E+00   -9.259E+00
    -9.224E+00   -9.189E+00   -9.154E+00   -9.119E+00   -9.084E+00   -9.049E+00   -9.014E+00   -8.980E+00   -8.945E+00   -8.910E+00
    -8.875E+00   -8.840E+00   -8.805E+00   -8.770E+00   -8.735E+00   -8.700E+00   -8.665E+00   -8.630E+00   -8.595E+00   -8.560E+00
    -8.525E+00   -8.490E+00   -8.455E+00   -8.420E+00   -8.385E+00   -8.350E+00   -8.315E+00   -8.280E+00   -8.245E+00   -8.210E+00
    -8.175E+00   -8.140E+00   -8.105E+00   -8.070E+00   -8.035E+00   -8.000E+00   -7.965E+00   -7.931E+00   -7.896E+00   -7.861E+00
    -7.826E+00   -7.791E+00   -7.756E+00   -7.721E+00   -7.686E+00   -7.651E+00   -7.616E+00   -7.581E+00   -7.547E+00   -7.512E+00
    -7.477E+00   -7.442E+00   -7.407E+00   -7.372E+00   -7.337E+00   -7.303E+00   -7.268E+00   -7.233E+00   -7.198E+00   -7.163E+00
    -7.128E+00   -7.094E+00   -7.059E+00   -7.024E+00   -6.989E+00   -6.955E+00   -6.920E+00   -6.885E+00   -6.850E+00   -6.816E+00
    -6.781E+00   -6.746E+00   -6.712E+00   -6.677E+00   -6.642E+00   -6.608E+00   -6.573E+00   -6.538E+00   -6.504E+00   -6.469E+00
    -6.435E+00   -6.400E+00   -6.365E+00   -6.331E+00   -6.296E+00   -6.262E+00   -6.227E+00   -6.193E+00   -6.158E+00   -6.124E+00
    -6.089E+00   -6.055E+00   -6.021E+00   -5.986E+00   -5.952E+00   -5.917E+00   -5.883E+00   -5.849E+00   -5.814E+00   -5.780E+00
    -5.746E+00   -5.711E+00   -5.677E+00   -5.643E+00   -5.609E+00   -5.574E+00   -5.540E+00   -5.506E+00   -5.472E+00   -5.438E+00
    -5.403E+00   -5.369E+00   -5.335E+00   -5.301E+00   -5.267E+00   -5.233E+00   -5.199E+00   -5.165E+00   -5.131E+00   -5.097E+00
    -5.063E+00   -5.029E+00   -4.995E+00   -4.961E+00   -4.927E+00   -4.894E+00   -4.860E+00   -4.826E+00   -4.792E+00   -4.758E+00
    -4.725E+00   -4.691E+00   -4.657E+00   -4.623E+00   -4.590E+00   -4.556E+00   -4.522E+00   -4.489E+00   -4.455E+00   -4.422E+00
    -4.388E+00   -4.355E+00   -4.321E+00   -4.288E+00   -4.254E+00   -4.221E+00   -4.187E+00   -4.154E+00   -4.121E+00   -4.087E+00
    -4.054E+00   -4.021E+00   -3.988E+00   -3.954E+00   -3.921E+00   -3.888E+00   -3.855E+00   -3.822E+00   -3.789E+00   -3.756E+00
    -3.723E+00   -3.690E+00   -3.657E+00   -3.624E+00   -3.591E+00   -3.558E+00   -3.525E+00   -3.492E+00   -3.459E+00   -3.427E+00
    -3.394E+00   -3.361E+00   -3.328E+00   -3.296E+00   -3.263E+00   -3.230E+00   -3.198E+00   -3.165E+00   -3.133E+00   -3.100E+00
    -3.068E+00   -3.035E+00   -3.003E+00   -2.971E+00   -2.938E+00   -2.906E+00   -2.874E+00   -2.842E+00   -2.809E+00   -2.777E+00
    -2.745E+00   -2.713E+00   -2.681E+00   -2.649E+00   -2.617E+00   -2.585E+00   -2.553E+00   -2.521E+00   -2.489E+00   -2.457E+00
    -2.425E+00   -2.393E+00   -2.362E+00   -2.330E+00   -2.298E+00   -2.267E+00   -2.235E+00   -2.203E+00   -2.172E+00   -2.140E+00
    -2.109E+00   -2.077E+00   -2.046E+00   -2.015E+00   -1.983E+00   -1.952E+00   -1.921E+00   -1.890E+00   -1.858E+00   -1.827E+00
    -1.796E+00   -1.765E+00   -1.734E+00   -1.703E+00   -1.672E+00   -1.641E+00   -1.610E+00   -1.579E+00   -1.549E+00   -1.518E+00
    -1.487E+00   -1.456E+00   -1.426E+00   -1.395E+00   -1.365E+00   -1.334E+00   -1.304E+00   -1.273E+00   -1.243E+00   -1.212E+00
    -1.182E+00   -1.152E+00   -1.121E+00   -1.091E+00   -1.061E+00   -1.031E+00   -1.001E+00   -9.709E-01   -9.409E-01   -9.109E-01
    -8.810E-01   -8.511E-01   -8.213E-01   -7.915E-01   -7.618E-01   -7.321E-01   -7.024E-01   -6.728E-01   -6.432E-01   -6.137E-01
    -5.842E-01   -5.548E-01   -5.254E-01   -4.960E-01   -4.667E-01   -4.374E-01   -4.082E-01   -3.791E-01   -3.499E-01   -3.208E-01
    -2.918E-01   -2.628E-01   -2.339E-01   -2.050E-01   -1.761E-01   -1.473E-01   -1.186E-01   -8.985E-02   -6.119E-02   -3.257E-02
    -4.000E-03    2.452E-02    5.300E-02    8.143E-02    1.098E-01    1.381E-01    1.664E-01    1.947E-01    2.228E-01    2.510E-01
     2.791E-01    3.071E-01    3.351E-01    3.631E-01    3.909E-01    4.188E-01    4.466E-01    4.743E-01    5.020E-01    5.297E-01
     5.573E-01    5.848E-01    6.123E-01    6.397E-01    6.671E-01    6.945E-01    7.218E-01    7.490E-01    7.762E-01    8.033E-01
     8.304E-01    8.574E-01    8.844E-01    9.113E-01    9.382E-01    9.650E-01    9.918E-01    1.018E+00    1.045E+00    1.072E+00
     1.098E+00    1.125E+00    1.151E+00    1.178E+00    1.204E+00    1.230E+00    1.256E+00    1.283E+00    1.309E+00    1.335E+00
     1.361E+00    1.387E+00    1.413E+00    1.439E+00    1.464E+00    1.490E+00    1.516E+00    1.541E+00    1.567E+00    1.592E+00
     1.618E+00    1.643E+00    1.669E+00    1.694E+00    1.719E+00    1.744E+00    1.769E+00    1.794E+00    1.819E+00    1.844E+00
     1.869E+00    1.894E+00    1.919E+00    1.943E+00    1.968E+00    1.993E+00    2.017E+00    2.042E+00    2.066E+00    2.090E+00
     2.115E+00    2.139E+00    2.163E+00    2.187E+00    2.211E+00    2.235E+00    2.259E+00    2.283E+00
 Ala      Conc. = 6.11E+02
