 LCModel (Version 6.3-1L) Copyright: S.W. Provencher.          Ref.: Magn. Reson. Med. 30:672-679 (1993).                
 Slice#2 Row#10 Col#5  PD_05_press_2_raw_act
 36 lines in following concentration table = NCONC+1
    Conc.  %SD /Cr+PCr  Metabolite                                         
    0.000 999%   0.000 Ala                                                 
  203.936 153%   0.111 Asp                                                 
  422.127  69%   0.230 Cr                                                  
 1.41E+03  22%   0.770 PCr                                                 
  143.639 155% 7.8E-02 GABA                                                
    0.000 999%   0.000 Glc                                                 
 1.31E+03  28%   0.713 Gln                                                 
 3.10E+03  14%   1.689 Glu                                                 
  553.732   6%   0.302 GPC                                                 
    0.000 999%   0.000 PCh                                                 
 1.04E+03  11%   0.566 GSH                                                 
 1.49E+03  31%   0.813 Ins                                                 
    0.000 999%   0.000 Lac                                                 
 3.62E+03   5%   1.973 NAA                                                 
  285.279  63%   0.155 NAAG                                                
  183.020  23%   0.100 Scyllo                                              
    0.000 999%   0.000 Tau                                                 
  294.676  54%   0.161 -CrCH2                                              
  553.732   6%   0.302 GPC+PCh                                             
 3.91E+03   3%   2.129 NAA+NAAG                                            
 1.84E+03   5%   1.000 Cr+PCr                                              
 4.41E+03  14%   2.403 Glu+Gln                                             
 2.88E+03  28%   1.567 Lip13a                                              
    0.000 999%   0.000 Lip13b                                              
  263.874 174%   0.144 Lip09                                               
 1.54E+03  29%   0.839 MM09                                                
  481.510  66%   0.262 Lip20                                               
 3.52E+03  20%   1.917 MM20                                                
  543.174  49%   0.296 MM12                                                
 1.18E+03  40%   0.642 MM14                                                
  161.148 229% 8.8E-02 MM17                                                
 2.88E+03  28%   1.567 Lip13a+Lip13b                                       
 4.60E+03  17%   2.505 MM14+Lip13a+Lip13b+MM12                             
 1.80E+03  19%   0.983 MM09+Lip09                                          
 4.00E+03  17%   2.179 MM20+Lip20                                          
   6 lines in following misc. output table
  FWHM = 0.054 ppm    S/N =  14                                            
  Data shift = 0.008 ppm                                                   
  Ph: -50 deg     -17.6 deg/ppm                                            
  alphaB,S = 4.1E-01,   1.8E+02                                            
   14 spline knots.   Ns = 8(1)                                            
  (10) 3 infls.   ( 5) 1 extrs.                                            
  498 points on ppm-axis = NY
      4.000000     3.992357     3.984714     3.977070     3.969427     3.961784     3.954141     3.946497     3.938854     3.931211
      3.923568     3.915925     3.908281     3.900638     3.892995     3.885352     3.877708     3.870065     3.862422     3.854779
      3.847136     3.839492     3.831849     3.824206     3.816563     3.808919     3.801276     3.793633     3.785990     3.778347
      3.770703     3.763060     3.755417     3.747774     3.740130     3.732487     3.724844     3.717201     3.709558     3.701914
      3.694271     3.686628     3.678985     3.671341     3.663698     3.656055     3.648412     3.640769     3.633125     3.625482
      3.617839     3.610196     3.602552     3.594909     3.587266     3.579623     3.571980     3.564336     3.556693     3.549050
      3.541407     3.533763     3.526120     3.518477     3.510834     3.503191     3.495547     3.487904     3.480261     3.472618
      3.464974     3.457331     3.449688     3.442045     3.434402     3.426758     3.419115     3.411472     3.403829     3.396185
      3.388542     3.380899     3.373256     3.365613     3.357969     3.350326     3.342683     3.335040     3.327396     3.319753
      3.312110     3.304467     3.296824     3.289180     3.281537     3.273894     3.266251     3.258607     3.250964     3.243321
      3.235678     3.228034     3.220391     3.212748     3.205105     3.197462     3.189818     3.182175     3.174532     3.166889
      3.159245     3.151602     3.143959     3.136316     3.128673     3.121029     3.113386     3.105743     3.098100     3.090456
      3.082813     3.075170     3.067527     3.059884     3.052240     3.044597     3.036954     3.029311     3.021667     3.014024
      3.006381     2.998738     2.991095     2.983451     2.975808     2.968165     2.960522     2.952878     2.945235     2.937592
      2.929949     2.922306     2.914662     2.907019     2.899376     2.891733     2.884089     2.876446     2.868803     2.861160
      2.853517     2.845873     2.838230     2.830587     2.822944     2.815300     2.807657     2.800014     2.792371     2.784728
      2.777084     2.769441     2.761798     2.754155     2.746511     2.738868     2.731225     2.723582     2.715939     2.708295
      2.700652     2.693009     2.685366     2.677722     2.670079     2.662436     2.654793     2.647150     2.639506     2.631863
      2.624220     2.616577     2.608933     2.601290     2.593647     2.586004     2.578361     2.570717     2.563074     2.555431
      2.547788     2.540144     2.532501     2.524858     2.517215     2.509572     2.501928     2.494285     2.486642     2.478999
      2.471355     2.463712     2.456069     2.448426     2.440783     2.433139     2.425496     2.417853     2.410210     2.402566
      2.394923     2.387280     2.379637     2.371994     2.364350     2.356707     2.349064     2.341421     2.333777     2.326134
      2.318491     2.310848     2.303205     2.295561     2.287918     2.280275     2.272632     2.264988     2.257345     2.249702
      2.242059     2.234416     2.226772     2.219129     2.211486     2.203843     2.196199     2.188556     2.180913     2.173270
      2.165627     2.157983     2.150340     2.142697     2.135054     2.127410     2.119767     2.112124     2.104481     2.096838
      2.089194     2.081551     2.073908     2.066265     2.058621     2.050978     2.043335     2.035692     2.028049     2.020405
      2.012762     2.005119     1.997476     1.989833     1.982190     1.974546     1.966903     1.959260     1.951617     1.943974
      1.936331     1.928688     1.921045     1.913402     1.905759     1.898115     1.890472     1.882829     1.875186     1.867543
      1.859900     1.852257     1.844614     1.836971     1.829327     1.821684     1.814041     1.806398     1.798755     1.791112
      1.783469     1.775826     1.768183     1.760540     1.752896     1.745253     1.737610     1.729967     1.722324     1.714681
      1.707038     1.699395     1.691752     1.684108     1.676465     1.668822     1.661179     1.653536     1.645893     1.638250
      1.630607     1.622964     1.615321     1.607677     1.600034     1.592391     1.584748     1.577105     1.569462     1.561819
      1.554176     1.546533     1.538890     1.531246     1.523603     1.515960     1.508317     1.500674     1.493031     1.485388
      1.477745     1.470102     1.462458     1.454815     1.447172     1.439529     1.431886     1.424243     1.416600     1.408957
      1.401314     1.393671     1.386027     1.378384     1.370741     1.363098     1.355455     1.347812     1.340169     1.332526
      1.324883     1.317240     1.309596     1.301953     1.294310     1.286667     1.279024     1.271381     1.263738     1.256095
      1.248452     1.240808     1.233165     1.225522     1.217879     1.210236     1.202593     1.194950     1.187307     1.179664
      1.172021     1.164377     1.156734     1.149091     1.141448     1.133805     1.126162     1.118519     1.110876     1.103233
      1.095590     1.087946     1.080303     1.072660     1.065017     1.057374     1.049731     1.042088     1.034445     1.026802
      1.019158     1.011515     1.003872     0.996229     0.988586     0.980943     0.973300     0.965657     0.958014     0.950371
      0.942727     0.935084     0.927441     0.919798     0.912155     0.904512     0.896869     0.889226     0.881583     0.873940
      0.866296     0.858653     0.851010     0.843367     0.835724     0.828081     0.820438     0.812795     0.805152     0.797508
      0.789865     0.782222     0.774579     0.766936     0.759293     0.751650     0.744007     0.736364     0.728721     0.721077
      0.713434     0.705791     0.698148     0.690505     0.682862     0.675219     0.667576     0.659933     0.652290     0.644646
      0.637003     0.629360     0.621717     0.614074     0.606431     0.598788     0.591145     0.583502     0.575858     0.568215
      0.560572     0.552929     0.545286     0.537643     0.530000     0.522357     0.514714     0.507071     0.499427     0.491784
      0.484141     0.476498     0.468855     0.461212     0.453569     0.445925     0.438282     0.430639     0.422996     0.415353
      0.407710     0.400067     0.392424     0.384780     0.377137     0.369494     0.361851     0.354208     0.346565     0.338922
      0.331278     0.323635     0.315992     0.308349     0.300706     0.293063     0.285420     0.277777     0.270133     0.262490
      0.254847     0.247204     0.239561     0.231918     0.224275     0.216631     0.208988     0.201345
 NY phased data points follow
  -2.96569E+02 -2.91949E+02 -2.88405E+02 -2.79602E+02 -2.69091E+02 -2.56939E+02 -2.56043E+02 -2.45994E+02 -2.35694E+02 -2.28521E+02
  -2.26850E+02 -2.27332E+02 -2.24008E+02 -2.29351E+02 -2.29639E+02 -2.34271E+02 -2.34011E+02 -2.35436E+02 -2.34682E+02 -2.29164E+02
  -2.27252E+02 -2.24974E+02 -2.23047E+02 -2.15829E+02 -2.07251E+02 -2.04990E+02 -2.02667E+02 -1.98702E+02 -1.96649E+02 -1.89618E+02
  -1.77678E+02 -1.85799E+02 -1.80282E+02 -1.79253E+02 -1.79117E+02 -1.74979E+02 -1.79303E+02 -1.73871E+02 -1.71491E+02 -1.70686E+02
  -1.63714E+02 -1.64102E+02 -1.63097E+02 -1.61384E+02 -1.60853E+02 -1.55928E+02 -1.52884E+02 -1.51117E+02 -1.48441E+02 -1.52549E+02
  -1.50321E+02 -1.51219E+02 -1.53746E+02 -1.52340E+02 -1.55602E+02 -1.46710E+02 -1.47786E+02 -1.50638E+02 -1.46372E+02 -1.48849E+02
  -1.46548E+02 -1.45782E+02 -1.47218E+02 -1.42815E+02 -1.44866E+02 -1.45064E+02 -1.50141E+02 -1.43671E+02 -1.38849E+02 -1.41180E+02
  -1.36302E+02 -1.40267E+02 -1.35019E+02 -1.32969E+02 -1.30311E+02 -1.30108E+02 -1.23275E+02 -1.21462E+02 -1.18837E+02 -1.24656E+02
  -1.15186E+02 -1.23432E+02 -1.18269E+02 -1.15686E+02 -1.14366E+02 -1.19758E+02 -1.04524E+02 -1.05619E+02 -1.07500E+02 -1.11326E+02
  -1.01398E+02 -1.03308E+02 -9.80588E+01 -9.27053E+01 -9.88295E+01 -9.73123E+01 -9.15907E+01 -9.54012E+01 -8.83130E+01 -7.86502E+01
  -6.85755E+01 -6.34913E+01 -5.39396E+01 -5.38467E+01 -5.78275E+01 -6.58888E+01 -6.88103E+01 -7.21093E+01 -8.08714E+01 -7.85991E+01
  -8.08624E+01 -8.27891E+01 -8.51477E+01 -8.84881E+01 -7.82693E+01 -8.60457E+01 -8.30730E+01 -7.95833E+01 -7.57291E+01 -7.47106E+01
  -7.23875E+01 -7.20308E+01 -6.23784E+01 -5.18258E+01 -4.56161E+01 -3.28091E+01 -2.40095E+01 -1.80492E+01 -1.99389E+01 -2.85817E+01
  -3.61799E+01 -4.63956E+01 -5.39877E+01 -5.82638E+01 -6.33645E+01 -6.79929E+01 -6.52934E+01 -6.84180E+01 -7.05918E+01 -7.14142E+01
  -6.85808E+01 -6.88006E+01 -6.89039E+01 -6.34325E+01 -6.37263E+01 -6.88063E+01 -6.74371E+01 -6.37375E+01 -6.17903E+01 -6.40465E+01
  -6.62779E+01 -6.53528E+01 -6.21210E+01 -6.37889E+01 -6.38639E+01 -6.76501E+01 -6.83467E+01 -7.00688E+01 -6.43753E+01 -6.37997E+01
  -6.77258E+01 -6.46076E+01 -5.98769E+01 -6.07185E+01 -6.20258E+01 -6.46456E+01 -6.00974E+01 -6.17663E+01 -6.10646E+01 -5.90669E+01
  -5.63184E+01 -6.48468E+01 -6.60089E+01 -6.40441E+01 -6.19928E+01 -7.04072E+01 -6.66747E+01 -6.47945E+01 -6.79896E+01 -6.31842E+01
  -6.45074E+01 -6.28508E+01 -6.79170E+01 -6.29470E+01 -6.04554E+01 -5.82158E+01 -5.65745E+01 -5.10193E+01 -4.94912E+01 -5.09309E+01
  -4.21618E+01 -3.88420E+01 -4.88985E+01 -3.92754E+01 -4.11167E+01 -4.20660E+01 -4.20319E+01 -4.13306E+01 -3.80038E+01 -4.03281E+01
  -3.96870E+01 -4.15409E+01 -3.63458E+01 -3.21073E+01 -3.24895E+01 -3.17453E+01 -3.43038E+01 -3.98710E+01 -3.04858E+01 -3.95301E+01
  -4.23211E+01 -3.26591E+01 -3.00795E+01 -2.32022E+01 -2.35089E+01 -1.50766E+01 -1.19340E+01 -1.65191E+01 -1.73339E+01 -2.45416E+01
  -2.68868E+01 -3.05707E+01 -3.09654E+01 -3.32621E+01 -3.28846E+01 -1.85037E+01 -1.72095E+01 -1.41816E+01 -1.10666E+01 -1.53165E+01
  -1.38770E+01 -1.52522E+01 -1.50149E+01 -1.74744E+01 -1.49867E+01 -1.07302E+01 -7.15644E+00 -1.35903E+01 -6.44219E+00 -5.89167E+00
  -1.57927E+01 -7.69407E+00 -1.16987E+01 -1.09280E+01 -8.85951E+00 -6.40160E+00  8.02870E-01 -1.65161E+00  2.01815E+00  8.38570E+00
   8.92537E+00  1.17132E+01  2.19884E+01  2.65419E+01  3.32436E+01  3.92011E+01  5.36741E+01  6.46837E+01  8.30442E+01  9.99559E+01
   1.15033E+02  1.08352E+02  1.03278E+02  8.47205E+01  6.15360E+01  4.09787E+01  3.21819E+01  2.00299E+01  1.11621E+01  7.45143E+00
   3.16498E+00  2.58910E+00 -3.76923E+00 -1.62105E+00 -1.30583E-01 -2.95027E+00 -2.46153E+00 -3.89733E+00 -6.80401E+00 -3.81510E+00
  -3.82067E+00 -2.46831E+00 -2.08053E+00 -1.21570E+01 -6.53425E+00 -1.07303E+01 -9.92660E-01 -4.19074E+00 -7.52019E+00 -5.46371E+00
  -4.35015E+00 -8.43795E+00 -3.94060E+00 -6.66071E+00 -1.20237E+01 -9.35610E+00 -9.75782E+00 -1.09423E+01 -7.13188E+00 -9.51650E+00
  -2.34312E+00 -7.40516E+00 -3.78475E+00 -2.57733E+00 -4.47009E+00 -1.57668E+00 -2.42383E+00 -3.57342E+00 -8.56887E-01  1.87209E+00
   3.56220E+00 -2.34089E-01 -8.63846E-01 -1.23662E+00 -1.10287E+00 -6.45133E-01 -5.35910E-01 -4.70007E+00  5.66975E-01 -4.74622E+00
  -6.10438E+00 -6.47321E+00  3.22043E+00 -3.10536E+00 -1.24978E+00 -1.61407E+00 -8.27937E-01  4.54570E+00  8.46976E+00  4.92833E+00
   4.59804E+00  6.14811E+00  7.90610E+00  1.29471E+01  1.07529E+01  1.59213E+01  1.04281E+01  1.11585E+01  1.59131E+01  1.22017E+01
   1.62374E+01  1.26722E+01  1.61212E+01  1.79617E+01  1.56469E+01  1.68705E+01  1.75012E+01  1.98254E+01  1.59842E+01  1.66113E+01
   2.39527E+01  1.86823E+01  2.63352E+01  2.14698E+01  2.25207E+01  2.18713E+01  2.15748E+01  2.11476E+01  2.15051E+01  1.51964E+01
   1.38675E+01  2.09852E+01  1.75855E+01  1.41047E+01  1.99698E+01  1.72947E+01  1.79425E+01  2.43747E+01  1.89465E+01  1.61351E+01
   1.87709E+01  2.16494E+01  1.55730E+01  1.58539E+01  1.37179E+01  1.52880E+01  2.05093E+01  1.76978E+01  1.69928E+01  1.99736E+01
   1.42858E+01  2.22289E+01  1.87861E+01  1.68833E+01  1.16712E+01  1.77853E+01  1.44470E+01  1.32781E+01  1.45004E+01  2.18644E+01
   1.15102E+01  2.12484E+01  1.18542E+01  1.75998E+01  1.66661E+01  1.12180E+01  1.62958E+01  2.42466E+01  9.28039E+00  1.61854E+01
   1.78632E+01  2.17295E+01  2.29041E+01  2.58748E+01  2.16076E+01  2.80773E+01  2.82519E+01  2.42134E+01  3.01546E+01  2.27173E+01
   2.18483E+01  2.09525E+01  2.53683E+01  2.05030E+01  2.16007E+01  1.37952E+01  2.33452E+01  1.65979E+01  1.54955E+01  2.05285E+01
   2.17672E+01  2.29243E+01  1.49146E+01  1.94058E+01  1.58059E+01  1.54041E+01  2.05308E+01  1.57520E+01  9.78812E+00  1.00748E+01
   1.34179E+01  9.45352E+00  1.08920E+01  1.11555E+01  1.51958E+01  1.42963E+01  9.48304E+00  1.16916E+01  1.17904E+01  1.37905E+01
   1.27964E+01  1.02866E+01  1.63024E+01  9.11192E+00  1.81242E+01  1.52474E+01  1.66880E+01  1.75620E+01  1.73284E+01  1.12953E+01
   8.86973E+00  1.74714E+01  1.50873E+01  1.39859E+01  1.30464E+01  1.37456E+01  1.80844E+01  1.11412E+01  1.62643E+01  1.55329E+01
   1.57112E+01  1.29948E+01  8.44859E+00  1.13576E+01  1.48794E+01  1.74032E+01  1.18309E+01  1.24299E+01  1.84575E+01  9.82706E+00
   1.18100E+01  2.05467E+01  1.41458E+01  1.42935E+01  1.53735E+01  1.40095E+01  1.52311E+01  1.70248E+01  2.18225E+01  1.75918E+01
   1.44675E+01  1.66507E+01  1.61534E+01  1.97400E+01  1.43356E+01  7.47811E+00  1.59092E+01  1.29435E+01  1.40357E+01  1.15682E+01
   1.68576E+01  1.41068E+01  1.32353E+01  1.40253E+01  1.53807E+01  1.62471E+01  1.73485E+01  1.68573E+01
 NY points of the fit to the data follow
  -2.86664E+02 -2.82928E+02 -2.78346E+02 -2.73201E+02 -2.67451E+02 -2.60857E+02 -2.53341E+02 -2.45269E+02 -2.37535E+02 -2.31349E+02
  -2.27583E+02 -2.26347E+02 -2.27007E+02 -2.28490E+02 -2.29810E+02 -2.30485E+02 -2.30591E+02 -2.30369E+02 -2.29845E+02 -2.28550E+02
  -2.26852E+02 -2.24774E+02 -2.21792E+02 -2.18307E+02 -2.14810E+02 -2.11046E+02 -2.06477E+02 -2.00808E+02 -1.94298E+02 -1.87530E+02
  -1.81523E+02 -1.77315E+02 -1.75309E+02 -1.75295E+02 -1.76715E+02 -1.78748E+02 -1.80679E+02 -1.81910E+02 -1.82123E+02 -1.81091E+02
  -1.78680E+02 -1.75441E+02 -1.71876E+02 -1.68160E+02 -1.64394E+02 -1.60806E+02 -1.57860E+02 -1.55872E+02 -1.54955E+02 -1.54983E+02
  -1.55428E+02 -1.55674E+02 -1.55420E+02 -1.54632E+02 -1.53514E+02 -1.52181E+02 -1.50559E+02 -1.48635E+02 -1.46624E+02 -1.44798E+02
  -1.43323E+02 -1.42243E+02 -1.41464E+02 -1.40740E+02 -1.39869E+02 -1.38754E+02 -1.37392E+02 -1.35869E+02 -1.34255E+02 -1.32606E+02
  -1.31013E+02 -1.29544E+02 -1.28260E+02 -1.27161E+02 -1.26202E+02 -1.25315E+02 -1.24427E+02 -1.23499E+02 -1.22511E+02 -1.21213E+02
  -1.19712E+02 -1.18235E+02 -1.16695E+02 -1.14944E+02 -1.12945E+02 -1.10795E+02 -1.08760E+02 -1.07182E+02 -1.06256E+02 -1.05958E+02
  -1.06028E+02 -1.06117E+02 -1.05948E+02 -1.05272E+02 -1.03198E+02 -9.95634E+01 -9.57657E+01 -9.15006E+01 -8.58286E+01 -7.84225E+01
  -6.97721E+01 -6.13498E+01 -5.52975E+01 -5.33071E+01 -5.56112E+01 -6.10245E+01 -6.76547E+01 -7.37885E+01 -7.85440E+01 -8.20179E+01
  -8.47692E+01 -8.70830E+01 -8.83488E+01 -8.82607E+01 -8.76871E+01 -8.69675E+01 -8.61543E+01 -8.51190E+01 -8.29774E+01 -7.85355E+01
  -7.34426E+01 -6.81895E+01 -6.17235E+01 -5.32830E+01 -4.31602E+01 -3.27421E+01 -2.44373E+01 -2.07360E+01 -2.24041E+01 -2.82745E+01
  -3.62255E+01 -4.40893E+01 -5.06364E+01 -5.59825E+01 -6.08094E+01 -6.55093E+01 -6.92120E+01 -7.05726E+01 -7.03443E+01 -6.92213E+01
  -6.76835E+01 -6.61961E+01 -6.50903E+01 -6.44107E+01 -6.40398E+01 -6.39295E+01 -6.39994E+01 -6.41677E+01 -6.43965E+01 -6.46327E+01
  -6.48290E+01 -6.49538E+01 -6.49791E+01 -6.50114E+01 -6.50208E+01 -6.49112E+01 -6.47073E+01 -6.44740E+01 -6.43758E+01 -6.44800E+01
  -6.46234E+01 -6.45865E+01 -6.42510E+01 -6.36578E+01 -6.30082E+01 -6.25523E+01 -6.24177E+01 -6.25810E+01 -6.29290E+01 -6.32645E+01
  -6.33600E+01 -6.33457E+01 -6.34206E+01 -6.36746E+01 -6.39817E+01 -6.40260E+01 -6.36949E+01 -6.31166E+01 -6.24653E+01 -6.19236E+01
  -6.14759E+01 -6.09114E+01 -6.01244E+01 -5.90731E+01 -5.77569E+01 -5.62426E+01 -5.45320E+01 -5.24924E+01 -5.00617E+01 -4.74824E+01
  -4.53083E+01 -4.38959E+01 -4.33050E+01 -4.33351E+01 -4.36590E+01 -4.39037E+01 -4.36080E+01 -4.26119E+01 -4.09231E+01 -3.86446E+01
  -3.61312E+01 -3.37868E+01 -3.20550E+01 -3.10371E+01 -3.09609E+01 -3.20586E+01 -3.40586E+01 -3.62871E+01 -3.79337E+01 -3.83987E+01
  -3.76303E+01 -3.54782E+01 -3.20438E+01 -2.78473E+01 -2.37606E+01 -2.07876E+01 -1.94433E+01 -1.98832E+01 -2.22080E+01 -2.59182E+01
  -2.99482E+01 -3.29159E+01 -3.39152E+01 -3.28421E+01 -3.00611E+01 -2.61295E+01 -2.17914E+01 -1.80357E+01 -1.55336E+01 -1.39922E+01
  -1.29536E+01 -1.21289E+01 -1.13363E+01 -1.04822E+01 -9.42870E+00 -8.15054E+00 -6.90050E+00 -5.99232E+00 -5.69326E+00 -6.18701E+00
  -7.26062E+00 -8.44617E+00 -9.16828E+00 -8.91959E+00 -7.61924E+00 -5.57297E+00 -3.23133E+00 -8.48007E-01  1.49536E+00  3.54378E+00
   5.40316E+00  7.90022E+00  1.35544E+01  2.33518E+01  3.35584E+01  4.36505E+01  5.53788E+01  6.96104E+01  8.54461E+01  1.00161E+02
   1.09415E+02  1.09518E+02  9.99430E+01  8.33762E+01  6.41054E+01  4.62547E+01  3.21117E+01  2.13310E+01  1.23764E+01  4.47653E+00
  -9.17107E-01 -2.84115E+00 -3.47103E+00 -3.70261E+00 -3.74069E+00 -3.73325E+00 -3.84068E+00 -4.07169E+00 -4.39264E+00 -4.75923E+00
  -5.12344E+00 -5.44234E+00 -5.70718E+00 -5.91118E+00 -6.03749E+00 -6.09610E+00 -6.11707E+00 -6.11885E+00 -6.10478E+00 -6.07041E+00
  -6.01514E+00 -5.95002E+00 -5.87329E+00 -5.78382E+00 -5.68731E+00 -5.58578E+00 -5.47510E+00 -5.35328E+00 -5.21959E+00 -5.07299E+00
  -4.91313E+00 -4.74153E+00 -4.55926E+00 -4.36944E+00 -4.17661E+00 -3.98286E+00 -3.78784E+00 -3.58969E+00 -3.38658E+00 -3.17734E+00
  -2.95891E+00 -2.72862E+00 -2.48399E+00 -2.22187E+00 -1.93886E+00 -1.63227E+00 -1.29955E+00 -9.38359E-01 -5.46676E-01 -1.23024E-01
   3.33640E-01  8.23789E-01  1.34750E+00  1.90438E+00  2.49363E+00  3.11384E+00  3.76297E+00  4.43840E+00  5.13710E+00  5.85573E+00
   6.59071E+00  7.33816E+00  8.09398E+00  8.85399E+00  9.61424E+00  1.03710E+01  1.11209E+01  1.18608E+01  1.25877E+01  1.32990E+01
   1.39927E+01  1.46669E+01  1.53198E+01  1.59495E+01  1.65542E+01  1.71317E+01  1.76800E+01  1.81963E+01  1.86780E+01  1.91215E+01
   1.95236E+01  1.98805E+01  2.01888E+01  2.04453E+01  2.06469E+01  2.07913E+01  2.08767E+01  2.09024E+01  2.08687E+01  2.07770E+01
   2.06294E+01  2.04292E+01  2.01808E+01  1.98895E+01  1.95617E+01  1.92041E+01  1.88236E+01  1.84275E+01  1.80228E+01  1.76164E+01
   1.72151E+01  1.68247E+01  1.64508E+01  1.60983E+01  1.57717E+01  1.54747E+01  1.52105E+01  1.49818E+01  1.47908E+01  1.46394E+01
   1.45295E+01  1.44624E+01  1.44395E+01  1.44620E+01  1.45311E+01  1.46481E+01  1.48143E+01  1.50305E+01  1.52976E+01  1.56159E+01
   1.59852E+01  1.64045E+01  1.68719E+01  1.73841E+01  1.79364E+01  1.85223E+01  1.91340E+01  1.97616E+01  2.03937E+01  2.10174E+01
   2.16186E+01  2.21829E+01  2.26954E+01  2.31419E+01  2.35094E+01  2.37865E+01  2.39645E+01  2.40373E+01  2.40022E+01  2.38596E+01
   2.36134E+01  2.32705E+01  2.28409E+01  2.23369E+01  2.17723E+01  2.11621E+01  2.05215E+01  1.98654E+01  1.92079E+01  1.85616E+01
   1.79375E+01  1.73445E+01  1.67894E+01  1.62772E+01  1.58109E+01  1.53920E+01  1.50201E+01  1.46942E+01  1.44118E+01  1.41702E+01
   1.39662E+01  1.37963E+01  1.36570E+01  1.35449E+01  1.34567E+01  1.33894E+01  1.33403E+01  1.33070E+01  1.32871E+01  1.32788E+01
   1.32804E+01  1.32905E+01  1.33077E+01  1.33312E+01  1.33598E+01  1.33927E+01  1.34293E+01  1.34691E+01  1.35114E+01  1.35559E+01
   1.36020E+01  1.36495E+01  1.36980E+01  1.37474E+01  1.37974E+01  1.38478E+01  1.38985E+01  1.39494E+01  1.40003E+01  1.40513E+01
   1.41021E+01  1.41527E+01  1.42031E+01  1.42531E+01  1.43029E+01  1.43522E+01  1.44011E+01  1.44494E+01  1.44973E+01  1.45446E+01
   1.45914E+01  1.46376E+01  1.46832E+01  1.47282E+01  1.47725E+01  1.48163E+01  1.48594E+01  1.49019E+01  1.49437E+01  1.49849E+01
   1.50254E+01  1.50653E+01  1.51046E+01  1.51432E+01  1.51811E+01  1.52184E+01  1.52552E+01  1.52914E+01  1.53270E+01  1.53620E+01
   1.53964E+01  1.54304E+01  1.54639E+01  1.54970E+01  1.55296E+01  1.55619E+01  1.55939E+01  1.56256E+01
 NY background values follow
    -2.895E+02   -2.866E+02   -2.837E+02   -2.809E+02   -2.780E+02   -2.751E+02   -2.723E+02   -2.694E+02   -2.666E+02   -2.638E+02
    -2.610E+02   -2.582E+02   -2.554E+02   -2.527E+02   -2.499E+02   -2.472E+02   -2.444E+02   -2.417E+02   -2.391E+02   -2.364E+02
    -2.337E+02   -2.311E+02   -2.285E+02   -2.259E+02   -2.233E+02   -2.208E+02   -2.182E+02   -2.157E+02   -2.132E+02   -2.108E+02
    -2.083E+02   -2.059E+02   -2.035E+02   -2.012E+02   -1.988E+02   -1.965E+02   -1.943E+02   -1.920E+02   -1.898E+02   -1.876E+02
    -1.854E+02   -1.833E+02   -1.812E+02   -1.791E+02   -1.771E+02   -1.751E+02   -1.731E+02   -1.712E+02   -1.693E+02   -1.675E+02
    -1.656E+02   -1.638E+02   -1.621E+02   -1.603E+02   -1.586E+02   -1.569E+02   -1.553E+02   -1.537E+02   -1.521E+02   -1.505E+02
    -1.490E+02   -1.475E+02   -1.460E+02   -1.445E+02   -1.431E+02   -1.416E+02   -1.402E+02   -1.389E+02   -1.375E+02   -1.362E+02
    -1.349E+02   -1.336E+02   -1.323E+02   -1.311E+02   -1.298E+02   -1.286E+02   -1.274E+02   -1.263E+02   -1.251E+02   -1.239E+02
    -1.228E+02   -1.217E+02   -1.206E+02   -1.195E+02   -1.184E+02   -1.173E+02   -1.163E+02   -1.152E+02   -1.142E+02   -1.131E+02
    -1.121E+02   -1.111E+02   -1.101E+02   -1.091E+02   -1.081E+02   -1.071E+02   -1.062E+02   -1.052E+02   -1.042E+02   -1.033E+02
    -1.024E+02   -1.014E+02   -1.005E+02   -9.959E+01   -9.869E+01   -9.780E+01   -9.691E+01   -9.604E+01   -9.517E+01   -9.431E+01
    -9.347E+01   -9.263E+01   -9.180E+01   -9.099E+01   -9.018E+01   -8.938E+01   -8.859E+01   -8.782E+01   -8.705E+01   -8.630E+01
    -8.555E+01   -8.481E+01   -8.409E+01   -8.338E+01   -8.267E+01   -8.198E+01   -8.130E+01   -8.063E+01   -7.997E+01   -7.932E+01
    -7.869E+01   -7.806E+01   -7.745E+01   -7.685E+01   -7.626E+01   -7.568E+01   -7.512E+01   -7.456E+01   -7.402E+01   -7.349E+01
    -7.297E+01   -7.245E+01   -7.195E+01   -7.146E+01   -7.097E+01   -7.049E+01   -7.002E+01   -6.956E+01   -6.910E+01   -6.864E+01
    -6.820E+01   -6.775E+01   -6.732E+01   -6.688E+01   -6.645E+01   -6.602E+01   -6.559E+01   -6.517E+01   -6.474E+01   -6.432E+01
    -6.389E+01   -6.347E+01   -6.304E+01   -6.262E+01   -6.219E+01   -6.176E+01   -6.133E+01   -6.089E+01   -6.045E+01   -6.000E+01
    -5.955E+01   -5.910E+01   -5.863E+01   -5.817E+01   -5.769E+01   -5.721E+01   -5.672E+01   -5.622E+01   -5.571E+01   -5.519E+01
    -5.466E+01   -5.413E+01   -5.358E+01   -5.302E+01   -5.245E+01   -5.187E+01   -5.128E+01   -5.069E+01   -5.008E+01   -4.947E+01
    -4.886E+01   -4.823E+01   -4.760E+01   -4.697E+01   -4.633E+01   -4.568E+01   -4.504E+01   -4.439E+01   -4.373E+01   -4.307E+01
    -4.242E+01   -4.176E+01   -4.110E+01   -4.043E+01   -3.977E+01   -3.911E+01   -3.845E+01   -3.779E+01   -3.714E+01   -3.648E+01
    -3.583E+01   -3.518E+01   -3.454E+01   -3.390E+01   -3.327E+01   -3.264E+01   -3.202E+01   -3.140E+01   -3.079E+01   -3.019E+01
    -2.959E+01   -2.901E+01   -2.843E+01   -2.786E+01   -2.731E+01   -2.676E+01   -2.622E+01   -2.570E+01   -2.518E+01   -2.468E+01
    -2.419E+01   -2.370E+01   -2.323E+01   -2.277E+01   -2.232E+01   -2.188E+01   -2.145E+01   -2.103E+01   -2.062E+01   -2.022E+01
    -1.982E+01   -1.944E+01   -1.907E+01   -1.871E+01   -1.835E+01   -1.800E+01   -1.767E+01   -1.734E+01   -1.702E+01   -1.670E+01
    -1.640E+01   -1.610E+01   -1.581E+01   -1.553E+01   -1.526E+01   -1.499E+01   -1.473E+01   -1.448E+01   -1.424E+01   -1.400E+01
    -1.377E+01   -1.355E+01   -1.333E+01   -1.312E+01   -1.291E+01   -1.271E+01   -1.252E+01   -1.233E+01   -1.215E+01   -1.198E+01
    -1.180E+01   -1.164E+01   -1.148E+01   -1.132E+01   -1.117E+01   -1.103E+01   -1.088E+01   -1.074E+01   -1.061E+01   -1.048E+01
    -1.035E+01   -1.022E+01   -1.010E+01   -9.978E+00   -9.858E+00   -9.740E+00   -9.623E+00   -9.508E+00   -9.393E+00   -9.279E+00
    -9.166E+00   -9.052E+00   -8.938E+00   -8.824E+00   -8.709E+00   -8.593E+00   -8.475E+00   -8.357E+00   -8.236E+00   -8.113E+00
    -7.988E+00   -7.860E+00   -7.729E+00   -7.595E+00   -7.458E+00   -7.317E+00   -7.172E+00   -7.023E+00   -6.870E+00   -6.711E+00
    -6.548E+00   -6.379E+00   -6.205E+00   -6.025E+00   -5.839E+00   -5.647E+00   -5.448E+00   -5.242E+00   -5.029E+00   -4.810E+00
    -4.585E+00   -4.354E+00   -4.118E+00   -3.877E+00   -3.630E+00   -3.379E+00   -3.124E+00   -2.865E+00   -2.603E+00   -2.337E+00
    -2.069E+00   -1.797E+00   -1.524E+00   -1.248E+00   -9.707E-01   -6.920E-01   -4.122E-01   -1.317E-01    1.492E-01    4.302E-01
     7.111E-01    9.914E-01    1.271E+00    1.549E+00    1.826E+00    2.101E+00    2.374E+00    2.645E+00    2.913E+00    3.178E+00
     3.440E+00    3.698E+00    3.952E+00    4.201E+00    4.447E+00    4.687E+00    4.922E+00    5.151E+00    5.375E+00    5.593E+00
     5.804E+00    6.008E+00    6.205E+00    6.396E+00    6.579E+00    6.755E+00    6.925E+00    7.089E+00    7.246E+00    7.398E+00
     7.543E+00    7.683E+00    7.818E+00    7.948E+00    8.072E+00    8.192E+00    8.307E+00    8.417E+00    8.524E+00    8.626E+00
     8.724E+00    8.819E+00    8.910E+00    8.998E+00    9.083E+00    9.165E+00    9.244E+00    9.321E+00    9.395E+00    9.468E+00
     9.538E+00    9.606E+00    9.673E+00    9.739E+00    9.803E+00    9.866E+00    9.929E+00    9.991E+00    1.005E+01    1.011E+01
     1.017E+01    1.024E+01    1.030E+01    1.036E+01    1.042E+01    1.049E+01    1.055E+01    1.062E+01    1.068E+01    1.075E+01
     1.082E+01    1.089E+01    1.097E+01    1.104E+01    1.111E+01    1.119E+01    1.127E+01    1.134E+01    1.142E+01    1.150E+01
     1.158E+01    1.166E+01    1.174E+01    1.182E+01    1.190E+01    1.198E+01    1.207E+01    1.215E+01    1.223E+01    1.231E+01
     1.240E+01    1.248E+01    1.256E+01    1.265E+01    1.273E+01    1.281E+01    1.290E+01    1.298E+01    1.306E+01    1.314E+01
     1.322E+01    1.331E+01    1.339E+01    1.347E+01    1.354E+01    1.362E+01    1.370E+01    1.378E+01    1.385E+01    1.393E+01
     1.400E+01    1.408E+01    1.415E+01    1.422E+01    1.429E+01    1.436E+01    1.442E+01    1.449E+01    1.455E+01    1.462E+01
     1.468E+01    1.474E+01    1.480E+01    1.486E+01    1.492E+01    1.498E+01    1.504E+01    1.509E+01    1.514E+01    1.520E+01
     1.525E+01    1.530E+01    1.535E+01    1.540E+01    1.545E+01    1.550E+01    1.554E+01    1.559E+01    1.563E+01    1.567E+01
     1.572E+01    1.576E+01    1.580E+01    1.584E+01    1.588E+01    1.591E+01    1.595E+01    1.598E+01    1.602E+01    1.605E+01
     1.609E+01    1.612E+01    1.615E+01    1.618E+01    1.621E+01    1.624E+01    1.626E+01    1.629E+01
 Asp      Conc. = 2.04E+02
