 LCModel (Version 6.3-1L) Copyright: S.W. Provencher.          Ref.: Magn. Reson. Med. 30:672-679 (1993).                
 Slice#3 Row#1 Col#8  PD_05_press_2_raw_act
 36 lines in following concentration table = NCONC+1
    Conc.  %SD /Cr+PCr  Metabolite                                         
    0.000 999%   0.000 Ala                                                 
   37.228  91% 9.6E-02 Asp                                                 
  389.016  31%   1.000 Cr                                                  
    0.000 999%   0.000 PCr                                                 
   23.933  85% 6.2E-02 GABA                                                
   23.675  86% 6.1E-02 Glc                                                 
 1.85E+03  42%   4.745 Gln                                                 
 2.18E+03  39%   5.609 Glu                                                 
   33.370 142% 8.6E-02 GPC                                                 
    0.000 999%   0.000 PCh                                                 
  294.021  67%   0.756 GSH                                                 
 1.09E+03  53%   2.803 Ins                                                 
    0.000 999%   0.000 Lac                                                 
  148.826 130%   0.383 NAA                                                 
  129.754 151%   0.334 NAAG                                                
    8.578  79% 2.2E-02 Scyllo                                              
   39.860  84%   0.102 Tau                                                 
    0.000 999%   0.000 -CrCH2                                              
   33.370 142% 8.6E-02 GPC+PCh                                             
  278.580  59%   0.716 NAA+NAAG                                            
  389.016  31%   1.000 Cr+PCr                                              
 4.03E+03  32%  10.354 Glu+Gln                                             
  448.353 513%   1.153 Lip13a                                              
 1.60E+03 117%   4.113 Lip13b                                              
  370.178  93%   0.952 Lip09                                               
  190.361 202%   0.489 MM09                                                
  438.231  53%   1.127 Lip20                                               
  369.793 156%   0.951 MM20                                                
   56.887 216%   0.146 MM12                                                
  116.676 296%   0.300 MM14                                                
   13.961 999% 3.6E-02 MM17                                                
 2.05E+03  37%   5.265 Lip13a+Lip13b                                       
 2.22E+03  27%   5.711 MM14+Lip13a+Lip13b+MM12                             
  560.539  54%   1.441 MM09+Lip09                                          
  808.024  66%   2.077 MM20+Lip20                                          
   6 lines in following misc. output table
  FWHM = 0.076 ppm    S/N =   1                                            
  Data shift = 0.046 ppm                                                   
  Ph: 147 deg       4.9 deg/ppm                                            
  alphaB,S = 8.5E+01,   1.0E+02                                            
   14 spline knots.   Ns = 6(1)                                            
   2 inflections.     1 extrema                                            
  498 points on ppm-axis = NY
      4.000000     3.992357     3.984714     3.977070     3.969427     3.961784     3.954141     3.946497     3.938854     3.931211
      3.923568     3.915925     3.908281     3.900638     3.892995     3.885352     3.877708     3.870065     3.862422     3.854779
      3.847136     3.839492     3.831849     3.824206     3.816563     3.808919     3.801276     3.793633     3.785990     3.778347
      3.770703     3.763060     3.755417     3.747774     3.740130     3.732487     3.724844     3.717201     3.709558     3.701914
      3.694271     3.686628     3.678985     3.671341     3.663698     3.656055     3.648412     3.640769     3.633125     3.625482
      3.617839     3.610196     3.602552     3.594909     3.587266     3.579623     3.571980     3.564336     3.556693     3.549050
      3.541407     3.533763     3.526120     3.518477     3.510834     3.503191     3.495547     3.487904     3.480261     3.472618
      3.464974     3.457331     3.449688     3.442045     3.434402     3.426758     3.419115     3.411472     3.403829     3.396185
      3.388542     3.380899     3.373256     3.365613     3.357969     3.350326     3.342683     3.335040     3.327396     3.319753
      3.312110     3.304467     3.296824     3.289180     3.281537     3.273894     3.266251     3.258607     3.250964     3.243321
      3.235678     3.228034     3.220391     3.212748     3.205105     3.197462     3.189818     3.182175     3.174532     3.166889
      3.159245     3.151602     3.143959     3.136316     3.128673     3.121029     3.113386     3.105743     3.098100     3.090456
      3.082813     3.075170     3.067527     3.059884     3.052240     3.044597     3.036954     3.029311     3.021667     3.014024
      3.006381     2.998738     2.991095     2.983451     2.975808     2.968165     2.960522     2.952878     2.945235     2.937592
      2.929949     2.922306     2.914662     2.907019     2.899376     2.891733     2.884089     2.876446     2.868803     2.861160
      2.853517     2.845873     2.838230     2.830587     2.822944     2.815300     2.807657     2.800014     2.792371     2.784728
      2.777084     2.769441     2.761798     2.754155     2.746511     2.738868     2.731225     2.723582     2.715939     2.708295
      2.700652     2.693009     2.685366     2.677722     2.670079     2.662436     2.654793     2.647150     2.639506     2.631863
      2.624220     2.616577     2.608933     2.601290     2.593647     2.586004     2.578361     2.570717     2.563074     2.555431
      2.547788     2.540144     2.532501     2.524858     2.517215     2.509572     2.501928     2.494285     2.486642     2.478999
      2.471355     2.463712     2.456069     2.448426     2.440783     2.433139     2.425496     2.417853     2.410210     2.402566
      2.394923     2.387280     2.379637     2.371994     2.364350     2.356707     2.349064     2.341421     2.333777     2.326134
      2.318491     2.310848     2.303205     2.295561     2.287918     2.280275     2.272632     2.264988     2.257345     2.249702
      2.242059     2.234416     2.226772     2.219129     2.211486     2.203843     2.196199     2.188556     2.180913     2.173270
      2.165627     2.157983     2.150340     2.142697     2.135054     2.127410     2.119767     2.112124     2.104481     2.096838
      2.089194     2.081551     2.073908     2.066265     2.058621     2.050978     2.043335     2.035692     2.028049     2.020405
      2.012762     2.005119     1.997476     1.989833     1.982190     1.974546     1.966903     1.959260     1.951617     1.943974
      1.936331     1.928688     1.921045     1.913402     1.905759     1.898115     1.890472     1.882829     1.875186     1.867543
      1.859900     1.852257     1.844614     1.836971     1.829327     1.821684     1.814041     1.806398     1.798755     1.791112
      1.783469     1.775826     1.768183     1.760540     1.752896     1.745253     1.737610     1.729967     1.722324     1.714681
      1.707038     1.699395     1.691752     1.684108     1.676465     1.668822     1.661179     1.653536     1.645893     1.638250
      1.630607     1.622964     1.615321     1.607677     1.600034     1.592391     1.584748     1.577105     1.569462     1.561819
      1.554176     1.546533     1.538890     1.531246     1.523603     1.515960     1.508317     1.500674     1.493031     1.485388
      1.477745     1.470102     1.462458     1.454815     1.447172     1.439529     1.431886     1.424243     1.416600     1.408957
      1.401314     1.393671     1.386027     1.378384     1.370741     1.363098     1.355455     1.347812     1.340169     1.332526
      1.324883     1.317240     1.309596     1.301953     1.294310     1.286667     1.279024     1.271381     1.263738     1.256095
      1.248452     1.240808     1.233165     1.225522     1.217879     1.210236     1.202593     1.194950     1.187307     1.179664
      1.172021     1.164377     1.156734     1.149091     1.141448     1.133805     1.126162     1.118519     1.110876     1.103233
      1.095590     1.087946     1.080303     1.072660     1.065017     1.057374     1.049731     1.042088     1.034445     1.026802
      1.019158     1.011515     1.003872     0.996229     0.988586     0.980943     0.973300     0.965657     0.958014     0.950371
      0.942727     0.935084     0.927441     0.919798     0.912155     0.904512     0.896869     0.889226     0.881583     0.873940
      0.866296     0.858653     0.851010     0.843367     0.835724     0.828081     0.820438     0.812795     0.805152     0.797508
      0.789865     0.782222     0.774579     0.766936     0.759293     0.751650     0.744007     0.736364     0.728721     0.721077
      0.713434     0.705791     0.698148     0.690505     0.682862     0.675219     0.667576     0.659933     0.652290     0.644646
      0.637003     0.629360     0.621717     0.614074     0.606431     0.598788     0.591145     0.583502     0.575858     0.568215
      0.560572     0.552929     0.545286     0.537643     0.530000     0.522357     0.514714     0.507071     0.499427     0.491784
      0.484141     0.476498     0.468855     0.461212     0.453569     0.445925     0.438282     0.430639     0.422996     0.415353
      0.407710     0.400067     0.392424     0.384780     0.377137     0.369494     0.361851     0.354208     0.346565     0.338922
      0.331278     0.323635     0.315992     0.308349     0.300706     0.293063     0.285420     0.277777     0.270133     0.262490
      0.254847     0.247204     0.239561     0.231918     0.224275     0.216631     0.208988     0.201345
 NY phased data points follow
   1.22000E+01  1.60782E+01  1.15627E+01  1.16272E+01  2.52808E+00  1.12609E+01  1.23786E+01  1.10072E+01 -2.67204E+00  1.24543E+01
   1.00357E+01  1.86901E+01  2.92760E+01  1.63954E+01 -8.06335E-01  1.01661E+01  1.74315E+01  8.39715E+00  2.10450E+01  2.29489E+01
   7.11971E+00  3.33203E+01 -2.09105E+00  2.75401E-01  2.34501E+01  1.65504E+01  7.78094E+00  2.04281E+01  2.27493E+01  2.45011E+01
   4.19966E+00  2.61120E+00 -1.16914E+00  1.58299E+01  1.20121E+01  8.94695E+00  1.41513E+01  1.56698E+01 -6.69203E-01  2.42548E+01
  -3.77788E+00  4.72117E+00  4.56632E-01  1.15224E+01  5.61045E+00  3.99400E+00 -1.34933E+00  2.71462E+01  6.31725E+00  1.05697E+01
  -3.60156E+00  5.92094E+00  1.99569E+01  3.14642E+01  1.38737E+01  1.14855E+01  2.09363E+01  8.14105E+00  1.45176E+01  1.67115E+01
   1.22976E+00 -2.98187E+00 -5.33630E+00  8.65652E+00  5.41926E+00  4.37374E+00  1.89480E+01  8.84908E+00  4.85247E+00 -5.21533E+00
   8.53181E+00  1.62906E+01  4.65111E-01 -1.43410E+00  1.51567E+01  3.68755E+00 -1.18777E-01  8.72071E+00  1.62061E+00  7.29122E+00
   1.64154E+00  3.30997E+00  3.14521E+00  3.85725E+01 -5.22589E+00  9.25925E+00  4.82705E+00  2.21554E+01  1.33970E+00  7.99148E+00
  -4.77988E+00  6.79343E-01  1.92866E+00  2.93224E+00  6.10694E+00  1.75648E+01 -5.66117E+00  1.60032E+01  1.52090E+00  8.71525E+00
   1.11603E+01  1.94661E+01 -9.90583E+00 -5.09645E+00  2.93677E+00 -8.35882E+00 -1.70150E+00  1.52821E+01  5.30852E+00  8.92117E+00
   5.16864E+00  7.43429E+00  8.97664E-01  1.34893E+01  6.17178E+00  5.31704E+00  7.73919E+00  1.49068E+01 -7.83742E+00 -5.20039E+00
  -1.60856E+01  1.20553E+01 -5.34870E+00 -1.26066E+00  1.40623E-01  1.90094E+01  9.90422E+00  1.80003E+01  1.09805E+01  1.28974E+01
   1.77688E+01  1.24371E+01  1.45712E+01  8.15675E+00 -7.48541E-01  1.34815E+01 -7.03614E+00 -7.64958E-01 -1.36147E+01  9.57339E+00
   1.03094E+01 -2.74161E+00 -7.82819E+00  1.30113E+01  4.21317E-01  6.96780E+00  1.23090E+01  2.91684E+00  4.26945E+00  1.63223E+01
   6.16849E+00  1.05225E+01 -1.31024E+00  1.23820E+00 -2.18583E+00  1.74891E+01  1.02945E+01 -3.37996E+00  9.85063E+00  1.68331E+00
  -1.11269E+01  9.90856E+00  3.56025E+00 -1.95015E+00  2.27989E+00  1.95890E+01  1.54956E+00 -2.52160E+00  1.81510E+00 -3.40755E+00
  -5.56437E-01  8.60219E+00  6.01172E+00 -1.18038E+01 -2.39102E+00 -1.71707E+01  3.55429E+00  2.89990E+00  9.15020E+00  3.57237E+00
  -1.41772E+01 -1.00938E+01 -1.13853E+01 -1.72566E+01 -1.11721E+01  9.48503E+00 -5.42061E+00 -1.20616E+01 -1.33852E+01 -2.32587E+00
  -2.49726E+00  9.19417E-01  6.50615E+00 -1.36750E+01 -3.88632E+00 -7.32860E+00 -1.93063E+01  2.86239E+00 -1.46882E+01  6.36814E-01
   1.13026E+01 -1.89532E+00  6.69199E-01  2.88849E-01 -8.43392E+00 -1.16246E+01 -3.16977E+01  1.61789E+01  8.33147E-01 -9.04692E+00
   1.78022E+00  1.03158E+01  9.45354E+00  2.97719E+00 -3.94283E+00  7.46307E+00  3.74344E+00  1.60283E+01  4.78760E+00  4.58671E+00
   4.39570E+00  7.54935E+00  4.74731E+00 -9.65103E+00  4.80468E+00 -7.06736E-01  6.25238E+00  3.44486E+00  8.34753E+00  8.38510E+00
   2.56136E+01  1.56479E+01  1.45161E+01  9.18944E+00  1.20847E+01  1.37148E+01  1.46537E+01  1.85361E+00  1.50630E+01  1.67085E+01
   1.21492E+01  1.56047E+01  7.06933E+00  1.30630E+01 -7.76894E+00 -7.00415E+00  1.81649E+01  7.03823E+00 -7.01698E+00  8.30205E+00
   1.13147E+01  5.86012E+00  1.32796E+01  5.22385E+00  4.08388E+00  1.33874E+01  6.36066E+00  7.55715E+00  3.27389E+01  9.85104E+00
   3.00256E+00  6.42786E-02 -8.06837E+00  2.30548E+01  1.53069E+01  1.50002E+01  1.49761E+00  5.31582E+00  7.23864E+00  3.92089E+00
   8.38204E+00  1.37176E+01 -3.87911E+00  1.41192E+01  1.20836E+01  2.58305E+01  1.15992E+01  1.61643E+01  8.41095E-01 -3.86839E+00
   4.24553E+00  1.62272E+01  5.12085E+00  1.53034E+01 -3.79964E+00 -3.81623E+00 -8.57833E-01 -1.78927E+00  3.11794E+00 -4.43729E+00
   1.59141E+00  1.26553E-01  6.90963E-01  1.26467E+01  3.12743E-02 -8.63132E+00  8.76629E+00 -3.56358E+00 -1.12382E+00  1.26948E+01
   1.12353E+01 -1.56315E+00  9.81962E+00  1.30225E+01  8.12316E+00 -3.64935E+00 -1.06301E+01  1.28156E+01 -6.22229E-01 -7.47259E-01
  -1.01220E+01 -1.80613E+00 -1.23688E+01 -4.61123E+00 -1.55422E+01 -1.94932E+01 -2.94332E+00 -2.59350E+00  1.88111E-01 -7.76941E+00
  -1.56271E+01 -2.61123E+01  1.01215E+01 -2.32025E+01 -9.03252E-01 -6.15260E+00 -4.46903E+00  7.33004E+00  1.19140E+01 -2.17720E+00
   3.17647E+00  1.82177E+01 -9.33814E+00  1.03992E+01 -2.49233E+00 -4.13816E-02  9.64812E+00  8.59981E+00  1.32517E+01  9.43037E+00
   9.96473E+00 -5.24680E+00  2.76207E+01 -4.57026E+00  2.94357E+01 -3.19549E+00  1.87913E+01  2.11225E+01  1.06314E+01  2.33535E+01
   1.01213E+01  2.55840E+01  2.29067E+01  1.77643E+01  2.74057E+01  9.03136E+00  1.56688E+01  1.47497E+01  5.45954E+00  8.97850E+00
  -1.07483E-01  5.70233E+00  6.07592E+00  1.09629E+01  6.67348E+00  2.83162E-01  1.19351E+01  7.06161E+00  1.00372E+01  1.38513E+00
   1.21702E+00  1.29802E+01 -2.06422E-01 -6.12465E+00 -3.71405E+00  8.57535E+00  1.75686E+01  7.60546E+00  6.25786E+00  1.17926E+01
   1.22725E+01  3.57953E+00  1.69089E+00 -4.81805E+00  5.85059E+00  2.75368E+00  6.73626E+00 -1.91618E+00 -5.90205E+00 -5.68427E+00
  -5.98258E+00 -1.21196E+01 -6.11065E+00  4.72163E+00 -4.87630E+00  1.13343E+00  1.50891E+01 -4.52974E-01 -5.59310E+00  6.99713E+00
  -3.41493E+00 -7.93958E+00  5.49638E+00  7.91110E+00 -5.09922E+00  1.10005E+01 -2.70488E-01  1.37646E+01 -3.64882E+00  8.87963E+00
   1.14821E+01 -1.72738E+00 -1.15351E+01 -1.13226E+01  1.15152E+01  1.39502E+00 -4.00596E+00  6.76159E+00 -2.74417E+00  1.55965E+01
   4.52641E-02  7.58779E+00  2.68444E+00  1.91588E+00 -2.39586E+00  6.07751E+00  1.05411E+01  8.92603E+00 -2.23241E+00  1.23482E+00
   6.15344E+00  4.71833E+00 -1.67038E+00 -5.09130E+00  8.13526E+00  8.90471E+00 -8.24873E+00 -1.51202E+00  9.92406E+00  6.82482E+00
  -3.71878E+00  6.39265E-01 -1.04094E+00  8.64603E+00 -1.33322E-01  6.47194E+00  5.00283E+00  2.57290E+00 -6.44279E+00  3.61246E+00
   1.22688E+01 -7.04798E+00 -7.92996E-01 -2.37485E+00  1.42405E+01  4.44501E+00 -1.29226E+01  8.83051E+00  1.24241E+01  5.82596E+00
  -1.09705E+01  1.69413E+00  9.03741E+00 -5.17124E+00 -8.49136E+00  1.15326E+01 -8.57989E+00  2.57079E+00  4.44723E+00  2.12784E+00
  -7.31132E-01 -6.80459E+00 -1.91982E+00  4.41223E+00  2.91928E-01 -1.92957E+00  7.77365E-01  1.94974E+00  3.99840E+00  7.16538E+00
  -2.09007E+00  1.20242E+01  4.18205E+00  7.03558E+00 -2.95702E+00  1.30579E+00 -2.00607E+00 -4.73681E+00  3.58835E+00 -1.54951E-01
   1.35318E+00 -4.71984E+00 -7.99305E+00  5.92407E+00  4.59509E+00 -2.44065E+00 -3.73184E+00  2.13164E+00
 NY points of the fit to the data follow
   7.61514E+00  6.98719E+00  6.50584E+00  6.11342E+00  5.98419E+00  6.42420E+00  7.64521E+00  9.16388E+00  1.04945E+01  1.14360E+01
   1.20126E+01  1.23421E+01  1.25258E+01  1.25903E+01  1.24619E+01  1.20191E+01  1.11906E+01  1.00651E+01  8.98281E+00  8.54403E+00
   8.72889E+00  8.67586E+00  7.98637E+00  7.00677E+00  6.52485E+00  6.88473E+00  8.34179E+00  1.05536E+01  1.27857E+01  1.43761E+01
   1.50614E+01  1.50248E+01  1.46483E+01  1.44459E+01  1.43202E+01  1.36017E+01  1.18529E+01  9.36572E+00  6.83929E+00  4.83783E+00
   4.10978E+00  4.83815E+00  6.84984E+00  9.43288E+00  1.15911E+01  1.26773E+01  1.26978E+01  1.22253E+01  1.16737E+01  1.11044E+01
   1.04809E+01  9.69030E+00  8.56735E+00  7.14341E+00  5.79142E+00  5.01600E+00  5.11107E+00  5.74311E+00  6.38269E+00  6.78396E+00
   6.94881E+00  6.95248E+00  6.87586E+00  6.75199E+00  6.57435E+00  6.28878E+00  5.94457E+00  5.69770E+00  5.66292E+00  5.82316E+00
   6.12778E+00  6.45067E+00  6.68785E+00  6.79413E+00  6.76034E+00  6.61912E+00  6.41379E+00  6.15837E+00  5.86552E+00  5.56532E+00
   5.36385E+00  5.18057E+00  4.86685E+00  4.39129E+00  3.83758E+00  3.31040E+00  2.88009E+00  2.56677E+00  2.36417E+00  2.25694E+00
   2.24074E+00  2.34277E+00  2.54343E+00  2.83393E+00  3.18013E+00  3.46854E+00  3.67729E+00  3.95681E+00  4.27909E+00  4.50420E+00
   4.58362E+00  4.53758E+00  4.44592E+00  4.38404E+00  4.39561E+00  4.46193E+00  4.46004E+00  4.30476E+00  3.97310E+00  3.55076E+00
   3.21690E+00  3.12237E+00  3.13552E+00  3.14930E+00  3.15545E+00  3.14879E+00  3.14112E+00  3.13895E+00  3.16131E+00  3.25049E+00
   3.52361E+00  4.51504E+00  6.53266E+00  8.84136E+00  1.07944E+01  1.21638E+01  1.30271E+01  1.35991E+01  1.40163E+01  1.41494E+01
   1.37338E+01  1.25461E+01  1.05175E+01  7.91756E+00  5.42069E+00  3.91266E+00  3.50640E+00  3.40348E+00  3.31580E+00  3.22417E+00
   3.21623E+00  3.39606E+00  3.73997E+00  4.07938E+00  4.29378E+00  4.32759E+00  4.17233E+00  3.90660E+00  3.61773E+00  3.36073E+00
   3.18769E+00  3.07015E+00  2.99184E+00  2.94157E+00  2.89628E+00  2.83435E+00  2.76120E+00  2.70077E+00  2.66082E+00  2.64400E+00
   2.63533E+00  2.61258E+00  2.55671E+00  2.46718E+00  2.36739E+00  2.28394E+00  2.23840E+00  2.23043E+00  2.23041E+00  2.20356E+00
   2.13450E+00  2.04012E+00  1.95118E+00  1.88342E+00  1.82618E+00  1.76088E+00  1.67562E+00  1.56832E+00  1.46612E+00  1.37830E+00
   1.30787E+00  1.26273E+00  1.25107E+00  1.27954E+00  1.38190E+00  1.60344E+00  1.94287E+00  2.28640E+00  2.43731E+00  2.34769E+00
   1.95969E+00  1.29186E+00  4.77668E-01 -2.92705E-01 -8.51157E-01 -9.83008E-01 -5.43745E-01  3.85208E-01  1.62794E+00  3.23177E+00
   5.08140E+00  6.71599E+00  7.77228E+00  7.79447E+00  6.05279E+00  3.12632E+00  1.48819E-01 -2.24086E+00 -3.73427E+00 -3.98433E+00
  -2.69266E+00 -6.09262E-01  1.67127E+00  4.16158E+00  6.74374E+00  8.89329E+00  9.80655E+00  8.84175E+00  6.29386E+00  3.45235E+00
   9.04171E-01 -1.27404E+00 -2.77603E+00 -3.08248E+00 -1.94515E+00 -1.07360E-01  2.07675E+00  4.52032E+00  6.87498E+00  8.31974E+00
   8.07227E+00  6.79159E+00  5.64814E+00  5.01671E+00  4.81035E+00  5.13603E+00  5.66470E+00  5.80474E+00  5.57086E+00  5.13593E+00
   4.65423E+00  4.28588E+00  3.99926E+00  3.36365E+00  2.10778E+00  8.01963E-01 -1.53679E-02 -9.03545E-02  6.78896E-01  2.28128E+00
   4.25555E+00  5.92671E+00  7.14260E+00  7.92872E+00  8.65400E+00  9.69801E+00  1.08703E+01  1.17329E+01  1.20804E+01  1.18745E+01
   1.12459E+01  1.04630E+01  9.72113E+00  9.17697E+00  8.80036E+00  8.15543E+00  6.97746E+00  5.59106E+00  4.57990E+00  4.08936E+00
   3.83743E+00  3.73586E+00  3.74820E+00  3.75110E+00  3.74081E+00  3.75946E+00  3.78832E+00  3.79912E+00  3.75425E+00  3.61686E+00
   3.40132E+00  3.18194E+00  3.00708E+00  2.87466E+00  2.77811E+00  2.71246E+00  2.67487E+00  2.65313E+00  2.62275E+00  2.57728E+00
   2.52737E+00  2.47953E+00  2.43589E+00  2.39572E+00  2.36166E+00  2.33287E+00  2.30552E+00  2.28020E+00  2.25663E+00  2.23282E+00
   2.21181E+00  2.19516E+00  2.18206E+00  2.17255E+00  2.16677E+00  2.16402E+00  2.16223E+00  2.15897E+00  2.15460E+00  2.14999E+00
   2.14612E+00  2.14465E+00  2.14578E+00  2.14953E+00  2.15639E+00  2.16656E+00  2.18025E+00  2.19772E+00  2.21921E+00  2.24500E+00
   2.27534E+00  2.31047E+00  2.35060E+00  2.39595E+00  2.44679E+00  2.50341E+00  2.56619E+00  2.63565E+00  2.71247E+00  2.79753E+00
   2.89201E+00  2.99745E+00  3.11602E+00  3.25061E+00  3.40514E+00  3.58480E+00  3.79646E+00  4.04901E+00  4.35378E+00  4.72463E+00
   5.17777E+00  5.73099E+00  6.40219E+00  7.20687E+00  8.15487E+00  9.24626E+00  1.04673E+01  1.17870E+01  1.31557E+01  1.45062E+01
   1.57582E+01  1.68261E+01  1.76285E+01  1.80994E+01  1.81974E+01  1.79118E+01  1.72644E+01  1.63064E+01  1.51105E+01  1.37613E+01
   1.23445E+01  1.09372E+01  9.60126E+00  8.38029E+00  7.29899E+00  6.36578E+00  5.57651E+00  4.91874E+00  4.37561E+00  3.92902E+00
   3.56172E+00  3.25860E+00  3.00716E+00  2.79748E+00  2.62199E+00  2.47499E+00  2.35231E+00  2.25094E+00  2.16875E+00  2.10423E+00
   2.05631E+00  2.02429E+00  2.00772E+00  2.00637E+00  2.02014E+00  2.04898E+00  2.09288E+00  2.15176E+00  2.22547E+00  2.31370E+00
   2.41591E+00  2.53122E+00  2.65840E+00  2.79583E+00  2.94146E+00  3.09278E+00  3.24687E+00  3.40040E+00  3.54974E+00  3.69109E+00
   3.82056E+00  3.93435E+00  4.02890E+00  4.10101E+00  4.14804E+00  4.16804E+00  4.15981E+00  4.12296E+00  4.05793E+00  3.96594E+00
   3.84897E+00  3.70965E+00  3.55107E+00  3.37671E+00  3.19019E+00  2.99520E+00  2.79533E+00  2.59395E+00  2.39409E+00  2.19841E+00
   2.00909E+00  1.82787E+00  1.65607E+00  1.49458E+00  1.34389E+00  1.20415E+00  1.07526E+00  9.56881E-01  8.48535E-01  7.49618E-01
   6.59439E-01  5.77271E-01  5.02387E-01  4.34086E-01  3.71703E-01  3.14605E-01  2.62201E-01  2.13954E-01  1.69389E-01  1.28089E-01
   8.96827E-02  5.38383E-02  2.02549E-02 -1.13302E-02 -4.11369E-02 -6.93511E-02 -9.61414E-02 -1.21666E-01 -1.46067E-01 -1.69461E-01
  -1.91938E-01 -2.13573E-01 -2.34446E-01 -2.54636E-01 -2.74213E-01 -2.93227E-01 -3.11714E-01 -3.29715E-01 -3.47272E-01 -3.64428E-01
  -3.81215E-01 -3.97655E-01 -4.13766E-01 -4.29573E-01 -4.45105E-01 -4.60384E-01 -4.75424E-01 -4.90233E-01 -5.04821E-01 -5.19205E-01
  -5.33407E-01 -5.47444E-01 -5.61317E-01 -5.75022E-01 -5.88566E-01 -6.01964E-01 -6.15230E-01 -6.28373E-01 -6.41388E-01 -6.54273E-01
  -6.67036E-01 -6.79694E-01 -6.92254E-01 -7.04713E-01 -7.17061E-01 -7.29298E-01 -7.41432E-01 -7.53474E-01 -7.65425E-01 -7.77275E-01
  -7.89015E-01 -8.00642E-01 -8.12167E-01 -8.23593E-01 -8.34911E-01 -8.46102E-01 -8.57152E-01 -8.68056E-01
 NY background values follow
     4.200E+00    4.190E+00    4.179E+00    4.169E+00    4.159E+00    4.148E+00    4.138E+00    4.127E+00    4.117E+00    4.107E+00
     4.096E+00    4.086E+00    4.076E+00    4.065E+00    4.055E+00    4.044E+00    4.034E+00    4.024E+00    4.013E+00    4.003E+00
     3.993E+00    3.982E+00    3.972E+00    3.962E+00    3.951E+00    3.941E+00    3.930E+00    3.920E+00    3.910E+00    3.899E+00
     3.889E+00    3.879E+00    3.868E+00    3.858E+00    3.848E+00    3.837E+00    3.827E+00    3.816E+00    3.806E+00    3.796E+00
     3.785E+00    3.775E+00    3.765E+00    3.754E+00    3.744E+00    3.733E+00    3.723E+00    3.713E+00    3.702E+00    3.692E+00
     3.682E+00    3.671E+00    3.661E+00    3.651E+00    3.640E+00    3.630E+00    3.619E+00    3.609E+00    3.599E+00    3.588E+00
     3.578E+00    3.568E+00    3.557E+00    3.547E+00    3.537E+00    3.526E+00    3.516E+00    3.505E+00    3.495E+00    3.485E+00
     3.474E+00    3.464E+00    3.454E+00    3.443E+00    3.433E+00    3.422E+00    3.412E+00    3.402E+00    3.391E+00    3.381E+00
     3.371E+00    3.360E+00    3.350E+00    3.340E+00    3.329E+00    3.319E+00    3.308E+00    3.298E+00    3.288E+00    3.277E+00
     3.267E+00    3.257E+00    3.246E+00    3.236E+00    3.226E+00    3.215E+00    3.205E+00    3.194E+00    3.184E+00    3.174E+00
     3.163E+00    3.153E+00    3.143E+00    3.132E+00    3.122E+00    3.111E+00    3.101E+00    3.091E+00    3.080E+00    3.070E+00
     3.060E+00    3.049E+00    3.039E+00    3.029E+00    3.018E+00    3.008E+00    2.997E+00    2.987E+00    2.977E+00    2.966E+00
     2.956E+00    2.946E+00    2.935E+00    2.925E+00    2.914E+00    2.904E+00    2.894E+00    2.883E+00    2.873E+00    2.863E+00
     2.852E+00    2.842E+00    2.832E+00    2.821E+00    2.811E+00    2.800E+00    2.790E+00    2.780E+00    2.769E+00    2.759E+00
     2.749E+00    2.738E+00    2.728E+00    2.718E+00    2.707E+00    2.697E+00    2.686E+00    2.676E+00    2.666E+00    2.655E+00
     2.645E+00    2.635E+00    2.624E+00    2.614E+00    2.603E+00    2.593E+00    2.583E+00    2.572E+00    2.562E+00    2.552E+00
     2.541E+00    2.531E+00    2.521E+00    2.510E+00    2.500E+00    2.489E+00    2.479E+00    2.469E+00    2.458E+00    2.448E+00
     2.438E+00    2.427E+00    2.417E+00    2.407E+00    2.396E+00    2.386E+00    2.375E+00    2.365E+00    2.355E+00    2.344E+00
     2.334E+00    2.324E+00    2.313E+00    2.303E+00    2.293E+00    2.282E+00    2.272E+00    2.261E+00    2.251E+00    2.241E+00
     2.230E+00    2.220E+00    2.210E+00    2.199E+00    2.189E+00    2.179E+00    2.168E+00    2.158E+00    2.147E+00    2.137E+00
     2.127E+00    2.116E+00    2.106E+00    2.096E+00    2.085E+00    2.075E+00    2.064E+00    2.054E+00    2.044E+00    2.033E+00
     2.023E+00    2.013E+00    2.002E+00    1.992E+00    1.982E+00    1.971E+00    1.961E+00    1.950E+00    1.940E+00    1.930E+00
     1.919E+00    1.909E+00    1.899E+00    1.888E+00    1.878E+00    1.868E+00    1.857E+00    1.847E+00    1.836E+00    1.826E+00
     1.816E+00    1.805E+00    1.795E+00    1.785E+00    1.774E+00    1.764E+00    1.754E+00    1.743E+00    1.733E+00    1.722E+00
     1.712E+00    1.702E+00    1.691E+00    1.681E+00    1.671E+00    1.660E+00    1.650E+00    1.640E+00    1.629E+00    1.619E+00
     1.608E+00    1.598E+00    1.588E+00    1.577E+00    1.567E+00    1.557E+00    1.546E+00    1.536E+00    1.526E+00    1.515E+00
     1.505E+00    1.495E+00    1.484E+00    1.474E+00    1.463E+00    1.453E+00    1.443E+00    1.432E+00    1.422E+00    1.412E+00
     1.401E+00    1.391E+00    1.381E+00    1.370E+00    1.360E+00    1.349E+00    1.339E+00    1.329E+00    1.318E+00    1.308E+00
     1.298E+00    1.287E+00    1.277E+00    1.267E+00    1.256E+00    1.246E+00    1.235E+00    1.225E+00    1.215E+00    1.204E+00
     1.194E+00    1.184E+00    1.173E+00    1.163E+00    1.153E+00    1.142E+00    1.132E+00    1.122E+00    1.111E+00    1.101E+00
     1.090E+00    1.080E+00    1.070E+00    1.059E+00    1.049E+00    1.039E+00    1.028E+00    1.018E+00    1.008E+00    9.972E-01
     9.868E-01    9.765E-01    9.661E-01    9.558E-01    9.454E-01    9.350E-01    9.247E-01    9.143E-01    9.040E-01    8.936E-01
     8.833E-01    8.729E-01    8.625E-01    8.522E-01    8.418E-01    8.315E-01    8.211E-01    8.107E-01    8.004E-01    7.900E-01
     7.797E-01    7.693E-01    7.590E-01    7.486E-01    7.382E-01    7.279E-01    7.175E-01    7.072E-01    6.968E-01    6.865E-01
     6.761E-01    6.658E-01    6.554E-01    6.450E-01    6.347E-01    6.243E-01    6.140E-01    6.036E-01    5.933E-01    5.829E-01
     5.725E-01    5.622E-01    5.518E-01    5.415E-01    5.311E-01    5.208E-01    5.104E-01    5.001E-01    4.897E-01    4.793E-01
     4.690E-01    4.586E-01    4.483E-01    4.379E-01    4.276E-01    4.172E-01    4.069E-01    3.965E-01    3.862E-01    3.758E-01
     3.655E-01    3.551E-01    3.447E-01    3.344E-01    3.240E-01    3.137E-01    3.033E-01    2.930E-01    2.826E-01    2.723E-01
     2.619E-01    2.516E-01    2.412E-01    2.309E-01    2.205E-01    2.102E-01    1.998E-01    1.894E-01    1.791E-01    1.687E-01
     1.584E-01    1.480E-01    1.377E-01    1.273E-01    1.170E-01    1.066E-01    9.628E-02    8.593E-02    7.557E-02    6.522E-02
     5.487E-02    4.452E-02    3.417E-02    2.382E-02    1.347E-02    3.116E-03   -7.235E-03   -1.759E-02   -2.794E-02   -3.829E-02
    -4.864E-02   -5.899E-02   -6.934E-02   -7.969E-02   -9.004E-02   -1.004E-01   -1.107E-01   -1.211E-01   -1.314E-01   -1.418E-01
    -1.521E-01   -1.625E-01   -1.728E-01   -1.832E-01   -1.935E-01   -2.039E-01   -2.142E-01   -2.246E-01   -2.349E-01   -2.453E-01
    -2.556E-01   -2.660E-01   -2.763E-01   -2.867E-01   -2.970E-01   -3.074E-01   -3.177E-01   -3.281E-01   -3.384E-01   -3.488E-01
    -3.591E-01   -3.695E-01   -3.798E-01   -3.901E-01   -4.005E-01   -4.108E-01   -4.212E-01   -4.315E-01   -4.419E-01   -4.522E-01
    -4.626E-01   -4.729E-01   -4.833E-01   -4.936E-01   -5.040E-01   -5.143E-01   -5.246E-01   -5.350E-01   -5.453E-01   -5.557E-01
    -5.660E-01   -5.764E-01   -5.867E-01   -5.971E-01   -6.074E-01   -6.178E-01   -6.281E-01   -6.384E-01   -6.488E-01   -6.591E-01
    -6.695E-01   -6.798E-01   -6.902E-01   -7.005E-01   -7.109E-01   -7.212E-01   -7.315E-01   -7.419E-01   -7.522E-01   -7.626E-01
    -7.729E-01   -7.833E-01   -7.936E-01   -8.039E-01   -8.143E-01   -8.246E-01   -8.350E-01   -8.453E-01   -8.557E-01   -8.660E-01
    -8.763E-01   -8.867E-01   -8.970E-01   -9.074E-01   -9.177E-01   -9.281E-01   -9.384E-01   -9.487E-01
 Asp      Conc. = 3.72E+01
