 LCModel (Version 6.3-1L) Copyright: S.W. Provencher.          Ref.: Magn. Reson. Med. 30:672-679 (1993).                
 Slice#3 Row#2 Col#5  PD_05_press_2_raw_act
 36 lines in following concentration table = NCONC+1
    Conc.  %SD /Cr+PCr  Metabolite                                         
    0.000 999%   0.000 Ala                                                 
   48.885 149%   0.211 Asp                                                 
    0.000 999%   0.000 Cr                                                  
  231.795  43%   1.000 PCr                                                 
   38.943 112%   0.168 GABA                                                
   41.385 106%   0.179 Glc                                                 
    0.000 999%   0.000 Gln                                                 
  566.993  79%   2.446 Glu                                                 
    0.000 999%   0.000 GPC                                                 
  165.789  23%   0.715 PCh                                                 
    0.000 999%   0.000 GSH                                                 
    0.000 999%   0.000 Ins                                                 
  149.229 147%   0.644 Lac                                                 
  495.517  26%   2.138 NAA                                                 
  160.061  88%   0.691 NAAG                                                
   11.230 126% 4.8E-02 Scyllo                                              
   75.137  96%   0.324 Tau                                                 
   32.892 268%   0.142 -CrCH2                                              
  165.789  23%   0.715 GPC+PCh                                             
  655.578  21%   2.828 NAA+NAAG                                            
  231.795  43%   1.000 Cr+PCr                                              
  566.993  79%   2.446 Glu+Gln                                             
 2.07E+03  26%   8.928 Lip13a                                              
    0.000 999%   0.000 Lip13b                                              
  370.194  61%   1.597 Lip09                                               
   55.836 405%   0.241 MM09                                                
  359.195  46%   1.550 Lip20                                               
  331.206 116%   1.429 MM20                                                
   25.515 388%   0.110 MM12                                                
    0.000 999%   0.000 MM14                                                
    0.000 999%   0.000 MM17                                                
 2.07E+03  26%   8.928 Lip13a+Lip13b                                       
 2.09E+03  25%   9.038 MM14+Lip13a+Lip13b+MM12                             
  426.030  59%   1.838 MM09+Lip09                                          
  690.402  56%   2.979 MM20+Lip20                                          
   6 lines in following misc. output table
  FWHM = 0.046 ppm    S/N =   1                                            
  Data shift = 0.061 ppm                                                   
  Ph:  64 deg      22.3 deg/ppm                                            
  alphaB,S = 8.5E+01,   2.6E+01                                            
   14 spline knots.   Ns = 5(1)                                            
   2 inflections.     1 extrema                                            
  498 points on ppm-axis = NY
      4.000000     3.992357     3.984714     3.977070     3.969427     3.961784     3.954141     3.946497     3.938854     3.931211
      3.923568     3.915925     3.908281     3.900638     3.892995     3.885352     3.877708     3.870065     3.862422     3.854779
      3.847136     3.839492     3.831849     3.824206     3.816563     3.808919     3.801276     3.793633     3.785990     3.778347
      3.770703     3.763060     3.755417     3.747774     3.740130     3.732487     3.724844     3.717201     3.709558     3.701914
      3.694271     3.686628     3.678985     3.671341     3.663698     3.656055     3.648412     3.640769     3.633125     3.625482
      3.617839     3.610196     3.602552     3.594909     3.587266     3.579623     3.571980     3.564336     3.556693     3.549050
      3.541407     3.533763     3.526120     3.518477     3.510834     3.503191     3.495547     3.487904     3.480261     3.472618
      3.464974     3.457331     3.449688     3.442045     3.434402     3.426758     3.419115     3.411472     3.403829     3.396185
      3.388542     3.380899     3.373256     3.365613     3.357969     3.350326     3.342683     3.335040     3.327396     3.319753
      3.312110     3.304467     3.296824     3.289180     3.281537     3.273894     3.266251     3.258607     3.250964     3.243321
      3.235678     3.228034     3.220391     3.212748     3.205105     3.197462     3.189818     3.182175     3.174532     3.166889
      3.159245     3.151602     3.143959     3.136316     3.128673     3.121029     3.113386     3.105743     3.098100     3.090456
      3.082813     3.075170     3.067527     3.059884     3.052240     3.044597     3.036954     3.029311     3.021667     3.014024
      3.006381     2.998738     2.991095     2.983451     2.975808     2.968165     2.960522     2.952878     2.945235     2.937592
      2.929949     2.922306     2.914662     2.907019     2.899376     2.891733     2.884089     2.876446     2.868803     2.861160
      2.853517     2.845873     2.838230     2.830587     2.822944     2.815300     2.807657     2.800014     2.792371     2.784728
      2.777084     2.769441     2.761798     2.754155     2.746511     2.738868     2.731225     2.723582     2.715939     2.708295
      2.700652     2.693009     2.685366     2.677722     2.670079     2.662436     2.654793     2.647150     2.639506     2.631863
      2.624220     2.616577     2.608933     2.601290     2.593647     2.586004     2.578361     2.570717     2.563074     2.555431
      2.547788     2.540144     2.532501     2.524858     2.517215     2.509572     2.501928     2.494285     2.486642     2.478999
      2.471355     2.463712     2.456069     2.448426     2.440783     2.433139     2.425496     2.417853     2.410210     2.402566
      2.394923     2.387280     2.379637     2.371994     2.364350     2.356707     2.349064     2.341421     2.333777     2.326134
      2.318491     2.310848     2.303205     2.295561     2.287918     2.280275     2.272632     2.264988     2.257345     2.249702
      2.242059     2.234416     2.226772     2.219129     2.211486     2.203843     2.196199     2.188556     2.180913     2.173270
      2.165627     2.157983     2.150340     2.142697     2.135054     2.127410     2.119767     2.112124     2.104481     2.096838
      2.089194     2.081551     2.073908     2.066265     2.058621     2.050978     2.043335     2.035692     2.028049     2.020405
      2.012762     2.005119     1.997476     1.989833     1.982190     1.974546     1.966903     1.959260     1.951617     1.943974
      1.936331     1.928688     1.921045     1.913402     1.905759     1.898115     1.890472     1.882829     1.875186     1.867543
      1.859900     1.852257     1.844614     1.836971     1.829327     1.821684     1.814041     1.806398     1.798755     1.791112
      1.783469     1.775826     1.768183     1.760540     1.752896     1.745253     1.737610     1.729967     1.722324     1.714681
      1.707038     1.699395     1.691752     1.684108     1.676465     1.668822     1.661179     1.653536     1.645893     1.638250
      1.630607     1.622964     1.615321     1.607677     1.600034     1.592391     1.584748     1.577105     1.569462     1.561819
      1.554176     1.546533     1.538890     1.531246     1.523603     1.515960     1.508317     1.500674     1.493031     1.485388
      1.477745     1.470102     1.462458     1.454815     1.447172     1.439529     1.431886     1.424243     1.416600     1.408957
      1.401314     1.393671     1.386027     1.378384     1.370741     1.363098     1.355455     1.347812     1.340169     1.332526
      1.324883     1.317240     1.309596     1.301953     1.294310     1.286667     1.279024     1.271381     1.263738     1.256095
      1.248452     1.240808     1.233165     1.225522     1.217879     1.210236     1.202593     1.194950     1.187307     1.179664
      1.172021     1.164377     1.156734     1.149091     1.141448     1.133805     1.126162     1.118519     1.110876     1.103233
      1.095590     1.087946     1.080303     1.072660     1.065017     1.057374     1.049731     1.042088     1.034445     1.026802
      1.019158     1.011515     1.003872     0.996229     0.988586     0.980943     0.973300     0.965657     0.958014     0.950371
      0.942727     0.935084     0.927441     0.919798     0.912155     0.904512     0.896869     0.889226     0.881583     0.873940
      0.866296     0.858653     0.851010     0.843367     0.835724     0.828081     0.820438     0.812795     0.805152     0.797508
      0.789865     0.782222     0.774579     0.766936     0.759293     0.751650     0.744007     0.736364     0.728721     0.721077
      0.713434     0.705791     0.698148     0.690505     0.682862     0.675219     0.667576     0.659933     0.652290     0.644646
      0.637003     0.629360     0.621717     0.614074     0.606431     0.598788     0.591145     0.583502     0.575858     0.568215
      0.560572     0.552929     0.545286     0.537643     0.530000     0.522357     0.514714     0.507071     0.499427     0.491784
      0.484141     0.476498     0.468855     0.461212     0.453569     0.445925     0.438282     0.430639     0.422996     0.415353
      0.407710     0.400067     0.392424     0.384780     0.377137     0.369494     0.361851     0.354208     0.346565     0.338922
      0.331278     0.323635     0.315992     0.308349     0.300706     0.293063     0.285420     0.277777     0.270133     0.262490
      0.254847     0.247204     0.239561     0.231918     0.224275     0.216631     0.208988     0.201345
 NY phased data points follow
  -2.13115E+01 -1.85668E+01 -2.33921E+01 -1.82060E+01 -1.73923E-01  5.61765E+00  2.84719E+00  1.99115E+00 -8.16294E+00 -8.93007E+00
  -8.89727E+00 -3.06224E+00 -5.63837E+00  4.31121E+00 -1.31604E+01 -1.90892E+01 -8.62963E+00 -1.04336E+01 -4.11553E+00 -1.41641E+01
  -1.52569E+01 -9.01796E+00  1.19311E+00 -3.47621E+00  1.26580E+00 -1.18332E+01 -4.10395E+00 -1.42238E+01 -1.31872E+01 -2.27464E+00
  -3.64895E-01 -6.97272E+00  1.47573E+00 -9.64529E+00 -3.01874E+00 -1.79432E-01 -1.38278E+00 -2.66195E+01 -1.14162E+01 -1.48340E+01
   4.97949E-01 -1.73893E+01 -2.86515E+00  7.23484E+00 -7.11629E+00 -1.06084E+01 -8.38226E+00 -6.70535E+00 -1.74166E+01  1.03255E+01
  -1.00880E+01 -1.76687E+01 -8.42299E+00 -3.87138E+00  7.42440E-01 -8.47430E+00  3.30464E+00  2.84618E+00 -1.65472E+01 -9.42364E-01
  -1.21803E+01  1.48562E+00  9.62283E-01 -1.47386E+01  4.57606E-01 -1.18516E+01 -6.02480E+00 -1.29363E+01 -6.16502E+00 -4.15925E+00
  -4.27745E+00  7.10342E-01 -1.29439E+01 -9.76288E+00  1.18852E+00 -5.52561E+00  5.56131E+00  6.93223E-01 -8.03325E+00 -1.54511E+01
   7.14302E+00  2.48840E+00  9.24202E+00 -6.75934E-01 -5.93255E+00 -1.02008E+01 -2.44039E+01 -9.41984E+00  1.85582E+00 -2.72622E+00
  -4.57847E+00 -1.20458E+01  7.53930E+00  1.45676E-01  7.80960E+00  1.16363E+01  2.99281E+00  6.76763E+00  7.58910E+00  1.57676E+01
   2.42378E+01  1.43143E+01  5.34709E+00  4.50720E+00  8.63693E+00 -1.25715E+00 -2.45057E+00 -3.51707E+00 -1.51945E+01  4.98166E+00
  -3.95319E+00  2.03123E+00 -2.49499E-01  7.80713E+00 -4.47095E+00 -2.34071E+00  1.77538E+00  1.02312E+01  7.90384E+00 -2.11188E+00
  -1.18519E+00 -1.32439E+00  1.05506E+01  6.36371E+00  2.01775E-01  3.20918E-01  6.66710E+00  9.25185E+00 -2.91158E+00 -7.36064E+00
   6.11637E+00  2.22126E+00  8.22052E+00  5.54119E+00  1.15358E+01  1.00944E+01 -7.47822E-01 -2.26091E+00 -1.03770E+01  2.81820E+00
   6.74814E+00  6.91089E+00  3.10747E+00  1.02654E+01 -6.54213E+00  2.18940E+00  9.13750E-01 -1.66653E+01  9.92789E+00  3.64588E+00
   1.73856E+00 -2.17825E-01  1.88156E+00  1.51453E+00 -1.92064E+00  2.48747E+00  9.98496E+00 -3.67532E+00 -1.79533E-01  5.58439E+00
   1.16151E+00 -1.52675E+01  8.42699E+00  1.76145E+00 -3.23060E+00 -3.25597E+00 -1.11012E+01 -1.59067E+01 -8.03532E+00 -2.03558E+00
  -1.06958E+01 -3.36462E+00 -1.37335E+01  2.27452E+00 -2.37862E+01 -4.25404E+00 -7.33900E+00  3.15560E+00 -4.67497E+00 -9.43089E+00
  -1.78053E+01 -7.08414E+00 -8.32822E+00 -1.34130E+01 -8.62980E+00 -2.40389E+00 -8.37523E+00  1.99630E+00 -4.90666E+00 -1.77628E+01
   4.90579E+00 -5.59643E-01  1.29637E+01 -1.09425E+01 -5.68167E+00  1.29822E+00 -3.20211E+00 -7.44376E-01  6.56845E+00  1.53858E-01
  -3.91577E+00 -2.65626E+00  2.90675E+00 -3.39156E+00 -1.78865E+01 -2.53976E+00 -7.66957E+00  1.25356E+01  5.42399E+00  3.83986E+00
  -3.43095E+00 -8.13719E+00 -1.83238E+01  2.52686E+00 -6.53133E+00  3.83329E+00  1.19133E+01  1.15909E+01  2.38806E+00 -1.10057E+01
  -9.05572E+00 -7.48357E+00 -1.43523E+01 -2.45387E+00  5.09102E-01  2.35794E+00  1.22278E+01 -7.82713E+00  6.47770E+00 -8.68614E+00
  -4.37733E+00  1.39384E+00 -6.86963E+00  9.62119E+00 -8.97106E+00 -5.10157E-01  3.95743E+00 -1.59431E+01  1.21061E+01  8.81834E+00
   3.12696E-01  6.01344E+00 -5.94643E+00  6.00765E+00 -1.53040E+01  8.14205E+00  7.49365E+00  1.15636E+01  8.17040E+00  1.44736E+01
   1.17714E+01  1.83467E+01  1.39679E+01  1.98916E+01 -3.70412E+00  5.93930E-01  1.74357E+01  1.27664E+01  3.26657E+01  1.91361E+01
   2.28965E+01  5.37929E+00  2.72682E+01  4.66990E+00  2.17419E+00  9.26043E+00  1.40222E+01 -2.12896E+00 -8.43626E+00 -9.26961E+00
   6.64853E+00 -8.62857E+00  1.36366E+01  3.70648E+00 -4.49328E+00  4.08394E+00 -9.30697E+00  1.30941E+01  6.13456E+00 -6.23106E+00
  -2.97895E+00  4.90169E+00 -1.38448E+00  1.00407E+01 -1.07061E+01 -9.60780E-02  1.58228E+01  5.69326E+00 -4.35678E+00  6.64597E+00
   6.18440E+00  2.74989E+00  4.93120E+00  7.79057E+00 -3.55430E+00  9.83216E+00 -8.40405E+00  1.76055E+01  2.36749E+00  5.78077E+00
   1.27815E-01 -2.00362E+00  1.44004E+01  6.13131E+00  5.60254E-01 -1.75934E-02 -2.04655E+00 -4.68781E+00 -1.35838E+01  1.30877E+00
  -3.03504E+00 -3.21548E+00 -4.19102E+00 -1.37168E+01 -1.03759E+01 -6.71100E+00 -9.13292E+00 -1.45641E+01 -1.02795E+00 -9.71760E+00
   2.19633E+00 -5.20307E+00 -3.89770E+00 -1.21785E+01 -1.21910E+01 -1.60646E+00  3.60361E+00 -7.52255E+00 -1.85599E+00 -2.27973E-01
   3.50496E+00 -1.02339E-01 -3.45894E+00 -1.52985E+00  8.76233E-01 -5.09806E+00  5.01803E+00 -6.98892E+00  5.08980E+00 -6.60387E-01
   4.22532E-01  5.44579E+00  1.65054E+01  1.33002E+01  1.47586E+01  1.69928E+01  1.45358E+01  6.11331E+00  2.22665E+01  1.06655E+01
   1.34714E-01  1.41454E+01  1.56860E+01  1.11330E+01  1.35778E+01  1.54991E+01  1.63008E+01  1.31610E+01  2.09515E+01  7.53808E-01
   4.03471E+00 -2.24816E+00  4.78853E+00  1.35659E+01  1.95058E+01  2.17824E+00  1.12116E+00  1.27349E+01  4.81267E+00  1.08089E+01
   1.51480E+01  1.48545E+01 -3.44259E-01  1.59584E+01  2.08303E+00  1.42960E+01  2.66759E+01 -4.79638E+00  1.02072E+01  4.63496E-01
   5.70434E+00  8.42861E+00  5.39769E+00  1.73416E+01  1.38332E+01  1.71498E+01  1.06136E+01  1.37408E+01  1.51656E+01  7.73673E+00
   7.42642E+00  1.34624E+01 -8.99335E+00  9.27373E+00 -3.71086E+00  6.34817E+00 -1.36479E+00  1.97300E+01  6.76917E+00 -2.50476E+00
   7.97700E+00 -3.52598E+00  1.40585E+01 -7.71396E+00  8.72306E+00  1.00897E+01  7.56304E+00  2.21914E+00 -7.25706E+00  9.55871E-02
  -1.51045E-01 -1.24482E+00 -1.29290E+01 -1.46472E+01 -1.01444E+01  9.93160E+00  7.94340E+00 -9.36502E+00 -5.22204E-01 -3.71763E-01
   5.09403E+00  6.20990E-01  1.22172E+01  5.34759E+00  8.67946E-01  3.59743E-01  8.67005E+00  9.82505E+00 -4.93117E+00  2.60438E+00
   1.40393E+01  3.84814E+00  8.09397E+00  6.92135E+00 -4.69612E+00  7.27485E-01  1.00268E+01 -1.11394E+01  1.35575E+01  5.85306E+00
   1.58583E+01  2.45977E+00  8.05257E+00  7.62681E+00  1.54614E+01  3.76690E+00  8.26788E+00  1.07827E+00 -1.14178E+01  2.21587E+00
   3.11737E+00  5.29663E+00 -7.77358E-01 -2.52632E+00  1.10317E+01  7.03845E+00  1.80990E+00  2.34945E+01  5.28727E+00  9.41639E+00
   1.30406E+01 -2.65478E+00  9.02124E+00  3.12467E+00  5.11522E+00  1.72469E+01 -1.02724E+01 -1.37740E+01  4.66503E+00 -9.92120E+00
   3.68792E+00  2.27626E+00  1.82205E+01  8.41677E+00 -9.54098E-01 -1.25707E+01  1.06499E+00  1.47316E+01  1.38274E+01 -1.15095E-01
   1.05053E+01 -3.80600E-01  9.85253E+00 -8.05546E-01  1.25520E+01 -2.90386E+00  4.54158E+00  3.42698E+00  4.06679E+00  2.12422E+00
   8.37626E+00  1.31106E+00 -3.70175E+00 -9.17909E+00  1.37356E+01  1.17591E+01  4.70862E+00  9.65003E-02
 NY points of the fit to the data follow
  -6.48852E+00 -6.35500E+00 -6.15073E+00 -5.61994E+00 -4.28155E+00 -2.67228E+00 -1.57547E+00 -1.30306E+00 -1.68390E+00 -2.38586E+00
  -3.19822E+00 -4.03246E+00 -4.77010E+00 -5.32671E+00 -5.72888E+00 -6.00328E+00 -6.10141E+00 -6.07476E+00 -5.97869E+00 -5.83992E+00
  -5.66433E+00 -5.42518E+00 -5.13414E+00 -5.05977E+00 -5.32917E+00 -5.79569E+00 -6.22384E+00 -6.39762E+00 -6.15728E+00 -5.54299E+00
  -4.76350E+00 -4.20054E+00 -4.07242E+00 -4.37125E+00 -4.95564E+00 -5.50192E+00 -5.74647E+00 -5.74408E+00 -5.63528E+00 -5.51980E+00
  -5.42866E+00 -5.32454E+00 -5.22167E+00 -5.19186E+00 -5.21182E+00 -5.26525E+00 -5.34118E+00 -5.35451E+00 -5.28939E+00 -5.19554E+00
  -5.10968E+00 -5.04883E+00 -5.01783E+00 -5.01255E+00 -5.02994E+00 -5.05881E+00 -5.07726E+00 -5.08460E+00 -5.08464E+00 -5.07122E+00
  -5.04183E+00 -4.98913E+00 -4.91646E+00 -4.85952E+00 -4.81850E+00 -4.80761E+00 -4.83180E+00 -4.86443E+00 -4.87981E+00 -4.87160E+00
  -4.78593E+00 -4.59272E+00 -4.38336E+00 -4.25688E+00 -4.25209E+00 -4.34946E+00 -4.48399E+00 -4.58443E+00 -4.61997E+00 -4.59463E+00
  -4.51121E+00 -4.30361E+00 -3.99609E+00 -3.73087E+00 -3.60730E+00 -3.62060E+00 -3.69888E+00 -3.77985E+00 -3.87397E+00 -4.01319E+00
  -4.17925E+00 -4.32440E+00 -4.40016E+00 -4.33309E+00 -4.07492E+00 -3.67107E+00 -2.98794E+00 -7.86437E-01  4.52951E+00  1.05730E+01
   1.44341E+01  1.50757E+01  1.33364E+01  1.05472E+01  7.41717E+00  4.19750E+00  1.34750E+00 -7.81570E-01 -2.25326E+00 -3.15154E+00
  -3.48434E+00 -3.59374E+00 -3.64063E+00 -3.65667E+00 -3.65656E+00 -3.65360E+00 -3.64560E+00 -3.61764E+00 -3.56656E+00 -3.47137E+00
  -3.21693E+00 -2.17965E+00  3.73258E-01  3.27749E+00  5.14987E+00  5.51679E+00  4.77941E+00  3.53198E+00  2.08862E+00  5.65800E-01
  -8.10310E-01 -1.84207E+00 -2.55174E+00 -2.98352E+00 -3.13127E+00 -3.15082E+00 -3.12514E+00 -3.09328E+00 -3.07313E+00 -3.05410E+00
  -3.01924E+00 -2.95921E+00 -2.89005E+00 -2.83564E+00 -2.80303E+00 -2.78529E+00 -2.77133E+00 -2.75594E+00 -2.74184E+00 -2.74906E+00
  -2.78005E+00 -2.80402E+00 -2.79472E+00 -2.73838E+00 -2.64536E+00 -2.58646E+00 -2.65766E+00 -2.84896E+00 -3.04213E+00 -3.13213E+00
  -3.05718E+00 -2.90252E+00 -2.79356E+00 -2.76981E+00 -2.82253E+00 -2.93445E+00 -3.05115E+00 -3.12640E+00 -3.15951E+00 -3.17355E+00
  -3.22261E+00 -3.36895E+00 -3.57426E+00 -3.67814E+00 -3.62239E+00 -3.47442E+00 -3.38743E+00 -3.42614E+00 -3.49260E+00 -3.45903E+00
  -3.31022E+00 -3.13502E+00 -3.04580E+00 -3.01348E+00 -2.89394E+00 -2.64950E+00 -2.34572E+00 -2.05535E+00 -1.84039E+00 -1.71264E+00
  -1.64348E+00 -1.58949E+00 -1.48910E+00 -1.38747E+00 -1.35512E+00 -1.37863E+00 -1.42705E+00 -1.48394E+00 -1.50660E+00 -1.39951E+00
  -1.17745E+00 -9.15713E-01 -7.37775E-01 -7.55470E-01 -9.22773E-01 -1.26743E+00 -1.74361E+00 -2.23543E+00 -2.66174E+00 -2.84392E+00
  -2.55890E+00 -1.56039E+00 -8.69265E-02  1.10576E+00  1.56660E+00  1.28283E+00  4.47295E-01 -9.12791E-01 -2.70756E+00 -4.33004E+00
  -5.03793E+00 -4.73558E+00 -3.78327E+00 -2.56881E+00 -1.35876E+00 -3.33781E-01  3.43722E-01  6.23497E-01  6.50837E-01  5.86730E-01
   5.40549E-01  5.77244E-01  6.94756E-01  8.16821E-01  9.15374E-01  9.49503E-01  8.44539E-01  6.23572E-01  3.03845E-01  5.59655E-02
   6.45091E-02  3.54157E-01  7.73170E-01  1.20687E+00  1.59375E+00  1.83936E+00  1.85543E+00  1.68298E+00  1.53087E+00  1.62262E+00
   2.26140E+00  4.01214E+00  6.30591E+00  8.09529E+00  9.13821E+00  1.12732E+01  1.60970E+01  2.10583E+01  2.35014E+01  2.28587E+01
   2.02704E+01  1.69018E+01  1.33099E+01  9.80236E+00  6.80062E+00  4.52298E+00  2.86442E+00  1.80438E+00  1.33004E+00  1.13379E+00
   1.09227E+00  1.13851E+00  1.19539E+00  1.20822E+00  1.17752E+00  1.11409E+00  1.01237E+00  8.84993E-01  7.67027E-01  6.79721E-01
   6.21886E-01  5.91295E-01  5.80129E-01  5.77138E-01  5.72147E-01  5.58772E-01  5.38683E-01  5.26735E-01  5.29480E-01  5.42678E-01
   5.59960E-01  5.76519E-01  5.91008E-01  6.02572E-01  6.04925E-01  6.00521E-01  5.97895E-01  6.02462E-01  6.15470E-01  6.36657E-01
   6.63954E-01  6.94928E-01  7.27306E-01  7.59455E-01  7.91313E-01  8.23146E-01  8.54833E-01  8.87200E-01  9.20952E-01  9.56151E-01
   9.93025E-01  1.03181E+00  1.07272E+00  1.11586E+00  1.16143E+00  1.20972E+00  1.26113E+00  1.31604E+00  1.37477E+00  1.43764E+00
   1.50516E+00  1.57800E+00  1.65698E+00  1.74289E+00  1.83664E+00  1.93920E+00  2.05188E+00  2.17617E+00  2.31384E+00  2.46669E+00
   2.63673E+00  2.82615E+00  3.03755E+00  3.27379E+00  3.53805E+00  3.83376E+00  4.16485E+00  4.53626E+00  4.95514E+00  5.43323E+00
   5.99418E+00  6.70082E+00  7.68318E+00  8.69295E+00  9.20913E+00  9.14727E+00  8.75537E+00  8.32214E+00  7.95630E+00  7.66276E+00
   7.81648E+00  8.67368E+00  9.93200E+00  1.11433E+01  1.20599E+01  1.26365E+01  1.29069E+01  1.29132E+01  1.26986E+01  1.23493E+01
   1.19303E+01  1.14639E+01  1.09941E+01  1.05363E+01  1.00727E+01  9.59999E+00  9.12199E+00  8.64453E+00  8.17411E+00  7.71697E+00
   7.27872E+00  6.86397E+00  6.47637E+00  6.11848E+00  5.79202E+00  5.49782E+00  5.23604E+00  5.00618E+00  4.80727E+00  4.63802E+00
   4.49700E+00  4.38265E+00  4.29343E+00  4.22771E+00  4.18399E+00  4.16079E+00  4.15677E+00  4.17062E+00  4.20105E+00  4.24668E+00
   4.30612E+00  4.37786E+00  4.46029E+00  4.55162E+00  4.64988E+00  4.75284E+00  4.85819E+00  4.96341E+00  5.06600E+00  5.16336E+00
   5.25296E+00  5.33237E+00  5.39944E+00  5.45230E+00  5.48953E+00  5.51010E+00  5.51346E+00  5.49954E+00  5.46883E+00  5.42224E+00
   5.36115E+00  5.28720E+00  5.20235E+00  5.10868E+00  5.00841E+00  4.90373E+00  4.79678E+00  4.68948E+00  4.58358E+00  4.48059E+00
   4.38180E+00  4.28820E+00  4.20055E+00  4.11932E+00  4.04481E+00  3.97709E+00  3.91615E+00  3.86178E+00  3.81372E+00  3.77160E+00
   3.73503E+00  3.70361E+00  3.67694E+00  3.65459E+00  3.63618E+00  3.62129E+00  3.60960E+00  3.60078E+00  3.59458E+00  3.59069E+00
   3.58889E+00  3.58894E+00  3.59068E+00  3.59393E+00  3.59857E+00  3.60443E+00  3.61140E+00  3.61936E+00  3.62824E+00  3.63797E+00
   3.64847E+00  3.65965E+00  3.67147E+00  3.68386E+00  3.69681E+00  3.71026E+00  3.72418E+00  3.73850E+00  3.75321E+00  3.76828E+00
   3.78370E+00  3.79944E+00  3.81548E+00  3.83178E+00  3.84834E+00  3.86512E+00  3.88216E+00  3.89940E+00  3.91685E+00  3.93446E+00
   3.95226E+00  3.97023E+00  3.98837E+00  4.00666E+00  4.02509E+00  4.04364E+00  4.06232E+00  4.08113E+00  4.10007E+00  4.11910E+00
   4.13824E+00  4.15746E+00  4.17680E+00  4.19622E+00  4.21575E+00  4.23535E+00  4.25502E+00  4.27477E+00  4.29460E+00  4.31451E+00
   4.33450E+00  4.35453E+00  4.37464E+00  4.39480E+00  4.41505E+00  4.43536E+00  4.45574E+00  4.47617E+00
 NY background values follow
    -6.672E+00   -6.650E+00   -6.628E+00   -6.606E+00   -6.583E+00   -6.561E+00   -6.539E+00   -6.517E+00   -6.495E+00   -6.472E+00
    -6.450E+00   -6.428E+00   -6.406E+00   -6.384E+00   -6.361E+00   -6.339E+00   -6.317E+00   -6.295E+00   -6.273E+00   -6.250E+00
    -6.228E+00   -6.206E+00   -6.184E+00   -6.162E+00   -6.140E+00   -6.117E+00   -6.095E+00   -6.073E+00   -6.051E+00   -6.029E+00
    -6.006E+00   -5.984E+00   -5.962E+00   -5.940E+00   -5.918E+00   -5.895E+00   -5.873E+00   -5.851E+00   -5.829E+00   -5.807E+00
    -5.784E+00   -5.762E+00   -5.740E+00   -5.718E+00   -5.696E+00   -5.673E+00   -5.651E+00   -5.629E+00   -5.607E+00   -5.585E+00
    -5.562E+00   -5.540E+00   -5.518E+00   -5.496E+00   -5.474E+00   -5.452E+00   -5.429E+00   -5.407E+00   -5.385E+00   -5.363E+00
    -5.341E+00   -5.318E+00   -5.296E+00   -5.274E+00   -5.252E+00   -5.230E+00   -5.207E+00   -5.185E+00   -5.163E+00   -5.141E+00
    -5.119E+00   -5.096E+00   -5.074E+00   -5.052E+00   -5.030E+00   -5.008E+00   -4.985E+00   -4.963E+00   -4.941E+00   -4.919E+00
    -4.897E+00   -4.874E+00   -4.852E+00   -4.830E+00   -4.808E+00   -4.786E+00   -4.763E+00   -4.741E+00   -4.719E+00   -4.697E+00
    -4.675E+00   -4.653E+00   -4.630E+00   -4.608E+00   -4.586E+00   -4.564E+00   -4.542E+00   -4.519E+00   -4.497E+00   -4.475E+00
    -4.453E+00   -4.431E+00   -4.408E+00   -4.386E+00   -4.364E+00   -4.342E+00   -4.320E+00   -4.297E+00   -4.275E+00   -4.253E+00
    -4.231E+00   -4.209E+00   -4.186E+00   -4.164E+00   -4.142E+00   -4.120E+00   -4.098E+00   -4.075E+00   -4.053E+00   -4.031E+00
    -4.009E+00   -3.987E+00   -3.965E+00   -3.942E+00   -3.920E+00   -3.898E+00   -3.876E+00   -3.854E+00   -3.831E+00   -3.809E+00
    -3.787E+00   -3.765E+00   -3.743E+00   -3.720E+00   -3.698E+00   -3.676E+00   -3.654E+00   -3.632E+00   -3.609E+00   -3.587E+00
    -3.565E+00   -3.543E+00   -3.521E+00   -3.498E+00   -3.476E+00   -3.454E+00   -3.432E+00   -3.410E+00   -3.388E+00   -3.365E+00
    -3.343E+00   -3.321E+00   -3.299E+00   -3.277E+00   -3.254E+00   -3.232E+00   -3.210E+00   -3.188E+00   -3.166E+00   -3.143E+00
    -3.121E+00   -3.099E+00   -3.077E+00   -3.055E+00   -3.032E+00   -3.010E+00   -2.988E+00   -2.966E+00   -2.944E+00   -2.922E+00
    -2.899E+00   -2.877E+00   -2.855E+00   -2.833E+00   -2.811E+00   -2.788E+00   -2.766E+00   -2.744E+00   -2.722E+00   -2.700E+00
    -2.677E+00   -2.655E+00   -2.633E+00   -2.611E+00   -2.589E+00   -2.566E+00   -2.544E+00   -2.522E+00   -2.500E+00   -2.478E+00
    -2.455E+00   -2.433E+00   -2.411E+00   -2.389E+00   -2.367E+00   -2.345E+00   -2.322E+00   -2.300E+00   -2.278E+00   -2.256E+00
    -2.234E+00   -2.211E+00   -2.189E+00   -2.167E+00   -2.145E+00   -2.123E+00   -2.100E+00   -2.078E+00   -2.056E+00   -2.034E+00
    -2.012E+00   -1.989E+00   -1.967E+00   -1.945E+00   -1.923E+00   -1.901E+00   -1.879E+00   -1.856E+00   -1.834E+00   -1.812E+00
    -1.790E+00   -1.768E+00   -1.745E+00   -1.723E+00   -1.701E+00   -1.679E+00   -1.657E+00   -1.634E+00   -1.612E+00   -1.590E+00
    -1.568E+00   -1.546E+00   -1.523E+00   -1.501E+00   -1.479E+00   -1.457E+00   -1.435E+00   -1.413E+00   -1.390E+00   -1.368E+00
    -1.346E+00   -1.324E+00   -1.302E+00   -1.279E+00   -1.257E+00   -1.235E+00   -1.213E+00   -1.191E+00   -1.168E+00   -1.146E+00
    -1.124E+00   -1.102E+00   -1.080E+00   -1.057E+00   -1.035E+00   -1.013E+00   -9.909E-01   -9.687E-01   -9.465E-01   -9.243E-01
    -9.021E-01   -8.799E-01   -8.578E-01   -8.356E-01   -8.134E-01   -7.912E-01   -7.690E-01   -7.468E-01   -7.246E-01   -7.024E-01
    -6.802E-01   -6.580E-01   -6.359E-01   -6.137E-01   -5.915E-01   -5.693E-01   -5.471E-01   -5.249E-01   -5.027E-01   -4.805E-01
    -4.583E-01   -4.361E-01   -4.140E-01   -3.918E-01   -3.696E-01   -3.474E-01   -3.252E-01   -3.030E-01   -2.808E-01   -2.586E-01
    -2.364E-01   -2.142E-01   -1.921E-01   -1.699E-01   -1.477E-01   -1.255E-01   -1.033E-01   -8.110E-02   -5.891E-02   -3.672E-02
    -1.453E-02    7.657E-03    2.985E-02    5.204E-02    7.423E-02    9.642E-02    1.186E-01    1.408E-01    1.630E-01    1.852E-01
     2.074E-01    2.296E-01    2.517E-01    2.739E-01    2.961E-01    3.183E-01    3.405E-01    3.627E-01    3.849E-01    4.071E-01
     4.293E-01    4.515E-01    4.736E-01    4.958E-01    5.180E-01    5.402E-01    5.624E-01    5.846E-01    6.068E-01    6.290E-01
     6.512E-01    6.734E-01    6.955E-01    7.177E-01    7.399E-01    7.621E-01    7.843E-01    8.065E-01    8.287E-01    8.509E-01
     8.731E-01    8.953E-01    9.174E-01    9.396E-01    9.618E-01    9.840E-01    1.006E+00    1.028E+00    1.051E+00    1.073E+00
     1.095E+00    1.117E+00    1.139E+00    1.162E+00    1.184E+00    1.206E+00    1.228E+00    1.250E+00    1.272E+00    1.295E+00
     1.317E+00    1.339E+00    1.361E+00    1.383E+00    1.406E+00    1.428E+00    1.450E+00    1.472E+00    1.494E+00    1.517E+00
     1.539E+00    1.561E+00    1.583E+00    1.605E+00    1.628E+00    1.650E+00    1.672E+00    1.694E+00    1.716E+00    1.738E+00
     1.761E+00    1.783E+00    1.805E+00    1.827E+00    1.849E+00    1.872E+00    1.894E+00    1.916E+00    1.938E+00    1.960E+00
     1.983E+00    2.005E+00    2.027E+00    2.049E+00    2.071E+00    2.093E+00    2.116E+00    2.138E+00    2.160E+00    2.182E+00
     2.204E+00    2.227E+00    2.249E+00    2.271E+00    2.293E+00    2.315E+00    2.338E+00    2.360E+00    2.382E+00    2.404E+00
     2.426E+00    2.449E+00    2.471E+00    2.493E+00    2.515E+00    2.537E+00    2.559E+00    2.582E+00    2.604E+00    2.626E+00
     2.648E+00    2.670E+00    2.693E+00    2.715E+00    2.737E+00    2.759E+00    2.781E+00    2.804E+00    2.826E+00    2.848E+00
     2.870E+00    2.892E+00    2.915E+00    2.937E+00    2.959E+00    2.981E+00    3.003E+00    3.025E+00    3.048E+00    3.070E+00
     3.092E+00    3.114E+00    3.136E+00    3.159E+00    3.181E+00    3.203E+00    3.225E+00    3.247E+00    3.270E+00    3.292E+00
     3.314E+00    3.336E+00    3.358E+00    3.380E+00    3.403E+00    3.425E+00    3.447E+00    3.469E+00    3.491E+00    3.514E+00
     3.536E+00    3.558E+00    3.580E+00    3.602E+00    3.625E+00    3.647E+00    3.669E+00    3.691E+00    3.713E+00    3.736E+00
     3.758E+00    3.780E+00    3.802E+00    3.824E+00    3.846E+00    3.869E+00    3.891E+00    3.913E+00    3.935E+00    3.957E+00
     3.980E+00    4.002E+00    4.024E+00    4.046E+00    4.068E+00    4.091E+00    4.113E+00    4.135E+00    4.157E+00    4.179E+00
     4.202E+00    4.224E+00    4.246E+00    4.268E+00    4.290E+00    4.312E+00    4.335E+00    4.357E+00
 Asp      Conc. = 4.89E+01
