 LCModel (Version 6.3-1L) Copyright: S.W. Provencher.          Ref.: Magn. Reson. Med. 30:672-679 (1993).                
 Slice#3 Row#5 Col#12  PD_05_press_2_raw_act
 36 lines in following concentration table = NCONC+1
    Conc.  %SD /Cr+PCr  Metabolite                                         
  295.508  34%   1.674 Ala                                                 
   23.400 121%   0.133 Asp                                                 
    0.000 999%   0.000 Cr                                                  
  176.523  24%   1.000 PCr                                                 
   16.062 106% 9.1E-02 GABA                                                
   16.450 104% 9.3E-02 Glc                                                 
  295.698  66%   1.675 Gln                                                 
  528.812  42%   2.996 Glu                                                 
   10.143 166% 5.7E-02 GPC                                                 
    0.000 999%   0.000 PCh                                                 
   69.107  93%   0.391 GSH                                                 
  440.343  45%   2.495 Ins                                                 
  263.184  50%   1.491 Lac                                                 
  188.445  32%   1.068 NAA                                                 
  122.717  50%   0.695 NAAG                                                
    5.424 103% 3.1E-02 Scyllo                                              
   23.376 121%   0.132 Tau                                                 
    0.000 999%   0.000 -CrCH2                                              
   10.143 166% 5.7E-02 GPC+PCh                                             
  311.162  19%   1.763 NAA+NAAG                                            
  176.523  24%   1.000 Cr+PCr                                              
  824.510  37%   4.671 Glu+Gln                                             
 5.87E+03  10%  33.240 Lip13a                                              
 1.28E+03  15%   7.273 Lip13b                                              
 1.43E+03  14%   8.118 Lip09                                               
    0.000 999%   0.000 MM09                                                
  546.710  44%   3.097 Lip20                                               
    0.000 999%   0.000 MM20                                                
    6.426 999% 3.6E-02 MM12                                                
 1.46E+03  23%   8.262 MM14                                                
   89.248 220%   0.506 MM17                                                
 7.15E+03   7%  40.513 Lip13a+Lip13b                                       
 8.62E+03   4%  48.811 MM14+Lip13a+Lip13b+MM12                             
 1.43E+03  14%   8.118 MM09+Lip09                                          
  546.710  44%   3.097 MM20+Lip20                                          
   6 lines in following misc. output table
  FWHM = 0.054 ppm    S/N =   5                                            
  Data shift = 0.015 ppm                                                   
  Ph: -23 deg     -12.3 deg/ppm                                            
  alphaB,S = 8.5E+01,   5.1E+01                                            
   14 spline knots.   Ns = 5(1)                                            
   2 inflections.     1 extrema                                            
  498 points on ppm-axis = NY
      4.000000     3.992357     3.984714     3.977070     3.969427     3.961784     3.954141     3.946497     3.938854     3.931211
      3.923568     3.915925     3.908281     3.900638     3.892995     3.885352     3.877708     3.870065     3.862422     3.854779
      3.847136     3.839492     3.831849     3.824206     3.816563     3.808919     3.801276     3.793633     3.785990     3.778347
      3.770703     3.763060     3.755417     3.747774     3.740130     3.732487     3.724844     3.717201     3.709558     3.701914
      3.694271     3.686628     3.678985     3.671341     3.663698     3.656055     3.648412     3.640769     3.633125     3.625482
      3.617839     3.610196     3.602552     3.594909     3.587266     3.579623     3.571980     3.564336     3.556693     3.549050
      3.541407     3.533763     3.526120     3.518477     3.510834     3.503191     3.495547     3.487904     3.480261     3.472618
      3.464974     3.457331     3.449688     3.442045     3.434402     3.426758     3.419115     3.411472     3.403829     3.396185
      3.388542     3.380899     3.373256     3.365613     3.357969     3.350326     3.342683     3.335040     3.327396     3.319753
      3.312110     3.304467     3.296824     3.289180     3.281537     3.273894     3.266251     3.258607     3.250964     3.243321
      3.235678     3.228034     3.220391     3.212748     3.205105     3.197462     3.189818     3.182175     3.174532     3.166889
      3.159245     3.151602     3.143959     3.136316     3.128673     3.121029     3.113386     3.105743     3.098100     3.090456
      3.082813     3.075170     3.067527     3.059884     3.052240     3.044597     3.036954     3.029311     3.021667     3.014024
      3.006381     2.998738     2.991095     2.983451     2.975808     2.968165     2.960522     2.952878     2.945235     2.937592
      2.929949     2.922306     2.914662     2.907019     2.899376     2.891733     2.884089     2.876446     2.868803     2.861160
      2.853517     2.845873     2.838230     2.830587     2.822944     2.815300     2.807657     2.800014     2.792371     2.784728
      2.777084     2.769441     2.761798     2.754155     2.746511     2.738868     2.731225     2.723582     2.715939     2.708295
      2.700652     2.693009     2.685366     2.677722     2.670079     2.662436     2.654793     2.647150     2.639506     2.631863
      2.624220     2.616577     2.608933     2.601290     2.593647     2.586004     2.578361     2.570717     2.563074     2.555431
      2.547788     2.540144     2.532501     2.524858     2.517215     2.509572     2.501928     2.494285     2.486642     2.478999
      2.471355     2.463712     2.456069     2.448426     2.440783     2.433139     2.425496     2.417853     2.410210     2.402566
      2.394923     2.387280     2.379637     2.371994     2.364350     2.356707     2.349064     2.341421     2.333777     2.326134
      2.318491     2.310848     2.303205     2.295561     2.287918     2.280275     2.272632     2.264988     2.257345     2.249702
      2.242059     2.234416     2.226772     2.219129     2.211486     2.203843     2.196199     2.188556     2.180913     2.173270
      2.165627     2.157983     2.150340     2.142697     2.135054     2.127410     2.119767     2.112124     2.104481     2.096838
      2.089194     2.081551     2.073908     2.066265     2.058621     2.050978     2.043335     2.035692     2.028049     2.020405
      2.012762     2.005119     1.997476     1.989833     1.982190     1.974546     1.966903     1.959260     1.951617     1.943974
      1.936331     1.928688     1.921045     1.913402     1.905759     1.898115     1.890472     1.882829     1.875186     1.867543
      1.859900     1.852257     1.844614     1.836971     1.829327     1.821684     1.814041     1.806398     1.798755     1.791112
      1.783469     1.775826     1.768183     1.760540     1.752896     1.745253     1.737610     1.729967     1.722324     1.714681
      1.707038     1.699395     1.691752     1.684108     1.676465     1.668822     1.661179     1.653536     1.645893     1.638250
      1.630607     1.622964     1.615321     1.607677     1.600034     1.592391     1.584748     1.577105     1.569462     1.561819
      1.554176     1.546533     1.538890     1.531246     1.523603     1.515960     1.508317     1.500674     1.493031     1.485388
      1.477745     1.470102     1.462458     1.454815     1.447172     1.439529     1.431886     1.424243     1.416600     1.408957
      1.401314     1.393671     1.386027     1.378384     1.370741     1.363098     1.355455     1.347812     1.340169     1.332526
      1.324883     1.317240     1.309596     1.301953     1.294310     1.286667     1.279024     1.271381     1.263738     1.256095
      1.248452     1.240808     1.233165     1.225522     1.217879     1.210236     1.202593     1.194950     1.187307     1.179664
      1.172021     1.164377     1.156734     1.149091     1.141448     1.133805     1.126162     1.118519     1.110876     1.103233
      1.095590     1.087946     1.080303     1.072660     1.065017     1.057374     1.049731     1.042088     1.034445     1.026802
      1.019158     1.011515     1.003872     0.996229     0.988586     0.980943     0.973300     0.965657     0.958014     0.950371
      0.942727     0.935084     0.927441     0.919798     0.912155     0.904512     0.896869     0.889226     0.881583     0.873940
      0.866296     0.858653     0.851010     0.843367     0.835724     0.828081     0.820438     0.812795     0.805152     0.797508
      0.789865     0.782222     0.774579     0.766936     0.759293     0.751650     0.744007     0.736364     0.728721     0.721077
      0.713434     0.705791     0.698148     0.690505     0.682862     0.675219     0.667576     0.659933     0.652290     0.644646
      0.637003     0.629360     0.621717     0.614074     0.606431     0.598788     0.591145     0.583502     0.575858     0.568215
      0.560572     0.552929     0.545286     0.537643     0.530000     0.522357     0.514714     0.507071     0.499427     0.491784
      0.484141     0.476498     0.468855     0.461212     0.453569     0.445925     0.438282     0.430639     0.422996     0.415353
      0.407710     0.400067     0.392424     0.384780     0.377137     0.369494     0.361851     0.354208     0.346565     0.338922
      0.331278     0.323635     0.315992     0.308349     0.300706     0.293063     0.285420     0.277777     0.270133     0.262490
      0.254847     0.247204     0.239561     0.231918     0.224275     0.216631     0.208988     0.201345
 NY phased data points follow
   1.55152E+01  1.26205E+01  8.89779E+00  1.23208E+01  1.49998E+01  1.51257E+01  1.29228E+01  1.55580E+01  1.70548E+01  1.19735E+01
   1.17966E+01  8.58496E+00  7.21862E+00  1.06567E+01  1.30399E+01  1.12552E+01  1.07723E+01  5.92114E+00  7.44875E+00  5.76263E+00
   7.97487E+00  1.19490E+01  8.58500E+00  1.60320E+01  9.42436E+00  8.01450E+00  7.35970E+00  5.31717E+00  5.36540E+00  1.08781E+01
   8.84804E+00  1.44661E+01  5.50605E+00  9.98890E+00  7.04100E+00  9.93101E+00  7.90425E+00  1.00242E+01  3.19993E+00  1.07831E+01
   4.40582E+00  7.40159E+00  6.39817E+00  4.32280E+00  5.84785E+00  8.48648E+00  4.45836E+00  1.17125E+01  1.16919E+01  9.17313E+00
   2.88299E+00  9.51358E+00  6.97423E+00  7.90982E+00  1.02600E+01  7.27112E+00  4.59424E+00  7.94152E+00  8.58050E+00  1.37032E+01
   7.64504E+00  6.50134E+00  6.66170E+00  2.07704E+00  5.53758E+00  3.29310E+00  7.44350E+00  8.15469E+00  1.10794E+01  2.50655E+00
   8.50804E+00  9.91305E-01  8.22029E+00  3.68003E+00  8.93697E+00  6.34696E+00  1.33730E+00  7.19162E+00  2.78962E+00 -1.26262E+00
   1.21048E+01  7.14115E+00  2.61254E+00  5.23622E+00  2.41171E+00  1.01212E+01  1.16701E+01  5.28579E+00  2.43290E+00  3.66443E+00
  -1.42347E+00  4.63510E+00 -1.58235E+00  1.84443E+00  1.13066E+00  2.79138E+00  5.11723E+00  3.34261E+00  6.02304E+00  1.11462E+01
   4.94804E-01  3.47710E+00 -9.22436E-01 -1.90910E-01  1.05879E+01  9.89207E+00  9.30144E+00  5.60595E+00  3.54338E+00  5.77558E+00
   2.39277E+00  7.99419E+00  9.80066E+00  8.84414E+00  6.45977E+00  4.34269E+00  3.66263E+00  4.71449E+00  8.71995E+00  5.48294E+00
   5.94730E+00  2.51564E+00  4.44350E-01  6.51881E+00  1.07706E+01  6.82981E+00  1.02880E+01  8.43547E+00  8.01652E+00  3.96509E+00
   5.02132E+00  6.21117E+00  8.24557E+00  2.65902E+00  6.44384E+00  6.84502E+00  6.12792E+00  5.68366E+00  5.24882E+00  6.65529E+00
   4.64891E+00 -1.18205E+00  4.72228E+00  9.13436E+00  2.27828E+00  5.64578E+00  7.36204E+00  5.56204E+00  7.69995E+00  4.38446E+00
  -2.71926E-01  6.87324E+00  8.76229E+00  7.29179E+00  5.35131E+00 -3.93969E+00  8.20471E+00  5.06635E+00  2.22516E+00  8.29653E+00
   5.73515E+00  3.84851E+00  8.65409E+00  3.31391E+00  1.64992E+00  6.55662E+00  4.43485E+00  2.22766E+00  2.54088E+00 -2.41130E+00
   3.53962E-01 -3.87346E-01  7.29326E+00  2.65800E+00 -1.75027E+00  7.78119E+00 -3.39260E-01  5.32802E+00  1.93324E+00  3.13131E+00
   3.65656E+00  8.95445E+00  4.64157E-01  5.69348E+00  5.59879E-02  8.88313E+00  3.05649E+00  5.67056E-01  3.72706E+00  5.96474E+00
   3.46480E+00  5.36734E+00  4.10874E+00  4.70280E+00  3.63637E+00  7.79663E-01  9.48930E-01  3.77592E+00 -4.57062E+00  2.36298E+00
  -3.35241E+00  1.68416E+00 -4.66552E+00  2.60563E+00  1.01745E+00  3.00438E+00  7.28727E+00 -4.91344E+00 -3.41387E+00 -3.09513E+00
  -1.52483E+00  3.43924E+00  2.16501E+00  1.24271E+00  2.12252E+00  4.37414E+00  2.62271E+00  7.30147E-01  7.81776E-01  1.07531E-01
  -2.20503E+00 -2.52474E+00  1.64009E+00 -5.32698E-01  5.10111E+00  5.49897E+00  4.59289E+00  8.24257E+00  1.73516E+00  3.65721E+00
   2.63441E+00  2.54464E-01  4.18201E+00  5.73394E+00 -8.11230E-01 -1.84018E+00  5.55336E+00  5.31469E+00  4.07023E+00  2.75510E+00
   4.63097E+00 -1.74132E+00  3.21345E+00  1.77587E+00  3.73316E+00  5.46652E-01  4.05015E+00  7.45487E-01  4.69564E+00  6.60163E+00
   4.37459E+00  2.25271E+00  4.94295E+00  4.42300E+00  9.25623E+00  8.17507E+00  1.00063E+01  1.55133E+01  6.34260E+00  1.48139E+01
   1.26382E+01  1.22018E+01  1.37907E+01  5.97364E+00  3.28966E+00  9.84568E+00  4.29036E+00  6.65209E+00  5.18801E+00  4.56812E+00
   5.82909E+00  2.70557E+00  4.16486E+00  2.42056E-01  3.96774E+00 -1.66967E-01  1.25077E-01  8.94346E+00 -1.42253E+00  5.42458E+00
   1.31649E+01  6.73829E+00  5.30796E+00  3.81425E+00  6.45692E+00  6.56183E+00  2.93586E+00  3.04039E+00  3.25489E+00  2.73376E+00
   1.00660E+01  5.62376E+00  5.03165E+00  3.42785E+00  1.18218E+00  1.30885E+01  2.12609E+00 -4.09260E+00  5.01364E+00  3.74687E+00
   7.32889E+00  8.03327E+00  5.78221E+00  3.10505E+00  2.37301E+00  4.06652E-01 -1.07671E+00 -1.68960E+00 -1.43495E+00  2.51356E+00
   3.97045E+00 -4.35034E+00  3.21596E+00  2.82134E+00  8.39952E+00  8.43455E+00 -4.41008E+00  1.23258E+01  4.86995E+00  1.36857E+01
   1.02213E+01  7.94414E+00  1.88242E+01  1.74102E+01  1.04124E+01  1.15216E+01  1.10592E+01  1.31413E+01  1.11619E+01  1.37002E+01
   1.00201E+01  1.27342E+01  1.00013E+01  1.11453E+01  1.47201E+01  1.81975E+01  1.66587E+01  1.46750E+01  2.41898E+01  1.88585E+01
   1.86812E+01  2.55724E+01  2.72202E+01  2.42764E+01  2.98198E+01  3.28336E+01  4.04403E+01  3.03776E+01  3.74746E+01  3.41251E+01
   3.83514E+01  4.11910E+01  3.52202E+01  4.57527E+01  3.76166E+01  3.73529E+01  3.77713E+01  3.30504E+01  3.39280E+01  3.29959E+01
   2.94473E+01  2.47243E+01  2.93703E+01  1.99476E+01  2.09828E+01  2.25772E+01  2.26857E+01  1.79985E+01  1.48190E+01  1.65094E+01
   1.67419E+01  1.41975E+01  1.37159E+01  1.40514E+01  9.18614E+00  1.34325E+01  1.04166E+01  1.63700E+01  1.29736E+01  1.28461E+01
   8.73509E+00  1.18633E+01  1.15781E+01  1.02977E+01  3.93741E+00  1.15461E+01  6.16862E+00  1.11604E+01  1.19180E+01  1.25662E+01
   6.99027E+00  4.57060E+00  1.19597E+01  1.03173E+01  6.95356E+00  1.23307E+01  9.82070E+00  1.06185E+01  9.50806E+00  1.11070E+01
   5.97393E+00  1.03757E+01  9.34459E+00  1.08572E+01  7.51921E+00  9.44425E+00  1.13418E+01  8.83934E+00  8.93215E+00  6.85116E+00
   6.38403E+00  6.22911E+00  6.16714E+00  4.69023E+00  1.08684E+00  1.23310E+01  6.17186E+00  3.25579E+00  5.28727E+00  1.17979E+01
   6.74729E+00  7.41619E+00  2.30447E+00  3.38944E+00  8.22365E+00  8.37756E+00  5.18967E+00  4.50120E+00  8.38115E+00  4.29946E+00
  -6.48872E-01 -1.46882E+00  8.41305E+00 -3.11200E+00  2.21812E+00  2.13398E+00  4.92142E+00  1.30180E+00  8.60617E+00  1.14048E+01
   3.30406E+00 -5.19223E+00  3.95800E+00 -2.18818E-01 -2.93864E-02  1.15609E-01  2.84715E-01  4.32327E+00  2.09870E+00  2.19564E+00
  -1.63786E+00  2.06630E+00 -4.05270E+00  4.78676E-01 -2.70435E+00 -3.76059E+00 -1.91137E+00 -1.74154E+00  4.42173E-01 -3.46056E-01
  -2.57548E+00  2.90628E+00  1.49658E+00 -1.62010E+00  6.24886E+00 -5.23558E-01  1.18698E+00 -1.89247E+00 -3.86875E+00 -1.21293E+00
  -2.18622E-01  1.43823E+00 -7.60854E-01 -1.89208E-01 -5.40269E+00  3.49198E+00 -2.62429E+00 -5.43478E+00  5.78529E-01 -1.23660E+00
  -2.89265E+00  2.59166E+00 -1.49869E-01 -7.63154E-02  1.14297E+00  2.79424E+00  5.06917E+00 -3.64319E+00  3.75991E+00  1.87725E+00
  -8.19575E-01  3.33367E+00 -6.41500E-01  2.37635E+00  3.60985E+00  4.35552E+00 -2.63185E-01 -3.65429E+00
 NY points of the fit to the data follow
   7.72525E+00  7.57023E+00  7.50932E+00  7.70678E+00  8.38173E+00  9.32753E+00  1.02444E+01  1.09047E+01  1.11621E+01  1.10025E+01
   1.05324E+01  9.90472E+00  9.22036E+00  8.48191E+00  7.72689E+00  7.14016E+00  6.93601E+00  6.97033E+00  7.13518E+00  7.41457E+00
   7.81570E+00  8.21295E+00  8.35446E+00  8.11413E+00  7.56534E+00  6.96803E+00  6.58108E+00  6.59836E+00  7.10488E+00  7.96774E+00
   8.85980E+00  9.52553E+00  9.86775E+00  9.79046E+00  9.30733E+00  8.58970E+00  7.81970E+00  7.17133E+00  6.66819E+00  6.34185E+00
   6.24983E+00  6.38124E+00  6.72730E+00  7.37281E+00  8.23377E+00  9.04538E+00  9.59850E+00  9.75167E+00  9.46300E+00  8.86238E+00
   8.12944E+00  7.40521E+00  6.75101E+00  6.18521E+00  5.83304E+00  5.85882E+00  6.19146E+00  6.64310E+00  7.05142E+00  7.31710E+00
   7.38830E+00  7.26668E+00  7.01716E+00  6.73589E+00  6.49077E+00  6.30022E+00  6.18285E+00  6.19869E+00  6.33508E+00  6.53794E+00
   6.73749E+00  6.88484E+00  6.95026E+00  6.92484E+00  6.82980E+00  6.69543E+00  6.54307E+00  6.38737E+00  6.23565E+00  6.12559E+00
   6.05989E+00  6.02958E+00  5.98973E+00  5.87473E+00  5.64557E+00  5.32871E+00  4.99343E+00  4.71452E+00  4.54458E+00  4.50499E+00
   4.57514E+00  4.71939E+00  4.92190E+00  5.14579E+00  5.31281E+00  5.35981E+00  5.28654E+00  5.16610E+00  5.11408E+00  5.14651E+00
   5.21441E+00  5.28083E+00  5.30994E+00  5.29576E+00  5.25529E+00  5.18837E+00  5.10378E+00  4.99714E+00  4.87435E+00  4.77137E+00
   4.73638E+00  4.73155E+00  4.72451E+00  4.71816E+00  4.70779E+00  4.68980E+00  4.66336E+00  4.63575E+00  4.61605E+00  4.62254E+00
   4.70942E+00  5.12445E+00  6.21661E+00  7.71250E+00  9.16383E+00  1.02137E+01  1.06505E+01  1.04692E+01  9.85238E+00  9.03663E+00
   8.13412E+00  7.13052E+00  6.05622E+00  5.16983E+00  4.73148E+00  4.50983E+00  4.38998E+00  4.37023E+00  4.42434E+00  4.51800E+00
   4.63380E+00  4.75934E+00  4.85892E+00  4.91385E+00  4.92797E+00  4.90479E+00  4.85804E+00  4.80741E+00  4.75978E+00  4.71847E+00
   4.66708E+00  4.61083E+00  4.56420E+00  4.54086E+00  4.54598E+00  4.56025E+00  4.55321E+00  4.51053E+00  4.44128E+00  4.36771E+00
   4.31602E+00  4.28108E+00  4.24458E+00  4.19948E+00  4.13862E+00  4.06001E+00  3.97983E+00  3.90886E+00  3.84446E+00  3.78849E+00
   3.73143E+00  3.65123E+00  3.55224E+00  3.45451E+00  3.37551E+00  3.32349E+00  3.27825E+00  3.21453E+00  3.13468E+00  3.07240E+00
   3.04629E+00  3.05093E+00  3.05881E+00  3.05352E+00  3.05993E+00  3.11668E+00  3.24162E+00  3.42904E+00  3.62691E+00  3.75694E+00
   3.78228E+00  3.70167E+00  3.51097E+00  3.22156E+00  2.89676E+00  2.63457E+00  2.52288E+00  2.62578E+00  2.95134E+00  3.44064E+00
   4.01199E+00  4.55116E+00  4.91866E+00  5.03449E+00  4.78483E+00  4.05064E+00  2.96602E+00  1.87327E+00  1.06409E+00  7.61109E-01
   1.10510E+00  2.10044E+00  3.41813E+00  4.67860E+00  5.58318E+00  5.99642E+00  5.76237E+00  4.77290E+00  3.32869E+00  1.96086E+00
   9.74947E-01  5.28023E-01  7.28137E-01  1.48584E+00  2.44139E+00  3.36717E+00  4.12761E+00  4.65099E+00  4.87456E+00  4.77313E+00
   4.49704E+00  4.20215E+00  3.94875E+00  3.79625E+00  3.77401E+00  3.84293E+00  4.00482E+00  4.18067E+00  4.18717E+00  4.02059E+00
   3.78274E+00  3.54981E+00  3.35979E+00  3.20919E+00  3.10341E+00  3.03449E+00  2.97585E+00  2.96106E+00  3.08766E+00  3.34718E+00
   3.74557E+00  4.57749E+00  5.77063E+00  6.94826E+00  7.91109E+00  8.89107E+00  1.01454E+01  1.13869E+01  1.23353E+01  1.27880E+01
   1.25486E+01  1.16132E+01  1.02873E+01  9.02254E+00  7.82827E+00  6.53644E+00  5.21908E+00  4.24318E+00  3.78260E+00  3.54046E+00
   3.41720E+00  3.38161E+00  3.36818E+00  3.35408E+00  3.33058E+00  3.28307E+00  3.20968E+00  3.11687E+00  3.01197E+00  2.90895E+00
   2.82493E+00  2.77068E+00  2.74193E+00  2.72796E+00  2.71883E+00  2.71132E+00  2.70355E+00  2.69592E+00  2.69256E+00  2.69773E+00
   2.71406E+00  2.74083E+00  2.77369E+00  2.81105E+00  2.84886E+00  2.88527E+00  2.92209E+00  2.96040E+00  3.00159E+00  3.05059E+00
   3.10924E+00  3.17636E+00  3.25102E+00  3.33327E+00  3.42394E+00  3.52358E+00  3.63193E+00  3.75144E+00  3.88548E+00  4.03707E+00
   4.20976E+00  4.40691E+00  4.63198E+00  4.88881E+00  5.18152E+00  5.51470E+00  5.89373E+00  6.32535E+00  6.81904E+00  7.39047E+00
   8.07121E+00  8.94344E+00  1.01603E+01  1.14915E+01  1.24694E+01  1.28755E+01  1.26897E+01  1.20449E+01  1.11491E+01  1.01781E+01
   9.50721E+00  9.57761E+00  1.04344E+01  1.20066E+01  1.41476E+01  1.63379E+01  1.81377E+01  1.95339E+01  2.06499E+01  2.16097E+01
   2.24634E+01  2.33055E+01  2.46098E+01  2.66171E+01  2.88308E+01  3.09233E+01  3.27515E+01  3.42765E+01  3.55057E+01  3.64264E+01
   3.72420E+01  3.81311E+01  3.89443E+01  3.95236E+01  3.97947E+01  3.95094E+01  3.83919E+01  3.66030E+01  3.44281E+01  3.20888E+01
   2.96724E+01  2.72382E+01  2.50668E+01  2.33230E+01  2.18824E+01  2.06515E+01  1.95690E+01  1.85915E+01  1.76888E+01  1.68419E+01
   1.60402E+01  1.52783E+01  1.45547E+01  1.38697E+01  1.32249E+01  1.26218E+01  1.20619E+01  1.15464E+01  1.10757E+01  1.06503E+01
   1.02700E+01  9.93445E+00  9.64284E+00  9.39421E+00  9.18728E+00  9.02062E+00  8.89258E+00  8.80128E+00  8.74457E+00  8.71998E+00
   8.72478E+00  8.75589E+00  8.80996E+00  8.88325E+00  8.97169E+00  9.07090E+00  9.17624E+00  9.28297E+00  9.38622E+00  9.48114E+00
   9.56302E+00  9.62739E+00  9.67021E+00  9.68796E+00  9.67772E+00  9.63728E+00  9.56516E+00  9.46073E+00  9.32414E+00  9.15633E+00
   8.95897E+00  8.73431E+00  8.48516E+00  8.21475E+00  7.92657E+00  7.62430E+00  7.31162E+00  6.99214E+00  6.66928E+00  6.34621E+00
   6.02581E+00  5.71057E+00  5.40259E+00  5.10360E+00  4.81493E+00  4.53760E+00  4.27228E+00  4.01936E+00  3.77895E+00  3.55099E+00
   3.33522E+00  3.13129E+00  2.93873E+00  2.75699E+00  2.58549E+00  2.42361E+00  2.27075E+00  2.12631E+00  1.98971E+00  1.86038E+00
   1.73777E+00  1.62140E+00  1.51080E+00  1.40553E+00  1.30519E+00  1.20941E+00  1.11785E+00  1.03018E+00  9.46133E-01  8.65445E-01
   7.87873E-01  7.13192E-01  6.41201E-01  5.71721E-01  5.04590E-01  4.39649E-01  3.76752E-01  3.15764E-01  2.56566E-01  1.99052E-01
   1.43122E-01  8.86820E-02  3.56391E-02 -1.60872E-02 -6.65694E-02 -1.15874E-01 -1.64064E-01 -2.11204E-01 -2.57353E-01 -3.02563E-01
  -3.46878E-01 -3.90341E-01 -4.32994E-01 -4.74881E-01 -5.16040E-01 -5.56505E-01 -5.96306E-01 -6.35476E-01 -6.74044E-01 -7.12040E-01
  -7.49492E-01 -7.86423E-01 -8.22853E-01 -8.58805E-01 -8.94303E-01 -9.29367E-01 -9.64017E-01 -9.98270E-01 -1.03214E+00 -1.06566E+00
  -1.09882E+00 -1.13166E+00 -1.16419E+00 -1.19642E+00 -1.22837E+00 -1.26006E+00 -1.29149E+00 -1.32268E+00
 NY background values follow
     6.531E+00    6.513E+00    6.495E+00    6.477E+00    6.459E+00    6.441E+00    6.423E+00    6.405E+00    6.387E+00    6.368E+00
     6.350E+00    6.332E+00    6.314E+00    6.296E+00    6.278E+00    6.260E+00    6.242E+00    6.224E+00    6.206E+00    6.187E+00
     6.169E+00    6.151E+00    6.133E+00    6.115E+00    6.097E+00    6.079E+00    6.061E+00    6.042E+00    6.024E+00    6.006E+00
     5.988E+00    5.970E+00    5.952E+00    5.934E+00    5.916E+00    5.897E+00    5.879E+00    5.861E+00    5.843E+00    5.825E+00
     5.807E+00    5.788E+00    5.770E+00    5.752E+00    5.734E+00    5.716E+00    5.698E+00    5.679E+00    5.661E+00    5.643E+00
     5.625E+00    5.607E+00    5.589E+00    5.570E+00    5.552E+00    5.534E+00    5.516E+00    5.498E+00    5.480E+00    5.461E+00
     5.443E+00    5.425E+00    5.407E+00    5.389E+00    5.370E+00    5.352E+00    5.334E+00    5.316E+00    5.298E+00    5.279E+00
     5.261E+00    5.243E+00    5.225E+00    5.207E+00    5.188E+00    5.170E+00    5.152E+00    5.134E+00    5.115E+00    5.097E+00
     5.079E+00    5.061E+00    5.043E+00    5.024E+00    5.006E+00    4.988E+00    4.970E+00    4.951E+00    4.933E+00    4.915E+00
     4.897E+00    4.879E+00    4.860E+00    4.842E+00    4.824E+00    4.806E+00    4.787E+00    4.769E+00    4.751E+00    4.733E+00
     4.714E+00    4.696E+00    4.678E+00    4.660E+00    4.641E+00    4.623E+00    4.605E+00    4.587E+00    4.568E+00    4.550E+00
     4.532E+00    4.514E+00    4.495E+00    4.477E+00    4.459E+00    4.441E+00    4.422E+00    4.404E+00    4.386E+00    4.368E+00
     4.349E+00    4.331E+00    4.313E+00    4.294E+00    4.276E+00    4.258E+00    4.240E+00    4.221E+00    4.203E+00    4.185E+00
     4.167E+00    4.148E+00    4.130E+00    4.112E+00    4.093E+00    4.075E+00    4.057E+00    4.039E+00    4.020E+00    4.002E+00
     3.984E+00    3.966E+00    3.947E+00    3.929E+00    3.911E+00    3.892E+00    3.874E+00    3.856E+00    3.838E+00    3.819E+00
     3.801E+00    3.783E+00    3.764E+00    3.746E+00    3.728E+00    3.710E+00    3.691E+00    3.673E+00    3.655E+00    3.636E+00
     3.618E+00    3.600E+00    3.581E+00    3.563E+00    3.545E+00    3.527E+00    3.508E+00    3.490E+00    3.472E+00    3.453E+00
     3.435E+00    3.417E+00    3.399E+00    3.380E+00    3.362E+00    3.344E+00    3.325E+00    3.307E+00    3.289E+00    3.270E+00
     3.252E+00    3.234E+00    3.216E+00    3.197E+00    3.179E+00    3.161E+00    3.142E+00    3.124E+00    3.106E+00    3.087E+00
     3.069E+00    3.051E+00    3.033E+00    3.014E+00    2.996E+00    2.978E+00    2.959E+00    2.941E+00    2.923E+00    2.904E+00
     2.886E+00    2.868E+00    2.850E+00    2.831E+00    2.813E+00    2.795E+00    2.776E+00    2.758E+00    2.740E+00    2.721E+00
     2.703E+00    2.685E+00    2.667E+00    2.648E+00    2.630E+00    2.612E+00    2.593E+00    2.575E+00    2.557E+00    2.538E+00
     2.520E+00    2.502E+00    2.484E+00    2.465E+00    2.447E+00    2.429E+00    2.410E+00    2.392E+00    2.374E+00    2.356E+00
     2.337E+00    2.319E+00    2.301E+00    2.282E+00    2.264E+00    2.246E+00    2.227E+00    2.209E+00    2.191E+00    2.173E+00
     2.154E+00    2.136E+00    2.118E+00    2.099E+00    2.081E+00    2.063E+00    2.045E+00    2.026E+00    2.008E+00    1.990E+00
     1.971E+00    1.953E+00    1.935E+00    1.917E+00    1.898E+00    1.880E+00    1.862E+00    1.843E+00    1.825E+00    1.807E+00
     1.789E+00    1.770E+00    1.752E+00    1.734E+00    1.716E+00    1.697E+00    1.679E+00    1.661E+00    1.642E+00    1.624E+00
     1.606E+00    1.588E+00    1.569E+00    1.551E+00    1.533E+00    1.515E+00    1.496E+00    1.478E+00    1.460E+00    1.442E+00
     1.423E+00    1.405E+00    1.387E+00    1.368E+00    1.350E+00    1.332E+00    1.314E+00    1.295E+00    1.277E+00    1.259E+00
     1.241E+00    1.222E+00    1.204E+00    1.186E+00    1.168E+00    1.149E+00    1.131E+00    1.113E+00    1.095E+00    1.077E+00
     1.058E+00    1.040E+00    1.022E+00    1.004E+00    9.853E-01    9.671E-01    9.489E-01    9.306E-01    9.124E-01    8.942E-01
     8.760E-01    8.577E-01    8.395E-01    8.213E-01    8.031E-01    7.848E-01    7.666E-01    7.484E-01    7.302E-01    7.120E-01
     6.938E-01    6.756E-01    6.573E-01    6.391E-01    6.209E-01    6.027E-01    5.845E-01    5.663E-01    5.481E-01    5.299E-01
     5.117E-01    4.935E-01    4.753E-01    4.571E-01    4.389E-01    4.207E-01    4.026E-01    3.844E-01    3.662E-01    3.480E-01
     3.298E-01    3.116E-01    2.935E-01    2.753E-01    2.571E-01    2.389E-01    2.208E-01    2.026E-01    1.844E-01    1.663E-01
     1.481E-01    1.299E-01    1.118E-01    9.361E-02    7.545E-02    5.729E-02    3.914E-02    2.099E-02    2.835E-03   -1.531E-02
    -3.346E-02   -5.161E-02   -6.975E-02   -8.789E-02   -1.060E-01   -1.242E-01   -1.423E-01   -1.604E-01   -1.786E-01   -1.967E-01
    -2.148E-01   -2.330E-01   -2.511E-01   -2.692E-01   -2.873E-01   -3.054E-01   -3.236E-01   -3.417E-01   -3.598E-01   -3.779E-01
    -3.960E-01   -4.141E-01   -4.322E-01   -4.503E-01   -4.684E-01   -4.865E-01   -5.046E-01   -5.227E-01   -5.408E-01   -5.589E-01
    -5.769E-01   -5.950E-01   -6.131E-01   -6.312E-01   -6.493E-01   -6.673E-01   -6.854E-01   -7.035E-01   -7.216E-01   -7.396E-01
    -7.577E-01   -7.757E-01   -7.938E-01   -8.119E-01   -8.299E-01   -8.480E-01   -8.660E-01   -8.841E-01   -9.021E-01   -9.201E-01
    -9.382E-01   -9.562E-01   -9.743E-01   -9.923E-01   -1.010E+00   -1.028E+00   -1.046E+00   -1.064E+00   -1.082E+00   -1.100E+00
    -1.118E+00   -1.136E+00   -1.154E+00   -1.172E+00   -1.190E+00   -1.208E+00   -1.226E+00   -1.244E+00   -1.262E+00   -1.280E+00
    -1.298E+00   -1.316E+00   -1.334E+00   -1.352E+00   -1.370E+00   -1.388E+00   -1.406E+00   -1.424E+00   -1.442E+00   -1.460E+00
    -1.478E+00   -1.496E+00   -1.514E+00   -1.532E+00   -1.550E+00   -1.568E+00   -1.586E+00   -1.604E+00   -1.622E+00   -1.640E+00
    -1.658E+00   -1.676E+00   -1.693E+00   -1.711E+00   -1.729E+00   -1.747E+00   -1.765E+00   -1.783E+00   -1.801E+00   -1.819E+00
    -1.837E+00   -1.855E+00   -1.873E+00   -1.890E+00   -1.908E+00   -1.926E+00   -1.944E+00   -1.962E+00   -1.980E+00   -1.998E+00
    -2.016E+00   -2.034E+00   -2.051E+00   -2.069E+00   -2.087E+00   -2.105E+00   -2.123E+00   -2.141E+00   -2.158E+00   -2.176E+00
    -2.194E+00   -2.212E+00   -2.230E+00   -2.248E+00   -2.266E+00   -2.283E+00   -2.301E+00   -2.319E+00   -2.337E+00   -2.355E+00
    -2.372E+00   -2.390E+00   -2.408E+00   -2.426E+00   -2.444E+00   -2.461E+00   -2.479E+00   -2.497E+00
 Ala      Conc. = 2.96E+02
