 LCModel (Version 6.3-1L) Copyright: S.W. Provencher.          Ref.: Magn. Reson. Med. 30:672-679 (1993).                
 Slice#3 Row#6 Col#1  PD_05_press_2_raw_act
 36 lines in following concentration table = NCONC+1
    Conc.  %SD /Cr+PCr  Metabolite                                         
   77.519 178% 9.7E-02 Ala                                                 
   36.693 366% 4.6E-02 Asp                                                 
    0.000 999%   0.000 Cr                                                  
  801.032   8%   1.000 PCr                                                 
   96.090  86%   0.120 GABA                                                
  105.790  78%   0.132 Glc                                                 
  161.023 178%   0.201 Gln                                                 
  922.947  35%   1.152 Glu                                                 
    0.000 999%   0.000 GPC                                                 
  193.677  13%   0.242 PCh                                                 
  308.530  29%   0.385 GSH                                                 
  686.686  46%   0.857 Ins                                                 
  244.977  63%   0.306 Lac                                                 
 1.28E+03   8%   1.601 NAA                                                 
  102.987 104%   0.129 NAAG                                                
   43.185  52% 5.4E-02 Scyllo                                              
  239.754  55%   0.299 Tau                                                 
  942.584  12%   1.177+-CrCH2                                              
  193.677  13%   0.242 GPC+PCh                                             
 1.39E+03   6%   1.730 NAA+NAAG                                            
  801.032   8%   1.000 Cr+PCr                                              
 1.08E+03  42%   1.353 Glu+Gln                                             
 1.22E+03  31%   1.521 Lip13a                                              
    0.000 999%   0.000 Lip13b                                              
   73.332 257% 9.2E-02 Lip09                                               
  734.188  30%   0.917 MM09                                                
  193.535  72%   0.242 Lip20                                               
 1.18E+03  30%   1.468 MM20                                                
  229.114  41%   0.286 MM12                                                
  533.018  52%   0.665 MM14                                                
  326.961  56%   0.408 MM17                                                
 1.22E+03  31%   1.521 Lip13a+Lip13b                                       
 1.98E+03  22%   2.473 MM14+Lip13a+Lip13b+MM12                             
  807.520  27%   1.008 MM09+Lip09                                          
 1.37E+03  26%   1.710 MM20+Lip20                                          
   6 lines in following misc. output table
  FWHM = 0.061 ppm    S/N =   5                                            
  Data shift =-0.008 ppm                                                   
  Ph: -13 deg      -6.4 deg/ppm                                            
  alphaB,S = 1.1E+00,   8.6E+01                                            
   14 spline knots.   Ns = 7(1)                                            
  (13) 6 infls.   (11) 1 extrs.                                            
  498 points on ppm-axis = NY
      4.000000     3.992357     3.984714     3.977070     3.969427     3.961784     3.954141     3.946497     3.938854     3.931211
      3.923568     3.915925     3.908281     3.900638     3.892995     3.885352     3.877708     3.870065     3.862422     3.854779
      3.847136     3.839492     3.831849     3.824206     3.816563     3.808919     3.801276     3.793633     3.785990     3.778347
      3.770703     3.763060     3.755417     3.747774     3.740130     3.732487     3.724844     3.717201     3.709558     3.701914
      3.694271     3.686628     3.678985     3.671341     3.663698     3.656055     3.648412     3.640769     3.633125     3.625482
      3.617839     3.610196     3.602552     3.594909     3.587266     3.579623     3.571980     3.564336     3.556693     3.549050
      3.541407     3.533763     3.526120     3.518477     3.510834     3.503191     3.495547     3.487904     3.480261     3.472618
      3.464974     3.457331     3.449688     3.442045     3.434402     3.426758     3.419115     3.411472     3.403829     3.396185
      3.388542     3.380899     3.373256     3.365613     3.357969     3.350326     3.342683     3.335040     3.327396     3.319753
      3.312110     3.304467     3.296824     3.289180     3.281537     3.273894     3.266251     3.258607     3.250964     3.243321
      3.235678     3.228034     3.220391     3.212748     3.205105     3.197462     3.189818     3.182175     3.174532     3.166889
      3.159245     3.151602     3.143959     3.136316     3.128673     3.121029     3.113386     3.105743     3.098100     3.090456
      3.082813     3.075170     3.067527     3.059884     3.052240     3.044597     3.036954     3.029311     3.021667     3.014024
      3.006381     2.998738     2.991095     2.983451     2.975808     2.968165     2.960522     2.952878     2.945235     2.937592
      2.929949     2.922306     2.914662     2.907019     2.899376     2.891733     2.884089     2.876446     2.868803     2.861160
      2.853517     2.845873     2.838230     2.830587     2.822944     2.815300     2.807657     2.800014     2.792371     2.784728
      2.777084     2.769441     2.761798     2.754155     2.746511     2.738868     2.731225     2.723582     2.715939     2.708295
      2.700652     2.693009     2.685366     2.677722     2.670079     2.662436     2.654793     2.647150     2.639506     2.631863
      2.624220     2.616577     2.608933     2.601290     2.593647     2.586004     2.578361     2.570717     2.563074     2.555431
      2.547788     2.540144     2.532501     2.524858     2.517215     2.509572     2.501928     2.494285     2.486642     2.478999
      2.471355     2.463712     2.456069     2.448426     2.440783     2.433139     2.425496     2.417853     2.410210     2.402566
      2.394923     2.387280     2.379637     2.371994     2.364350     2.356707     2.349064     2.341421     2.333777     2.326134
      2.318491     2.310848     2.303205     2.295561     2.287918     2.280275     2.272632     2.264988     2.257345     2.249702
      2.242059     2.234416     2.226772     2.219129     2.211486     2.203843     2.196199     2.188556     2.180913     2.173270
      2.165627     2.157983     2.150340     2.142697     2.135054     2.127410     2.119767     2.112124     2.104481     2.096838
      2.089194     2.081551     2.073908     2.066265     2.058621     2.050978     2.043335     2.035692     2.028049     2.020405
      2.012762     2.005119     1.997476     1.989833     1.982190     1.974546     1.966903     1.959260     1.951617     1.943974
      1.936331     1.928688     1.921045     1.913402     1.905759     1.898115     1.890472     1.882829     1.875186     1.867543
      1.859900     1.852257     1.844614     1.836971     1.829327     1.821684     1.814041     1.806398     1.798755     1.791112
      1.783469     1.775826     1.768183     1.760540     1.752896     1.745253     1.737610     1.729967     1.722324     1.714681
      1.707038     1.699395     1.691752     1.684108     1.676465     1.668822     1.661179     1.653536     1.645893     1.638250
      1.630607     1.622964     1.615321     1.607677     1.600034     1.592391     1.584748     1.577105     1.569462     1.561819
      1.554176     1.546533     1.538890     1.531246     1.523603     1.515960     1.508317     1.500674     1.493031     1.485388
      1.477745     1.470102     1.462458     1.454815     1.447172     1.439529     1.431886     1.424243     1.416600     1.408957
      1.401314     1.393671     1.386027     1.378384     1.370741     1.363098     1.355455     1.347812     1.340169     1.332526
      1.324883     1.317240     1.309596     1.301953     1.294310     1.286667     1.279024     1.271381     1.263738     1.256095
      1.248452     1.240808     1.233165     1.225522     1.217879     1.210236     1.202593     1.194950     1.187307     1.179664
      1.172021     1.164377     1.156734     1.149091     1.141448     1.133805     1.126162     1.118519     1.110876     1.103233
      1.095590     1.087946     1.080303     1.072660     1.065017     1.057374     1.049731     1.042088     1.034445     1.026802
      1.019158     1.011515     1.003872     0.996229     0.988586     0.980943     0.973300     0.965657     0.958014     0.950371
      0.942727     0.935084     0.927441     0.919798     0.912155     0.904512     0.896869     0.889226     0.881583     0.873940
      0.866296     0.858653     0.851010     0.843367     0.835724     0.828081     0.820438     0.812795     0.805152     0.797508
      0.789865     0.782222     0.774579     0.766936     0.759293     0.751650     0.744007     0.736364     0.728721     0.721077
      0.713434     0.705791     0.698148     0.690505     0.682862     0.675219     0.667576     0.659933     0.652290     0.644646
      0.637003     0.629360     0.621717     0.614074     0.606431     0.598788     0.591145     0.583502     0.575858     0.568215
      0.560572     0.552929     0.545286     0.537643     0.530000     0.522357     0.514714     0.507071     0.499427     0.491784
      0.484141     0.476498     0.468855     0.461212     0.453569     0.445925     0.438282     0.430639     0.422996     0.415353
      0.407710     0.400067     0.392424     0.384780     0.377137     0.369494     0.361851     0.354208     0.346565     0.338922
      0.331278     0.323635     0.315992     0.308349     0.300706     0.293063     0.285420     0.277777     0.270133     0.262490
      0.254847     0.247204     0.239561     0.231918     0.224275     0.216631     0.208988     0.201345
 NY phased data points follow
  -1.36388E+02 -1.40383E+02 -1.44196E+02 -1.37276E+02 -1.30316E+02 -1.33688E+02 -1.24739E+02 -1.20758E+02 -1.12823E+02 -1.15265E+02
  -1.08430E+02 -1.06938E+02 -1.14682E+02 -1.12428E+02 -1.06778E+02 -1.10126E+02 -1.11149E+02 -1.18295E+02 -1.08710E+02 -1.13949E+02
  -1.09294E+02 -1.07261E+02 -1.05556E+02 -1.00787E+02 -1.01129E+02 -9.95347E+01 -9.91878E+01 -1.01556E+02 -9.44776E+01 -9.28506E+01
  -9.52276E+01 -9.27168E+01 -1.00376E+02 -9.22119E+01 -9.45105E+01 -9.68638E+01 -8.97858E+01 -9.66724E+01 -8.36575E+01 -9.80433E+01
  -9.45540E+01 -8.77144E+01 -9.07956E+01 -9.29923E+01 -8.98434E+01 -9.07528E+01 -8.40270E+01 -8.75968E+01 -8.79905E+01 -8.53594E+01
  -8.63703E+01 -9.18554E+01 -9.42372E+01 -8.33301E+01 -8.25644E+01 -8.42167E+01 -8.26118E+01 -8.08569E+01 -8.22349E+01 -8.04879E+01
  -7.58006E+01 -7.78910E+01 -7.96675E+01 -8.26288E+01 -7.40843E+01 -8.64484E+01 -8.23556E+01 -7.34717E+01 -7.49102E+01 -7.89398E+01
  -7.56402E+01 -6.66301E+01 -7.30224E+01 -7.06868E+01 -7.27317E+01 -7.22233E+01 -6.55239E+01 -7.30580E+01 -6.84752E+01 -6.92233E+01
  -7.19150E+01 -6.90701E+01 -6.42637E+01 -7.20615E+01 -6.95367E+01 -6.40170E+01 -6.41107E+01 -6.60869E+01 -6.37135E+01 -6.57658E+01
  -6.83059E+01 -6.05044E+01 -6.49425E+01 -5.85734E+01 -5.83199E+01 -5.57255E+01 -6.11916E+01 -5.99649E+01 -5.05151E+01 -5.03349E+01
  -4.31309E+01 -4.36371E+01 -4.32471E+01 -4.71450E+01 -4.28615E+01 -5.75078E+01 -4.99386E+01 -5.64811E+01 -5.69339E+01 -5.60232E+01
  -5.49389E+01 -5.72761E+01 -5.08235E+01 -5.90205E+01 -5.14888E+01 -5.32394E+01 -4.29074E+01 -4.91671E+01 -5.01294E+01 -5.26392E+01
  -5.17545E+01 -4.70472E+01 -4.41331E+01 -3.88932E+01 -3.66795E+01 -3.45672E+01 -2.78540E+01 -2.13700E+01 -2.90525E+01 -2.98175E+01
  -2.83036E+01 -3.30364E+01 -5.35767E+01 -4.30496E+01 -3.89335E+01 -4.91664E+01 -5.15517E+01 -5.49056E+01 -4.83659E+01 -4.81446E+01
  -4.36667E+01 -4.56394E+01 -4.42761E+01 -5.51647E+01 -4.29297E+01 -4.43570E+01 -5.22260E+01 -4.75652E+01 -4.90640E+01 -4.68386E+01
  -4.14356E+01 -4.16274E+01 -4.47029E+01 -4.13897E+01 -4.66891E+01 -3.80159E+01 -4.59311E+01 -4.47217E+01 -4.12625E+01 -4.40578E+01
  -4.45804E+01 -4.57416E+01 -4.52228E+01 -3.88533E+01 -3.90653E+01 -3.92373E+01 -4.39796E+01 -4.57264E+01 -4.17542E+01 -3.91991E+01
  -4.71675E+01 -4.56257E+01 -4.34875E+01 -4.85558E+01 -4.46912E+01 -4.50744E+01 -3.75129E+01 -4.96795E+01 -4.30056E+01 -4.34829E+01
  -4.72916E+01 -4.11255E+01 -4.73301E+01 -4.11098E+01 -3.93539E+01 -4.53213E+01 -4.58488E+01 -3.76273E+01 -3.73951E+01 -3.28617E+01
  -3.63501E+01 -3.53809E+01 -3.95756E+01 -3.39247E+01 -3.23885E+01 -3.36146E+01 -3.58718E+01 -3.80689E+01 -3.28757E+01 -3.78501E+01
  -3.74290E+01 -3.62574E+01 -3.29785E+01 -3.98023E+01 -3.72945E+01 -2.73801E+01 -3.69471E+01 -3.59516E+01 -3.49950E+01 -4.38154E+01
  -2.88984E+01 -3.73556E+01 -3.31923E+01 -3.12670E+01 -3.13402E+01 -2.90506E+01 -2.19041E+01 -2.90911E+01 -3.21382E+01 -3.15095E+01
  -3.78470E+01 -3.49677E+01 -3.19437E+01 -3.68645E+01 -3.13661E+01 -3.06556E+01 -3.61379E+01 -2.89849E+01 -2.80723E+01 -2.83353E+01
  -2.76581E+01 -3.10639E+01 -2.35379E+01 -2.38305E+01 -3.18208E+01 -2.70733E+01 -2.45223E+01 -2.69629E+01 -2.15366E+01 -2.42749E+01
  -2.03875E+01 -2.94112E+01 -2.34774E+01 -2.88924E+01 -2.22652E+01 -2.54531E+01 -1.95716E+01 -2.03181E+01 -2.04851E+01 -1.96233E+01
  -1.51587E+01 -2.21897E+01 -1.30040E+01 -1.06044E+01  1.32261E+00 -1.10517E+00 -1.29112E+00  5.60412E+00  1.96048E+01  1.92549E+01
   2.18052E+01  1.16841E+01  1.03284E+01  4.64017E-01 -1.24176E+01 -1.43623E+01 -1.90792E+01 -1.53724E+01 -2.13191E+01 -2.29435E+01
  -2.73862E+01 -2.12351E+01 -1.78747E+01 -1.84330E+01 -1.92413E+01 -2.34244E+01 -2.24561E+01 -2.36656E+01 -2.27570E+01 -2.17403E+01
  -2.54377E+01 -2.55912E+01 -2.61603E+01 -2.70208E+01 -2.98162E+01 -2.12794E+01 -1.50925E+01 -1.68744E+01 -1.85441E+01 -1.74533E+01
  -1.19063E+01 -1.88837E+01 -2.28382E+01 -1.81474E+01 -1.78493E+01 -2.37653E+01 -2.29252E+01 -2.28164E+01 -1.76386E+01 -2.17506E+01
  -2.04060E+01 -1.31893E+01 -1.52214E+01 -2.15219E+01 -2.39535E+01 -2.09441E+01 -1.84090E+01 -1.49033E+01 -1.37669E+01 -2.15977E+01
  -1.87265E+01 -2.18081E+01 -1.56248E+01 -1.55651E+01 -1.78736E+01 -1.40029E+01 -1.81395E+01 -2.14068E+01 -2.23245E+01 -2.22096E+01
  -1.46017E+01 -2.17808E+01 -1.49610E+01 -1.10075E+01 -2.46049E+01 -1.65629E+01 -2.15997E+01 -2.33704E+01 -1.63547E+01 -1.59435E+01
  -1.21367E+01 -1.68483E+01 -1.96947E+01 -1.40979E+01 -1.17557E+01 -8.88659E+00 -1.02540E+01 -1.61631E+01 -1.45127E+01 -1.27135E+01
  -1.17430E+01 -8.55100E+00 -3.83298E+00 -1.92375E+00 -9.47530E+00 -8.96725E+00 -5.68178E+00 -5.20801E+00 -9.99416E+00 -1.70547E+01
  -6.86821E+00 -1.45238E+01 -1.06034E+01 -2.78581E+00 -9.52308E+00 -9.15378E+00 -4.62641E+00 -8.48264E+00 -9.27832E+00 -1.34786E+01
  -1.34061E+01 -1.48400E+01 -5.50604E+00 -1.69507E+01 -7.03935E+00 -1.70315E+01 -1.03162E+01 -9.78452E+00 -1.25401E+01 -1.37064E+01
  -1.09601E+01 -5.98590E+00 -9.86071E+00 -7.92063E+00 -7.38891E+00 -7.08777E+00 -1.30909E+01 -8.12493E+00 -9.36845E+00 -1.07289E+01
  -1.44650E+01 -1.18267E+01 -7.61981E+00 -5.95116E+00 -8.70672E+00 -1.26017E+01 -1.07004E+01 -1.46779E+01 -8.02256E+00 -5.09681E+00
  -8.69525E+00 -8.65297E+00 -1.27246E+01 -9.64575E+00 -6.55525E+00 -8.37713E+00 -6.14047E+00 -1.03713E+00 -1.38392E+01 -1.09970E+01
  -1.12067E+01 -1.49572E+01 -8.38398E+00 -1.27578E+01 -6.93605E+00 -1.12192E+01 -1.53557E+01 -9.89180E+00 -1.79163E+01 -1.67024E+01
  -9.97128E+00 -9.56291E+00 -1.30150E+01 -1.13679E+01 -1.52942E+01 -1.20634E+01 -1.67817E+01 -7.42331E+00 -9.95640E+00 -1.39782E+01
  -1.69554E+01 -9.93186E+00 -1.27198E+01 -5.80580E+00 -8.80731E+00 -1.45198E+01 -1.48524E+01 -1.12460E+01 -1.26512E+01 -1.11158E+01
  -8.26050E+00 -1.42557E+01 -1.33436E+01 -5.84297E+00 -1.77611E+01 -1.19355E+01 -1.47135E+01 -1.78961E+01 -1.38845E+01 -1.41990E+01
  -1.33658E+01 -1.71315E+01 -8.14723E+00 -1.11092E+01 -1.05218E+01 -1.33477E+01 -9.98425E+00 -1.00431E+01 -9.98445E+00 -1.17540E+01
  -6.99145E+00 -1.22814E+01 -7.48195E+00 -1.54377E+01 -6.63603E+00 -1.39418E+01 -9.09455E+00 -1.50007E+01 -1.43298E+01 -1.50123E+01
  -8.43155E+00 -1.93706E+01 -8.36565E+00 -1.13067E+01 -9.23724E+00 -8.10623E+00 -1.06622E+01 -1.45829E+01 -1.01738E+01 -1.16726E+01
  -5.65973E+00 -1.12488E+01 -1.18507E+01 -1.02344E+01 -1.64428E+01 -1.04384E+01 -6.95081E+00 -8.24528E+00 -7.95667E+00 -1.24370E+01
  -7.23682E+00 -1.02500E+01 -8.13864E+00 -1.61334E+01 -1.07120E+01 -7.07845E+00 -9.18130E+00 -6.48335E+00 -8.37495E+00 -8.64607E+00
  -1.01964E+01 -6.41294E+00 -3.58336E+00 -7.90338E+00 -5.70141E+00 -1.13279E+01 -4.18074E+00 -8.23142E+00
 NY points of the fit to the data follow
  -1.26768E+02 -1.29231E+02 -1.31071E+02 -1.31498E+02 -1.31025E+02 -1.29829E+02 -1.27197E+02 -1.22828E+02 -1.17534E+02 -1.12654E+02
  -1.09253E+02 -1.07817E+02 -1.08122E+02 -1.09136E+02 -1.09772E+02 -1.09824E+02 -1.09791E+02 -1.09830E+02 -1.09669E+02 -1.09035E+02
  -1.08144E+02 -1.07278E+02 -1.06429E+02 -1.05156E+02 -1.03554E+02 -1.01934E+02 -1.00240E+02 -9.83694E+01 -9.64786E+01 -9.49817E+01
  -9.40676E+01 -9.36945E+01 -9.38861E+01 -9.45279E+01 -9.52610E+01 -9.58270E+01 -9.62177E+01 -9.64870E+01 -9.64839E+01 -9.59725E+01
  -9.49357E+01 -9.35164E+01 -9.19517E+01 -9.04555E+01 -8.90991E+01 -8.79079E+01 -8.69960E+01 -8.65350E+01 -8.65593E+01 -8.68662E+01
  -8.72075E+01 -8.73822E+01 -8.71872E+01 -8.65975E+01 -8.57880E+01 -8.48981E+01 -8.39601E+01 -8.29856E+01 -8.20700E+01 -8.13074E+01
  -8.07093E+01 -8.02659E+01 -7.98990E+01 -7.95457E+01 -7.91207E+01 -7.85274E+01 -7.78141E+01 -7.70760E+01 -7.62918E+01 -7.54216E+01
  -7.45523E+01 -7.37619E+01 -7.30697E+01 -7.24878E+01 -7.20393E+01 -7.17098E+01 -7.14617E+01 -7.12402E+01 -7.09592E+01 -7.04738E+01
  -6.97817E+01 -6.90487E+01 -6.83840E+01 -6.77942E+01 -6.72820E+01 -6.68950E+01 -6.66756E+01 -6.65673E+01 -6.64685E+01 -6.62772E+01
  -6.59486E+01 -6.54619E+01 -6.48392E+01 -6.41866E+01 -6.34301E+01 -6.20074E+01 -5.91874E+01 -5.58046E+01 -5.26003E+01 -4.95629E+01
  -4.67003E+01 -4.45174E+01 -4.37124E+01 -4.44893E+01 -4.64969E+01 -4.91738E+01 -5.18694E+01 -5.39332E+01 -5.51298E+01 -5.58499E+01
  -5.64416E+01 -5.67438E+01 -5.65842E+01 -5.62414E+01 -5.58626E+01 -5.54607E+01 -5.50429E+01 -5.45826E+01 -5.40212E+01 -5.32152E+01
  -5.14770E+01 -4.77231E+01 -4.30854E+01 -3.85912E+01 -3.42338E+01 -3.00679E+01 -2.68911E+01 -2.57289E+01 -2.69968E+01 -3.02398E+01
  -3.45921E+01 -3.90818E+01 -4.27673E+01 -4.52629E+01 -4.70436E+01 -4.84969E+01 -4.93380E+01 -4.92685E+01 -4.86984E+01 -4.79625E+01
  -4.72693E+01 -4.67434E+01 -4.63883E+01 -4.61728E+01 -4.60649E+01 -4.60050E+01 -4.59536E+01 -4.59054E+01 -4.58618E+01 -4.58040E+01
  -4.57090E+01 -4.55664E+01 -4.53893E+01 -4.51994E+01 -4.50624E+01 -4.49799E+01 -4.49023E+01 -4.48082E+01 -4.46717E+01 -4.45302E+01
  -4.43939E+01 -4.42014E+01 -4.39378E+01 -4.36668E+01 -4.34659E+01 -4.33740E+01 -4.33847E+01 -4.34464E+01 -4.35062E+01 -4.35692E+01
  -4.36397E+01 -4.36409E+01 -4.35862E+01 -4.35118E+01 -4.34374E+01 -4.33197E+01 -4.30850E+01 -4.27523E+01 -4.24333E+01 -4.21996E+01
  -4.20644E+01 -4.19320E+01 -4.16558E+01 -4.11852E+01 -4.05458E+01 -3.97827E+01 -3.89266E+01 -3.80022E+01 -3.70692E+01 -3.62504E+01
  -3.57001E+01 -3.55521E+01 -3.56951E+01 -3.59252E+01 -3.61177E+01 -3.62161E+01 -3.61501E+01 -3.58063E+01 -3.52176E+01 -3.45009E+01
  -3.37551E+01 -3.31073E+01 -3.26552E+01 -3.25536E+01 -3.27974E+01 -3.32628E+01 -3.39165E+01 -3.46155E+01 -3.50583E+01 -3.49683E+01
  -3.42627E+01 -3.32541E+01 -3.21090E+01 -3.09198E+01 -2.99295E+01 -2.95333E+01 -2.99964E+01 -3.11046E+01 -3.23905E+01 -3.35753E+01
  -3.44074E+01 -3.45944E+01 -3.40454E+01 -3.29403E+01 -3.16030E+01 -3.02816E+01 -2.91204E+01 -2.83005E+01 -2.78559E+01 -2.76172E+01
  -2.72989E+01 -2.68016E+01 -2.62637E+01 -2.57466E+01 -2.52697E+01 -2.49219E+01 -2.48646E+01 -2.51058E+01 -2.54385E+01 -2.56638E+01
  -2.57475E+01 -2.56201E+01 -2.51484E+01 -2.43619E+01 -2.34698E+01 -2.26604E+01 -2.19658E+01 -2.13753E+01 -2.08432E+01 -2.01537E+01
  -1.92568E+01 -1.81406E+01 -1.65150E+01 -1.28126E+01 -6.35453E+00  4.14493E-01  6.37412E+00  1.18252E+01  1.65186E+01  1.89873E+01
   1.79895E+01  1.36145E+01  6.86092E+00 -9.49987E-01 -8.21802E+00 -1.35985E+01 -1.70706E+01 -1.97049E+01 -2.19557E+01 -2.32469E+01
  -2.35135E+01 -2.34573E+01 -2.33050E+01 -2.31044E+01 -2.29178E+01 -2.27956E+01 -2.27347E+01 -2.27223E+01 -2.27404E+01 -2.27561E+01
  -2.27434E+01 -2.26974E+01 -2.26176E+01 -2.25008E+01 -2.23520E+01 -2.21811E+01 -2.19993E+01 -2.18142E+01 -2.16253E+01 -2.14316E+01
  -2.12346E+01 -2.10345E+01 -2.08334E+01 -2.06337E+01 -2.04354E+01 -2.02385E+01 -2.00447E+01 -1.98547E+01 -1.96697E+01 -1.94921E+01
  -1.93248E+01 -1.91686E+01 -1.90251E+01 -1.88962E+01 -1.87823E+01 -1.86824E+01 -1.85942E+01 -1.85158E+01 -1.84444E+01 -1.83767E+01
  -1.83095E+01 -1.82399E+01 -1.81647E+01 -1.80805E+01 -1.79840E+01 -1.78720E+01 -1.77411E+01 -1.75869E+01 -1.74021E+01 -1.71712E+01
  -1.68763E+01 -1.65827E+01 -1.63481E+01 -1.61594E+01 -1.60104E+01 -1.59285E+01 -1.59380E+01 -1.60155E+01 -1.60437E+01 -1.59233E+01
  -1.56562E+01 -1.52511E+01 -1.47143E+01 -1.40906E+01 -1.34508E+01 -1.28431E+01 -1.22919E+01 -1.18192E+01 -1.14076E+01 -1.09745E+01
  -1.03916E+01 -9.78275E+00 -9.40329E+00 -9.25034E+00 -9.26491E+00 -9.51133E+00 -1.00997E+01 -1.09750E+01 -1.17466E+01 -1.21440E+01
  -1.21690E+01 -1.18095E+01 -1.10588E+01 -1.00764E+01 -9.13417E+00 -8.40149E+00 -7.93013E+00 -7.78357E+00 -7.96320E+00 -8.32926E+00
  -8.71634E+00 -9.06547E+00 -9.42887E+00 -9.82049E+00 -1.01684E+01 -1.04557E+01 -1.07122E+01 -1.09489E+01 -1.11680E+01 -1.13693E+01
  -1.15514E+01 -1.17124E+01 -1.18506E+01 -1.19641E+01 -1.20513E+01 -1.21109E+01 -1.21416E+01 -1.21426E+01 -1.21134E+01 -1.20536E+01
  -1.19635E+01 -1.18435E+01 -1.16948E+01 -1.15188E+01 -1.13180E+01 -1.10952E+01 -1.08539E+01 -1.05987E+01 -1.03344E+01 -1.00669E+01
  -9.80229E+00 -9.54706E+00 -9.30779E+00 -9.09102E+00 -8.90284E+00 -8.74875E+00 -8.63324E+00 -8.55977E+00 -8.53040E+00 -8.54593E+00
  -8.60565E+00 -8.70754E+00 -8.84821E+00 -9.02328E+00 -9.22743E+00 -9.45491E+00 -9.69952E+00 -9.95511E+00 -1.02157E+01 -1.04756E+01
  -1.07301E+01 -1.09749E+01 -1.12064E+01 -1.14221E+01 -1.16201E+01 -1.17992E+01 -1.19588E+01 -1.20990E+01 -1.22203E+01 -1.23234E+01
  -1.24094E+01 -1.24795E+01 -1.25349E+01 -1.25771E+01 -1.26072E+01 -1.26267E+01 -1.26365E+01 -1.26378E+01 -1.26317E+01 -1.26190E+01
  -1.26004E+01 -1.25768E+01 -1.25486E+01 -1.25164E+01 -1.24807E+01 -1.24420E+01 -1.24005E+01 -1.23565E+01 -1.23103E+01 -1.22621E+01
  -1.22121E+01 -1.21605E+01 -1.21074E+01 -1.20529E+01 -1.19972E+01 -1.19403E+01 -1.18822E+01 -1.18232E+01 -1.17632E+01 -1.17022E+01
  -1.16404E+01 -1.15778E+01 -1.15143E+01 -1.14501E+01 -1.13850E+01 -1.13194E+01 -1.12530E+01 -1.11860E+01 -1.11184E+01 -1.10503E+01
  -1.09815E+01 -1.09122E+01 -1.08424E+01 -1.07722E+01 -1.07014E+01 -1.06303E+01 -1.05586E+01 -1.04866E+01 -1.04141E+01 -1.03413E+01
  -1.02680E+01 -1.01945E+01 -1.01205E+01 -1.00462E+01 -9.97161E+00 -9.89671E+00 -9.82146E+00 -9.74594E+00 -9.67010E+00 -9.59405E+00
  -9.51770E+00 -9.44112E+00 -9.36423E+00 -9.28714E+00 -9.20978E+00 -9.13225E+00 -9.05445E+00 -8.97645E+00 -8.89818E+00 -8.81974E+00
  -8.74106E+00 -8.66222E+00 -8.58311E+00 -8.50380E+00 -8.42422E+00 -8.34445E+00 -8.26441E+00 -8.18416E+00
 NY background values follow
    -1.244E+02   -1.237E+02   -1.230E+02   -1.223E+02   -1.216E+02   -1.209E+02   -1.202E+02   -1.194E+02   -1.187E+02   -1.180E+02
    -1.173E+02   -1.166E+02   -1.159E+02   -1.152E+02   -1.145E+02   -1.138E+02   -1.131E+02   -1.124E+02   -1.117E+02   -1.110E+02
    -1.103E+02   -1.096E+02   -1.089E+02   -1.082E+02   -1.075E+02   -1.068E+02   -1.061E+02   -1.054E+02   -1.047E+02   -1.040E+02
    -1.033E+02   -1.026E+02   -1.020E+02   -1.013E+02   -1.006E+02   -9.992E+01   -9.925E+01   -9.858E+01   -9.791E+01   -9.724E+01
    -9.658E+01   -9.592E+01   -9.526E+01   -9.460E+01   -9.395E+01   -9.330E+01   -9.265E+01   -9.200E+01   -9.136E+01   -9.072E+01
    -9.009E+01   -8.945E+01   -8.882E+01   -8.820E+01   -8.757E+01   -8.695E+01   -8.634E+01   -8.572E+01   -8.511E+01   -8.451E+01
    -8.390E+01   -8.330E+01   -8.271E+01   -8.212E+01   -8.153E+01   -8.094E+01   -8.036E+01   -7.978E+01   -7.921E+01   -7.864E+01
    -7.807E+01   -7.751E+01   -7.695E+01   -7.639E+01   -7.584E+01   -7.529E+01   -7.475E+01   -7.421E+01   -7.368E+01   -7.315E+01
    -7.262E+01   -7.210E+01   -7.158E+01   -7.107E+01   -7.056E+01   -7.005E+01   -6.955E+01   -6.906E+01   -6.856E+01   -6.808E+01
    -6.760E+01   -6.712E+01   -6.664E+01   -6.618E+01   -6.571E+01   -6.525E+01   -6.480E+01   -6.435E+01   -6.390E+01   -6.346E+01
    -6.302E+01   -6.259E+01   -6.216E+01   -6.174E+01   -6.132E+01   -6.090E+01   -6.049E+01   -6.009E+01   -5.969E+01   -5.929E+01
    -5.889E+01   -5.851E+01   -5.812E+01   -5.774E+01   -5.736E+01   -5.699E+01   -5.662E+01   -5.626E+01   -5.590E+01   -5.554E+01
    -5.519E+01   -5.484E+01   -5.450E+01   -5.416E+01   -5.382E+01   -5.349E+01   -5.316E+01   -5.284E+01   -5.252E+01   -5.220E+01
    -5.189E+01   -5.158E+01   -5.128E+01   -5.098E+01   -5.068E+01   -5.038E+01   -5.010E+01   -4.981E+01   -4.953E+01   -4.925E+01
    -4.897E+01   -4.870E+01   -4.843E+01   -4.817E+01   -4.791E+01   -4.765E+01   -4.739E+01   -4.714E+01   -4.689E+01   -4.664E+01
    -4.640E+01   -4.616E+01   -4.592E+01   -4.568E+01   -4.545E+01   -4.522E+01   -4.499E+01   -4.477E+01   -4.455E+01   -4.432E+01
    -4.411E+01   -4.389E+01   -4.368E+01   -4.346E+01   -4.325E+01   -4.305E+01   -4.284E+01   -4.264E+01   -4.243E+01   -4.223E+01
    -4.203E+01   -4.184E+01   -4.164E+01   -4.144E+01   -4.125E+01   -4.106E+01   -4.087E+01   -4.068E+01   -4.049E+01   -4.030E+01
    -4.012E+01   -3.993E+01   -3.974E+01   -3.956E+01   -3.938E+01   -3.920E+01   -3.901E+01   -3.883E+01   -3.865E+01   -3.847E+01
    -3.830E+01   -3.812E+01   -3.794E+01   -3.777E+01   -3.759E+01   -3.742E+01   -3.724E+01   -3.707E+01   -3.690E+01   -3.672E+01
    -3.655E+01   -3.638E+01   -3.621E+01   -3.604E+01   -3.587E+01   -3.570E+01   -3.553E+01   -3.536E+01   -3.520E+01   -3.503E+01
    -3.486E+01   -3.470E+01   -3.453E+01   -3.437E+01   -3.420E+01   -3.404E+01   -3.387E+01   -3.371E+01   -3.354E+01   -3.338E+01
    -3.322E+01   -3.305E+01   -3.289E+01   -3.273E+01   -3.256E+01   -3.240E+01   -3.224E+01   -3.208E+01   -3.192E+01   -3.175E+01
    -3.159E+01   -3.143E+01   -3.127E+01   -3.111E+01   -3.095E+01   -3.079E+01   -3.063E+01   -3.047E+01   -3.031E+01   -3.015E+01
    -2.999E+01   -2.984E+01   -2.968E+01   -2.952E+01   -2.937E+01   -2.921E+01   -2.906E+01   -2.890E+01   -2.875E+01   -2.859E+01
    -2.844E+01   -2.829E+01   -2.814E+01   -2.799E+01   -2.784E+01   -2.769E+01   -2.754E+01   -2.739E+01   -2.724E+01   -2.710E+01
    -2.695E+01   -2.681E+01   -2.667E+01   -2.652E+01   -2.638E+01   -2.624E+01   -2.610E+01   -2.596E+01   -2.583E+01   -2.569E+01
    -2.555E+01   -2.542E+01   -2.529E+01   -2.516E+01   -2.502E+01   -2.489E+01   -2.477E+01   -2.464E+01   -2.451E+01   -2.439E+01
    -2.426E+01   -2.414E+01   -2.401E+01   -2.389E+01   -2.377E+01   -2.365E+01   -2.353E+01   -2.341E+01   -2.330E+01   -2.318E+01
    -2.307E+01   -2.295E+01   -2.284E+01   -2.272E+01   -2.261E+01   -2.250E+01   -2.239E+01   -2.228E+01   -2.217E+01   -2.206E+01
    -2.195E+01   -2.185E+01   -2.174E+01   -2.163E+01   -2.153E+01   -2.142E+01   -2.132E+01   -2.122E+01   -2.111E+01   -2.101E+01
    -2.091E+01   -2.081E+01   -2.071E+01   -2.061E+01   -2.051E+01   -2.041E+01   -2.031E+01   -2.021E+01   -2.011E+01   -2.002E+01
    -1.992E+01   -1.982E+01   -1.973E+01   -1.963E+01   -1.954E+01   -1.944E+01   -1.935E+01   -1.926E+01   -1.916E+01   -1.907E+01
    -1.898E+01   -1.889E+01   -1.880E+01   -1.871E+01   -1.862E+01   -1.853E+01   -1.844E+01   -1.836E+01   -1.827E+01   -1.818E+01
    -1.810E+01   -1.801E+01   -1.793E+01   -1.784E+01   -1.776E+01   -1.768E+01   -1.760E+01   -1.752E+01   -1.744E+01   -1.736E+01
    -1.728E+01   -1.720E+01   -1.713E+01   -1.705E+01   -1.698E+01   -1.690E+01   -1.683E+01   -1.675E+01   -1.668E+01   -1.661E+01
    -1.654E+01   -1.647E+01   -1.640E+01   -1.634E+01   -1.627E+01   -1.620E+01   -1.614E+01   -1.607E+01   -1.601E+01   -1.595E+01
    -1.588E+01   -1.582E+01   -1.576E+01   -1.570E+01   -1.564E+01   -1.558E+01   -1.552E+01   -1.546E+01   -1.541E+01   -1.535E+01
    -1.529E+01   -1.524E+01   -1.518E+01   -1.512E+01   -1.507E+01   -1.501E+01   -1.496E+01   -1.491E+01   -1.485E+01   -1.480E+01
    -1.475E+01   -1.469E+01   -1.464E+01   -1.459E+01   -1.453E+01   -1.448E+01   -1.443E+01   -1.438E+01   -1.432E+01   -1.427E+01
    -1.422E+01   -1.417E+01   -1.411E+01   -1.406E+01   -1.401E+01   -1.396E+01   -1.390E+01   -1.385E+01   -1.380E+01   -1.374E+01
    -1.369E+01   -1.364E+01   -1.358E+01   -1.353E+01   -1.347E+01   -1.342E+01   -1.336E+01   -1.331E+01   -1.325E+01   -1.320E+01
    -1.314E+01   -1.309E+01   -1.303E+01   -1.297E+01   -1.292E+01   -1.286E+01   -1.280E+01   -1.274E+01   -1.268E+01   -1.263E+01
    -1.257E+01   -1.251E+01   -1.245E+01   -1.239E+01   -1.233E+01   -1.227E+01   -1.221E+01   -1.215E+01   -1.209E+01   -1.202E+01
    -1.196E+01   -1.190E+01   -1.184E+01   -1.177E+01   -1.171E+01   -1.165E+01   -1.158E+01   -1.152E+01   -1.145E+01   -1.139E+01
    -1.132E+01   -1.126E+01   -1.119E+01   -1.112E+01   -1.105E+01   -1.099E+01   -1.092E+01   -1.085E+01   -1.078E+01   -1.071E+01
    -1.064E+01   -1.057E+01   -1.050E+01   -1.043E+01   -1.036E+01   -1.029E+01   -1.022E+01   -1.014E+01   -1.007E+01   -9.998E+00
    -9.925E+00   -9.852E+00   -9.779E+00   -9.705E+00   -9.631E+00   -9.557E+00   -9.483E+00   -9.408E+00   -9.333E+00   -9.258E+00
    -9.183E+00   -9.108E+00   -9.032E+00   -8.956E+00   -8.881E+00   -8.805E+00   -8.728E+00   -8.652E+00   -8.576E+00   -8.499E+00
    -8.423E+00   -8.346E+00   -8.270E+00   -8.193E+00   -8.116E+00   -8.039E+00   -7.962E+00   -7.885E+00
 Ala      Conc. = 7.75E+01
