 LCModel (Version 6.3-1L) Copyright: S.W. Provencher.          Ref.: Magn. Reson. Med. 30:672-679 (1993).                
 Slice#3 Row#6 Col#7  PD_05_press_2_raw_act
 36 lines in following concentration table = NCONC+1
    Conc.  %SD /Cr+PCr  Metabolite                                         
   74.646 610% 2.1E-02 Ala                                                 
    0.000 999%   0.000 Asp                                                 
 1.46E+03  60%   0.411 Cr                                                  
 2.10E+03  42%   0.589 PCr                                                 
  291.078 143% 8.2E-02 GABA                                                
  354.880 111%   0.100 Glc                                                 
 3.11E+03  35%   0.874 Gln                                                 
 1.37E+03  89%   0.385 Glu                                                 
 1.33E+03   6%   0.374 GPC                                                 
    0.000 999%   0.000 PCh                                                 
 1.22E+03  23%   0.343 GSH                                                 
 5.60E+03  18%   1.575 Ins                                                 
  474.006 109%   0.133 Lac                                                 
 4.92E+03   4%   1.383 NAA                                                 
    0.000 999%   0.000 NAAG                                                
  476.225  18%   0.134 Scyllo                                              
 1.21E+03  49%   0.340 Tau                                                 
 1.70E+03  23%   0.476 -CrCH2                                              
 1.33E+03   6%   0.374 GPC+PCh                                             
 4.92E+03   4%   1.383 NAA+NAAG                                            
 3.56E+03   5%   1.000 Cr+PCr                                              
 4.48E+03  44%   1.259 Glu+Gln                                             
    0.000 999%   0.000 Lip13a                                              
    0.000 999%   0.000 Lip13b                                              
    0.000 999%   0.000 Lip09                                               
 1.69E+03  23%   0.474 MM09                                                
    1.890 999% 5.3E-04 Lip20                                               
 3.01E+03  26%   0.846 MM20                                                
  534.290  49%   0.150 MM12                                                
 1.62E+03  37%   0.456 MM14                                                
    0.000 999%   0.000 MM17                                                
    0.000 999%   0.000 Lip13a+Lip13b                                       
 2.16E+03  33%   0.606 MM14+Lip13a+Lip13b+MM12                             
 1.69E+03  23%   0.474 MM09+Lip09                                          
 3.01E+03  26%   0.846 MM20+Lip20                                          
   6 lines in following misc. output table
  FWHM = 0.076 ppm    S/N =   7                                            
  Data shift = 0.023 ppm                                                   
  Ph: -66 deg     -18.5 deg/ppm                                            
  alphaB,S = 1.0E+00,   1.0E+02                                            
   14 spline knots.   Ns = 9(1)                                            
  (15) 5 infls.   (15) 1 extrs.                                            
  498 points on ppm-axis = NY
      4.000000     3.992357     3.984714     3.977070     3.969427     3.961784     3.954141     3.946497     3.938854     3.931211
      3.923568     3.915925     3.908281     3.900638     3.892995     3.885352     3.877708     3.870065     3.862422     3.854779
      3.847136     3.839492     3.831849     3.824206     3.816563     3.808919     3.801276     3.793633     3.785990     3.778347
      3.770703     3.763060     3.755417     3.747774     3.740130     3.732487     3.724844     3.717201     3.709558     3.701914
      3.694271     3.686628     3.678985     3.671341     3.663698     3.656055     3.648412     3.640769     3.633125     3.625482
      3.617839     3.610196     3.602552     3.594909     3.587266     3.579623     3.571980     3.564336     3.556693     3.549050
      3.541407     3.533763     3.526120     3.518477     3.510834     3.503191     3.495547     3.487904     3.480261     3.472618
      3.464974     3.457331     3.449688     3.442045     3.434402     3.426758     3.419115     3.411472     3.403829     3.396185
      3.388542     3.380899     3.373256     3.365613     3.357969     3.350326     3.342683     3.335040     3.327396     3.319753
      3.312110     3.304467     3.296824     3.289180     3.281537     3.273894     3.266251     3.258607     3.250964     3.243321
      3.235678     3.228034     3.220391     3.212748     3.205105     3.197462     3.189818     3.182175     3.174532     3.166889
      3.159245     3.151602     3.143959     3.136316     3.128673     3.121029     3.113386     3.105743     3.098100     3.090456
      3.082813     3.075170     3.067527     3.059884     3.052240     3.044597     3.036954     3.029311     3.021667     3.014024
      3.006381     2.998738     2.991095     2.983451     2.975808     2.968165     2.960522     2.952878     2.945235     2.937592
      2.929949     2.922306     2.914662     2.907019     2.899376     2.891733     2.884089     2.876446     2.868803     2.861160
      2.853517     2.845873     2.838230     2.830587     2.822944     2.815300     2.807657     2.800014     2.792371     2.784728
      2.777084     2.769441     2.761798     2.754155     2.746511     2.738868     2.731225     2.723582     2.715939     2.708295
      2.700652     2.693009     2.685366     2.677722     2.670079     2.662436     2.654793     2.647150     2.639506     2.631863
      2.624220     2.616577     2.608933     2.601290     2.593647     2.586004     2.578361     2.570717     2.563074     2.555431
      2.547788     2.540144     2.532501     2.524858     2.517215     2.509572     2.501928     2.494285     2.486642     2.478999
      2.471355     2.463712     2.456069     2.448426     2.440783     2.433139     2.425496     2.417853     2.410210     2.402566
      2.394923     2.387280     2.379637     2.371994     2.364350     2.356707     2.349064     2.341421     2.333777     2.326134
      2.318491     2.310848     2.303205     2.295561     2.287918     2.280275     2.272632     2.264988     2.257345     2.249702
      2.242059     2.234416     2.226772     2.219129     2.211486     2.203843     2.196199     2.188556     2.180913     2.173270
      2.165627     2.157983     2.150340     2.142697     2.135054     2.127410     2.119767     2.112124     2.104481     2.096838
      2.089194     2.081551     2.073908     2.066265     2.058621     2.050978     2.043335     2.035692     2.028049     2.020405
      2.012762     2.005119     1.997476     1.989833     1.982190     1.974546     1.966903     1.959260     1.951617     1.943974
      1.936331     1.928688     1.921045     1.913402     1.905759     1.898115     1.890472     1.882829     1.875186     1.867543
      1.859900     1.852257     1.844614     1.836971     1.829327     1.821684     1.814041     1.806398     1.798755     1.791112
      1.783469     1.775826     1.768183     1.760540     1.752896     1.745253     1.737610     1.729967     1.722324     1.714681
      1.707038     1.699395     1.691752     1.684108     1.676465     1.668822     1.661179     1.653536     1.645893     1.638250
      1.630607     1.622964     1.615321     1.607677     1.600034     1.592391     1.584748     1.577105     1.569462     1.561819
      1.554176     1.546533     1.538890     1.531246     1.523603     1.515960     1.508317     1.500674     1.493031     1.485388
      1.477745     1.470102     1.462458     1.454815     1.447172     1.439529     1.431886     1.424243     1.416600     1.408957
      1.401314     1.393671     1.386027     1.378384     1.370741     1.363098     1.355455     1.347812     1.340169     1.332526
      1.324883     1.317240     1.309596     1.301953     1.294310     1.286667     1.279024     1.271381     1.263738     1.256095
      1.248452     1.240808     1.233165     1.225522     1.217879     1.210236     1.202593     1.194950     1.187307     1.179664
      1.172021     1.164377     1.156734     1.149091     1.141448     1.133805     1.126162     1.118519     1.110876     1.103233
      1.095590     1.087946     1.080303     1.072660     1.065017     1.057374     1.049731     1.042088     1.034445     1.026802
      1.019158     1.011515     1.003872     0.996229     0.988586     0.980943     0.973300     0.965657     0.958014     0.950371
      0.942727     0.935084     0.927441     0.919798     0.912155     0.904512     0.896869     0.889226     0.881583     0.873940
      0.866296     0.858653     0.851010     0.843367     0.835724     0.828081     0.820438     0.812795     0.805152     0.797508
      0.789865     0.782222     0.774579     0.766936     0.759293     0.751650     0.744007     0.736364     0.728721     0.721077
      0.713434     0.705791     0.698148     0.690505     0.682862     0.675219     0.667576     0.659933     0.652290     0.644646
      0.637003     0.629360     0.621717     0.614074     0.606431     0.598788     0.591145     0.583502     0.575858     0.568215
      0.560572     0.552929     0.545286     0.537643     0.530000     0.522357     0.514714     0.507071     0.499427     0.491784
      0.484141     0.476498     0.468855     0.461212     0.453569     0.445925     0.438282     0.430639     0.422996     0.415353
      0.407710     0.400067     0.392424     0.384780     0.377137     0.369494     0.361851     0.354208     0.346565     0.338922
      0.331278     0.323635     0.315992     0.308349     0.300706     0.293063     0.285420     0.277777     0.270133     0.262490
      0.254847     0.247204     0.239561     0.231918     0.224275     0.216631     0.208988     0.201345
 NY phased data points follow
  -3.22958E+02 -3.05447E+02 -2.91645E+02 -2.82474E+02 -2.79948E+02 -2.78762E+02 -2.54294E+02 -2.42254E+02 -2.40375E+02 -2.40128E+02
  -2.26250E+02 -2.28259E+02 -2.10442E+02 -2.47268E+02 -2.44716E+02 -2.56664E+02 -2.61289E+02 -2.57414E+02 -2.55186E+02 -2.51641E+02
  -2.50467E+02 -2.44236E+02 -2.50315E+02 -2.46413E+02 -2.30207E+02 -2.36553E+02 -2.25498E+02 -2.14104E+02 -2.11624E+02 -2.12238E+02
  -2.11270E+02 -2.20499E+02 -2.07061E+02 -2.08824E+02 -2.10311E+02 -2.02412E+02 -1.93152E+02 -1.85243E+02 -1.89701E+02 -1.94410E+02
  -1.90375E+02 -2.01667E+02 -1.97705E+02 -1.88642E+02 -1.80363E+02 -1.79677E+02 -1.78853E+02 -1.61059E+02 -1.66043E+02 -1.70113E+02
  -1.73020E+02 -1.72753E+02 -1.66787E+02 -1.78524E+02 -1.75862E+02 -1.78039E+02 -1.60268E+02 -1.74420E+02 -1.77300E+02 -1.72053E+02
  -1.63525E+02 -1.84878E+02 -1.77660E+02 -1.70302E+02 -1.69067E+02 -1.66243E+02 -1.50037E+02 -1.63227E+02 -1.60143E+02 -1.57188E+02
  -1.59348E+02 -1.60921E+02 -1.51129E+02 -1.56027E+02 -1.56365E+02 -1.51913E+02 -1.44422E+02 -1.56108E+02 -1.43581E+02 -1.35361E+02
  -1.39581E+02 -1.48510E+02 -1.28737E+02 -1.29545E+02 -1.19797E+02 -1.29774E+02 -1.32139E+02 -1.39138E+02 -1.19148E+02 -1.27655E+02
  -1.17401E+02 -1.22130E+02 -1.20707E+02 -1.29037E+02 -1.08511E+02 -1.13922E+02 -1.03385E+02 -9.34719E+01 -8.67540E+01 -5.40837E+01
  -6.84467E+01 -4.11502E+01 -3.53346E+01 -3.14418E+01 -3.31673E+01 -4.54393E+01 -5.77308E+01 -8.53963E+01 -7.87150E+01 -9.09361E+01
  -8.81410E+01 -8.57099E+01 -1.00603E+02 -9.26357E+01 -9.31501E+01 -9.50948E+01 -1.04385E+02 -1.01548E+02 -9.43083E+01 -8.89289E+01
  -6.76549E+01 -6.72682E+01 -6.62916E+01 -4.50236E+01 -3.57911E+01 -2.03617E+01 -1.63234E+01 -2.02748E+01 -4.81832E+00 -2.36653E+01
  -3.38866E+01 -5.39620E+01 -6.12273E+01 -7.56110E+01 -6.92234E+01 -8.08218E+01 -9.08925E+01 -9.75416E+01 -8.35394E+01 -8.81092E+01
  -9.17749E+01 -7.93028E+01 -8.83340E+01 -9.03547E+01 -9.13611E+01 -9.22967E+01 -9.71583E+01 -7.49814E+01 -8.49636E+01 -8.57781E+01
  -7.98337E+01 -8.90080E+01 -8.64385E+01 -6.63458E+01 -9.32681E+01 -8.52997E+01 -7.26561E+01 -7.98675E+01 -6.88221E+01 -8.46941E+01
  -8.99299E+01 -7.34824E+01 -8.34501E+01 -7.84558E+01 -7.59983E+01 -8.70857E+01 -6.15683E+01 -7.54147E+01 -6.87624E+01 -7.05811E+01
  -8.38830E+01 -8.94237E+01 -7.82338E+01 -9.05343E+01 -7.99533E+01 -9.25341E+01 -9.01456E+01 -6.93060E+01 -7.15595E+01 -7.78900E+01
  -7.20700E+01 -8.05548E+01 -8.78362E+01 -7.73130E+01 -7.87110E+01 -6.80772E+01 -6.05451E+01 -6.64461E+01 -6.52748E+01 -4.58415E+01
  -5.63928E+01 -4.77583E+01 -5.89172E+01 -3.94203E+01 -4.68572E+01 -4.62610E+01 -4.62310E+01 -4.54847E+01 -5.97860E+01 -5.19479E+01
  -5.12031E+01 -5.17299E+01 -4.22510E+01 -4.37499E+01 -3.57107E+01 -5.51065E+01 -4.98403E+01 -5.33934E+01 -5.19249E+01 -5.28892E+01
  -5.54859E+01 -5.09875E+01 -4.13822E+01 -3.15511E+01 -4.18095E+01 -3.19055E+01 -2.93882E+01 -3.27726E+01 -2.15740E+01 -2.26862E+01
  -4.29541E+01 -3.89092E+01 -1.19350E+01 -2.94567E+01 -2.73091E+01 -2.62831E+01 -2.83246E+01 -1.51435E+01 -2.07771E+01 -2.21415E+01
  -3.40672E+01 -1.01629E+01 -7.35601E+00 -2.19761E+01 -1.92631E+01 -2.11796E+01 -8.07758E+00 -1.79196E+01 -1.93994E+01 -1.63550E+01
  -1.58585E+01 -1.37325E+01 -1.61974E+01 -2.37352E+01 -2.69433E+01 -2.39745E+01 -9.89208E+00 -1.27143E+01 -8.34583E+00 -1.44248E+01
  -9.88399E+00  2.12093E+01  1.86251E+01  3.00007E+01  2.05568E+01  4.03210E+01  6.90198E+01  8.48711E+01  1.11765E+02  1.14703E+02
   1.05208E+02  9.96314E+01  8.54026E+01  8.43098E+01  7.84526E+01  4.64459E+01  3.97979E+01  2.17176E+01  7.69528E+00  8.02117E-01
  -2.82674E+00 -1.86928E+00 -1.29003E+01 -2.04985E+01 -1.01934E+00 -1.20059E+01 -9.93450E+00  4.02148E+00 -1.61241E+01 -5.66931E-01
  -5.00226E+00  1.33793E+00 -1.24087E+01 -1.81985E+01  3.45769E-01 -1.64349E+01 -1.25982E+01 -1.74238E+01  1.27365E+00  1.26356E+00
  -1.19972E+00 -9.62307E+00 -1.22520E+01 -8.57598E+00 -5.99371E+00 -1.53138E+01  7.06763E+00 -7.99730E+00 -7.47581E+00 -3.27384E+00
  -6.29058E+00 -3.30637E+00 -7.72843E+00 -4.91902E+00  1.13851E+00 -1.23657E+01 -1.37542E+01  4.03694E+00 -6.54902E+00  2.87101E+00
  -9.64565E+00 -6.75520E+00  2.03377E+01 -6.26165E-01 -5.97927E+00  1.41296E+01  1.03212E+01  5.74632E-01  1.80717E+01  1.38074E+01
   1.83321E+01  4.90604E+00  1.30026E+01  2.37928E+01  8.41215E+00  5.11609E+00  6.22999E+00  2.45570E+01  1.53044E+01  1.34521E+01
   4.89378E+00  1.83424E+01  2.37777E+01  1.90314E+01  1.46459E+01  7.55984E+00  1.24827E+01  4.91204E+00  9.32845E+00  1.87706E+01
   7.48746E+00  1.83183E+01  1.91282E+01  2.63883E+01  1.91902E+01  1.02051E+01  1.77267E+01  1.59406E+01  8.87379E+00  5.15989E+00
   1.08217E+01  1.29063E+01  1.02672E+01  1.30722E+01  1.61931E+01  2.50647E+00  1.56971E+01  1.10559E+01  1.31279E+01  1.56491E+01
   1.31521E+01  1.63685E+01  1.98459E+01  2.98836E+01  9.98805E+00  1.96562E+01  1.80512E+01  3.12913E+01  2.19579E+01  3.21178E+01
   1.37989E+01  2.06869E+01  3.56995E+01  1.23056E+01  1.73576E+01  1.67197E+01  9.89965E+00  1.36473E+01  2.82845E+01  9.72653E+00
   2.32245E+01  2.79521E+01  2.31987E+01  8.55489E+00  1.76328E+01  3.99610E+01  2.35888E+01  3.59759E+01  2.58029E+01  2.41865E+01
   1.72262E+01  8.75066E-01  1.46653E+00  1.95020E+01  2.28087E+01  3.36477E+01  1.92006E+01  2.96595E+01  2.04312E+01  2.93954E+01
   2.38584E+01  1.21551E+01  2.78971E+01  3.42194E+01  3.71432E+01  3.89460E+01  3.56873E+01  3.17232E+01  3.67588E+01  3.37581E+01
   3.47321E+01  2.54564E+01  3.30634E+01  2.65116E+01  3.71633E+01  3.05003E+01  3.14862E+01  2.16249E+01  4.17341E+01  3.63564E+01
   5.29416E+01  4.74836E+01  2.70444E+01  2.86097E+01  1.65851E+01  2.00095E+01  3.11447E+01  2.89298E+01  2.78285E+01  1.54992E+01
   3.74256E+01  1.97857E+01  3.16012E+01  2.78762E+01  2.22224E+01  1.74510E+01  1.99013E+01  1.01503E+01  3.48809E+01  2.31720E+01
   3.28701E+01  2.49790E+01  2.19816E+01  3.45652E+01  2.01438E+01  3.36645E+01  1.81311E+01  1.29584E+01  2.29045E+01  3.27274E+01
   2.76808E+01  2.87460E+01  2.91854E+01  3.28754E+01  2.69930E+01  3.01554E+01  1.94148E+01  4.26658E+01  3.14836E+01  3.64231E+01
   2.23260E+01  3.84888E+01  1.42694E+01  2.65873E+01  3.10617E+01  2.24203E+01  2.47437E+01  2.67313E+01  3.22061E+01  2.90117E+01
   2.81349E+01  2.49404E+01  7.98156E+00  2.34799E+01  1.50108E+01  4.20871E+01  2.90271E+01  2.00331E+01  4.19375E+01  2.10371E+01
   3.45755E+01  3.93768E+01  2.88439E+01  3.33322E+01  1.68080E+01  1.32356E+01  3.73442E+01  1.91980E+01  2.64312E+01  1.44468E+01
   1.91256E+01  2.90900E+01  3.02155E+01  3.41394E+01  3.38966E+01  3.26038E+01  2.43731E+01  3.18051E+01
 NY points of the fit to the data follow
  -2.85408E+02 -2.83156E+02 -2.79720E+02 -2.76667E+02 -2.73394E+02 -2.68336E+02 -2.60926E+02 -2.52476E+02 -2.45027E+02 -2.39617E+02
  -2.36007E+02 -2.33828E+02 -2.33310E+02 -2.34800E+02 -2.37582E+02 -2.40264E+02 -2.41820E+02 -2.42608E+02 -2.43488E+02 -2.45186E+02
  -2.46569E+02 -2.45791E+02 -2.43248E+02 -2.40386E+02 -2.37469E+02 -2.33770E+02 -2.28671E+02 -2.22531E+02 -2.16228E+02 -2.10671E+02
  -2.06475E+02 -2.03810E+02 -2.02898E+02 -2.03554E+02 -2.05163E+02 -2.07038E+02 -2.08503E+02 -2.08664E+02 -2.06977E+02 -2.04466E+02
  -2.02307E+02 -1.99655E+02 -1.95258E+02 -1.89169E+02 -1.82798E+02 -1.77779E+02 -1.74834E+02 -1.73759E+02 -1.74191E+02 -1.75860E+02
  -1.78208E+02 -1.80539E+02 -1.82103E+02 -1.82433E+02 -1.81670E+02 -1.80344E+02 -1.78904E+02 -1.77222E+02 -1.75036E+02 -1.72822E+02
  -1.71023E+02 -1.69822E+02 -1.68951E+02 -1.68054E+02 -1.67056E+02 -1.65852E+02 -1.64059E+02 -1.61533E+02 -1.58950E+02 -1.56742E+02
  -1.54734E+02 -1.52754E+02 -1.50747E+02 -1.48869E+02 -1.47447E+02 -1.46646E+02 -1.46180E+02 -1.45205E+02 -1.43422E+02 -1.42053E+02
  -1.40933E+02 -1.39136E+02 -1.36266E+02 -1.33019E+02 -1.30579E+02 -1.29464E+02 -1.29238E+02 -1.29110E+02 -1.29220E+02 -1.29736E+02
  -1.30336E+02 -1.30637E+02 -1.30060E+02 -1.27112E+02 -1.19340E+02 -1.10667E+02 -1.03728E+02 -9.55151E+01 -8.27613E+01 -6.67036E+01
  -5.15658E+01 -4.08649E+01 -3.56864E+01 -3.50069E+01 -3.80966E+01 -4.52664E+01 -5.61300E+01 -6.84182E+01 -7.90584E+01 -8.68438E+01
  -9.27734E+01 -9.86916E+01 -1.05020E+02 -1.10168E+02 -1.11864E+02 -1.11419E+02 -1.09984E+02 -1.06091E+02 -9.78913E+01 -8.89792E+01
  -8.13694E+01 -7.24036E+01 -5.94938E+01 -4.39052E+01 -2.95330E+01 -1.94402E+01 -1.46831E+01 -1.44807E+01 -1.81093E+01 -2.56289E+01
  -3.64315E+01 -4.83090E+01 -5.86527E+01 -6.65860E+01 -7.32023E+01 -7.98236E+01 -8.63774E+01 -9.10728E+01 -9.21492E+01 -9.11846E+01
  -8.97099E+01 -8.82476E+01 -8.70700E+01 -8.62397E+01 -8.56332E+01 -8.50715E+01 -8.45808E+01 -8.41514E+01 -8.37640E+01 -8.34715E+01
  -8.32727E+01 -8.30898E+01 -8.30088E+01 -8.28481E+01 -8.24650E+01 -8.19157E+01 -8.13140E+01 -8.09074E+01 -8.07318E+01 -8.04815E+01
  -7.99408E+01 -7.92039E+01 -7.85057E+01 -7.79360E+01 -7.74592E+01 -7.70559E+01 -7.68505E+01 -7.69915E+01 -7.73423E+01 -7.74457E+01
  -7.72519E+01 -7.70414E+01 -7.71378E+01 -7.73184E+01 -7.71433E+01 -7.65706E+01 -7.58494E+01 -7.52527E+01 -7.47570E+01 -7.40221E+01
  -7.29106E+01 -7.17161E+01 -7.06216E+01 -6.94130E+01 -6.77931E+01 -6.57447E+01 -6.33771E+01 -6.10251E+01 -5.88544E+01 -5.70268E+01
  -5.55658E+01 -5.44522E+01 -5.37918E+01 -5.35649E+01 -5.35003E+01 -5.30346E+01 -5.17340E+01 -4.96806E+01 -4.72695E+01 -4.47813E+01
  -4.25630E+01 -4.12383E+01 -4.03882E+01 -4.00322E+01 -4.10503E+01 -4.35403E+01 -4.64322E+01 -4.85804E+01 -4.96883E+01 -4.99482E+01
  -4.92217E+01 -4.72923E+01 -4.43029E+01 -4.09767E+01 -3.80557E+01 -3.57712E+01 -3.40063E+01 -3.27643E+01 -3.19642E+01 -3.14005E+01
  -3.09299E+01 -3.05396E+01 -2.99546E+01 -2.91820E+01 -2.83052E+01 -2.73293E+01 -2.65971E+01 -2.64256E+01 -2.63066E+01 -2.57801E+01
  -2.50693E+01 -2.44058E+01 -2.35097E+01 -2.23276E+01 -2.10611E+01 -1.95567E+01 -1.79783E+01 -1.67255E+01 -1.60719E+01 -1.60341E+01
  -1.65348E+01 -1.73261E+01 -1.80153E+01 -1.83462E+01 -1.80374E+01 -1.69629E+01 -1.52441E+01 -1.31898E+01 -1.08252E+01 -8.09320E+00
  -4.43229E+00  3.71397E+00  1.68742E+01  2.82524E+01  3.76529E+01  4.99893E+01  6.74690E+01  8.64700E+01  1.01460E+02  1.09381E+02
   1.10382E+02  1.06052E+02  9.67105E+01  8.22045E+01  6.42950E+01  4.69272E+01  3.33365E+01  2.32623E+01  1.44995E+01  5.33975E+00
  -3.55640E+00 -9.16901E+00 -1.04585E+01 -1.04937E+01 -1.03024E+01 -1.00603E+01 -9.84150E+00 -9.67705E+00 -9.54738E+00 -9.43436E+00
  -9.31844E+00 -9.17789E+00 -9.00052E+00 -8.79025E+00 -8.54621E+00 -8.26642E+00 -7.95994E+00 -7.62955E+00 -7.28328E+00 -6.93504E+00
  -6.59122E+00 -6.24773E+00 -5.90834E+00 -5.57071E+00 -5.23453E+00 -4.89785E+00 -4.55621E+00 -4.20294E+00 -3.83995E+00 -3.46838E+00
  -3.08781E+00 -2.69583E+00 -2.29531E+00 -1.88558E+00 -1.46622E+00 -1.03695E+00 -5.97807E-01 -1.46679E-01  3.16283E-01  7.93354E-01
   1.28516E+00  1.79457E+00  2.32190E+00  2.86915E+00  3.43639E+00  4.02638E+00  4.64124E+00  5.28936E+00  5.97706E+00  6.66203E+00
   7.31845E+00  7.97851E+00  8.65426E+00  9.31306E+00  9.90359E+00  1.04064E+01  1.08678E+01  1.13306E+01  1.17650E+01  1.21600E+01
   1.25550E+01  1.30060E+01  1.35259E+01  1.40768E+01  1.46052E+01  1.50907E+01  1.55546E+01  1.60541E+01  1.66636E+01  1.71456E+01
   1.72920E+01  1.73449E+01  1.74747E+01  1.75307E+01  1.71995E+01  1.63738E+01  1.54306E+01  1.45737E+01  1.36689E+01  1.27428E+01
   1.20913E+01  1.20305E+01  1.26122E+01  1.35924E+01  1.46239E+01  1.55206E+01  1.62730E+01  1.69134E+01  1.74398E+01  1.77377E+01
   1.78091E+01  1.78364E+01  1.78862E+01  1.79003E+01  1.77987E+01  1.75919E+01  1.74570E+01  1.74484E+01  1.74947E+01  1.75670E+01
   1.76530E+01  1.77489E+01  1.78519E+01  1.79626E+01  1.80809E+01  1.82087E+01  1.83467E+01  1.84978E+01  1.86630E+01  1.88455E+01
   1.90465E+01  1.92688E+01  1.95138E+01  1.97849E+01  2.00836E+01  2.04132E+01  2.07752E+01  2.11726E+01  2.16069E+01  2.20813E+01
   2.25964E+01  2.31541E+01  2.37536E+01  2.43949E+01  2.50749E+01  2.57908E+01  2.65364E+01  2.73050E+01  2.80863E+01  2.88700E+01
   2.96428E+01  3.03914E+01  3.11000E+01  3.17541E+01  3.23379E+01  3.28388E+01  3.32439E+01  3.35446E+01  3.37335E+01  3.38081E+01
   3.37679E+01  3.36180E+01  3.33650E+01  3.30202E+01  3.25954E+01  3.21062E+01  3.15676E+01  3.09967E+01  3.04085E+01  2.98184E+01
   2.92386E+01  2.86815E+01  2.81556E+01  2.76688E+01  2.72251E+01  2.68282E+01  2.64783E+01  2.61758E+01  2.59184E+01  2.57045E+01
   2.55299E+01  2.53919E+01  2.52858E+01  2.52089E+01  2.51569E+01  2.51272E+01  2.51157E+01  2.51205E+01  2.51382E+01  2.51677E+01
   2.52064E+01  2.52532E+01  2.53061E+01  2.53645E+01  2.54269E+01  2.54931E+01  2.55619E+01  2.56332E+01  2.57056E+01  2.57797E+01
   2.58542E+01  2.59298E+01  2.60054E+01  2.60815E+01  2.61570E+01  2.62327E+01  2.63078E+01  2.63831E+01  2.64576E+01  2.65319E+01
   2.66054E+01  2.66786E+01  2.67511E+01  2.68235E+01  2.68950E+01  2.69662E+01  2.70364E+01  2.71066E+01  2.71760E+01  2.72453E+01
   2.73137E+01  2.73819E+01  2.74494E+01  2.75169E+01  2.75839E+01  2.76509E+01  2.77171E+01  2.77835E+01  2.78493E+01  2.79155E+01
   2.79813E+01  2.80474E+01  2.81130E+01  2.81791E+01  2.82450E+01  2.83115E+01  2.83780E+01  2.84451E+01  2.85121E+01  2.85800E+01
   2.86483E+01  2.87176E+01  2.87872E+01  2.88580E+01  2.89294E+01  2.90023E+01  2.90762E+01  2.91520E+01
 NY background values follow
    -3.004E+02   -2.985E+02   -2.966E+02   -2.947E+02   -2.927E+02   -2.908E+02   -2.889E+02   -2.870E+02   -2.851E+02   -2.831E+02
    -2.812E+02   -2.793E+02   -2.774E+02   -2.755E+02   -2.736E+02   -2.716E+02   -2.697E+02   -2.678E+02   -2.659E+02   -2.640E+02
    -2.621E+02   -2.602E+02   -2.583E+02   -2.565E+02   -2.546E+02   -2.527E+02   -2.508E+02   -2.490E+02   -2.471E+02   -2.452E+02
    -2.434E+02   -2.415E+02   -2.397E+02   -2.378E+02   -2.360E+02   -2.342E+02   -2.324E+02   -2.305E+02   -2.287E+02   -2.269E+02
    -2.251E+02   -2.233E+02   -2.216E+02   -2.198E+02   -2.180E+02   -2.163E+02   -2.145E+02   -2.128E+02   -2.111E+02   -2.093E+02
    -2.076E+02   -2.059E+02   -2.042E+02   -2.025E+02   -2.009E+02   -1.992E+02   -1.975E+02   -1.959E+02   -1.942E+02   -1.926E+02
    -1.910E+02   -1.894E+02   -1.878E+02   -1.862E+02   -1.846E+02   -1.830E+02   -1.814E+02   -1.799E+02   -1.783E+02   -1.768E+02
    -1.753E+02   -1.737E+02   -1.722E+02   -1.707E+02   -1.692E+02   -1.678E+02   -1.663E+02   -1.648E+02   -1.634E+02   -1.619E+02
    -1.605E+02   -1.591E+02   -1.577E+02   -1.563E+02   -1.549E+02   -1.535E+02   -1.522E+02   -1.508E+02   -1.495E+02   -1.481E+02
    -1.468E+02   -1.455E+02   -1.442E+02   -1.429E+02   -1.416E+02   -1.404E+02   -1.391E+02   -1.379E+02   -1.366E+02   -1.354E+02
    -1.342E+02   -1.330E+02   -1.318E+02   -1.306E+02   -1.295E+02   -1.283E+02   -1.271E+02   -1.260E+02   -1.249E+02   -1.238E+02
    -1.226E+02   -1.215E+02   -1.204E+02   -1.194E+02   -1.183E+02   -1.172E+02   -1.162E+02   -1.151E+02   -1.141E+02   -1.131E+02
    -1.120E+02   -1.110E+02   -1.100E+02   -1.090E+02   -1.081E+02   -1.071E+02   -1.061E+02   -1.052E+02   -1.042E+02   -1.033E+02
    -1.023E+02   -1.014E+02   -1.005E+02   -9.959E+01   -9.869E+01   -9.780E+01   -9.691E+01   -9.604E+01   -9.517E+01   -9.431E+01
    -9.345E+01   -9.261E+01   -9.177E+01   -9.093E+01   -9.011E+01   -8.929E+01   -8.848E+01   -8.767E+01   -8.687E+01   -8.608E+01
    -8.529E+01   -8.451E+01   -8.373E+01   -8.296E+01   -8.219E+01   -8.143E+01   -8.068E+01   -7.993E+01   -7.918E+01   -7.844E+01
    -7.771E+01   -7.698E+01   -7.625E+01   -7.553E+01   -7.481E+01   -7.409E+01   -7.338E+01   -7.267E+01   -7.197E+01   -7.127E+01
    -7.057E+01   -6.988E+01   -6.918E+01   -6.849E+01   -6.781E+01   -6.712E+01   -6.644E+01   -6.576E+01   -6.509E+01   -6.441E+01
    -6.374E+01   -6.307E+01   -6.240E+01   -6.173E+01   -6.106E+01   -6.039E+01   -5.973E+01   -5.907E+01   -5.841E+01   -5.775E+01
    -5.710E+01   -5.644E+01   -5.579E+01   -5.514E+01   -5.450E+01   -5.385E+01   -5.321E+01   -5.257E+01   -5.193E+01   -5.129E+01
    -5.066E+01   -5.003E+01   -4.940E+01   -4.878E+01   -4.816E+01   -4.754E+01   -4.692E+01   -4.631E+01   -4.570E+01   -4.509E+01
    -4.448E+01   -4.388E+01   -4.328E+01   -4.269E+01   -4.210E+01   -4.151E+01   -4.092E+01   -4.034E+01   -3.976E+01   -3.919E+01
    -3.862E+01   -3.805E+01   -3.749E+01   -3.693E+01   -3.637E+01   -3.582E+01   -3.527E+01   -3.472E+01   -3.418E+01   -3.365E+01
    -3.311E+01   -3.258E+01   -3.206E+01   -3.154E+01   -3.102E+01   -3.051E+01   -2.999E+01   -2.949E+01   -2.898E+01   -2.848E+01
    -2.799E+01   -2.750E+01   -2.701E+01   -2.652E+01   -2.604E+01   -2.556E+01   -2.508E+01   -2.461E+01   -2.414E+01   -2.368E+01
    -2.322E+01   -2.276E+01   -2.230E+01   -2.185E+01   -2.140E+01   -2.095E+01   -2.051E+01   -2.007E+01   -1.963E+01   -1.920E+01
    -1.877E+01   -1.834E+01   -1.792E+01   -1.749E+01   -1.707E+01   -1.666E+01   -1.624E+01   -1.583E+01   -1.543E+01   -1.502E+01
    -1.462E+01   -1.422E+01   -1.382E+01   -1.343E+01   -1.303E+01   -1.264E+01   -1.226E+01   -1.187E+01   -1.149E+01   -1.111E+01
    -1.073E+01   -1.036E+01   -9.988E+00   -9.618E+00   -9.251E+00   -8.887E+00   -8.525E+00   -8.165E+00   -7.807E+00   -7.452E+00
    -7.100E+00   -6.749E+00   -6.401E+00   -6.056E+00   -5.712E+00   -5.371E+00   -5.032E+00   -4.695E+00   -4.361E+00   -4.029E+00
    -3.699E+00   -3.371E+00   -3.045E+00   -2.721E+00   -2.400E+00   -2.080E+00   -1.763E+00   -1.448E+00   -1.134E+00   -8.233E-01
    -5.142E-01   -2.071E-01    9.809E-02    4.013E-01    7.025E-01    1.002E+00    1.299E+00    1.595E+00    1.888E+00    2.180E+00
     2.469E+00    2.757E+00    3.043E+00    3.328E+00    3.610E+00    3.890E+00    4.169E+00    4.446E+00    4.721E+00    4.994E+00
     5.266E+00    5.535E+00    5.803E+00    6.069E+00    6.334E+00    6.596E+00    6.857E+00    7.116E+00    7.374E+00    7.629E+00
     7.883E+00    8.136E+00    8.386E+00    8.635E+00    8.883E+00    9.128E+00    9.372E+00    9.615E+00    9.856E+00    1.009E+01
     1.033E+01    1.057E+01    1.080E+01    1.104E+01    1.127E+01    1.150E+01    1.172E+01    1.195E+01    1.218E+01    1.240E+01
     1.262E+01    1.284E+01    1.306E+01    1.328E+01    1.349E+01    1.371E+01    1.392E+01    1.413E+01    1.434E+01    1.455E+01
     1.476E+01    1.496E+01    1.517E+01    1.537E+01    1.557E+01    1.577E+01    1.597E+01    1.617E+01    1.636E+01    1.655E+01
     1.675E+01    1.694E+01    1.713E+01    1.732E+01    1.750E+01    1.769E+01    1.787E+01    1.806E+01    1.824E+01    1.842E+01
     1.860E+01    1.877E+01    1.895E+01    1.912E+01    1.930E+01    1.947E+01    1.964E+01    1.981E+01    1.998E+01    2.014E+01
     2.031E+01    2.047E+01    2.063E+01    2.080E+01    2.096E+01    2.111E+01    2.127E+01    2.143E+01    2.158E+01    2.173E+01
     2.189E+01    2.204E+01    2.219E+01    2.233E+01    2.248E+01    2.263E+01    2.277E+01    2.291E+01    2.305E+01    2.319E+01
     2.333E+01    2.347E+01    2.361E+01    2.374E+01    2.387E+01    2.400E+01    2.413E+01    2.426E+01    2.439E+01    2.452E+01
     2.464E+01    2.476E+01    2.488E+01    2.500E+01    2.512E+01    2.524E+01    2.535E+01    2.547E+01    2.558E+01    2.569E+01
     2.580E+01    2.591E+01    2.602E+01    2.612E+01    2.622E+01    2.632E+01    2.642E+01    2.652E+01    2.662E+01    2.671E+01
     2.681E+01    2.690E+01    2.699E+01    2.708E+01    2.717E+01    2.725E+01    2.734E+01    2.742E+01    2.750E+01    2.758E+01
     2.766E+01    2.774E+01    2.781E+01    2.789E+01    2.796E+01    2.804E+01    2.811E+01    2.818E+01    2.825E+01    2.832E+01
     2.839E+01    2.845E+01    2.852E+01    2.859E+01    2.865E+01    2.872E+01    2.878E+01    2.884E+01    2.891E+01    2.897E+01
     2.903E+01    2.909E+01    2.915E+01    2.921E+01    2.928E+01    2.934E+01    2.940E+01    2.946E+01    2.952E+01    2.958E+01
     2.964E+01    2.970E+01    2.976E+01    2.982E+01    2.988E+01    2.994E+01    3.001E+01    3.007E+01
 Ala      Conc. = 7.46E+01
