 LCModel (Version 6.3-1L) Copyright: S.W. Provencher.          Ref.: Magn. Reson. Med. 30:672-679 (1993).                
 Slice#3 Row#6 Col#5  PD_05_press_2_raw_act
 36 lines in following concentration table = NCONC+1
    Conc.  %SD /Cr+PCr  Metabolite                                         
   67.333 439% 3.6E-02 Ala                                                 
  496.421  76%   0.264 Asp                                                 
  817.513  68%   0.435 Cr                                                  
 1.06E+03  53%   0.565 PCr                                                 
  191.069 124%   0.102 GABA                                                
  282.840  83%   0.150 Glc                                                 
  821.343  78%   0.437 Gln                                                 
 2.34E+03  31%   1.245 Glu                                                 
  868.912   7%   0.462 GPC                                                 
    0.000 999%   0.000 PCh                                                 
 1.23E+03  16%   0.655 GSH                                                 
 2.31E+03  25%   1.228 Ins                                                 
    0.000 999%   0.000 Lac                                                 
 2.15E+03  13%   1.146 NAA                                                 
  875.767  34%   0.466 NAAG                                                
   75.337  75% 4.0E-02 Scyllo                                              
  218.443 161%   0.116 Tau                                                 
    0.000 999%   0.000 -CrCH2                                              
  868.912   7%   0.462 GPC+PCh                                             
 3.03E+03   6%   1.612 NAA+NAAG                                            
 1.88E+03   7%   1.000 Cr+PCr                                              
 3.16E+03  32%   1.682 Glu+Gln                                             
    0.000 999%   0.000 Lip13a                                              
    0.000 999%   0.000 Lip13b                                              
    0.000 999%   0.000 Lip09                                               
  680.848  39%   0.362 MM09                                                
 1.57E-03 999% 8.4E-07 Lip20                                               
 1.21E+03  39%   0.641 MM20                                                
  161.851  72% 8.6E-02 MM12                                                
    0.000 999%   0.000 MM14                                                
  792.094  30%   0.421 MM17                                                
    0.000 999%   0.000 Lip13a+Lip13b                                       
  161.851  72% 8.6E-02 MM14+Lip13a+Lip13b+MM12                             
  680.848  39%   0.362 MM09+Lip09                                          
 1.21E+03  39%   0.641 MM20+Lip20                                          
   6 lines in following misc. output table
  FWHM = 0.054 ppm    S/N =   4                                            
  Data shift = 0.008 ppm                                                   
  Ph: -10 deg      -0.6 deg/ppm                                            
  alphaB,S = 8.5E+01,   1.0E+02                                            
   14 spline knots.   Ns = 7(1)                                            
   2 inflections.     1 extrema                                            
  498 points on ppm-axis = NY
      4.000000     3.992357     3.984714     3.977070     3.969427     3.961784     3.954141     3.946497     3.938854     3.931211
      3.923568     3.915925     3.908281     3.900638     3.892995     3.885352     3.877708     3.870065     3.862422     3.854779
      3.847136     3.839492     3.831849     3.824206     3.816563     3.808919     3.801276     3.793633     3.785990     3.778347
      3.770703     3.763060     3.755417     3.747774     3.740130     3.732487     3.724844     3.717201     3.709558     3.701914
      3.694271     3.686628     3.678985     3.671341     3.663698     3.656055     3.648412     3.640769     3.633125     3.625482
      3.617839     3.610196     3.602552     3.594909     3.587266     3.579623     3.571980     3.564336     3.556693     3.549050
      3.541407     3.533763     3.526120     3.518477     3.510834     3.503191     3.495547     3.487904     3.480261     3.472618
      3.464974     3.457331     3.449688     3.442045     3.434402     3.426758     3.419115     3.411472     3.403829     3.396185
      3.388542     3.380899     3.373256     3.365613     3.357969     3.350326     3.342683     3.335040     3.327396     3.319753
      3.312110     3.304467     3.296824     3.289180     3.281537     3.273894     3.266251     3.258607     3.250964     3.243321
      3.235678     3.228034     3.220391     3.212748     3.205105     3.197462     3.189818     3.182175     3.174532     3.166889
      3.159245     3.151602     3.143959     3.136316     3.128673     3.121029     3.113386     3.105743     3.098100     3.090456
      3.082813     3.075170     3.067527     3.059884     3.052240     3.044597     3.036954     3.029311     3.021667     3.014024
      3.006381     2.998738     2.991095     2.983451     2.975808     2.968165     2.960522     2.952878     2.945235     2.937592
      2.929949     2.922306     2.914662     2.907019     2.899376     2.891733     2.884089     2.876446     2.868803     2.861160
      2.853517     2.845873     2.838230     2.830587     2.822944     2.815300     2.807657     2.800014     2.792371     2.784728
      2.777084     2.769441     2.761798     2.754155     2.746511     2.738868     2.731225     2.723582     2.715939     2.708295
      2.700652     2.693009     2.685366     2.677722     2.670079     2.662436     2.654793     2.647150     2.639506     2.631863
      2.624220     2.616577     2.608933     2.601290     2.593647     2.586004     2.578361     2.570717     2.563074     2.555431
      2.547788     2.540144     2.532501     2.524858     2.517215     2.509572     2.501928     2.494285     2.486642     2.478999
      2.471355     2.463712     2.456069     2.448426     2.440783     2.433139     2.425496     2.417853     2.410210     2.402566
      2.394923     2.387280     2.379637     2.371994     2.364350     2.356707     2.349064     2.341421     2.333777     2.326134
      2.318491     2.310848     2.303205     2.295561     2.287918     2.280275     2.272632     2.264988     2.257345     2.249702
      2.242059     2.234416     2.226772     2.219129     2.211486     2.203843     2.196199     2.188556     2.180913     2.173270
      2.165627     2.157983     2.150340     2.142697     2.135054     2.127410     2.119767     2.112124     2.104481     2.096838
      2.089194     2.081551     2.073908     2.066265     2.058621     2.050978     2.043335     2.035692     2.028049     2.020405
      2.012762     2.005119     1.997476     1.989833     1.982190     1.974546     1.966903     1.959260     1.951617     1.943974
      1.936331     1.928688     1.921045     1.913402     1.905759     1.898115     1.890472     1.882829     1.875186     1.867543
      1.859900     1.852257     1.844614     1.836971     1.829327     1.821684     1.814041     1.806398     1.798755     1.791112
      1.783469     1.775826     1.768183     1.760540     1.752896     1.745253     1.737610     1.729967     1.722324     1.714681
      1.707038     1.699395     1.691752     1.684108     1.676465     1.668822     1.661179     1.653536     1.645893     1.638250
      1.630607     1.622964     1.615321     1.607677     1.600034     1.592391     1.584748     1.577105     1.569462     1.561819
      1.554176     1.546533     1.538890     1.531246     1.523603     1.515960     1.508317     1.500674     1.493031     1.485388
      1.477745     1.470102     1.462458     1.454815     1.447172     1.439529     1.431886     1.424243     1.416600     1.408957
      1.401314     1.393671     1.386027     1.378384     1.370741     1.363098     1.355455     1.347812     1.340169     1.332526
      1.324883     1.317240     1.309596     1.301953     1.294310     1.286667     1.279024     1.271381     1.263738     1.256095
      1.248452     1.240808     1.233165     1.225522     1.217879     1.210236     1.202593     1.194950     1.187307     1.179664
      1.172021     1.164377     1.156734     1.149091     1.141448     1.133805     1.126162     1.118519     1.110876     1.103233
      1.095590     1.087946     1.080303     1.072660     1.065017     1.057374     1.049731     1.042088     1.034445     1.026802
      1.019158     1.011515     1.003872     0.996229     0.988586     0.980943     0.973300     0.965657     0.958014     0.950371
      0.942727     0.935084     0.927441     0.919798     0.912155     0.904512     0.896869     0.889226     0.881583     0.873940
      0.866296     0.858653     0.851010     0.843367     0.835724     0.828081     0.820438     0.812795     0.805152     0.797508
      0.789865     0.782222     0.774579     0.766936     0.759293     0.751650     0.744007     0.736364     0.728721     0.721077
      0.713434     0.705791     0.698148     0.690505     0.682862     0.675219     0.667576     0.659933     0.652290     0.644646
      0.637003     0.629360     0.621717     0.614074     0.606431     0.598788     0.591145     0.583502     0.575858     0.568215
      0.560572     0.552929     0.545286     0.537643     0.530000     0.522357     0.514714     0.507071     0.499427     0.491784
      0.484141     0.476498     0.468855     0.461212     0.453569     0.445925     0.438282     0.430639     0.422996     0.415353
      0.407710     0.400067     0.392424     0.384780     0.377137     0.369494     0.361851     0.354208     0.346565     0.338922
      0.331278     0.323635     0.315992     0.308349     0.300706     0.293063     0.285420     0.277777     0.270133     0.262490
      0.254847     0.247204     0.239561     0.231918     0.224275     0.216631     0.208988     0.201345
 NY phased data points follow
   1.75646E+00 -8.13909E+00 -7.27286E+00  6.24472E+00  6.76498E+00  1.32266E+01  2.70845E+01  4.26878E+01  2.77607E+01  5.12100E+01
   3.95175E+01  4.46018E+01  3.64493E+01  4.82219E+01  3.90284E+01  3.44273E+01  2.10959E+01  2.02423E+01 -5.97094E-01  1.30775E+01
  -5.06208E+00  1.34691E+01  2.44744E+01  1.59999E+01  1.49764E+01  1.72409E+01  2.46313E+01  2.00214E+01  2.42938E+01  2.86946E+01
   3.61352E+01  3.16154E+01  3.16905E+01  3.05506E+01  2.89322E+01  1.68106E+01  6.72578E+00  2.95092E+01  2.05602E+01  1.67833E+01
   6.11540E+00  2.08523E+01  6.97241E+00 -4.17562E+00 -8.87434E+00  1.29654E+01  1.90988E+01  2.00157E+01  2.47170E+01  2.35526E+01
   2.59037E+01  2.79014E+01  2.02310E+00  1.99962E+01  7.93118E+00  2.53685E+00  5.03131E+00  3.89812E-02  1.84142E+01  1.09599E+01
   2.78544E+01  2.83587E+00  6.24187E+00 -1.00136E+01  6.50366E+00 -4.43573E+00 -3.69619E+00 -1.46361E+00  7.37858E-01  6.23169E+00
  -2.00439E+01  4.82741E-02  4.54477E+00  1.53026E+01  4.32965E-01  1.23888E+01  1.09968E+00  1.06950E+01  6.91521E+00  2.63684E+00
   5.50803E+00  1.90899E+01  6.48367E+00  1.32722E+01 -7.33296E+00  1.24031E+01 -3.67665E+00 -6.85142E+00 -7.81293E+00  1.25635E+01
   6.90325E+00  2.36121E+00  2.47471E+00  1.62455E+01 -3.30791E+00  2.36111E+01  1.31226E+01  1.44513E+01  7.81680E+00  5.56826E+00
   3.97437E+01  4.50670E+01  8.01425E+01  8.81101E+01  7.72867E+01  6.42211E+01  5.77140E+01  4.00623E+01  4.12213E+01  4.14467E+01
   1.91888E+01  8.59086E+00  9.65925E+00  2.02493E+01 -1.06330E-01  6.71227E+00  5.26088E+00  2.35455E+00 -8.86692E+00  1.13311E+01
   1.87330E+00  2.66457E+00  2.14796E+01 -4.34460E+00  9.00548E+00  4.75501E+01  4.64777E+01  7.23002E+01  6.55528E+01  5.94582E+01
   4.79325E+01  3.55500E+01  3.01983E+01  1.84690E+01  1.13693E+01  6.79813E+00  2.80961E+00 -1.12050E+01 -1.78021E+00 -6.09791E-01
  -1.17794E+01 -4.75401E+00 -1.55628E+00  7.82914E+00  2.98553E+00  5.33627E+00 -1.57419E+01 -4.20906E+00 -1.42000E+01 -8.71591E-01
  -2.31120E+00  1.65926E+01 -1.28436E+01 -7.45324E+00 -1.27210E+01 -3.07315E+00 -3.55613E+00 -1.67240E+01  5.68514E+00 -2.66804E+01
  -1.07571E+01 -4.19069E+00 -3.18965E+00 -6.74271E+00 -7.68812E+00 -4.21418E+00 -4.93135E+00  2.41604E+00 -3.33993E+00 -2.99165E+00
   4.42594E+00  3.21698E+00 -1.84900E+01 -6.03919E+00 -2.61297E+01 -1.63647E+01 -1.24034E+00 -4.64131E+00 -2.62825E+01 -1.85448E+01
  -5.01376E+00 -2.50097E+01 -1.18679E+01 -1.45328E+01 -7.64004E+00  9.85370E+00 -1.83394E+01 -1.84544E+01 -8.12671E+00  6.37309E+00
   6.66908E+00 -2.45757E+00  1.60852E+01  4.62027E+00  1.16584E-01  1.09255E-01 -1.00958E+01  1.77707E+01 -9.52147E-01 -9.45911E+00
  -2.77516E-01  6.36296E-02 -4.86115E+00 -4.17895E+00  6.96285E+00  1.49915E+01  3.84895E+00  3.16425E+00 -2.79556E-01  4.00290E+00
  -3.04090E+00  2.57391E+00 -5.24159E+00 -9.78465E-01 -1.68303E-02  1.65443E+01 -4.52696E+00  1.84589E+01  2.33281E+01  3.40844E+00
   1.92791E+00  1.33616E+01  1.72428E+00 -5.51530E+00 -6.22819E+00  4.96601E+00 -2.39804E+00  1.07322E+01 -5.40673E+00  5.83321E+00
  -2.04589E-01  8.70832E+00  2.63437E+01  2.75840E+01  1.32479E+01  3.20810E-01  5.19835E+00  1.92688E+01  6.13335E+00  6.90102E+00
   1.25274E+00  1.22622E+01 -4.06938E-01 -3.45822E+00  6.07401E+00  9.59309E+00 -6.49932E+00  1.15307E+01  8.11504E+00  5.44010E+00
   4.03514E+00  7.20468E+00  1.36750E+01  2.05190E+01  1.15339E+01  3.51701E+01  5.19029E+01  5.81333E+01  6.97419E+01  7.10751E+01
   9.44881E+01  8.62366E+01  8.17726E+01  7.02151E+01  5.40676E+01  4.15707E+01  3.12096E+01  1.50679E+01  2.66162E+01  2.26404E+01
   1.03618E+01  4.09557E+00 -5.37302E+00  3.60630E+00  2.16737E+01  2.55034E+01  9.11510E+00  5.52126E-01 -7.84921E+00  5.86683E+00
   8.21604E+00  4.53209E+00  8.11326E+00 -3.47541E+00 -6.13265E+00 -1.51753E-01  3.56752E-01  4.47693E-01  6.31109E+00  2.98150E+00
  -1.05789E+01  1.29188E+01 -7.22614E-01  1.27950E+01  5.50406E-01  8.87643E+00  1.38156E+01  1.28938E+01  7.97596E+00  1.03477E+01
   3.05525E+00  1.93730E+00  9.00886E+00  4.63157E+00 -5.20536E+00  2.10324E+01 -3.14430E+00  9.88116E+00  1.19729E+01  2.24414E+01
   7.52884E+00 -5.83733E+00  1.85758E+01  5.50772E+00  3.37984E+01  1.09652E+01  1.55463E+01  2.77150E+01  1.32162E+01  1.95580E+01
   1.33793E+01  1.42185E+01  1.07855E+01  3.56802E+00  1.04968E+01  4.15623E+00  7.72418E+00 -5.65023E+00  8.00531E+00 -1.61168E+01
  -1.22057E+00 -2.69445E+00 -5.24084E+00  2.67645E+00 -1.13088E+00 -1.03476E+00 -6.24218E+00 -1.32178E+01 -1.20913E+01 -8.22213E+00
  -1.18569E+01 -1.26623E+01 -6.68471E-01 -1.38071E+01 -6.93820E+00 -4.79636E+00  1.37307E-01 -6.16663E+00  8.05933E-01 -2.06222E+00
  -1.48494E+01 -1.09611E+01 -2.52610E+01  9.02164E+00 -3.70998E+00  4.95085E+00  1.53564E+01  2.21128E+01 -5.79704E+00  4.51606E+00
  -1.13132E+01 -1.82409E+01 -2.22372E+00 -5.23239E+00 -2.28910E+00 -4.44183E-01 -8.78599E+00 -7.08020E+00  1.89552E+00 -4.19733E+00
  -5.31537E-01 -9.26206E+00 -1.14511E+01  5.75047E+00 -1.38007E+01 -8.57670E+00 -1.77320E+01  8.89537E+00  1.33823E+01 -8.35045E-01
  -4.78653E-01  6.35843E+00 -1.08512E+01 -4.13775E+00  1.78365E+00  4.96691E+00  7.52477E+00  6.68242E+00  2.50927E+00  1.22822E+01
  -1.13834E+01 -9.38618E-01 -1.49158E+00  1.14972E+01  1.97286E+00  5.62844E+00  4.57426E+00 -4.32941E-01 -5.34215E+00  5.49095E+00
   4.20272E+00 -9.29553E+00  1.13803E+01  2.12696E+01  3.80719E+00  6.27721E+00 -6.02541E-01  2.64997E+00 -1.35630E+00 -6.94539E+00
   1.42550E+01  7.80344E+00  1.11697E+01  2.95646E+00  7.19380E+00  1.32963E+01 -1.13729E+01  8.64196E+00 -8.56885E+00  2.18463E+01
   2.62878E+00  9.92118E+00 -1.03975E+00 -9.00238E+00  1.40504E+00 -9.31408E+00  1.28663E+01  9.95920E+00  8.93447E+00 -1.00367E+01
   2.02072E+00  1.27080E+01 -2.75341E+00  7.44148E+00 -8.41080E+00  5.58105E+00  1.46344E+01  1.44361E+01  6.19685E+00 -6.10224E+00
   7.45272E+00  5.99274E-03 -2.66209E-01  5.56421E+00 -1.89552E+01 -6.55742E+00  8.93190E-01  8.93346E+00  7.57273E+00  4.10759E+00
  -5.00038E+00  2.44799E+00  1.39279E+01  5.54848E+00 -3.24105E+00  1.10369E+01 -4.07800E+00  1.76797E+00 -1.61645E+00  2.58219E+00
  -4.72586E+00 -2.62927E+00  1.48905E+00  8.92678E-01  1.16671E+00  7.12047E-01 -9.96610E-01  9.00409E+00 -3.75385E+00  5.47782E+00
  -4.77441E+00 -1.86255E+01  4.14299E+00  5.10588E+00  1.56895E+00 -1.00030E+01  3.38825E-01 -8.12035E-01 -8.57459E-01 -2.83170E+00
   2.75049E-01  5.00007E+00  1.84185E+01 -8.71594E+00 -1.06771E+01 -6.05763E+00  1.26894E+01  1.43638E+00 -5.60293E+00  1.02614E+01
   1.27618E+01  1.33900E+01  1.26616E+01  4.95157E+00  1.10788E+01 -9.04525E+00  4.27352E+00  2.46781E+00
 NY points of the fit to the data follow
   9.15156E+00  8.27192E+00  8.40789E+00  9.42691E+00  1.15458E+01  1.53145E+01  2.08095E+01  2.76643E+01  3.49291E+01  4.11010E+01
   4.47316E+01  4.51558E+01  4.26556E+01  3.81835E+01  3.27580E+01  2.69787E+01  2.11128E+01  1.56407E+01  1.15603E+01  8.89514E+00
   7.59888E+00  7.32979E+00  7.36188E+00  7.71937E+00  8.54129E+00  1.03464E+01  1.37184E+01  1.86486E+01  2.43219E+01  2.94114E+01
   3.27306E+01  3.37611E+01  3.26904E+01  3.00326E+01  2.63832E+01  2.20232E+01  1.71355E+01  1.21497E+01  8.27200E+00  6.52002E+00
   5.90684E+00  6.10690E+00  7.21998E+00  9.20665E+00  1.20429E+01  1.54127E+01  1.87743E+01  2.11697E+01  2.17458E+01  2.04428E+01
   1.78174E+01  1.46724E+01  1.16865E+01  8.98666E+00  6.52780E+00  4.69924E+00  4.06371E+00  4.69910E+00  6.03364E+00  7.41851E+00
   8.34097E+00  8.50992E+00  7.92481E+00  6.85373E+00  5.71120E+00  4.81944E+00  4.23468E+00  3.90831E+00  3.96729E+00  4.49796E+00
   5.36533E+00  6.38571E+00  7.28153E+00  7.87778E+00  8.10618E+00  7.98348E+00  7.59374E+00  7.00747E+00  6.33934E+00  5.69046E+00
   5.15177E+00  4.86240E+00  4.76648E+00  4.75030E+00  4.66897E+00  4.31062E+00  3.49994E+00  2.33878E+00  1.17793E+00  3.70231E-01
   7.31466E-02  2.29031E-01  6.76353E-01  1.30663E+00  2.17965E+00  3.57910E+00  5.95533E+00  9.39909E+00  1.46410E+01  2.34443E+01
   3.68124E+01  5.31686E+01  6.84091E+01  7.78886E+01  7.91343E+01  7.32634E+01  6.33214E+01  5.19352E+01  4.02577E+01  2.82263E+01
   1.61741E+01  6.20923E+00  1.54151E+00  5.85481E-01  4.20473E-01  4.41331E-01  4.95192E-01  5.64675E-01  6.88483E-01  1.10543E+00
   2.44942E+00  5.02304E+00  9.39305E+00  1.67155E+01  2.75344E+01  4.04972E+01  5.25283E+01  6.02105E+01  6.17788E+01  5.81538E+01
   5.15951E+01  4.37717E+01  3.50580E+01  2.51069E+01  1.42655E+01  4.65880E+00 -6.01624E-01 -2.31543E+00 -2.42308E+00 -1.60567E+00
  -3.99182E-01  8.76355E-01  2.16410E+00  3.26493E+00  3.85685E+00  3.91054E+00  3.43936E+00  2.50652E+00  1.40523E+00  3.36422E-01
  -5.42790E-01 -1.26103E+00 -1.91489E+00 -2.45834E+00 -2.81858E+00 -2.95768E+00 -2.98998E+00 -3.08914E+00 -3.35551E+00 -3.80513E+00
  -4.28239E+00 -4.58082E+00 -4.62203E+00 -4.52278E+00 -4.43332E+00 -4.40398E+00 -4.44888E+00 -4.50424E+00 -4.50905E+00 -4.51953E+00
  -4.60269E+00 -4.76304E+00 -5.05483E+00 -5.51177E+00 -6.03450E+00 -6.50863E+00 -6.78405E+00 -6.85601E+00 -6.91937E+00 -7.13105E+00
  -7.41437E+00 -7.54185E+00 -7.37127E+00 -6.93976E+00 -6.39075E+00 -5.74447E+00 -4.72484E+00 -3.00827E+00 -6.69270E-01  1.80750E+00
   3.71055E+00  4.56714E+00  4.32761E+00  3.20367E+00  1.44324E+00 -5.71811E-01 -2.37357E+00 -3.41314E+00 -3.30666E+00 -2.05148E+00
   5.73816E-02  2.56460E+00  4.96139E+00  6.83491E+00  7.89446E+00  7.84083E+00  6.37634E+00  3.66447E+00  4.73262E-01 -2.43578E+00
  -4.41530E+00 -5.00889E+00 -3.95435E+00 -1.31755E+00  2.36069E+00  6.11037E+00  8.80676E+00  9.64289E+00  8.44610E+00  5.34694E+00
   1.09601E+00 -3.14044E+00 -6.47748E+00 -8.18456E+00 -7.93531E+00 -5.93180E+00 -2.91576E+00 -1.19044E-01  1.95609E+00  3.30332E+00
   4.14298E+00  4.61235E+00  4.83924E+00  5.28061E+00  6.22800E+00  7.33766E+00  8.08339E+00  8.17218E+00  7.49384E+00  6.05250E+00
   3.91954E+00  1.60267E+00 -1.25981E-01 -8.09416E-01 -3.99605E-01  7.91713E-01  2.43312E+00  4.08498E+00  5.38223E+00  6.59175E+00
   8.02422E+00  1.01204E+01  1.34745E+01  1.90450E+01  2.69633E+01  3.60952E+01  4.58649E+01  5.66604E+01  6.85053E+01  7.96143E+01
   8.68201E+01  8.73895E+01  8.10739E+01  7.01051E+01  5.76769E+01  4.63094E+01  3.55695E+01  2.45427E+01  1.42172E+01  7.53227E+00
   5.04296E+00  4.01432E+00  3.55385E+00  3.46696E+00  3.58055E+00  3.66151E+00  3.65248E+00  3.55183E+00  3.35246E+00  3.07636E+00
   2.77018E+00  2.46176E+00  2.18599E+00  2.00248E+00  1.92849E+00  1.92660E+00  1.94312E+00  1.96005E+00  1.99110E+00  2.05076E+00
   2.13411E+00  2.25050E+00  2.40970E+00  2.60128E+00  2.80591E+00  3.02297E+00  3.24751E+00  3.47756E+00  3.71558E+00  3.96391E+00
   4.22546E+00  4.51348E+00  4.82125E+00  5.12826E+00  5.41810E+00  5.67911E+00  5.90105E+00  6.07088E+00  6.17335E+00  6.20774E+00
   6.17804E+00  6.08605E+00  5.93651E+00  5.73604E+00  5.49177E+00  5.21218E+00  4.90679E+00  4.58591E+00  4.26049E+00  3.94288E+00
   3.64731E+00  3.37985E+00  3.14701E+00  2.95641E+00  2.79485E+00  2.61983E+00  2.37902E+00  2.04209E+00  1.62963E+00  1.19964E+00
   8.06363E-01  4.94552E-01  3.01217E-01  2.49075E-01  3.38414E-01  5.43697E-01  8.10274E-01  1.04188E+00  1.18749E+00  1.26626E+00
   1.30018E+00  1.29417E+00  1.23996E+00  1.14044E+00  1.04559E+00  9.94653E-01  9.69756E-01  9.59309E-01  9.58561E-01  9.64962E-01
   9.76863E-01  9.93140E-01  1.01302E+00  1.03588E+00  1.06108E+00  1.08791E+00  1.11563E+00  1.14362E+00  1.17135E+00  1.19829E+00
   1.22385E+00  1.24741E+00  1.26846E+00  1.28666E+00  1.30188E+00  1.31400E+00  1.32297E+00  1.32881E+00  1.33179E+00  1.33240E+00
   1.33129E+00  1.32912E+00  1.32658E+00  1.32450E+00  1.32391E+00  1.32598E+00  1.33192E+00  1.34291E+00  1.36016E+00  1.38499E+00
   1.41892E+00  1.46350E+00  1.52029E+00  1.59075E+00  1.67635E+00  1.77860E+00  1.89898E+00  2.03872E+00  2.19867E+00  2.37925E+00
   2.58038E+00  2.80147E+00  3.04121E+00  3.29741E+00  3.56689E+00  3.84557E+00  4.12860E+00  4.41045E+00  4.68496E+00  4.94550E+00
   5.18527E+00  5.39765E+00  5.57663E+00  5.71701E+00  5.81461E+00  5.86647E+00  5.87104E+00  5.82839E+00  5.74017E+00  5.60945E+00
   5.44045E+00  5.23833E+00  5.00897E+00  4.75877E+00  4.49426E+00  4.22176E+00  3.94707E+00  3.67535E+00  3.41106E+00  3.15789E+00
   2.91870E+00  2.69544E+00  2.48923E+00  2.30051E+00  2.12925E+00  1.97501E+00  1.83699E+00  1.71407E+00  1.60494E+00  1.50828E+00
   1.42285E+00  1.34747E+00  1.28098E+00  1.22223E+00  1.17019E+00  1.12397E+00  1.08289E+00  1.04633E+00  1.01369E+00  9.84387E-01
   9.57954E-01  9.34066E-01  9.12482E-01  8.92956E-01  8.75205E-01  8.58963E-01  8.44050E-01  8.30381E-01  8.17886E-01  8.06440E-01
   7.95869E-01  7.86041E-01  7.76912E-01  7.68492E-01  7.60757E-01  7.53613E-01  7.46944E-01  7.40692E-01  7.34874E-01  7.29514E-01
   7.24577E-01  7.19968E-01  7.15608E-01  7.11496E-01  7.07680E-01  7.04180E-01  7.00942E-01  6.97877E-01  6.94944E-01  6.92178E-01
   6.89632E-01  6.87301E-01  6.85113E-01  6.83001E-01  6.80967E-01  6.79071E-01  6.77350E-01  6.75766E-01  6.74238E-01  6.72722E-01
   6.71255E-01  6.69898E-01  6.68657E-01  6.67467E-01  6.66257E-01  6.65024E-01  6.63826E-01  6.62710E-01  6.61644E-01  6.60550E-01
   6.59377E-01  6.58154E-01  6.56944E-01  6.55760E-01  6.54539E-01  6.53201E-01  6.51726E-01  6.50167E-01
 NY background values follow
    -1.883E+00   -1.879E+00   -1.875E+00   -1.872E+00   -1.868E+00   -1.864E+00   -1.860E+00   -1.856E+00   -1.852E+00   -1.849E+00
    -1.845E+00   -1.841E+00   -1.837E+00   -1.833E+00   -1.829E+00   -1.826E+00   -1.822E+00   -1.818E+00   -1.814E+00   -1.810E+00
    -1.806E+00   -1.802E+00   -1.799E+00   -1.795E+00   -1.791E+00   -1.787E+00   -1.783E+00   -1.779E+00   -1.775E+00   -1.772E+00
    -1.768E+00   -1.764E+00   -1.760E+00   -1.756E+00   -1.752E+00   -1.748E+00   -1.744E+00   -1.741E+00   -1.737E+00   -1.733E+00
    -1.729E+00   -1.725E+00   -1.721E+00   -1.717E+00   -1.714E+00   -1.710E+00   -1.706E+00   -1.702E+00   -1.698E+00   -1.694E+00
    -1.690E+00   -1.686E+00   -1.683E+00   -1.679E+00   -1.675E+00   -1.671E+00   -1.667E+00   -1.663E+00   -1.659E+00   -1.655E+00
    -1.652E+00   -1.648E+00   -1.644E+00   -1.640E+00   -1.636E+00   -1.632E+00   -1.628E+00   -1.624E+00   -1.620E+00   -1.617E+00
    -1.613E+00   -1.609E+00   -1.605E+00   -1.601E+00   -1.597E+00   -1.593E+00   -1.589E+00   -1.585E+00   -1.582E+00   -1.578E+00
    -1.574E+00   -1.570E+00   -1.566E+00   -1.562E+00   -1.558E+00   -1.554E+00   -1.550E+00   -1.546E+00   -1.543E+00   -1.539E+00
    -1.535E+00   -1.531E+00   -1.527E+00   -1.523E+00   -1.519E+00   -1.515E+00   -1.511E+00   -1.507E+00   -1.504E+00   -1.500E+00
    -1.496E+00   -1.492E+00   -1.488E+00   -1.484E+00   -1.480E+00   -1.476E+00   -1.472E+00   -1.468E+00   -1.464E+00   -1.461E+00
    -1.457E+00   -1.453E+00   -1.449E+00   -1.445E+00   -1.441E+00   -1.437E+00   -1.433E+00   -1.429E+00   -1.425E+00   -1.421E+00
    -1.418E+00   -1.414E+00   -1.410E+00   -1.406E+00   -1.402E+00   -1.398E+00   -1.394E+00   -1.390E+00   -1.386E+00   -1.382E+00
    -1.378E+00   -1.374E+00   -1.370E+00   -1.367E+00   -1.363E+00   -1.359E+00   -1.355E+00   -1.351E+00   -1.347E+00   -1.343E+00
    -1.339E+00   -1.335E+00   -1.331E+00   -1.327E+00   -1.323E+00   -1.319E+00   -1.315E+00   -1.311E+00   -1.308E+00   -1.304E+00
    -1.300E+00   -1.296E+00   -1.292E+00   -1.288E+00   -1.284E+00   -1.280E+00   -1.276E+00   -1.272E+00   -1.268E+00   -1.264E+00
    -1.260E+00   -1.256E+00   -1.252E+00   -1.248E+00   -1.245E+00   -1.241E+00   -1.237E+00   -1.233E+00   -1.229E+00   -1.225E+00
    -1.221E+00   -1.217E+00   -1.213E+00   -1.209E+00   -1.205E+00   -1.201E+00   -1.197E+00   -1.193E+00   -1.189E+00   -1.185E+00
    -1.181E+00   -1.177E+00   -1.173E+00   -1.169E+00   -1.166E+00   -1.162E+00   -1.158E+00   -1.154E+00   -1.150E+00   -1.146E+00
    -1.142E+00   -1.138E+00   -1.134E+00   -1.130E+00   -1.126E+00   -1.122E+00   -1.118E+00   -1.114E+00   -1.110E+00   -1.106E+00
    -1.102E+00   -1.098E+00   -1.094E+00   -1.090E+00   -1.086E+00   -1.082E+00   -1.078E+00   -1.074E+00   -1.071E+00   -1.067E+00
    -1.063E+00   -1.059E+00   -1.055E+00   -1.051E+00   -1.047E+00   -1.043E+00   -1.039E+00   -1.035E+00   -1.031E+00   -1.027E+00
    -1.023E+00   -1.019E+00   -1.015E+00   -1.011E+00   -1.007E+00   -1.003E+00   -9.992E-01   -9.952E-01   -9.912E-01   -9.873E-01
    -9.833E-01   -9.793E-01   -9.754E-01   -9.714E-01   -9.674E-01   -9.635E-01   -9.595E-01   -9.555E-01   -9.516E-01   -9.476E-01
    -9.436E-01   -9.396E-01   -9.357E-01   -9.317E-01   -9.277E-01   -9.238E-01   -9.198E-01   -9.158E-01   -9.119E-01   -9.079E-01
    -9.039E-01   -8.999E-01   -8.960E-01   -8.920E-01   -8.880E-01   -8.841E-01   -8.801E-01   -8.761E-01   -8.721E-01   -8.682E-01
    -8.642E-01   -8.602E-01   -8.563E-01   -8.523E-01   -8.483E-01   -8.443E-01   -8.404E-01   -8.364E-01   -8.324E-01   -8.285E-01
    -8.245E-01   -8.205E-01   -8.165E-01   -8.126E-01   -8.086E-01   -8.046E-01   -8.006E-01   -7.967E-01   -7.927E-01   -7.887E-01
    -7.848E-01   -7.808E-01   -7.768E-01   -7.728E-01   -7.689E-01   -7.649E-01   -7.609E-01   -7.569E-01   -7.530E-01   -7.490E-01
    -7.450E-01   -7.410E-01   -7.371E-01   -7.331E-01   -7.291E-01   -7.252E-01   -7.212E-01   -7.172E-01   -7.132E-01   -7.093E-01
    -7.053E-01   -7.013E-01   -6.973E-01   -6.934E-01   -6.894E-01   -6.854E-01   -6.814E-01   -6.775E-01   -6.735E-01   -6.695E-01
    -6.655E-01   -6.616E-01   -6.576E-01   -6.536E-01   -6.496E-01   -6.457E-01   -6.417E-01   -6.377E-01   -6.338E-01   -6.298E-01
    -6.258E-01   -6.218E-01   -6.179E-01   -6.139E-01   -6.099E-01   -6.059E-01   -6.020E-01   -5.980E-01   -5.940E-01   -5.900E-01
    -5.861E-01   -5.821E-01   -5.781E-01   -5.741E-01   -5.702E-01   -5.662E-01   -5.622E-01   -5.582E-01   -5.543E-01   -5.503E-01
    -5.463E-01   -5.423E-01   -5.384E-01   -5.344E-01   -5.304E-01   -5.264E-01   -5.224E-01   -5.185E-01   -5.145E-01   -5.105E-01
    -5.065E-01   -5.026E-01   -4.986E-01   -4.946E-01   -4.906E-01   -4.867E-01   -4.827E-01   -4.787E-01   -4.747E-01   -4.707E-01
    -4.668E-01   -4.628E-01   -4.588E-01   -4.548E-01   -4.509E-01   -4.469E-01   -4.429E-01   -4.389E-01   -4.349E-01   -4.310E-01
    -4.270E-01   -4.230E-01   -4.190E-01   -4.151E-01   -4.111E-01   -4.071E-01   -4.031E-01   -3.991E-01   -3.952E-01   -3.912E-01
    -3.872E-01   -3.832E-01   -3.792E-01   -3.753E-01   -3.713E-01   -3.673E-01   -3.633E-01   -3.593E-01   -3.554E-01   -3.514E-01
    -3.474E-01   -3.434E-01   -3.394E-01   -3.355E-01   -3.315E-01   -3.275E-01   -3.235E-01   -3.195E-01   -3.156E-01   -3.116E-01
    -3.076E-01   -3.036E-01   -2.996E-01   -2.957E-01   -2.917E-01   -2.877E-01   -2.837E-01   -2.797E-01   -2.758E-01   -2.718E-01
    -2.678E-01   -2.638E-01   -2.599E-01   -2.559E-01   -2.519E-01   -2.479E-01   -2.439E-01   -2.400E-01   -2.360E-01   -2.320E-01
    -2.280E-01   -2.240E-01   -2.201E-01   -2.161E-01   -2.121E-01   -2.081E-01   -2.042E-01   -2.002E-01   -1.962E-01   -1.922E-01
    -1.883E-01   -1.843E-01   -1.803E-01   -1.763E-01   -1.723E-01   -1.684E-01   -1.644E-01   -1.604E-01   -1.564E-01   -1.525E-01
    -1.485E-01   -1.445E-01   -1.405E-01   -1.366E-01   -1.326E-01   -1.286E-01   -1.246E-01   -1.207E-01   -1.167E-01   -1.127E-01
    -1.088E-01   -1.048E-01   -1.008E-01   -9.684E-02   -9.287E-02   -8.890E-02   -8.493E-02   -8.095E-02   -7.698E-02   -7.301E-02
    -6.904E-02   -6.507E-02   -6.110E-02   -5.713E-02   -5.316E-02   -4.920E-02   -4.523E-02   -4.126E-02   -3.729E-02   -3.332E-02
    -2.936E-02   -2.539E-02   -2.142E-02   -1.746E-02   -1.349E-02   -9.525E-03   -5.559E-03   -1.594E-03    2.371E-03    6.335E-03
     1.030E-02    1.426E-02    1.823E-02    2.219E-02    2.615E-02    3.011E-02    3.408E-02    3.804E-02    4.200E-02    4.596E-02
     4.992E-02    5.388E-02    5.784E-02    6.180E-02    6.576E-02    6.972E-02    7.368E-02    7.763E-02
 Ala      Conc. = 6.73E+01
