 LCModel (Version 6.3-1L) Copyright: S.W. Provencher.          Ref.: Magn. Reson. Med. 30:672-679 (1993).                
 Slice#2 Row#6 Col#10  PD_05_press_2_raw_act
 36 lines in following concentration table = NCONC+1
    Conc.  %SD /Cr+PCr  Metabolite                                         
  427.397  59%   0.209 Ala                                                 
    0.000 999%   0.000 Asp                                                 
    0.000 999%   0.000 Cr                                                  
 2.05E+03   6%   1.000 PCr                                                 
   35.997 835% 1.8E-02 GABA                                                
  333.379  88%   0.163 Glc                                                 
 1.71E+03  31%   0.834 Gln                                                 
 2.87E+03  22%   1.401 Glu                                                 
  829.992   6%   0.405 GPC                                                 
    0.000 999%   0.000 PCh                                                 
  571.400  29%   0.279 GSH                                                 
 2.88E+03  18%   1.408 Ins                                                 
  953.160  30%   0.465 Lac                                                 
 4.87E+03   7%   2.380 NAA                                                 
   40.597 900% 2.0E-02 NAAG                                                
  266.807  22%   0.130 Scyllo                                              
   19.094 999% 9.3E-03 Tau                                                 
 1.47E+03  14%   0.715 -CrCH2                                              
  829.992   6%   0.405 GPC+PCh                                             
 4.91E+03   4%   2.399 NAA+NAAG                                            
 2.05E+03   6%   1.000 Cr+PCr                                              
 4.58E+03  19%   2.235 Glu+Gln                                             
 2.19E+03  41%   1.068 Lip13a                                              
    0.000 999%   0.000 Lip13b                                              
  319.475 129%   0.156 Lip09                                               
 2.42E+03  21%   1.182 MM09                                                
  366.412  76%   0.179 Lip20                                               
 5.14E+03  14%   2.509 MM20                                                
  830.005  43%   0.405 MM12                                                
 3.00E+03  23%   1.463 MM14                                                
 1.07E+03  39%   0.520 MM17                                                
 2.19E+03  41%   1.068 Lip13a+Lip13b                                       
 6.01E+03  11%   2.937 MM14+Lip13a+Lip13b+MM12                             
 2.74E+03  13%   1.338 MM09+Lip09                                          
 5.50E+03  13%   2.688 MM20+Lip20                                          
   6 lines in following misc. output table
  FWHM = 0.054 ppm    S/N =  11                                            
  Data shift = 0.008 ppm                                                   
  Ph: -40 deg      -4.7 deg/ppm                                            
  alphaB,S = 4.3E+01,   1.5E+02                                            
   14 spline knots.   Ns = 7(1)                                            
  ( 4) 3 infls.   ( 1) 1 extrs.                                            
  498 points on ppm-axis = NY
      4.000000     3.992357     3.984714     3.977070     3.969427     3.961784     3.954141     3.946497     3.938854     3.931211
      3.923568     3.915925     3.908281     3.900638     3.892995     3.885352     3.877708     3.870065     3.862422     3.854779
      3.847136     3.839492     3.831849     3.824206     3.816563     3.808919     3.801276     3.793633     3.785990     3.778347
      3.770703     3.763060     3.755417     3.747774     3.740130     3.732487     3.724844     3.717201     3.709558     3.701914
      3.694271     3.686628     3.678985     3.671341     3.663698     3.656055     3.648412     3.640769     3.633125     3.625482
      3.617839     3.610196     3.602552     3.594909     3.587266     3.579623     3.571980     3.564336     3.556693     3.549050
      3.541407     3.533763     3.526120     3.518477     3.510834     3.503191     3.495547     3.487904     3.480261     3.472618
      3.464974     3.457331     3.449688     3.442045     3.434402     3.426758     3.419115     3.411472     3.403829     3.396185
      3.388542     3.380899     3.373256     3.365613     3.357969     3.350326     3.342683     3.335040     3.327396     3.319753
      3.312110     3.304467     3.296824     3.289180     3.281537     3.273894     3.266251     3.258607     3.250964     3.243321
      3.235678     3.228034     3.220391     3.212748     3.205105     3.197462     3.189818     3.182175     3.174532     3.166889
      3.159245     3.151602     3.143959     3.136316     3.128673     3.121029     3.113386     3.105743     3.098100     3.090456
      3.082813     3.075170     3.067527     3.059884     3.052240     3.044597     3.036954     3.029311     3.021667     3.014024
      3.006381     2.998738     2.991095     2.983451     2.975808     2.968165     2.960522     2.952878     2.945235     2.937592
      2.929949     2.922306     2.914662     2.907019     2.899376     2.891733     2.884089     2.876446     2.868803     2.861160
      2.853517     2.845873     2.838230     2.830587     2.822944     2.815300     2.807657     2.800014     2.792371     2.784728
      2.777084     2.769441     2.761798     2.754155     2.746511     2.738868     2.731225     2.723582     2.715939     2.708295
      2.700652     2.693009     2.685366     2.677722     2.670079     2.662436     2.654793     2.647150     2.639506     2.631863
      2.624220     2.616577     2.608933     2.601290     2.593647     2.586004     2.578361     2.570717     2.563074     2.555431
      2.547788     2.540144     2.532501     2.524858     2.517215     2.509572     2.501928     2.494285     2.486642     2.478999
      2.471355     2.463712     2.456069     2.448426     2.440783     2.433139     2.425496     2.417853     2.410210     2.402566
      2.394923     2.387280     2.379637     2.371994     2.364350     2.356707     2.349064     2.341421     2.333777     2.326134
      2.318491     2.310848     2.303205     2.295561     2.287918     2.280275     2.272632     2.264988     2.257345     2.249702
      2.242059     2.234416     2.226772     2.219129     2.211486     2.203843     2.196199     2.188556     2.180913     2.173270
      2.165627     2.157983     2.150340     2.142697     2.135054     2.127410     2.119767     2.112124     2.104481     2.096838
      2.089194     2.081551     2.073908     2.066265     2.058621     2.050978     2.043335     2.035692     2.028049     2.020405
      2.012762     2.005119     1.997476     1.989833     1.982190     1.974546     1.966903     1.959260     1.951617     1.943974
      1.936331     1.928688     1.921045     1.913402     1.905759     1.898115     1.890472     1.882829     1.875186     1.867543
      1.859900     1.852257     1.844614     1.836971     1.829327     1.821684     1.814041     1.806398     1.798755     1.791112
      1.783469     1.775826     1.768183     1.760540     1.752896     1.745253     1.737610     1.729967     1.722324     1.714681
      1.707038     1.699395     1.691752     1.684108     1.676465     1.668822     1.661179     1.653536     1.645893     1.638250
      1.630607     1.622964     1.615321     1.607677     1.600034     1.592391     1.584748     1.577105     1.569462     1.561819
      1.554176     1.546533     1.538890     1.531246     1.523603     1.515960     1.508317     1.500674     1.493031     1.485388
      1.477745     1.470102     1.462458     1.454815     1.447172     1.439529     1.431886     1.424243     1.416600     1.408957
      1.401314     1.393671     1.386027     1.378384     1.370741     1.363098     1.355455     1.347812     1.340169     1.332526
      1.324883     1.317240     1.309596     1.301953     1.294310     1.286667     1.279024     1.271381     1.263738     1.256095
      1.248452     1.240808     1.233165     1.225522     1.217879     1.210236     1.202593     1.194950     1.187307     1.179664
      1.172021     1.164377     1.156734     1.149091     1.141448     1.133805     1.126162     1.118519     1.110876     1.103233
      1.095590     1.087946     1.080303     1.072660     1.065017     1.057374     1.049731     1.042088     1.034445     1.026802
      1.019158     1.011515     1.003872     0.996229     0.988586     0.980943     0.973300     0.965657     0.958014     0.950371
      0.942727     0.935084     0.927441     0.919798     0.912155     0.904512     0.896869     0.889226     0.881583     0.873940
      0.866296     0.858653     0.851010     0.843367     0.835724     0.828081     0.820438     0.812795     0.805152     0.797508
      0.789865     0.782222     0.774579     0.766936     0.759293     0.751650     0.744007     0.736364     0.728721     0.721077
      0.713434     0.705791     0.698148     0.690505     0.682862     0.675219     0.667576     0.659933     0.652290     0.644646
      0.637003     0.629360     0.621717     0.614074     0.606431     0.598788     0.591145     0.583502     0.575858     0.568215
      0.560572     0.552929     0.545286     0.537643     0.530000     0.522357     0.514714     0.507071     0.499427     0.491784
      0.484141     0.476498     0.468855     0.461212     0.453569     0.445925     0.438282     0.430639     0.422996     0.415353
      0.407710     0.400067     0.392424     0.384780     0.377137     0.369494     0.361851     0.354208     0.346565     0.338922
      0.331278     0.323635     0.315992     0.308349     0.300706     0.293063     0.285420     0.277777     0.270133     0.262490
      0.254847     0.247204     0.239561     0.231918     0.224275     0.216631     0.208988     0.201345
 NY phased data points follow
   1.37875E+01  1.77401E+01  2.92103E+01  3.15931E+01  1.59931E+01  1.81247E+01  2.07466E+01  2.40181E+01  2.27881E+01  2.46884E+01
   2.93354E+01  2.71099E+01  1.75382E+01  2.22623E+01  2.39889E+01  2.25596E+01  1.57954E+01  2.69662E+01  1.30706E+01  1.91328E+01
   8.89427E+00  2.75011E+01  1.88193E+01  1.64629E+01  2.59930E+01  2.51817E+01  2.87702E+01  3.82348E+01  2.26549E+01  2.86219E+01
   1.56278E+01  1.79763E+01  1.65572E+01  2.31137E+01  1.66144E+01  2.15646E+01  2.42453E+01  3.75240E+01  1.98908E+01  2.76114E+01
   2.30798E+01  2.34711E+01  1.34594E+01  2.89594E+01  2.49589E+01  3.53877E+01  3.29447E+01  3.89448E+01  2.03594E+01  3.81523E+01
   2.17892E+01  3.30799E+01  1.75116E+01  2.57042E+01  1.86392E+01  3.57472E+01  2.48142E+01  2.13547E+01  1.61532E+01  3.75536E+01
   1.35366E+01  9.96449E+00  1.10524E+01  1.29705E+01  5.10864E+00 -6.34816E+00  2.24233E+00  4.64853E+00  9.27720E+00  1.30437E+01
   1.35925E+01  1.31467E+01  7.58685E+00  1.65931E+01  1.11981E+01  1.33751E+01  6.65933E+00  1.90777E+01  9.56332E+00  1.83269E+01
   1.19809E+01  1.27495E+01  1.64103E+01  1.29851E+01  2.18147E+01  2.27795E+01  2.16042E+01  1.54622E+01  1.58407E+01  2.69267E+01
   1.77844E+01  1.74138E+01  1.13695E+01  2.47765E+01  1.61421E+01  3.00615E+01  2.53684E+01  3.09104E+01  2.72740E+01  4.11598E+01
   5.10214E+01  6.45359E+01  7.40924E+01  7.66120E+01  7.15443E+01  7.78787E+01  5.15771E+01  3.91475E+01  3.29530E+01  2.01629E+01
   1.92493E+01  1.12244E+01  9.48643E+00  2.29848E+01  1.39782E+01  1.08961E+01  1.04402E+01  5.61316E+00  1.66343E+01  1.27788E+01
   1.96974E+01  1.20285E+01  2.24366E+01  1.66304E+01  2.14538E+01  6.41216E+01  6.98521E+01  8.19645E+01  6.92715E+01  8.10299E+01
   5.83314E+01  5.07144E+01  3.57035E+01  2.00407E+01  2.79300E+01  1.56995E+01  1.90641E+01  1.31873E+01  9.00288E+00  1.96397E+01
   9.14322E+00  1.71054E+01  9.32318E+00  1.65881E+01  5.22618E+00  5.89756E+00  6.79045E+00  1.09079E+01  5.74142E-01  1.34421E+01
   1.40980E+01  1.65972E+01  6.55897E+00  1.07149E+01  7.55798E+00  6.75819E+00  8.45959E+00  1.23868E+01  7.26708E+00  1.65563E+01
  -1.14078E+00  1.22041E+01  6.04493E+00  3.13610E+00  2.31768E+00  3.76517E+00  6.68458E+00 -2.76989E+00 -1.68182E+01 -7.54947E+00
  -1.10636E+01 -1.78235E+01 -1.34730E+01 -2.08773E+01 -1.69313E+01 -1.78863E+01 -2.51276E+01 -2.25274E+01 -2.41530E+01 -1.80817E+01
  -1.01386E+01 -1.55035E+01 -9.29118E+00 -8.96095E+00 -3.95914E+00 -1.50262E+00 -2.66286E+00 -5.50299E+00 -1.78256E+01 -1.29961E+00
  -8.99161E+00 -4.93987E+00  1.24344E+00  3.34347E+00  1.57551E+00  1.23887E+00 -5.38329E+00 -7.80688E+00 -8.49285E+00 -1.16307E+01
  -3.90967E+00  1.69750E+00 -5.12411E+00  4.76107E+00 -1.37997E+00  1.44131E+01  1.15107E+01  2.44932E+00 -2.88032E+00  4.76023E+00
   6.90971E+00 -3.55108E+00  1.18091E+01  2.42533E+01  1.96518E+01  1.89257E+01  3.21776E+01  3.50396E+01  3.24597E+01  1.85948E+01
   1.09414E+01  1.02579E+01  2.82128E+00  4.57025E+00  1.17609E+00  6.99275E+00  1.64310E+01  9.66384E+00  1.97351E+01  1.96105E+01
   2.43882E+01  1.95643E+01  1.77945E+01  2.35972E+01  1.79973E+01  2.35934E+01  1.68119E+01  1.91409E+01  2.36272E+01  2.32609E+01
   1.88059E+01  1.34421E+01  1.78000E+01  6.42215E+00  4.88718E+00  1.74949E+01  1.19863E+01  2.58784E+01  2.68957E+01  2.12150E+01
   1.75537E+01  2.82894E+01  3.56257E+01  4.68453E+01  6.04632E+01  6.80665E+01  7.51018E+01  9.41306E+01  1.27998E+02  1.56330E+02
   1.84333E+02  1.87953E+02  1.64459E+02  1.38570E+02  1.01006E+02  7.28217E+01  5.04408E+01  3.91950E+01  3.56457E+01  2.31173E+01
   1.95691E+01  1.21257E+01  1.62607E+01  2.48757E+01  6.28935E+00  1.29620E+01  4.69205E+00  7.45488E+00  1.81449E+01  1.23347E+01
   1.57665E+01  9.11053E+00  1.05739E+01  1.19759E+01  5.15103E+00  1.49392E+01  1.36569E+01  8.65110E+00  7.94879E+00  1.00287E+00
   5.53055E+00  8.74104E+00  4.76751E+00  7.97611E+00  5.28660E+00  1.37230E+01  1.96656E+01  1.29555E+01  6.56725E+00  4.44796E+00
   1.17241E+01  1.09316E+01  7.22616E+00  1.93495E+01  1.65429E+01  1.35072E+01  2.04248E+01  8.82313E+00  1.12350E+01  1.11323E+01
   9.62536E+00  1.15419E+01  7.15487E+00  1.16183E+01  8.24527E+00  1.42923E+01  1.54828E+01  1.47723E+01  1.72713E+01  1.83845E+01
   6.92541E+00  1.35102E+01  1.41912E+01  2.14104E+01  1.63404E+01  2.13652E+01  2.17718E+01  1.90963E+01  2.29083E+01  1.82784E+01
   1.87824E+01  2.23646E+01  1.18696E+01  1.15246E+01  2.20901E+01  2.13346E+01  3.00848E+01  1.84457E+01  2.37480E+01  2.13401E+01
   2.65175E+01  2.27822E+01  3.18098E+01  3.07669E+01  2.97566E+01  3.51397E+01  3.68681E+01  1.80006E+01  2.68985E+01  1.35109E+01
   2.06793E+01  7.01072E+00  1.12597E+01  9.94945E+00  1.74807E+01  1.51472E+01  2.60474E+01  1.60360E+01  1.92962E+01  1.50515E+01
   2.37481E+01  2.89285E+01  2.54571E+01  2.09101E+01  3.62763E+01  2.41290E+01  9.02872E+00  2.16337E+01  1.43770E+01  1.82686E+01
   2.38679E+01  2.29989E+01  1.26061E+01  1.19134E+01  1.79217E+01  9.65432E+00  7.89274E+00  7.32068E+00  5.89881E+00 -1.00236E+00
   4.47648E+00  6.95589E+00  7.25734E+00  7.65564E+00  2.07784E+01  9.45050E+00  2.21481E+01  1.14571E+01  8.35529E+00  1.26024E+01
   1.13959E+01  1.63377E+01  1.15847E+01  1.92598E+01  1.16649E+01  1.78299E+01  1.07489E+01  1.55552E+01  2.08234E+01  1.68489E+01
   8.54718E+00  1.46207E+01  1.30084E+01  2.26077E+01  1.58437E+01  2.16620E+01  2.72289E+01  1.85673E+01  2.06310E+01  2.19716E+01
   1.50575E+01  1.78859E+01  2.57776E+01  1.29575E+01  2.67561E+01  1.31391E+01  1.99270E+01  1.23284E+01  1.62372E+01  1.30550E+01
   1.59489E+01  7.62089E+00  8.77483E+00  2.91736E+00  1.54589E+01  6.65046E+00  3.67850E+00  6.44265E+00  8.14705E+00  9.65333E+00
   1.24535E+01  1.38192E+01  7.39229E+00  3.42669E+00 -2.20253E+00  4.42253E+00 -3.00343E+00 -9.19186E+00  1.80348E+00 -5.44914E+00
  -3.03106E+00  2.73330E+00 -3.83045E+00  2.57492E+00 -2.45518E+00  8.48991E-01  9.68313E+00  3.85481E+00 -7.07251E+00 -1.42354E+00
   5.74712E+00  7.72721E+00  2.84211E-02 -1.21852E+00 -1.53679E+00 -1.96239E+00  7.11141E-01 -1.41935E-01  6.74083E+00 -2.39962E+00
   5.21041E+00  3.93970E+00 -6.34110E-01 -2.82817E-01  2.75119E+00 -6.36973E+00 -1.01030E+01  8.21207E+00  2.38615E+00  1.60287E+00
   9.03519E+00  2.30236E+00 -1.47716E+00  6.11821E+00 -4.11686E+00  8.26709E+00  6.83647E+00  7.83049E+00  3.44495E+00  7.69487E+00
  -9.27185E-01  2.87641E+00  8.53236E-01  2.72378E+00  7.91833E+00 -2.07565E+00  4.23512E+00  4.59665E+00 -2.05605E+00  1.06621E+01
  -4.31579E+00  2.52209E+00 -2.84387E+00  7.20020E+00  5.16451E+00  6.69735E+00  1.25948E+01  1.23599E+00
 NY points of the fit to the data follow
   1.57815E+01  1.50881E+01  1.52504E+01  1.63469E+01  1.78977E+01  1.96734E+01  2.17113E+01  2.39733E+01  2.62086E+01  2.78925E+01
   2.85575E+01  2.79582E+01  2.62870E+01  2.40681E+01  2.18596E+01  2.00580E+01  1.86856E+01  1.77065E+01  1.70286E+01  1.68154E+01
   1.68716E+01  1.70098E+01  1.73835E+01  1.79221E+01  1.83889E+01  1.89631E+01  1.99802E+01  2.16407E+01  2.38461E+01  2.61138E+01
   2.80538E+01  2.93995E+01  2.97490E+01  2.89380E+01  2.72039E+01  2.47582E+01  2.19179E+01  1.88438E+01  1.62140E+01  1.48819E+01
   1.52214E+01  1.69051E+01  1.92359E+01  2.20847E+01  2.55423E+01  2.91928E+01  3.22156E+01  3.37259E+01  3.30462E+01  3.01487E+01
   2.57325E+01  2.09721E+01  1.71403E+01  1.46545E+01  1.33414E+01  1.30032E+01  1.35948E+01  1.48786E+01  1.63416E+01  1.74924E+01
   1.80014E+01  1.76320E+01  1.64385E+01  1.47316E+01  1.31339E+01  1.21661E+01  1.18760E+01  1.21459E+01  1.29243E+01  1.40213E+01
   1.51705E+01  1.60958E+01  1.66280E+01  1.67381E+01  1.64747E+01  1.59557E+01  1.53710E+01  1.48255E+01  1.44126E+01  1.43228E+01
   1.47845E+01  1.52810E+01  1.57556E+01  1.66151E+01  1.79640E+01  1.93319E+01  2.00505E+01  1.96888E+01  1.82438E+01  1.61820E+01
   1.40908E+01  1.25072E+01  1.17099E+01  1.15895E+01  1.20181E+01  1.41327E+01  1.94593E+01  2.54435E+01  3.15744E+01  3.99526E+01
   5.17407E+01  6.50884E+01  7.61395E+01  8.12557E+01  7.86644E+01  6.91543E+01  5.55446E+01  4.14835E+01  2.96656E+01  2.07643E+01
   1.41002E+01  9.71778E+00  8.29373E+00  8.12850E+00  8.23419E+00  8.42512E+00  8.66068E+00  8.97247E+00  9.46115E+00  1.05453E+01
   1.38726E+01  1.95522E+01  2.55158E+01  3.22435E+01  4.14119E+01  5.30687E+01  6.48106E+01  7.31168E+01  7.53261E+01  7.08274E+01
   6.10606E+01  4.88058E+01  3.69680E+01  2.71146E+01  1.92679E+01  1.29749E+01  9.09605E+00  7.84471E+00  7.77409E+00  8.26866E+00
   8.93943E+00  9.50153E+00  9.81459E+00  9.78106E+00  9.43446E+00  8.92610E+00  8.37039E+00  7.82467E+00  7.34847E+00  6.93956E+00
   6.62338E+00  6.36837E+00  6.16624E+00  5.94509E+00  5.57674E+00  5.21321E+00  4.91912E+00  4.61624E+00  4.20074E+00  3.48338E+00
   2.70324E+00  2.28271E+00  2.40554E+00  2.87151E+00  3.28831E+00  3.29339E+00  2.72527E+00  1.69281E+00  4.68113E-01 -8.07962E-01
  -1.94206E+00 -2.76803E+00 -3.52016E+00 -4.34677E+00 -5.14493E+00 -5.60344E+00 -5.49351E+00 -4.98626E+00 -4.43150E+00 -4.10412E+00
  -4.10880E+00 -4.09364E+00 -3.83546E+00 -3.36679E+00 -2.75693E+00 -2.00776E+00 -8.73860E-01  8.91744E-01  3.20977E+00  5.62774E+00
   7.51544E+00  8.45337E+00  8.47426E+00  7.86840E+00  7.05975E+00  6.30160E+00  5.82894E+00  6.08959E+00  7.14393E+00  8.85381E+00
   1.10571E+01  1.33221E+01  1.50003E+01  1.55554E+01  1.49121E+01  1.28163E+01  9.09680E+00  4.43267E+00  3.33336E-02 -2.99885E+00
  -3.84841E+00 -2.76845E+00  1.20321E-01  4.71153E+00  1.02635E+01  1.54161E+01  1.87169E+01  1.94171E+01  1.75403E+01  1.33865E+01
   7.89591E+00  2.47967E+00 -1.52418E+00 -3.10076E+00 -2.06893E+00  1.17708E+00  5.90233E+00  1.05912E+01  1.40237E+01  1.59362E+01
   1.68867E+01  1.71702E+01  1.68557E+01  1.64572E+01  1.65741E+01  1.71843E+01  1.81098E+01  1.92202E+01  2.02867E+01  2.08202E+01
   2.03752E+01  1.90591E+01  1.75865E+01  1.66634E+01  1.65050E+01  1.71452E+01  1.86125E+01  2.05357E+01  2.24066E+01  2.40225E+01
   2.54144E+01  2.67594E+01  2.96062E+01  3.89884E+01  5.24701E+01  6.58531E+01  8.17897E+01  1.04287E+02  1.32282E+02  1.58994E+02
   1.76214E+02  1.78340E+02  1.64562E+02  1.39000E+02  1.08959E+02  8.13449E+01  5.93242E+01  4.20619E+01  2.85602E+01  2.12890E+01
   1.83963E+01  1.66774E+01  1.54918E+01  1.47060E+01  1.42222E+01  1.38503E+01  1.34852E+01  1.30703E+01  1.25605E+01  1.19707E+01
   1.13598E+01  1.07718E+01  1.02389E+01  9.80455E+00  9.49209E+00  9.28014E+00  9.13912E+00  9.04722E+00  9.00006E+00  8.99675E+00
   9.02977E+00  9.09673E+00  9.20426E+00  9.35063E+00  9.53293E+00  9.74449E+00  9.97941E+00  1.02300E+01  1.04890E+01  1.07484E+01
   1.10028E+01  1.12447E+01  1.14690E+01  1.16692E+01  1.18422E+01  1.19848E+01  1.20970E+01  1.21793E+01  1.22369E+01  1.22762E+01
   1.23075E+01  1.23396E+01  1.23837E+01  1.24503E+01  1.25524E+01  1.27018E+01  1.29134E+01  1.32017E+01  1.35893E+01  1.41172E+01
   1.48763E+01  1.57875E+01  1.66041E+01  1.74056E+01  1.82918E+01  1.91101E+01  1.95218E+01  1.92412E+01  1.83316E+01  1.72364E+01
   1.61843E+01  1.54095E+01  1.52668E+01  1.60063E+01  1.75778E+01  1.96997E+01  2.20561E+01  2.42395E+01  2.58467E+01  2.69172E+01
   2.78525E+01  2.86776E+01  2.90526E+01  2.92363E+01  2.95086E+01  2.96799E+01  2.89336E+01  2.66346E+01  2.31874E+01  1.92923E+01
   1.53781E+01  1.22439E+01  1.08507E+01  1.16290E+01  1.41905E+01  1.77069E+01  2.14066E+01  2.43795E+01  2.58356E+01  2.58725E+01
   2.50072E+01  2.37606E+01  2.23591E+01  2.07994E+01  1.93813E+01  1.83018E+01  1.73986E+01  1.65850E+01  1.58277E+01  1.51108E+01
   1.44290E+01  1.37804E+01  1.31669E+01  1.25901E+01  1.20537E+01  1.15599E+01  1.11134E+01  1.07172E+01  1.03757E+01  1.00912E+01
   9.86769E+00  9.70741E+00  9.61455E+00  9.59164E+00  9.64228E+00  9.76813E+00  9.97201E+00  1.02550E+01  1.06190E+01  1.10633E+01
   1.15868E+01  1.21854E+01  1.28544E+01  1.35857E+01  1.43705E+01  1.51956E+01  1.60465E+01  1.69053E+01  1.77538E+01  1.85713E+01
   1.93376E+01  2.00313E+01  2.06330E+01  2.11242E+01  2.14903E+01  2.17192E+01  2.18038E+01  2.17398E+01  2.15285E+01  2.11746E+01
   2.06885E+01  2.00825E+01  1.93729E+01  1.85765E+01  1.77126E+01  1.68001E+01  1.58584E+01  1.49047E+01  1.39552E+01  1.30232E+01
   1.21208E+01  1.12566E+01  1.04385E+01  9.67013E+00  8.95467E+00  8.29221E+00  7.68296E+00  7.12479E+00  6.61592E+00  6.15249E+00
   5.73157E+00  5.34892E+00  5.00179E+00  4.68621E+00  4.39951E+00  4.13782E+00  3.89884E+00  3.67948E+00  3.47829E+00  3.29272E+00
   3.12150E+00  2.96227E+00  2.81424E+00  2.67576E+00  2.54653E+00  2.42502E+00  2.31089E+00  2.20267E+00  2.10041E+00  2.00312E+00
   1.91103E+00  1.82303E+00  1.73917E+00  1.65847E+00  1.58133E+00  1.50707E+00  1.43605E+00  1.36732E+00  1.30113E+00  1.23674E+00
   1.17473E+00  1.11449E+00  1.05639E+00  9.99593E-01  9.44476E-01  8.90462E-01  8.38184E-01  7.87022E-01  7.37338E-01  6.88349E-01
   6.40554E-01  5.93468E-01  5.47714E-01  5.02646E-01  4.58617E-01  4.14934E-01  3.72176E-01  3.29902E-01  2.88674E-01  2.47801E-01
   2.07646E-01  1.67608E-01  1.28322E-01  8.93431E-02  5.11635E-02  1.30769E-02 -2.45198E-02 -6.21388E-02 -9.91315E-02 -1.35979E-01
  -1.72267E-01 -2.08700E-01 -2.44829E-01 -2.81102E-01 -3.16893E-01 -3.52745E-01 -3.88308E-01 -4.24260E-01
 NY background values follow
     6.506E+00    6.489E+00    6.471E+00    6.454E+00    6.437E+00    6.420E+00    6.402E+00    6.385E+00    6.368E+00    6.351E+00
     6.334E+00    6.316E+00    6.299E+00    6.282E+00    6.265E+00    6.247E+00    6.230E+00    6.213E+00    6.195E+00    6.178E+00
     6.161E+00    6.144E+00    6.126E+00    6.109E+00    6.092E+00    6.074E+00    6.057E+00    6.040E+00    6.023E+00    6.005E+00
     5.988E+00    5.971E+00    5.953E+00    5.936E+00    5.919E+00    5.901E+00    5.884E+00    5.867E+00    5.849E+00    5.832E+00
     5.815E+00    5.797E+00    5.780E+00    5.763E+00    5.745E+00    5.728E+00    5.710E+00    5.693E+00    5.676E+00    5.658E+00
     5.641E+00    5.624E+00    5.606E+00    5.589E+00    5.571E+00    5.554E+00    5.537E+00    5.519E+00    5.502E+00    5.484E+00
     5.467E+00    5.450E+00    5.432E+00    5.415E+00    5.397E+00    5.380E+00    5.363E+00    5.345E+00    5.328E+00    5.310E+00
     5.293E+00    5.275E+00    5.258E+00    5.240E+00    5.223E+00    5.206E+00    5.188E+00    5.171E+00    5.153E+00    5.136E+00
     5.118E+00    5.101E+00    5.083E+00    5.066E+00    5.048E+00    5.031E+00    5.014E+00    4.996E+00    4.979E+00    4.961E+00
     4.944E+00    4.926E+00    4.909E+00    4.891E+00    4.874E+00    4.856E+00    4.839E+00    4.821E+00    4.804E+00    4.786E+00
     4.769E+00    4.751E+00    4.734E+00    4.716E+00    4.699E+00    4.681E+00    4.664E+00    4.646E+00    4.629E+00    4.611E+00
     4.594E+00    4.576E+00    4.558E+00    4.541E+00    4.523E+00    4.506E+00    4.488E+00    4.471E+00    4.453E+00    4.436E+00
     4.418E+00    4.401E+00    4.383E+00    4.366E+00    4.348E+00    4.330E+00    4.313E+00    4.295E+00    4.278E+00    4.260E+00
     4.243E+00    4.225E+00    4.208E+00    4.190E+00    4.172E+00    4.155E+00    4.137E+00    4.120E+00    4.102E+00    4.085E+00
     4.067E+00    4.049E+00    4.032E+00    4.014E+00    3.997E+00    3.979E+00    3.962E+00    3.944E+00    3.926E+00    3.909E+00
     3.891E+00    3.874E+00    3.856E+00    3.839E+00    3.821E+00    3.803E+00    3.786E+00    3.768E+00    3.751E+00    3.733E+00
     3.715E+00    3.698E+00    3.680E+00    3.663E+00    3.645E+00    3.627E+00    3.610E+00    3.592E+00    3.575E+00    3.557E+00
     3.539E+00    3.522E+00    3.504E+00    3.487E+00    3.469E+00    3.451E+00    3.434E+00    3.416E+00    3.399E+00    3.381E+00
     3.363E+00    3.346E+00    3.328E+00    3.311E+00    3.293E+00    3.275E+00    3.258E+00    3.240E+00    3.223E+00    3.205E+00
     3.187E+00    3.170E+00    3.152E+00    3.135E+00    3.117E+00    3.099E+00    3.082E+00    3.064E+00    3.046E+00    3.029E+00
     3.011E+00    2.994E+00    2.976E+00    2.958E+00    2.941E+00    2.923E+00    2.906E+00    2.888E+00    2.870E+00    2.853E+00
     2.835E+00    2.818E+00    2.800E+00    2.782E+00    2.765E+00    2.747E+00    2.729E+00    2.712E+00    2.694E+00    2.677E+00
     2.659E+00    2.641E+00    2.624E+00    2.606E+00    2.589E+00    2.571E+00    2.553E+00    2.536E+00    2.518E+00    2.500E+00
     2.483E+00    2.465E+00    2.448E+00    2.430E+00    2.412E+00    2.395E+00    2.377E+00    2.360E+00    2.342E+00    2.324E+00
     2.307E+00    2.289E+00    2.272E+00    2.254E+00    2.236E+00    2.219E+00    2.201E+00    2.184E+00    2.166E+00    2.148E+00
     2.131E+00    2.113E+00    2.095E+00    2.078E+00    2.060E+00    2.043E+00    2.025E+00    2.007E+00    1.990E+00    1.972E+00
     1.955E+00    1.937E+00    1.919E+00    1.902E+00    1.884E+00    1.867E+00    1.849E+00    1.831E+00    1.814E+00    1.796E+00
     1.779E+00    1.761E+00    1.743E+00    1.726E+00    1.708E+00    1.691E+00    1.673E+00    1.656E+00    1.638E+00    1.620E+00
     1.603E+00    1.585E+00    1.568E+00    1.550E+00    1.532E+00    1.515E+00    1.497E+00    1.480E+00    1.462E+00    1.444E+00
     1.427E+00    1.409E+00    1.392E+00    1.374E+00    1.357E+00    1.339E+00    1.321E+00    1.304E+00    1.286E+00    1.269E+00
     1.251E+00    1.234E+00    1.216E+00    1.198E+00    1.181E+00    1.163E+00    1.146E+00    1.128E+00    1.111E+00    1.093E+00
     1.075E+00    1.058E+00    1.040E+00    1.023E+00    1.005E+00    9.876E-01    9.701E-01    9.525E-01    9.350E-01    9.174E-01
     8.999E-01    8.823E-01    8.648E-01    8.472E-01    8.297E-01    8.121E-01    7.946E-01    7.771E-01    7.595E-01    7.420E-01
     7.244E-01    7.069E-01    6.894E-01    6.718E-01    6.543E-01    6.368E-01    6.192E-01    6.017E-01    5.842E-01    5.667E-01
     5.491E-01    5.316E-01    5.141E-01    4.966E-01    4.791E-01    4.615E-01    4.440E-01    4.265E-01    4.090E-01    3.915E-01
     3.740E-01    3.565E-01    3.390E-01    3.215E-01    3.040E-01    2.865E-01    2.690E-01    2.515E-01    2.340E-01    2.165E-01
     1.990E-01    1.815E-01    1.640E-01    1.465E-01    1.290E-01    1.115E-01    9.405E-02    7.657E-02    5.909E-02    4.161E-02
     2.414E-02    6.664E-03   -1.081E-02   -2.828E-02   -4.575E-02   -6.321E-02   -8.068E-02   -9.814E-02   -1.156E-01   -1.331E-01
    -1.505E-01   -1.680E-01   -1.854E-01   -2.029E-01   -2.203E-01   -2.378E-01   -2.552E-01   -2.727E-01   -2.901E-01   -3.075E-01
    -3.250E-01   -3.424E-01   -3.598E-01   -3.773E-01   -3.947E-01   -4.121E-01   -4.296E-01   -4.470E-01   -4.644E-01   -4.818E-01
    -4.992E-01   -5.166E-01   -5.341E-01   -5.515E-01   -5.689E-01   -5.863E-01   -6.037E-01   -6.211E-01   -6.385E-01   -6.559E-01
    -6.733E-01   -6.907E-01   -7.080E-01   -7.254E-01   -7.428E-01   -7.602E-01   -7.776E-01   -7.950E-01   -8.123E-01   -8.297E-01
    -8.471E-01   -8.644E-01   -8.818E-01   -8.992E-01   -9.165E-01   -9.339E-01   -9.512E-01   -9.686E-01   -9.859E-01   -1.003E+00
    -1.021E+00   -1.038E+00   -1.055E+00   -1.073E+00   -1.090E+00   -1.107E+00   -1.125E+00   -1.142E+00   -1.159E+00   -1.177E+00
    -1.194E+00   -1.211E+00   -1.229E+00   -1.246E+00   -1.263E+00   -1.280E+00   -1.298E+00   -1.315E+00   -1.332E+00   -1.350E+00
    -1.367E+00   -1.384E+00   -1.402E+00   -1.419E+00   -1.436E+00   -1.453E+00   -1.471E+00   -1.488E+00   -1.505E+00   -1.522E+00
    -1.540E+00   -1.557E+00   -1.574E+00   -1.592E+00   -1.609E+00   -1.626E+00   -1.643E+00   -1.661E+00   -1.678E+00   -1.695E+00
    -1.712E+00   -1.729E+00   -1.747E+00   -1.764E+00   -1.781E+00   -1.798E+00   -1.816E+00   -1.833E+00   -1.850E+00   -1.867E+00
    -1.884E+00   -1.902E+00   -1.919E+00   -1.936E+00   -1.953E+00   -1.970E+00   -1.988E+00   -2.005E+00   -2.022E+00   -2.039E+00
    -2.056E+00   -2.073E+00   -2.091E+00   -2.108E+00   -2.125E+00   -2.142E+00   -2.159E+00   -2.176E+00
 Ala      Conc. = 4.27E+02
