 LCModel (Version 6.3-1L) Copyright: S.W. Provencher.          Ref.: Magn. Reson. Med. 30:672-679 (1993).                
 Slice#3 Row#9 Col#11  PD_05_press_2_raw_act
 36 lines in following concentration table = NCONC+1
    Conc.  %SD /Cr+PCr  Metabolite                                         
  461.503  45%   0.598 Ala                                                 
   31.633 463% 4.1E-02 Asp                                                 
    0.000 999%   0.000 Cr                                                  
  772.064   8%   1.000 PCr                                                 
   81.947 113%   0.106 GABA                                                
   87.341 104%   0.113 Glc                                                 
 1.37E+03  35%   1.781 Gln                                                 
 1.01E+03  54%   1.305 Glu                                                 
  179.533  13%   0.233 GPC                                                 
    0.000 999%   0.000 PCh                                                 
   67.149 151% 8.7E-02 GSH                                                 
  810.781  33%   1.050 Ins                                                 
  135.056 175%   0.175 Lac                                                 
 1.37E+03   5%   1.778 NAA                                                 
    0.000 999%   0.000 NAAG                                                
   42.267  55% 5.5E-02 Scyllo                                              
  174.455  79%   0.226 Tau                                                 
  428.661  25%   0.555 -CrCH2                                              
  179.533  13%   0.233 GPC+PCh                                             
 1.37E+03   5%   1.778 NAA+NAAG                                            
  772.064   8%   1.000 Cr+PCr                                              
 2.38E+03  38%   3.086 Glu+Gln                                             
  461.235  45%   0.597 Lip13a                                              
    0.000 999%   0.000 Lip13b                                              
    0.000 999%   0.000 Lip09                                               
  685.659  18%   0.888 MM09                                                
   93.551  77%   0.121 Lip20                                               
 1.19E+03  18%   1.537 MM20                                                
  214.430  25%   0.278 MM12                                                
  600.435  27%   0.778 MM14                                                
  362.986  29%   0.470 MM17                                                
  461.235  45%   0.597 Lip13a+Lip13b                                       
 1.28E+03  19%   1.653 MM14+Lip13a+Lip13b+MM12                             
  685.659  18%   0.888 MM09+Lip09                                          
 1.28E+03  17%   1.658 MM20+Lip20                                          
   6 lines in following misc. output table
  FWHM = 0.084 ppm    S/N =   5                                            
  Data shift = 0.023 ppm                                                   
  Ph:  -3 deg      -1.6 deg/ppm                                            
  alphaB,S = 8.5E+01,   3.1E+02                                            
   14 spline knots.   Ns =10(1)                                            
   4 inflections.     1 extrema                                            
  498 points on ppm-axis = NY
      4.000000     3.992357     3.984714     3.977070     3.969427     3.961784     3.954141     3.946497     3.938854     3.931211
      3.923568     3.915925     3.908281     3.900638     3.892995     3.885352     3.877708     3.870065     3.862422     3.854779
      3.847136     3.839492     3.831849     3.824206     3.816563     3.808919     3.801276     3.793633     3.785990     3.778347
      3.770703     3.763060     3.755417     3.747774     3.740130     3.732487     3.724844     3.717201     3.709558     3.701914
      3.694271     3.686628     3.678985     3.671341     3.663698     3.656055     3.648412     3.640769     3.633125     3.625482
      3.617839     3.610196     3.602552     3.594909     3.587266     3.579623     3.571980     3.564336     3.556693     3.549050
      3.541407     3.533763     3.526120     3.518477     3.510834     3.503191     3.495547     3.487904     3.480261     3.472618
      3.464974     3.457331     3.449688     3.442045     3.434402     3.426758     3.419115     3.411472     3.403829     3.396185
      3.388542     3.380899     3.373256     3.365613     3.357969     3.350326     3.342683     3.335040     3.327396     3.319753
      3.312110     3.304467     3.296824     3.289180     3.281537     3.273894     3.266251     3.258607     3.250964     3.243321
      3.235678     3.228034     3.220391     3.212748     3.205105     3.197462     3.189818     3.182175     3.174532     3.166889
      3.159245     3.151602     3.143959     3.136316     3.128673     3.121029     3.113386     3.105743     3.098100     3.090456
      3.082813     3.075170     3.067527     3.059884     3.052240     3.044597     3.036954     3.029311     3.021667     3.014024
      3.006381     2.998738     2.991095     2.983451     2.975808     2.968165     2.960522     2.952878     2.945235     2.937592
      2.929949     2.922306     2.914662     2.907019     2.899376     2.891733     2.884089     2.876446     2.868803     2.861160
      2.853517     2.845873     2.838230     2.830587     2.822944     2.815300     2.807657     2.800014     2.792371     2.784728
      2.777084     2.769441     2.761798     2.754155     2.746511     2.738868     2.731225     2.723582     2.715939     2.708295
      2.700652     2.693009     2.685366     2.677722     2.670079     2.662436     2.654793     2.647150     2.639506     2.631863
      2.624220     2.616577     2.608933     2.601290     2.593647     2.586004     2.578361     2.570717     2.563074     2.555431
      2.547788     2.540144     2.532501     2.524858     2.517215     2.509572     2.501928     2.494285     2.486642     2.478999
      2.471355     2.463712     2.456069     2.448426     2.440783     2.433139     2.425496     2.417853     2.410210     2.402566
      2.394923     2.387280     2.379637     2.371994     2.364350     2.356707     2.349064     2.341421     2.333777     2.326134
      2.318491     2.310848     2.303205     2.295561     2.287918     2.280275     2.272632     2.264988     2.257345     2.249702
      2.242059     2.234416     2.226772     2.219129     2.211486     2.203843     2.196199     2.188556     2.180913     2.173270
      2.165627     2.157983     2.150340     2.142697     2.135054     2.127410     2.119767     2.112124     2.104481     2.096838
      2.089194     2.081551     2.073908     2.066265     2.058621     2.050978     2.043335     2.035692     2.028049     2.020405
      2.012762     2.005119     1.997476     1.989833     1.982190     1.974546     1.966903     1.959260     1.951617     1.943974
      1.936331     1.928688     1.921045     1.913402     1.905759     1.898115     1.890472     1.882829     1.875186     1.867543
      1.859900     1.852257     1.844614     1.836971     1.829327     1.821684     1.814041     1.806398     1.798755     1.791112
      1.783469     1.775826     1.768183     1.760540     1.752896     1.745253     1.737610     1.729967     1.722324     1.714681
      1.707038     1.699395     1.691752     1.684108     1.676465     1.668822     1.661179     1.653536     1.645893     1.638250
      1.630607     1.622964     1.615321     1.607677     1.600034     1.592391     1.584748     1.577105     1.569462     1.561819
      1.554176     1.546533     1.538890     1.531246     1.523603     1.515960     1.508317     1.500674     1.493031     1.485388
      1.477745     1.470102     1.462458     1.454815     1.447172     1.439529     1.431886     1.424243     1.416600     1.408957
      1.401314     1.393671     1.386027     1.378384     1.370741     1.363098     1.355455     1.347812     1.340169     1.332526
      1.324883     1.317240     1.309596     1.301953     1.294310     1.286667     1.279024     1.271381     1.263738     1.256095
      1.248452     1.240808     1.233165     1.225522     1.217879     1.210236     1.202593     1.194950     1.187307     1.179664
      1.172021     1.164377     1.156734     1.149091     1.141448     1.133805     1.126162     1.118519     1.110876     1.103233
      1.095590     1.087946     1.080303     1.072660     1.065017     1.057374     1.049731     1.042088     1.034445     1.026802
      1.019158     1.011515     1.003872     0.996229     0.988586     0.980943     0.973300     0.965657     0.958014     0.950371
      0.942727     0.935084     0.927441     0.919798     0.912155     0.904512     0.896869     0.889226     0.881583     0.873940
      0.866296     0.858653     0.851010     0.843367     0.835724     0.828081     0.820438     0.812795     0.805152     0.797508
      0.789865     0.782222     0.774579     0.766936     0.759293     0.751650     0.744007     0.736364     0.728721     0.721077
      0.713434     0.705791     0.698148     0.690505     0.682862     0.675219     0.667576     0.659933     0.652290     0.644646
      0.637003     0.629360     0.621717     0.614074     0.606431     0.598788     0.591145     0.583502     0.575858     0.568215
      0.560572     0.552929     0.545286     0.537643     0.530000     0.522357     0.514714     0.507071     0.499427     0.491784
      0.484141     0.476498     0.468855     0.461212     0.453569     0.445925     0.438282     0.430639     0.422996     0.415353
      0.407710     0.400067     0.392424     0.384780     0.377137     0.369494     0.361851     0.354208     0.346565     0.338922
      0.331278     0.323635     0.315992     0.308349     0.300706     0.293063     0.285420     0.277777     0.270133     0.262490
      0.254847     0.247204     0.239561     0.231918     0.224275     0.216631     0.208988     0.201345
 NY phased data points follow
   1.15069E+01  1.47542E+01  2.02033E+01  1.46967E+01  1.52015E+01  8.15057E+00  1.79126E+01  1.61008E+01  1.10911E+01  1.26041E+01
   5.70740E+00  9.11077E+00  7.80757E+00  9.52417E+00  5.20129E+00  1.40736E+01  9.98786E+00  1.24485E+01  7.14611E+00  9.55642E+00
   9.14697E+00  8.47871E+00  1.71934E+01  8.61632E+00  9.99430E+00  5.63965E+00  1.64391E+01  6.33238E+00  5.33458E+00  9.23812E+00
   6.20748E+00  4.45125E+00  8.84831E+00  1.19662E+01  8.32880E+00  1.03447E+01  8.88967E+00  9.55593E+00  5.87669E+00  6.43456E+00
   1.20771E+01  1.16006E+01  1.59418E+01  1.43391E+01  1.12557E+01  6.54476E+00  1.01720E+01  1.10997E+01  7.57398E+00  1.14759E+01
   1.13633E+01  7.50949E+00  1.03932E+01  8.30883E+00  7.56050E+00  8.00125E+00  1.34142E+01  8.23459E+00  9.64261E+00  5.89143E+00
   9.54340E+00  7.01559E+00  1.02892E+01 -2.89284E+00  6.62949E+00  6.04752E+00  6.10195E+00  9.99391E+00  1.04015E+01  7.75430E+00
   8.12957E+00  4.09268E+00  8.15812E+00  8.60884E+00  8.32450E+00  8.62099E+00  1.00554E+01  1.04254E+01  6.75224E+00  6.68546E+00
   9.61754E+00  5.05362E+00  7.10022E+00  8.90800E+00  9.23352E+00  6.37752E+00  9.00348E+00  2.55401E+00  1.03775E+01  6.99224E+00
   7.68881E+00  6.21527E+00  5.67200E+00  8.39171E+00  1.31439E+01  8.34633E+00  1.07322E+01  1.48099E+01  1.06121E+01  8.97115E+00
   1.86637E+01  8.69703E+00  1.85079E+01  2.17904E+01  1.40110E+01  1.64593E+01  1.33067E+01  1.33926E+01  1.05349E+01  9.05899E+00
   7.24180E+00  8.85586E+00  1.04924E+01  9.95267E+00  1.20049E+01  8.28736E+00  9.24078E+00  5.86478E+00  7.22500E+00  1.36324E+01
   1.11718E+01  1.38148E+01  1.73347E+01  1.64685E+01  1.56295E+01  1.70570E+01  1.98832E+01  2.02287E+01  2.56013E+01  2.60387E+01
   2.14438E+01  1.69245E+01  1.43112E+01  1.36198E+01  1.10824E+01  7.28849E+00  7.91966E+00  8.39223E+00  1.39631E+01  1.40305E+00
   6.06263E+00  6.87192E+00  4.93842E+00  5.27434E+00  8.51285E+00  5.99189E+00  5.03206E+00  4.45211E+00  8.44080E+00  9.63257E+00
   2.81591E+00  4.98510E+00  4.64826E+00  1.16816E+01  3.35690E+00  5.82018E+00  4.67840E+00  3.50222E+00  5.53603E+00 -1.21165E+00
   3.78911E+00  1.25814E+00  6.20018E+00  2.56983E+00  5.43250E+00  1.43438E+00  3.18277E+00  2.74713E+00  4.92353E+00  3.92514E+00
  -4.93403E-01 -6.94386E-01 -3.21462E+00 -2.06915E+00  3.25339E+00 -8.66365E+00 -6.12632E+00 -3.97459E+00 -2.53741E+00 -7.89750E+00
  -3.49333E+00  4.31134E+00 -5.41409E-01  9.85980E-01  3.91620E+00 -5.78647E-01  4.47406E+00  1.48466E+00 -3.12253E+00  1.25489E+00
   4.27891E+00  7.21878E+00  6.70283E+00 -1.02629E+00  3.68599E+00  2.22909E+00  3.22008E+00  4.26827E+00  1.74867E+00  1.07653E+00
   9.30972E-01  5.77894E-01  3.30616E+00  1.17432E+00  5.29932E+00  4.07416E+00  9.17092E+00  3.18996E+00  2.22956E+00  2.57964E+00
   3.74197E+00  5.71321E+00  1.72645E+00  2.98405E+00  8.65909E+00  8.15836E+00  8.20428E+00  6.70288E+00  9.59363E+00  8.98039E+00
   9.09379E+00  8.43987E+00  6.13223E+00  5.91927E+00  7.66301E-01  6.42629E+00  6.69291E+00  9.16328E+00  1.35172E+01  9.26406E+00
   7.26794E+00  6.30892E+00  5.26538E+00  1.13076E+01  6.43036E+00  7.22295E+00  8.14662E+00  5.06436E+00  7.04559E+00  4.39126E+00
   4.47837E+00  1.29541E+01  8.77545E+00  5.26249E+00  5.88787E+00  9.12654E+00  3.60717E+00  8.80029E+00  1.24898E+01  1.02085E+01
   1.71182E+01  1.69375E+01  1.60260E+01  1.60896E+01  2.09368E+01  2.91844E+01  2.32009E+01  2.21992E+01  2.39494E+01  3.49684E+01
   3.77403E+01  4.94686E+01  4.21296E+01  3.43816E+01  3.08586E+01  2.16186E+01  1.76168E+01  1.42259E+01  1.56650E+01  8.37202E+00
   1.26577E+01  9.34593E+00  1.21948E+01  6.09963E+00  6.14281E+00  1.22227E+01  7.88479E+00  9.33416E+00  2.22957E+00  7.06078E+00
   1.01436E+01  5.54414E+00  9.34566E-01  6.52596E+00  8.18673E+00 -5.73509E-01  6.27974E+00  3.29296E+00  6.41803E+00  2.50305E+00
   2.89770E+00  2.58455E+00  3.76891E+00  6.84943E+00  8.91519E+00  2.83651E+00  4.66919E+00  6.46366E+00  6.25757E+00  4.13689E+00
   8.20532E+00  5.85112E+00  1.32326E+00  5.14806E+00  4.73031E+00  8.01353E+00  5.06659E+00  6.23921E+00  1.22686E+01  7.69972E+00
   7.39669E+00  7.42021E+00  7.02399E+00  7.08455E+00  2.64064E+00  8.73426E+00  3.35578E+00  3.57919E+00  2.46214E+00  1.04003E+01
   1.29041E+01  1.04114E+01  9.64937E+00  5.93682E+00  5.02362E+00  7.46389E+00  1.31406E+01  1.94506E+00  2.30824E+00  6.07414E+00
   5.43712E+00  5.46135E+00  5.08222E+00  6.57154E+00  4.03975E+00  7.95916E+00  4.06531E+00  9.01011E+00  8.67102E+00  4.29033E+00
   7.07485E+00  8.96407E+00  7.40747E+00  1.05272E+01  2.69258E+00  9.25471E+00  6.91412E+00  5.54632E+00  6.58823E+00  6.47771E+00
   6.33533E+00  1.31197E-01  8.71360E+00  4.76795E+00  2.59918E+00  1.14128E+01  6.30945E+00  9.02696E+00  6.19115E+00  5.24568E+00
   2.85187E+00  1.15822E+00  6.51713E+00  6.85755E+00  9.60689E+00  6.36784E+00  1.20836E+01  7.45590E+00  1.16921E+01  3.62673E+00
   8.51736E+00  5.50087E+00  5.16705E+00  4.29236E+00 -4.17506E-01  3.51635E+00  4.52638E+00  6.22070E+00  3.61091E+00  5.25949E+00
   2.22214E+00  6.13781E-01 -1.75385E-01  8.10537E+00  5.69257E+00  3.34374E+00  8.83261E+00  4.85917E+00  2.19545E+00  5.06447E+00
   1.24867E-01  4.52102E+00  7.16228E-01  1.61187E+00  6.14860E+00  4.45842E+00  6.84391E+00  6.46341E+00  9.39945E-01  4.82517E+00
   1.00936E+01  2.37530E+00  2.64468E+00  7.07373E+00  1.83864E+00  2.64177E+00  5.91759E-01  6.16470E+00  4.17818E+00 -1.24350E+00
   1.70364E+00  4.04890E+00  1.18993E+01  8.31433E+00  3.19917E+00  4.54484E+00  2.93562E+00  6.55002E+00 -5.52170E-01  5.74736E-01
  -5.45068E-01  3.73592E-01  5.50358E+00  1.22769E-01  2.24934E+00 -1.07949E+00  2.53437E-01 -2.54277E+00  2.72524E+00 -4.16415E-01
   1.98072E+00  1.80982E-01 -9.46107E-01  4.66248E+00 -1.40896E+00 -1.88693E+00  1.91939E+00 -2.02983E+00  1.43722E+00  3.63882E-02
  -1.33462E+00 -2.32321E+00  1.02463E+00 -2.30702E-01  1.07425E+00  2.55592E+00  2.19526E+00  8.94267E-01 -7.34383E-01  4.91213E+00
  -1.26278E+00 -2.61052E+00 -3.94103E+00  2.24125E+00  1.54903E-01  2.75057E+00 -3.22978E+00 -9.11120E-01  1.31830E+00  2.82378E+00
   6.18567E-01  1.64398E+00  2.16645E+00  7.01656E-01 -4.22269E-01  1.06856E+00  6.31394E+00  1.68080E+00 -1.53263E+00 -2.01744E+00
   5.06683E+00 -1.34441E+00  3.42149E+00  3.85793E+00 -8.83556E-02 -4.59681E+00 -8.19665E-01  3.06411E+00  3.31307E+00 -2.50855E-01
   1.14286E+00 -2.80680E+00 -1.40566E+00  4.33036E+00  3.69163E+00  2.78631E+00  1.75964E+00  5.12302E+00  2.60036E+00  5.44546E+00
   3.37245E+00  5.70214E+00  4.73672E+00  2.81033E-01 -2.34336E+00 -3.24353E+00  8.15365E-01 -2.82311E+00
 NY points of the fit to the data follow
   1.04408E+01  1.06233E+01  1.07933E+01  1.09557E+01  1.11577E+01  1.15072E+01  1.20132E+01  1.25754E+01  1.30267E+01  1.31871E+01
   1.29666E+01  1.24196E+01  1.16996E+01  1.09842E+01  1.04181E+01  1.00578E+01  9.78824E+00  9.46073E+00  9.01825E+00  8.53543E+00
   8.22872E+00  8.19868E+00  8.35521E+00  8.67171E+00  9.01902E+00  9.22787E+00  9.19099E+00  8.95113E+00  8.68121E+00  8.63029E+00
   8.92394E+00  9.50472E+00  1.01732E+01  1.06739E+01  1.07987E+01  1.05183E+01  1.00035E+01  9.52672E+00  9.26562E+00  9.25344E+00
   9.39265E+00  9.56599E+00  9.70125E+00  9.80443E+00  9.97949E+00  1.02706E+01  1.06549E+01  1.10249E+01  1.12198E+01  1.11373E+01
   1.07873E+01  1.02696E+01  9.69183E+00  9.13924E+00  8.68392E+00  8.34588E+00  8.09355E+00  7.91036E+00  7.80736E+00  7.81772E+00
   7.93223E+00  8.06245E+00  8.13418E+00  8.11866E+00  8.02943E+00  7.92258E+00  7.85770E+00  7.85129E+00  7.88967E+00  7.94751E+00
   7.99429E+00  8.03333E+00  8.08626E+00  8.15162E+00  8.21248E+00  8.24503E+00  8.26048E+00  8.24082E+00  8.14711E+00  7.98254E+00
   7.78008E+00  7.58637E+00  7.43592E+00  7.34384E+00  7.30526E+00  7.26897E+00  7.17704E+00  7.01484E+00  6.79659E+00  6.56408E+00
   6.36354E+00  6.25981E+00  6.42963E+00  7.11733E+00  8.13794E+00  9.24050E+00  1.02847E+01  1.12156E+01  1.20837E+01  1.29845E+01
   1.40043E+01  1.51268E+01  1.61687E+01  1.68385E+01  1.68803E+01  1.62103E+01  1.49544E+01  1.33834E+01  1.17964E+01  1.03974E+01
   9.22854E+00  8.23201E+00  7.32956E+00  6.53536E+00  6.02551E+00  5.98082E+00  6.45197E+00  7.63244E+00  9.22795E+00  1.09142E+01
   1.25107E+01  1.39346E+01  1.52395E+01  1.66226E+01  1.82516E+01  2.00502E+01  2.16752E+01  2.26536E+01  2.26128E+01  2.14807E+01
   1.94970E+01  1.70845E+01  1.46727E+01  1.25318E+01  1.07040E+01  9.09030E+00  7.60575E+00  6.30451E+00  5.44424E+00  5.14234E+00
   5.05749E+00  5.02742E+00  5.01063E+00  4.98942E+00  4.95604E+00  4.91315E+00  4.86451E+00  4.80945E+00  4.75054E+00  4.68767E+00
   4.61368E+00  4.50975E+00  4.37955E+00  4.24585E+00  4.13282E+00  4.06371E+00  4.02157E+00  3.97202E+00  3.89020E+00  3.76571E+00
   3.61047E+00  3.45903E+00  3.34746E+00  3.28833E+00  3.25979E+00  3.21598E+00  3.10235E+00  2.90591E+00  2.67651E+00  2.46047E+00
   2.28265E+00  2.13087E+00  1.98188E+00  1.81607E+00  1.64746E+00  1.51159E+00  1.43787E+00  1.42988E+00  1.47196E+00  1.55773E+00
   1.67847E+00  1.82947E+00  2.00853E+00  2.20176E+00  2.38061E+00  2.54477E+00  2.68558E+00  2.81577E+00  2.93528E+00  3.05709E+00
   3.20121E+00  3.37656E+00  3.57749E+00  3.78051E+00  4.00199E+00  4.28885E+00  4.63491E+00  4.99262E+00  5.32459E+00  5.56023E+00
   5.59720E+00  5.53916E+00  5.48693E+00  5.39663E+00  5.21152E+00  4.88801E+00  4.41418E+00  3.75060E+00  2.94271E+00  2.19299E+00
   1.72065E+00  1.67282E+00  2.05630E+00  2.80435E+00  3.79608E+00  4.82732E+00  5.67689E+00  6.23355E+00  6.45124E+00  6.34525E+00
   6.00256E+00  5.51446E+00  5.00638E+00  4.75804E+00  4.87062E+00  5.20080E+00  5.56998E+00  5.93988E+00  6.31666E+00  6.63607E+00
   6.90741E+00  7.20108E+00  7.46555E+00  7.55155E+00  7.43476E+00  7.22103E+00  7.07341E+00  7.10535E+00  7.33072E+00  7.65629E+00
   7.92202E+00  8.00236E+00  7.85099E+00  7.53295E+00  7.20039E+00  7.01367E+00  7.04118E+00  7.24969E+00  7.58593E+00  8.21133E+00
   9.78079E+00  1.26016E+01  1.60209E+01  1.94835E+01  2.25910E+01  2.51380E+01  2.73183E+01  2.95664E+01  3.21707E+01  3.49577E+01
   3.72838E+01  3.83109E+01  3.74681E+01  3.47592E+01  3.07137E+01  2.61333E+01  2.17595E+01  1.79887E+01  1.48025E+01  1.19851E+01
   9.38767E+00  7.17328E+00  5.86621E+00  5.42921E+00  5.24798E+00  5.14070E+00  5.06473E+00  4.98664E+00  4.89061E+00  4.78507E+00
   4.67712E+00  4.57311E+00  4.47850E+00  4.39884E+00  4.33611E+00  4.29578E+00  4.28070E+00  4.28727E+00  4.31222E+00  4.35351E+00
   4.40767E+00  4.47226E+00  4.54486E+00  4.62364E+00  4.70867E+00  4.79949E+00  4.89478E+00  4.99400E+00  5.09583E+00  5.19768E+00
   5.29624E+00  5.38948E+00  5.47546E+00  5.55208E+00  5.61773E+00  5.67203E+00  5.71448E+00  5.74602E+00  5.76828E+00  5.78404E+00
   5.79668E+00  5.81077E+00  5.83177E+00  5.86693E+00  5.92611E+00  6.02571E+00  6.19926E+00  6.50131E+00  6.84868E+00  7.09688E+00
   7.20658E+00  7.18605E+00  7.06378E+00  6.87789E+00  6.64300E+00  6.41331E+00  6.22928E+00  5.98623E+00  5.59898E+00  5.07747E+00
   4.51194E+00  4.04178E+00  3.82653E+00  3.98594E+00  4.53239E+00  5.36413E+00  6.31730E+00  7.24207E+00  8.02105E+00  8.58339E+00
   8.85180E+00  8.83796E+00  8.66604E+00  8.41803E+00  8.11572E+00  7.76896E+00  7.37506E+00  6.99261E+00  6.67083E+00  6.36233E+00
   6.06522E+00  5.81511E+00  5.65862E+00  5.62574E+00  5.70862E+00  5.86362E+00  6.03131E+00  6.16284E+00  6.23772E+00  6.25875E+00
   6.21428E+00  6.10639E+00  5.96430E+00  5.80302E+00  5.62234E+00  5.41770E+00  5.19799E+00  4.99951E+00  4.82977E+00  4.67562E+00
   4.53221E+00  4.39852E+00  4.27463E+00  4.16133E+00  4.05947E+00  3.97017E+00  3.89436E+00  3.83315E+00  3.78739E+00  3.75804E+00
   3.74578E+00  3.75137E+00  3.77523E+00  3.81782E+00  3.87921E+00  3.95940E+00  4.05792E+00  4.17409E+00  4.30666E+00  4.45410E+00
   4.61419E+00  4.78435E+00  4.96126E+00  5.14132E+00  5.32029E+00  5.49375E+00  5.65691E+00  5.80505E+00  5.93341E+00  6.03773E+00
   6.11406E+00  6.15930E+00  6.17104E+00  6.14794E+00  6.08955E+00  5.99662E+00  5.87076E+00  5.71463E+00  5.53153E+00  5.32555E+00
   5.10101E+00  4.86268E+00  4.61516E+00  4.36306E+00  4.11052E+00  3.86140E+00  3.61889E+00  3.38574E+00  3.16397E+00  2.95515E+00
   2.76014E+00  2.57948E+00  2.41314E+00  2.26092E+00  2.12215E+00  1.99616E+00  1.88198E+00  1.77872E+00  1.68532E+00  1.60089E+00
   1.52439E+00  1.45504E+00  1.39192E+00  1.33438E+00  1.28169E+00  1.23332E+00  1.18868E+00  1.14739E+00  1.10895E+00  1.07312E+00
   1.03950E+00  1.00793E+00  9.78081E-01  9.49839E-01  9.22956E-01  8.97367E-01  8.72866E-01  8.49413E-01  8.26824E-01  8.05090E-01
   7.84059E-01  7.63746E-01  7.44013E-01  7.24878E-01  7.06214E-01  6.88060E-01  6.70304E-01  6.52993E-01  6.36016E-01  6.19416E-01
   6.03091E-01  5.87097E-01  5.71346E-01  5.55893E-01  5.40645E-01  5.25655E-01  5.10838E-01  4.96258E-01  4.81832E-01  4.67623E-01
   4.53543E-01  4.39652E-01  4.25875E-01  4.12282E-01  3.98796E-01  3.85480E-01  3.72253E-01  3.59182E-01  3.46195E-01  3.33365E-01
   3.20617E-01  3.08016E-01  2.95485E-01  2.83097E-01  2.70786E-01  2.58625E-01  2.46542E-01  2.34605E-01  2.22744E-01  2.11037E-01
   1.99424E-01  1.87981E-01  1.76642E-01  1.65480E-01  1.54438E-01  1.43603E-01  1.32927E-01  1.22499E-01
 NY background values follow
     5.861E+00    5.850E+00    5.838E+00    5.827E+00    5.815E+00    5.804E+00    5.792E+00    5.781E+00    5.769E+00    5.758E+00
     5.746E+00    5.735E+00    5.724E+00    5.712E+00    5.701E+00    5.689E+00    5.678E+00    5.666E+00    5.655E+00    5.643E+00
     5.632E+00    5.620E+00    5.609E+00    5.597E+00    5.586E+00    5.575E+00    5.563E+00    5.552E+00    5.540E+00    5.529E+00
     5.517E+00    5.506E+00    5.494E+00    5.483E+00    5.471E+00    5.460E+00    5.448E+00    5.437E+00    5.425E+00    5.414E+00
     5.403E+00    5.391E+00    5.380E+00    5.368E+00    5.357E+00    5.345E+00    5.334E+00    5.322E+00    5.311E+00    5.299E+00
     5.288E+00    5.276E+00    5.265E+00    5.253E+00    5.242E+00    5.231E+00    5.219E+00    5.208E+00    5.196E+00    5.185E+00
     5.173E+00    5.162E+00    5.150E+00    5.139E+00    5.127E+00    5.116E+00    5.104E+00    5.093E+00    5.081E+00    5.070E+00
     5.058E+00    5.047E+00    5.036E+00    5.024E+00    5.013E+00    5.001E+00    4.990E+00    4.978E+00    4.967E+00    4.955E+00
     4.944E+00    4.932E+00    4.921E+00    4.909E+00    4.898E+00    4.886E+00    4.875E+00    4.863E+00    4.852E+00    4.840E+00
     4.829E+00    4.818E+00    4.806E+00    4.795E+00    4.783E+00    4.772E+00    4.760E+00    4.749E+00    4.737E+00    4.726E+00
     4.714E+00    4.703E+00    4.691E+00    4.680E+00    4.668E+00    4.657E+00    4.645E+00    4.634E+00    4.623E+00    4.611E+00
     4.600E+00    4.588E+00    4.577E+00    4.565E+00    4.554E+00    4.542E+00    4.531E+00    4.519E+00    4.508E+00    4.496E+00
     4.485E+00    4.473E+00    4.462E+00    4.450E+00    4.439E+00    4.427E+00    4.416E+00    4.405E+00    4.393E+00    4.382E+00
     4.370E+00    4.359E+00    4.347E+00    4.336E+00    4.324E+00    4.313E+00    4.301E+00    4.290E+00    4.278E+00    4.267E+00
     4.255E+00    4.244E+00    4.232E+00    4.221E+00    4.209E+00    4.198E+00    4.187E+00    4.175E+00    4.164E+00    4.152E+00
     4.141E+00    4.129E+00    4.118E+00    4.106E+00    4.095E+00    4.083E+00    4.072E+00    4.060E+00    4.049E+00    4.037E+00
     4.026E+00    4.014E+00    4.003E+00    3.991E+00    3.980E+00    3.969E+00    3.957E+00    3.946E+00    3.934E+00    3.923E+00
     3.911E+00    3.900E+00    3.888E+00    3.877E+00    3.865E+00    3.854E+00    3.842E+00    3.831E+00    3.819E+00    3.808E+00
     3.796E+00    3.785E+00    3.773E+00    3.762E+00    3.751E+00    3.739E+00    3.728E+00    3.716E+00    3.705E+00    3.693E+00
     3.682E+00    3.670E+00    3.659E+00    3.647E+00    3.636E+00    3.624E+00    3.613E+00    3.601E+00    3.590E+00    3.578E+00
     3.567E+00    3.555E+00    3.544E+00    3.533E+00    3.521E+00    3.510E+00    3.498E+00    3.487E+00    3.475E+00    3.464E+00
     3.452E+00    3.441E+00    3.429E+00    3.418E+00    3.406E+00    3.395E+00    3.383E+00    3.372E+00    3.360E+00    3.349E+00
     3.338E+00    3.326E+00    3.315E+00    3.303E+00    3.292E+00    3.280E+00    3.269E+00    3.257E+00    3.246E+00    3.234E+00
     3.223E+00    3.211E+00    3.200E+00    3.188E+00    3.177E+00    3.166E+00    3.154E+00    3.143E+00    3.131E+00    3.120E+00
     3.108E+00    3.097E+00    3.085E+00    3.074E+00    3.062E+00    3.051E+00    3.039E+00    3.028E+00    3.016E+00    3.005E+00
     2.994E+00    2.982E+00    2.971E+00    2.959E+00    2.948E+00    2.936E+00    2.925E+00    2.913E+00    2.902E+00    2.890E+00
     2.879E+00    2.867E+00    2.856E+00    2.844E+00    2.833E+00    2.822E+00    2.810E+00    2.799E+00    2.787E+00    2.776E+00
     2.764E+00    2.753E+00    2.741E+00    2.730E+00    2.718E+00    2.707E+00    2.695E+00    2.684E+00    2.672E+00    2.661E+00
     2.650E+00    2.638E+00    2.627E+00    2.615E+00    2.604E+00    2.592E+00    2.581E+00    2.569E+00    2.558E+00    2.546E+00
     2.535E+00    2.523E+00    2.512E+00    2.501E+00    2.489E+00    2.478E+00    2.466E+00    2.455E+00    2.443E+00    2.432E+00
     2.420E+00    2.409E+00    2.397E+00    2.386E+00    2.375E+00    2.363E+00    2.352E+00    2.340E+00    2.329E+00    2.317E+00
     2.306E+00    2.294E+00    2.283E+00    2.271E+00    2.260E+00    2.249E+00    2.237E+00    2.226E+00    2.214E+00    2.203E+00
     2.191E+00    2.180E+00    2.168E+00    2.157E+00    2.145E+00    2.134E+00    2.123E+00    2.111E+00    2.100E+00    2.088E+00
     2.077E+00    2.065E+00    2.054E+00    2.042E+00    2.031E+00    2.019E+00    2.008E+00    1.997E+00    1.985E+00    1.974E+00
     1.962E+00    1.951E+00    1.939E+00    1.928E+00    1.916E+00    1.905E+00    1.893E+00    1.882E+00    1.871E+00    1.859E+00
     1.848E+00    1.836E+00    1.825E+00    1.813E+00    1.802E+00    1.790E+00    1.779E+00    1.768E+00    1.756E+00    1.745E+00
     1.733E+00    1.722E+00    1.710E+00    1.699E+00    1.687E+00    1.676E+00    1.665E+00    1.653E+00    1.642E+00    1.630E+00
     1.619E+00    1.607E+00    1.596E+00    1.584E+00    1.573E+00    1.562E+00    1.550E+00    1.539E+00    1.527E+00    1.516E+00
     1.504E+00    1.493E+00    1.482E+00    1.470E+00    1.459E+00    1.447E+00    1.436E+00    1.424E+00    1.413E+00    1.401E+00
     1.390E+00    1.379E+00    1.367E+00    1.356E+00    1.344E+00    1.333E+00    1.321E+00    1.310E+00    1.299E+00    1.287E+00
     1.276E+00    1.264E+00    1.253E+00    1.241E+00    1.230E+00    1.219E+00    1.207E+00    1.196E+00    1.184E+00    1.173E+00
     1.161E+00    1.150E+00    1.139E+00    1.127E+00    1.116E+00    1.104E+00    1.093E+00    1.081E+00    1.070E+00    1.059E+00
     1.047E+00    1.036E+00    1.024E+00    1.013E+00    1.001E+00    9.900E-01    9.785E-01    9.671E-01    9.557E-01    9.443E-01
     9.329E-01    9.214E-01    9.100E-01    8.986E-01    8.872E-01    8.757E-01    8.643E-01    8.529E-01    8.415E-01    8.301E-01
     8.186E-01    8.072E-01    7.958E-01    7.844E-01    7.730E-01    7.616E-01    7.501E-01    7.387E-01    7.273E-01    7.159E-01
     7.045E-01    6.931E-01    6.817E-01    6.702E-01    6.588E-01    6.474E-01    6.360E-01    6.246E-01    6.132E-01    6.018E-01
     5.904E-01    5.789E-01    5.675E-01    5.561E-01    5.447E-01    5.333E-01    5.219E-01    5.105E-01    4.991E-01    4.877E-01
     4.763E-01    4.649E-01    4.535E-01    4.420E-01    4.306E-01    4.192E-01    4.078E-01    3.964E-01    3.850E-01    3.736E-01
     3.622E-01    3.508E-01    3.394E-01    3.280E-01    3.166E-01    3.052E-01    2.938E-01    2.824E-01    2.710E-01    2.596E-01
     2.482E-01    2.368E-01    2.254E-01    2.140E-01    2.026E-01    1.912E-01    1.798E-01    1.684E-01
 Ala      Conc. = 4.62E+02
