 LCModel (Version 6.3-1L) Copyright: S.W. Provencher.          Ref.: Magn. Reson. Med. 30:672-679 (1993).                
 Slice#3 Row#7 Col#2  PD_05_press_2_raw_act
 36 lines in following concentration table = NCONC+1
    Conc.  %SD /Cr+PCr  Metabolite                                         
    0.000 999%   0.000 Ala                                                 
    0.000 999%   0.000 Asp                                                 
    0.000 999%   0.000 Cr                                                  
 2.65E+03   4%   1.000 PCr                                                 
  129.964 196% 4.9E-02 GABA                                                
   70.550 349% 2.7E-02 Glc                                                 
 1.14E+03  39%   0.432 Gln                                                 
 3.28E+03  16%   1.240 Glu                                                 
  579.570  32%   0.219 GPC                                                 
  191.343 102% 7.2E-02 PCh                                                 
  699.042  20%   0.264 GSH                                                 
 1.26E+03  38%   0.476 Ins                                                 
   29.208 795% 1.1E-02 Lac                                                 
 4.05E+03   3%   1.532 NAA                                                 
    0.000 999%   0.000 NAAG                                                
  177.132  27% 6.7E-02 Scyllo                                              
  730.431  51%   0.276 Tau                                                 
  944.950  20%   0.357 -CrCH2                                              
  770.913   5%   0.291 GPC+PCh                                             
 4.05E+03   3%   1.532 NAA+NAAG                                            
 2.65E+03   4%   1.000 Cr+PCr                                              
 4.42E+03  17%   1.673 Glu+Gln                                             
  719.726  66%   0.272 Lip13a                                              
    0.000 999%   0.000 Lip13b                                              
    0.000 999%   0.000 Lip09                                               
 1.45E+03  21%   0.550 MM09                                                
   70.356 268% 2.7E-02 Lip20                                               
 2.46E+03  21%   0.929 MM20                                                
  464.861  29%   0.176 MM12                                                
 1.88E+03  20%   0.712 MM14                                                
  647.483  42%   0.245 MM17                                                
  719.726  66%   0.272 Lip13a+Lip13b                                       
 3.07E+03  20%   1.160 MM14+Lip13a+Lip13b+MM12                             
 1.45E+03  21%   0.550 MM09+Lip09                                          
 2.53E+03  21%   0.956 MM20+Lip20                                          
   6 lines in following misc. output table
  FWHM = 0.061 ppm    S/N =  11                                            
  Data shift =-0.008 ppm                                                   
  Ph: -51 deg     -23.5 deg/ppm                                            
  alphaB,S = 1.1E+00,   1.7E+02                                            
   14 spline knots.   Ns = 7(1)                                            
  (13) 2 infls.   ( 9) 1 extrs.                                            
  498 points on ppm-axis = NY
      4.000000     3.992357     3.984714     3.977070     3.969427     3.961784     3.954141     3.946497     3.938854     3.931211
      3.923568     3.915925     3.908281     3.900638     3.892995     3.885352     3.877708     3.870065     3.862422     3.854779
      3.847136     3.839492     3.831849     3.824206     3.816563     3.808919     3.801276     3.793633     3.785990     3.778347
      3.770703     3.763060     3.755417     3.747774     3.740130     3.732487     3.724844     3.717201     3.709558     3.701914
      3.694271     3.686628     3.678985     3.671341     3.663698     3.656055     3.648412     3.640769     3.633125     3.625482
      3.617839     3.610196     3.602552     3.594909     3.587266     3.579623     3.571980     3.564336     3.556693     3.549050
      3.541407     3.533763     3.526120     3.518477     3.510834     3.503191     3.495547     3.487904     3.480261     3.472618
      3.464974     3.457331     3.449688     3.442045     3.434402     3.426758     3.419115     3.411472     3.403829     3.396185
      3.388542     3.380899     3.373256     3.365613     3.357969     3.350326     3.342683     3.335040     3.327396     3.319753
      3.312110     3.304467     3.296824     3.289180     3.281537     3.273894     3.266251     3.258607     3.250964     3.243321
      3.235678     3.228034     3.220391     3.212748     3.205105     3.197462     3.189818     3.182175     3.174532     3.166889
      3.159245     3.151602     3.143959     3.136316     3.128673     3.121029     3.113386     3.105743     3.098100     3.090456
      3.082813     3.075170     3.067527     3.059884     3.052240     3.044597     3.036954     3.029311     3.021667     3.014024
      3.006381     2.998738     2.991095     2.983451     2.975808     2.968165     2.960522     2.952878     2.945235     2.937592
      2.929949     2.922306     2.914662     2.907019     2.899376     2.891733     2.884089     2.876446     2.868803     2.861160
      2.853517     2.845873     2.838230     2.830587     2.822944     2.815300     2.807657     2.800014     2.792371     2.784728
      2.777084     2.769441     2.761798     2.754155     2.746511     2.738868     2.731225     2.723582     2.715939     2.708295
      2.700652     2.693009     2.685366     2.677722     2.670079     2.662436     2.654793     2.647150     2.639506     2.631863
      2.624220     2.616577     2.608933     2.601290     2.593647     2.586004     2.578361     2.570717     2.563074     2.555431
      2.547788     2.540144     2.532501     2.524858     2.517215     2.509572     2.501928     2.494285     2.486642     2.478999
      2.471355     2.463712     2.456069     2.448426     2.440783     2.433139     2.425496     2.417853     2.410210     2.402566
      2.394923     2.387280     2.379637     2.371994     2.364350     2.356707     2.349064     2.341421     2.333777     2.326134
      2.318491     2.310848     2.303205     2.295561     2.287918     2.280275     2.272632     2.264988     2.257345     2.249702
      2.242059     2.234416     2.226772     2.219129     2.211486     2.203843     2.196199     2.188556     2.180913     2.173270
      2.165627     2.157983     2.150340     2.142697     2.135054     2.127410     2.119767     2.112124     2.104481     2.096838
      2.089194     2.081551     2.073908     2.066265     2.058621     2.050978     2.043335     2.035692     2.028049     2.020405
      2.012762     2.005119     1.997476     1.989833     1.982190     1.974546     1.966903     1.959260     1.951617     1.943974
      1.936331     1.928688     1.921045     1.913402     1.905759     1.898115     1.890472     1.882829     1.875186     1.867543
      1.859900     1.852257     1.844614     1.836971     1.829327     1.821684     1.814041     1.806398     1.798755     1.791112
      1.783469     1.775826     1.768183     1.760540     1.752896     1.745253     1.737610     1.729967     1.722324     1.714681
      1.707038     1.699395     1.691752     1.684108     1.676465     1.668822     1.661179     1.653536     1.645893     1.638250
      1.630607     1.622964     1.615321     1.607677     1.600034     1.592391     1.584748     1.577105     1.569462     1.561819
      1.554176     1.546533     1.538890     1.531246     1.523603     1.515960     1.508317     1.500674     1.493031     1.485388
      1.477745     1.470102     1.462458     1.454815     1.447172     1.439529     1.431886     1.424243     1.416600     1.408957
      1.401314     1.393671     1.386027     1.378384     1.370741     1.363098     1.355455     1.347812     1.340169     1.332526
      1.324883     1.317240     1.309596     1.301953     1.294310     1.286667     1.279024     1.271381     1.263738     1.256095
      1.248452     1.240808     1.233165     1.225522     1.217879     1.210236     1.202593     1.194950     1.187307     1.179664
      1.172021     1.164377     1.156734     1.149091     1.141448     1.133805     1.126162     1.118519     1.110876     1.103233
      1.095590     1.087946     1.080303     1.072660     1.065017     1.057374     1.049731     1.042088     1.034445     1.026802
      1.019158     1.011515     1.003872     0.996229     0.988586     0.980943     0.973300     0.965657     0.958014     0.950371
      0.942727     0.935084     0.927441     0.919798     0.912155     0.904512     0.896869     0.889226     0.881583     0.873940
      0.866296     0.858653     0.851010     0.843367     0.835724     0.828081     0.820438     0.812795     0.805152     0.797508
      0.789865     0.782222     0.774579     0.766936     0.759293     0.751650     0.744007     0.736364     0.728721     0.721077
      0.713434     0.705791     0.698148     0.690505     0.682862     0.675219     0.667576     0.659933     0.652290     0.644646
      0.637003     0.629360     0.621717     0.614074     0.606431     0.598788     0.591145     0.583502     0.575858     0.568215
      0.560572     0.552929     0.545286     0.537643     0.530000     0.522357     0.514714     0.507071     0.499427     0.491784
      0.484141     0.476498     0.468855     0.461212     0.453569     0.445925     0.438282     0.430639     0.422996     0.415353
      0.407710     0.400067     0.392424     0.384780     0.377137     0.369494     0.361851     0.354208     0.346565     0.338922
      0.331278     0.323635     0.315992     0.308349     0.300706     0.293063     0.285420     0.277777     0.270133     0.262490
      0.254847     0.247204     0.239561     0.231918     0.224275     0.216631     0.208988     0.201345
 NY phased data points follow
  -1.13359E+02 -9.74229E+01 -1.05175E+02 -8.88135E+01 -8.66072E+01 -7.47253E+01 -7.81141E+01 -5.08391E+01 -6.42541E+01 -5.01149E+01
  -5.49756E+01 -5.46981E+01 -6.03409E+01 -6.42489E+01 -7.59695E+01 -7.77767E+01 -8.26479E+01 -8.53178E+01 -9.20376E+01 -7.58196E+01
  -8.57046E+01 -7.95455E+01 -8.14760E+01 -7.46877E+01 -7.98675E+01 -7.14664E+01 -7.09098E+01 -7.11835E+01 -6.38351E+01 -6.43996E+01
  -6.45158E+01 -5.70877E+01 -6.78152E+01 -6.68167E+01 -7.35000E+01 -6.13808E+01 -7.33143E+01 -6.88207E+01 -6.68884E+01 -6.85491E+01
  -7.29285E+01 -6.41920E+01 -7.41453E+01 -5.94257E+01 -6.64263E+01 -5.72582E+01 -5.28280E+01 -4.77872E+01 -5.50535E+01 -6.03890E+01
  -6.38821E+01 -6.43835E+01 -6.93724E+01 -5.78758E+01 -6.20286E+01 -5.81169E+01 -6.27354E+01 -5.64736E+01 -5.92221E+01 -5.61756E+01
  -5.83071E+01 -6.60480E+01 -7.03807E+01 -6.46613E+01 -7.46219E+01 -7.06059E+01 -6.82368E+01 -6.40078E+01 -6.32971E+01 -5.95354E+01
  -6.30132E+01 -5.35691E+01 -5.84956E+01 -5.39439E+01 -5.53487E+01 -5.16072E+01 -5.46818E+01 -5.69138E+01 -5.91129E+01 -6.14636E+01
  -4.79804E+01 -4.37291E+01 -4.80976E+01 -5.05006E+01 -5.05685E+01 -4.26422E+01 -4.86934E+01 -4.04915E+01 -4.78201E+01 -4.73145E+01
  -3.94232E+01 -4.60112E+01 -4.59614E+01 -4.31686E+01 -3.07210E+01 -3.09004E+01 -2.43621E+01 -1.70479E+01 -1.13408E+01 -1.12146E+01
   5.79504E-01  1.34657E+01  2.23862E+01  1.48731E+01  7.51193E+00  7.34906E-01 -5.07825E-01 -1.65591E+01 -2.00628E+01 -1.99084E+01
  -3.07427E+01 -3.08661E+01 -3.37787E+01 -3.25200E+01 -3.53206E+01 -2.78853E+01 -3.07657E+01 -2.94809E+01 -3.49024E+01 -2.49034E+01
  -3.18539E+01 -7.26514E+00 -7.17789E+00  5.06405E+00  1.55352E+01  2.85948E+01  4.44894E+01  5.11296E+01  4.01158E+01  2.90254E+01
   7.07574E+00  1.25610E+00 -5.28704E+00 -1.50683E+01 -2.31759E+01 -1.83232E+01 -3.84930E+01 -2.58812E+01 -3.10124E+01 -3.06136E+01
  -2.87772E+01 -2.32240E+01 -3.59333E+01 -2.95242E+01 -2.28216E+01 -2.85696E+01 -2.69251E+01 -2.87068E+01 -3.17904E+01 -3.03532E+01
  -3.41633E+01 -2.78608E+01 -2.62808E+01 -3.20545E+01 -4.18219E+01 -2.73260E+01 -4.01798E+01 -2.63210E+01 -3.25680E+01 -2.68165E+01
  -3.79748E+01 -3.71530E+01 -3.36477E+01 -3.07435E+01 -1.96150E+01 -2.31286E+01 -2.14489E+01 -2.40124E+01 -2.62482E+01 -3.45694E+01
  -3.90190E+01 -3.25461E+01 -3.65216E+01 -3.76887E+01 -4.57738E+01 -3.25141E+01 -4.79024E+01 -3.47255E+01 -3.46188E+01 -4.22482E+01
  -3.64835E+01 -4.31540E+01 -2.94504E+01 -3.85655E+01 -3.82679E+01 -3.63934E+01 -3.85775E+01 -2.74239E+01 -1.88529E+01 -2.31575E+01
  -7.74493E+00 -1.01591E+01 -1.07415E+01 -1.07999E+01 -9.13492E+00 -7.85263E+00 -1.12172E+01 -1.45170E+01 -1.16698E+01 -8.75770E+00
  -9.94655E+00 -1.19034E+01 -4.57750E+00 -3.33592E+00 -1.31914E+01 -1.62946E+01 -1.33289E+01 -1.11928E+01 -1.95497E+01 -2.45139E+01
  -2.23363E+01 -1.25789E+01 -1.17990E+01 -1.48829E+00  1.77968E+00  1.18941E+01  3.54689E-01  7.86734E+00 -8.73258E+00 -2.02028E+00
  -1.36002E+01 -2.12482E+01 -1.40094E+01 -1.31157E+01 -1.54278E+01 -6.59808E+00 -1.73734E+01 -2.13484E+00  2.12639E+00 -6.03562E-01
   7.18544E-02 -5.07096E+00  4.99841E+00  5.08266E+00 -1.04936E+01  1.11122E+00  1.33109E+00  5.06798E+00 -3.56431E+00 -4.79765E-01
  -5.17943E+00 -9.30263E-01  3.17121E+00  5.73418E+00  4.66610E-01  7.54500E+00  6.33055E+00  9.49405E+00  3.80074E+00  2.17810E+01
   1.38089E+01  9.67483E+00  1.56624E+01  2.76909E+01  2.44979E+01  3.69441E+01  5.77174E+01  8.28272E+01  1.04483E+02  1.25783E+02
   1.30656E+02  1.23148E+02  1.11750E+02  9.56424E+01  7.35781E+01  5.64425E+01  3.72264E+01  3.75088E+01  1.31598E+01  1.22991E+01
   4.57413E+00  5.22262E+00  7.81792E+00  1.16303E+01  1.30143E+01  9.91566E+00  1.13981E+01  9.10331E+00  3.15735E+00  8.92480E+00
   9.63155E+00  2.67038E+00  6.91595E+00  1.76033E+00  1.66308E+00  1.90504E+00  1.06730E+00  1.03842E+01  4.49996E+00  6.12632E+00
   7.46511E+00  3.43172E+00  1.47577E+00  2.01409E+00  5.56376E+00  7.53108E+00  9.62096E+00  1.28669E+01  5.66730E+00  4.15391E+00
   3.77966E-02  1.79920E+01  1.21869E+01  9.81196E+00  1.10551E+01  6.74600E+00  1.41477E+01  5.24995E+00  1.05489E+01  1.07756E+01
   9.50260E+00  1.57348E+01  1.59764E+01  1.65878E+01  1.01439E+01  1.15209E+01  2.43393E+01  1.85154E+01  1.41743E+01  1.83280E+01
   1.40737E+01  1.92836E+01  1.65684E+01  1.75267E+01  1.41302E+01  2.56865E+01  2.46977E+01  1.68247E+01  2.46565E+01  2.63233E+01
   2.40350E+01  2.01801E+01  2.21118E+01  2.13743E+01  2.30702E+01  2.49777E+01  1.73079E+01  1.99349E+01  2.18586E+01  1.45456E+01
   2.02286E+01  1.77860E+01  2.28224E+01  1.12794E+01  1.20928E+01  1.58239E+01  1.83406E+01  1.82359E+01  1.89684E+01  1.76960E+01
   1.70570E+01  1.73413E+01  1.22391E+01  1.37578E+01  1.00957E+01  1.10830E+01  1.97643E+01  1.67539E+01  1.47900E+01  1.47976E+01
   1.48505E+01  1.90351E+01  1.95053E+01  1.88514E+01  2.05457E+01  1.07029E+01  1.73199E+01  1.33705E+01  8.82749E+00  1.77029E+01
   2.18103E+01  1.92807E+01  1.64495E+01  2.66217E+01  2.13153E+01  2.44760E+01  1.80177E+01  2.73022E+01  1.27559E+01  2.22236E+01
   1.82730E+01  2.02996E+01  1.40602E+01  1.96568E+01  1.53842E+01  1.69794E+01  1.74261E+01  1.48019E+01  1.54080E+01  1.88223E+01
   1.78050E+01  2.17252E+01  1.98687E+01  1.67379E+01  1.73583E+01  1.66948E+01  2.64208E+01  2.26738E+01  2.20344E+01  1.44194E+01
   9.97870E+00  2.12156E+01  2.03151E+01  6.98598E+00  1.10855E+01  1.54510E+01  1.94022E+01  1.43019E+01  6.69196E+00  1.64715E+01
   1.66029E+01  1.55710E+01  1.55352E+01  1.91769E+01  1.69990E+01  8.14131E+00  5.88281E+00  1.06927E+01  5.75562E+00  1.05687E+01
   1.27594E+01  1.48485E+01  1.34122E+01  2.21492E+01  1.75876E+01  1.50755E+00  5.62150E+00  2.21411E+01  1.29972E+01  1.86711E+01
   1.48146E+01  1.61481E+01  1.08601E+01  2.09894E+01  1.55103E+01  1.48691E+01  1.13524E+01  9.91367E+00  7.38652E+00  1.11975E+01
   1.93287E+01  8.67075E+00  8.81479E+00  8.14336E+00  1.72257E+01  1.17383E+01  1.15284E+01  8.44440E+00  1.76687E+01  1.27932E+01
   2.03739E+01  1.69825E+01  1.20905E+01  1.03355E+01  1.05278E+01  1.03957E+01  1.80015E+01  9.33655E+00  1.33165E+01  1.83746E+01
   1.08802E+01  9.85796E+00  1.03504E+01  6.51151E+00  6.18069E+00  1.49294E+01  1.29101E+01  7.89112E+00  1.08932E+01  1.23927E+01
   1.21052E+01  1.29519E+01  7.74460E+00  1.20434E+01  1.67745E+01  1.57312E+01  1.49368E+01  1.62956E+01  1.89102E+01  1.60764E+01
   1.15237E+01  1.17676E+01  8.65539E+00  1.01669E+01  1.07683E+01  4.98604E+00  1.25506E+01  1.40665E+00  1.52092E+01  1.85680E+01
   6.65699E+00  2.05598E+01  1.23526E+01  1.61229E+01  1.56062E+01  1.44832E+01  1.18311E+01  1.57793E+01
 NY points of the fit to the data follow
  -9.46737E+01 -9.40864E+01 -9.18158E+01 -8.75759E+01 -8.21370E+01 -7.58346E+01 -6.89873E+01 -6.23029E+01 -5.70701E+01 -5.45064E+01
  -5.50089E+01 -5.79696E+01 -6.22259E+01 -6.66510E+01 -7.05450E+01 -7.38570E+01 -7.69077E+01 -7.96855E+01 -8.10088E+01 -8.10802E+01
  -8.08150E+01 -8.05343E+01 -8.02097E+01 -7.93196E+01 -7.79498E+01 -7.60721E+01 -7.35846E+01 -7.04778E+01 -6.69994E+01 -6.37908E+01
  -6.14070E+01 -6.01395E+01 -6.01950E+01 -6.15294E+01 -6.36809E+01 -6.61897E+01 -6.86900E+01 -7.09747E+01 -7.24608E+01 -7.25767E+01
  -7.16564E+01 -6.99845E+01 -6.78836E+01 -6.56165E+01 -6.33639E+01 -6.14492E+01 -6.01209E+01 -5.96120E+01 -6.00917E+01 -6.13230E+01
  -6.27638E+01 -6.40237E+01 -6.49095E+01 -6.54016E+01 -6.55235E+01 -6.52935E+01 -6.46932E+01 -6.37957E+01 -6.28295E+01 -6.20111E+01
  -6.14340E+01 -6.11257E+01 -6.09537E+01 -6.08126E+01 -6.06026E+01 -6.02289E+01 -5.97562E+01 -5.92671E+01 -5.86491E+01 -5.78059E+01
  -5.68324E+01 -5.58466E+01 -5.49607E+01 -5.42792E+01 -5.38876E+01 -5.37800E+01 -5.39176E+01 -5.42034E+01 -5.43808E+01 -5.41050E+01
  -5.30936E+01 -5.15724E+01 -4.98571E+01 -4.81290E+01 -4.64512E+01 -4.50342E+01 -4.42651E+01 -4.42807E+01 -4.49167E+01 -4.58530E+01
  -4.67988E+01 -4.74880E+01 -4.77953E+01 -4.77266E+01 -4.66774E+01 -4.28015E+01 -3.57707E+01 -2.64291E+01 -1.55731E+01 -4.07400E+00
   6.74698E+00  1.49909E+01  1.88198E+01  1.74964E+01  1.17848E+01  3.42307E+00 -5.72391E+00 -1.43201E+01 -2.19574E+01 -2.88588E+01
  -3.46057E+01 -3.80940E+01 -3.97627E+01 -4.03281E+01 -4.03671E+01 -4.02169E+01 -3.99393E+01 -3.94493E+01 -3.85425E+01 -3.60898E+01
  -2.95088E+01 -1.93221E+01 -7.02087E+00  6.76408E+00  2.10893E+01  3.37637E+01  4.18133E+01  4.31847E+01  3.79280E+01  2.81029E+01
   1.64019E+01  4.94461E+00 -5.36547E+00 -1.47721E+01 -2.35274E+01 -3.02832E+01 -3.30406E+01 -3.33870E+01 -3.28818E+01 -3.20240E+01
  -3.11477E+01 -3.04268E+01 -2.98641E+01 -2.94879E+01 -2.93414E+01 -2.93494E+01 -2.94662E+01 -2.96702E+01 -2.98845E+01 -3.00577E+01
  -3.01182E+01 -3.00572E+01 -2.99091E+01 -2.96925E+01 -2.95235E+01 -2.95035E+01 -2.95940E+01 -2.97413E+01 -2.98525E+01 -2.98909E+01
  -2.98619E+01 -2.96629E+01 -2.92501E+01 -2.87413E+01 -2.83539E+01 -2.82486E+01 -2.84461E+01 -2.88280E+01 -2.92406E+01 -2.96529E+01
  -3.02059E+01 -3.08184E+01 -3.13464E+01 -3.17264E+01 -3.18898E+01 -3.18346E+01 -3.15210E+01 -3.09711E+01 -3.03775E+01 -2.99084E+01
  -2.96467E+01 -2.94908E+01 -2.91321E+01 -2.84165E+01 -2.73400E+01 -2.59602E+01 -2.42955E+01 -2.22349E+01 -1.99180E+01 -1.77694E+01
  -1.62304E+01 -1.55027E+01 -1.53984E+01 -1.56317E+01 -1.58878E+01 -1.59328E+01 -1.57084E+01 -1.50117E+01 -1.36460E+01 -1.17733E+01
  -9.68323E+00 -7.78552E+00 -6.48668E+00 -6.26229E+00 -7.17747E+00 -9.10234E+00 -1.18433E+01 -1.49132E+01 -1.74275E+01 -1.84572E+01
  -1.74342E+01 -1.48166E+01 -1.11452E+01 -6.87774E+00 -2.82914E+00 -2.00127E-01 -5.02769E-02 -2.47600E+00 -6.61166E+00 -1.15182E+01
  -1.59914E+01 -1.89475E+01 -1.98822E+01 -1.87370E+01 -1.59038E+01 -1.20202E+01 -7.81646E+00 -4.31679E+00 -1.88420E+00 -3.59384E-01
   7.48824E-01  1.57418E+00  1.99575E+00  2.33066E+00  2.93496E+00  3.62872E+00  4.01114E+00  3.92935E+00  3.47668E+00  2.77960E+00
   1.89422E+00  1.11984E+00  9.50465E-01  1.56645E+00  2.69680E+00  3.99708E+00  5.38857E+00  6.72872E+00  7.88771E+00  8.97204E+00
   1.01775E+01  1.16398E+01  1.36707E+01  1.86601E+01  3.00943E+01  4.60651E+01  6.44465E+01  8.44551E+01  1.04498E+02  1.20763E+02
   1.28657E+02  1.25831E+02  1.13535E+02  9.55616E+01  7.60865E+01  5.81362E+01  4.26595E+01  2.89409E+01  1.65767E+01  7.92271E+00
   4.90401E+00  4.21297E+00  4.13640E+00  4.37550E+00  4.74667E+00  5.03020E+00  5.18747E+00  5.22918E+00  5.16605E+00  5.04104E+00
   4.90332E+00  4.77046E+00  4.66792E+00  4.64345E+00  4.70851E+00  4.83872E+00  5.00955E+00  5.20398E+00  5.41674E+00  5.64399E+00
   5.87191E+00  6.10471E+00  6.35021E+00  6.61015E+00  6.88776E+00  7.18670E+00  7.50532E+00  7.84029E+00  8.18657E+00  8.54186E+00
   8.90203E+00  9.26361E+00  9.62341E+00  9.97754E+00  1.03224E+01  1.06566E+01  1.09795E+01  1.12927E+01  1.15981E+01  1.18986E+01
   1.21970E+01  1.24972E+01  1.28039E+01  1.31229E+01  1.34580E+01  1.38129E+01  1.41901E+01  1.45918E+01  1.50182E+01  1.54685E+01
   1.59395E+01  1.64265E+01  1.69228E+01  1.74211E+01  1.79122E+01  1.83867E+01  1.88338E+01  1.92437E+01  1.96066E+01  1.99146E+01
   2.01606E+01  2.03396E+01  2.04484E+01  2.04865E+01  2.04556E+01  2.03601E+01  2.02062E+01  2.00025E+01  1.97590E+01  1.94895E+01
   1.92107E+01  1.89255E+01  1.86276E+01  1.83211E+01  1.80089E+01  1.76888E+01  1.73566E+01  1.70189E+01  1.67070E+01  1.64517E+01
   1.62661E+01  1.61556E+01  1.61166E+01  1.61346E+01  1.61861E+01  1.62497E+01  1.63106E+01  1.63500E+01  1.63573E+01  1.63420E+01
   1.63123E+01  1.62709E+01  1.62145E+01  1.61449E+01  1.60768E+01  1.60146E+01  1.59533E+01  1.58928E+01  1.58345E+01  1.57812E+01
   1.57357E+01  1.57015E+01  1.56817E+01  1.56801E+01  1.57000E+01  1.57449E+01  1.58172E+01  1.59197E+01  1.60539E+01  1.62215E+01
   1.64228E+01  1.66578E+01  1.69247E+01  1.72215E+01  1.75445E+01  1.78895E+01  1.82507E+01  1.86214E+01  1.89937E+01  1.93595E+01
   1.97095E+01  2.00348E+01  2.03260E+01  2.05746E+01  2.07724E+01  2.09129E+01  2.09906E+01  2.10022E+01  2.09457E+01  2.08217E+01
   2.06320E+01  2.03812E+01  2.00747E+01  1.97199E+01  1.93248E+01  1.88982E+01  1.84491E+01  1.79867E+01  1.75195E+01  1.70556E+01
   1.66016E+01  1.61637E+01  1.57465E+01  1.53539E+01  1.49882E+01  1.46512E+01  1.43431E+01  1.40641E+01  1.38132E+01  1.35893E+01
   1.33907E+01  1.32157E+01  1.30621E+01  1.29281E+01  1.28116E+01  1.27111E+01  1.26245E+01  1.25503E+01  1.24868E+01  1.24331E+01
   1.23877E+01  1.23498E+01  1.23183E+01  1.22925E+01  1.22716E+01  1.22552E+01  1.22426E+01  1.22334E+01  1.22272E+01  1.22236E+01
   1.22224E+01  1.22233E+01  1.22261E+01  1.22307E+01  1.22366E+01  1.22439E+01  1.22523E+01  1.22620E+01  1.22726E+01  1.22841E+01
   1.22963E+01  1.23093E+01  1.23229E+01  1.23372E+01  1.23520E+01  1.23674E+01  1.23831E+01  1.23993E+01  1.24159E+01  1.24330E+01
   1.24503E+01  1.24679E+01  1.24858E+01  1.25041E+01  1.25226E+01  1.25414E+01  1.25603E+01  1.25796E+01  1.25989E+01  1.26186E+01
   1.26385E+01  1.26586E+01  1.26788E+01  1.26993E+01  1.27199E+01  1.27409E+01  1.27619E+01  1.27833E+01  1.28047E+01  1.28264E+01
   1.28483E+01  1.28705E+01  1.28929E+01  1.29155E+01  1.29383E+01  1.29614E+01  1.29848E+01  1.30086E+01  1.30326E+01  1.30570E+01
   1.30817E+01  1.31069E+01  1.31324E+01  1.31586E+01  1.31851E+01  1.32122E+01  1.32399E+01  1.32685E+01
 NY background values follow
    -9.814E+01   -9.762E+01   -9.711E+01   -9.659E+01   -9.607E+01   -9.556E+01   -9.504E+01   -9.452E+01   -9.401E+01   -9.349E+01
    -9.297E+01   -9.246E+01   -9.194E+01   -9.142E+01   -9.091E+01   -9.039E+01   -8.988E+01   -8.936E+01   -8.884E+01   -8.833E+01
    -8.782E+01   -8.730E+01   -8.679E+01   -8.627E+01   -8.576E+01   -8.525E+01   -8.474E+01   -8.422E+01   -8.371E+01   -8.320E+01
    -8.269E+01   -8.218E+01   -8.167E+01   -8.116E+01   -8.065E+01   -8.015E+01   -7.964E+01   -7.913E+01   -7.863E+01   -7.812E+01
    -7.762E+01   -7.712E+01   -7.661E+01   -7.611E+01   -7.561E+01   -7.511E+01   -7.461E+01   -7.412E+01   -7.362E+01   -7.312E+01
    -7.263E+01   -7.213E+01   -7.164E+01   -7.115E+01   -7.066E+01   -7.017E+01   -6.968E+01   -6.919E+01   -6.870E+01   -6.822E+01
    -6.773E+01   -6.725E+01   -6.677E+01   -6.629E+01   -6.581E+01   -6.533E+01   -6.486E+01   -6.438E+01   -6.391E+01   -6.344E+01
    -6.297E+01   -6.250E+01   -6.204E+01   -6.157E+01   -6.111E+01   -6.064E+01   -6.018E+01   -5.973E+01   -5.927E+01   -5.882E+01
    -5.836E+01   -5.791E+01   -5.746E+01   -5.701E+01   -5.657E+01   -5.613E+01   -5.568E+01   -5.524E+01   -5.481E+01   -5.437E+01
    -5.394E+01   -5.351E+01   -5.308E+01   -5.265E+01   -5.223E+01   -5.180E+01   -5.138E+01   -5.096E+01   -5.055E+01   -5.013E+01
    -4.972E+01   -4.931E+01   -4.890E+01   -4.850E+01   -4.809E+01   -4.769E+01   -4.729E+01   -4.689E+01   -4.650E+01   -4.610E+01
    -4.571E+01   -4.532E+01   -4.493E+01   -4.455E+01   -4.416E+01   -4.378E+01   -4.340E+01   -4.303E+01   -4.265E+01   -4.228E+01
    -4.190E+01   -4.153E+01   -4.117E+01   -4.080E+01   -4.044E+01   -4.008E+01   -3.972E+01   -3.936E+01   -3.900E+01   -3.865E+01
    -3.829E+01   -3.794E+01   -3.760E+01   -3.725E+01   -3.690E+01   -3.656E+01   -3.622E+01   -3.588E+01   -3.554E+01   -3.521E+01
    -3.488E+01   -3.454E+01   -3.421E+01   -3.388E+01   -3.356E+01   -3.323E+01   -3.291E+01   -3.259E+01   -3.227E+01   -3.195E+01
    -3.163E+01   -3.131E+01   -3.100E+01   -3.068E+01   -3.037E+01   -3.006E+01   -2.975E+01   -2.944E+01   -2.914E+01   -2.883E+01
    -2.852E+01   -2.822E+01   -2.792E+01   -2.762E+01   -2.731E+01   -2.702E+01   -2.672E+01   -2.642E+01   -2.612E+01   -2.582E+01
    -2.553E+01   -2.523E+01   -2.494E+01   -2.465E+01   -2.435E+01   -2.406E+01   -2.377E+01   -2.348E+01   -2.319E+01   -2.290E+01
    -2.261E+01   -2.232E+01   -2.203E+01   -2.174E+01   -2.145E+01   -2.117E+01   -2.088E+01   -2.059E+01   -2.031E+01   -2.002E+01
    -1.974E+01   -1.945E+01   -1.917E+01   -1.889E+01   -1.861E+01   -1.832E+01   -1.804E+01   -1.776E+01   -1.748E+01   -1.720E+01
    -1.693E+01   -1.665E+01   -1.637E+01   -1.610E+01   -1.582E+01   -1.555E+01   -1.528E+01   -1.500E+01   -1.473E+01   -1.446E+01
    -1.419E+01   -1.393E+01   -1.366E+01   -1.339E+01   -1.313E+01   -1.287E+01   -1.260E+01   -1.234E+01   -1.208E+01   -1.182E+01
    -1.156E+01   -1.131E+01   -1.105E+01   -1.080E+01   -1.054E+01   -1.029E+01   -1.004E+01   -9.790E+00   -9.541E+00   -9.295E+00
    -9.049E+00   -8.805E+00   -8.562E+00   -8.321E+00   -8.081E+00   -7.842E+00   -7.605E+00   -7.369E+00   -7.134E+00   -6.901E+00
    -6.669E+00   -6.438E+00   -6.209E+00   -5.982E+00   -5.755E+00   -5.531E+00   -5.307E+00   -5.085E+00   -4.865E+00   -4.645E+00
    -4.428E+00   -4.211E+00   -3.997E+00   -3.783E+00   -3.571E+00   -3.361E+00   -3.152E+00   -2.945E+00   -2.739E+00   -2.534E+00
    -2.331E+00   -2.130E+00   -1.930E+00   -1.731E+00   -1.535E+00   -1.339E+00   -1.145E+00   -9.530E-01   -7.622E-01   -5.730E-01
    -3.853E-01   -1.992E-01   -1.465E-02    1.683E-01    3.497E-01    5.296E-01    7.078E-01    8.845E-01    1.060E+00    1.233E+00
     1.405E+00    1.576E+00    1.745E+00    1.912E+00    2.078E+00    2.242E+00    2.404E+00    2.565E+00    2.725E+00    2.883E+00
     3.039E+00    3.194E+00    3.347E+00    3.498E+00    3.648E+00    3.797E+00    3.944E+00    4.089E+00    4.233E+00    4.375E+00
     4.515E+00    4.654E+00    4.792E+00    4.927E+00    5.062E+00    5.194E+00    5.325E+00    5.455E+00    5.583E+00    5.709E+00
     5.834E+00    5.957E+00    6.079E+00    6.199E+00    6.317E+00    6.434E+00    6.550E+00    6.663E+00    6.776E+00    6.886E+00
     6.995E+00    7.103E+00    7.209E+00    7.313E+00    7.416E+00    7.518E+00    7.618E+00    7.716E+00    7.813E+00    7.909E+00
     8.003E+00    8.096E+00    8.187E+00    8.277E+00    8.365E+00    8.452E+00    8.538E+00    8.622E+00    8.705E+00    8.787E+00
     8.867E+00    8.946E+00    9.024E+00    9.100E+00    9.175E+00    9.249E+00    9.322E+00    9.393E+00    9.463E+00    9.532E+00
     9.599E+00    9.666E+00    9.731E+00    9.795E+00    9.857E+00    9.919E+00    9.979E+00    1.004E+01    1.010E+01    1.015E+01
     1.021E+01    1.026E+01    1.032E+01    1.037E+01    1.042E+01    1.047E+01    1.052E+01    1.057E+01    1.062E+01    1.066E+01
     1.071E+01    1.075E+01    1.080E+01    1.084E+01    1.088E+01    1.092E+01    1.096E+01    1.100E+01    1.104E+01    1.108E+01
     1.112E+01    1.116E+01    1.119E+01    1.123E+01    1.126E+01    1.130E+01    1.133E+01    1.136E+01    1.140E+01    1.143E+01
     1.146E+01    1.149E+01    1.152E+01    1.155E+01    1.158E+01    1.161E+01    1.164E+01    1.167E+01    1.170E+01    1.173E+01
     1.175E+01    1.178E+01    1.181E+01    1.184E+01    1.186E+01    1.189E+01    1.192E+01    1.194E+01    1.197E+01    1.200E+01
     1.202E+01    1.205E+01    1.207E+01    1.210E+01    1.213E+01    1.215E+01    1.218E+01    1.220E+01    1.223E+01    1.225E+01
     1.228E+01    1.230E+01    1.233E+01    1.235E+01    1.238E+01    1.240E+01    1.243E+01    1.245E+01    1.248E+01    1.250E+01
     1.253E+01    1.255E+01    1.257E+01    1.260E+01    1.262E+01    1.265E+01    1.267E+01    1.269E+01    1.272E+01    1.274E+01
     1.276E+01    1.279E+01    1.281E+01    1.283E+01    1.286E+01    1.288E+01    1.290E+01    1.292E+01    1.295E+01    1.297E+01
     1.299E+01    1.301E+01    1.303E+01    1.306E+01    1.308E+01    1.310E+01    1.312E+01    1.314E+01    1.316E+01    1.319E+01
     1.321E+01    1.323E+01    1.325E+01    1.327E+01    1.329E+01    1.331E+01    1.333E+01    1.335E+01    1.338E+01    1.340E+01
     1.342E+01    1.344E+01    1.346E+01    1.348E+01    1.350E+01    1.352E+01    1.354E+01    1.356E+01    1.358E+01    1.360E+01
     1.362E+01    1.364E+01    1.366E+01    1.368E+01    1.371E+01    1.373E+01    1.375E+01    1.377E+01    1.379E+01    1.381E+01
     1.383E+01    1.385E+01    1.387E+01    1.389E+01    1.391E+01    1.393E+01    1.395E+01    1.397E+01
 PCr      Conc. = 2.65E+03
