 LCModel (Version 6.3-1L) Copyright: S.W. Provencher.          Ref.: Magn. Reson. Med. 30:672-679 (1993).                
 Slice#1 Row#12 Col#12  PD_05_press_2_raw_act
 36 lines in following concentration table = NCONC+1
    Conc.  %SD /Cr+PCr  Metabolite                                         
  229.685 115%   7.919 Ala                                                 
    4.176  77%   0.144 Asp                                                 
   29.006 120%   1.000 Cr                                                  
    0.000 999%   0.000 PCr                                                 
    2.500  77% 8.6E-02 GABA                                                
    2.511  77% 8.7E-02 Glc                                                 
    0.000 999%   0.000 Gln                                                 
    0.000 999%   0.000 Glu                                                 
    0.000 999%   0.000 GPC                                                 
   18.203 365%   0.628 PCh                                                 
   83.192  69%   2.868 GSH                                                 
  266.435  51%   9.186 Ins                                                 
 2.20E+03   9%  75.911 Lac                                                 
    0.000 999%   0.000 NAA                                                 
    0.000 999%   0.000 NAAG                                                
    0.841  77% 2.9E-02 Scyllo                                              
    4.197  76%   0.145 Tau                                                 
    2.908 126%   0.100 -CrCH2                                              
   18.203  72%   0.628 GPC+PCh                                             
    0.000 999%   0.000 NAA+NAAG                                            
   29.006 120%   1.000 Cr+PCr                                              
    0.000 999%   0.000 Glu+Gln                                             
    0.000 999%   0.000 Lip13a                                              
    0.000 999%   0.000 Lip13b                                              
    0.442 724% 1.5E-02 Lip09                                               
   22.274 115%   0.768 MM09                                                
    0.000 999%   0.000 Lip20                                               
   25.526 159%   0.880 MM20                                                
    6.027 145%   0.208 MM12                                                
   34.367  77%   1.185 MM14                                                
    0.000 999%   0.000 MM17                                                
    0.000 999%   0.000 Lip13a+Lip13b                                       
   40.394  81%   1.393 MM14+Lip13a+Lip13b+MM12                             
   22.715 114%   0.783 MM09+Lip09                                          
   25.526 159%   0.880 MM20+Lip20                                          
   6 lines in following misc. output table
  FWHM = 0.183 ppm    S/N =   2                                            
  Data shift = 0.038 ppm                                                   
  Ph:-172 deg      16.5 deg/ppm                                            
  alphaB,S = 8.5E+01,   4.1E+02                                            
    6 spline knots.   Ns = 9(2)                                            
   2 inflections.     1 extrema                                            
  498 points on ppm-axis = NY
      4.000000     3.992357     3.984714     3.977070     3.969427     3.961784     3.954141     3.946497     3.938854     3.931211
      3.923568     3.915925     3.908281     3.900638     3.892995     3.885352     3.877708     3.870065     3.862422     3.854779
      3.847136     3.839492     3.831849     3.824206     3.816563     3.808919     3.801276     3.793633     3.785990     3.778347
      3.770703     3.763060     3.755417     3.747774     3.740130     3.732487     3.724844     3.717201     3.709558     3.701914
      3.694271     3.686628     3.678985     3.671341     3.663698     3.656055     3.648412     3.640769     3.633125     3.625482
      3.617839     3.610196     3.602552     3.594909     3.587266     3.579623     3.571980     3.564336     3.556693     3.549050
      3.541407     3.533763     3.526120     3.518477     3.510834     3.503191     3.495547     3.487904     3.480261     3.472618
      3.464974     3.457331     3.449688     3.442045     3.434402     3.426758     3.419115     3.411472     3.403829     3.396185
      3.388542     3.380899     3.373256     3.365613     3.357969     3.350326     3.342683     3.335040     3.327396     3.319753
      3.312110     3.304467     3.296824     3.289180     3.281537     3.273894     3.266251     3.258607     3.250964     3.243321
      3.235678     3.228034     3.220391     3.212748     3.205105     3.197462     3.189818     3.182175     3.174532     3.166889
      3.159245     3.151602     3.143959     3.136316     3.128673     3.121029     3.113386     3.105743     3.098100     3.090456
      3.082813     3.075170     3.067527     3.059884     3.052240     3.044597     3.036954     3.029311     3.021667     3.014024
      3.006381     2.998738     2.991095     2.983451     2.975808     2.968165     2.960522     2.952878     2.945235     2.937592
      2.929949     2.922306     2.914662     2.907019     2.899376     2.891733     2.884089     2.876446     2.868803     2.861160
      2.853517     2.845873     2.838230     2.830587     2.822944     2.815300     2.807657     2.800014     2.792371     2.784728
      2.777084     2.769441     2.761798     2.754155     2.746511     2.738868     2.731225     2.723582     2.715939     2.708295
      2.700652     2.693009     2.685366     2.677722     2.670079     2.662436     2.654793     2.647150     2.639506     2.631863
      2.624220     2.616577     2.608933     2.601290     2.593647     2.586004     2.578361     2.570717     2.563074     2.555431
      2.547788     2.540144     2.532501     2.524858     2.517215     2.509572     2.501928     2.494285     2.486642     2.478999
      2.471355     2.463712     2.456069     2.448426     2.440783     2.433139     2.425496     2.417853     2.410210     2.402566
      2.394923     2.387280     2.379637     2.371994     2.364350     2.356707     2.349064     2.341421     2.333777     2.326134
      2.318491     2.310848     2.303205     2.295561     2.287918     2.280275     2.272632     2.264988     2.257345     2.249702
      2.242059     2.234416     2.226772     2.219129     2.211486     2.203843     2.196199     2.188556     2.180913     2.173270
      2.165627     2.157983     2.150340     2.142697     2.135054     2.127410     2.119767     2.112124     2.104481     2.096838
      2.089194     2.081551     2.073908     2.066265     2.058621     2.050978     2.043335     2.035692     2.028049     2.020405
      2.012762     2.005119     1.997476     1.989833     1.982190     1.974546     1.966903     1.959260     1.951617     1.943974
      1.936331     1.928688     1.921045     1.913402     1.905759     1.898115     1.890472     1.882829     1.875186     1.867543
      1.859900     1.852257     1.844614     1.836971     1.829327     1.821684     1.814041     1.806398     1.798755     1.791112
      1.783469     1.775826     1.768183     1.760540     1.752896     1.745253     1.737610     1.729967     1.722324     1.714681
      1.707038     1.699395     1.691752     1.684108     1.676465     1.668822     1.661179     1.653536     1.645893     1.638250
      1.630607     1.622964     1.615321     1.607677     1.600034     1.592391     1.584748     1.577105     1.569462     1.561819
      1.554176     1.546533     1.538890     1.531246     1.523603     1.515960     1.508317     1.500674     1.493031     1.485388
      1.477745     1.470102     1.462458     1.454815     1.447172     1.439529     1.431886     1.424243     1.416600     1.408957
      1.401314     1.393671     1.386027     1.378384     1.370741     1.363098     1.355455     1.347812     1.340169     1.332526
      1.324883     1.317240     1.309596     1.301953     1.294310     1.286667     1.279024     1.271381     1.263738     1.256095
      1.248452     1.240808     1.233165     1.225522     1.217879     1.210236     1.202593     1.194950     1.187307     1.179664
      1.172021     1.164377     1.156734     1.149091     1.141448     1.133805     1.126162     1.118519     1.110876     1.103233
      1.095590     1.087946     1.080303     1.072660     1.065017     1.057374     1.049731     1.042088     1.034445     1.026802
      1.019158     1.011515     1.003872     0.996229     0.988586     0.980943     0.973300     0.965657     0.958014     0.950371
      0.942727     0.935084     0.927441     0.919798     0.912155     0.904512     0.896869     0.889226     0.881583     0.873940
      0.866296     0.858653     0.851010     0.843367     0.835724     0.828081     0.820438     0.812795     0.805152     0.797508
      0.789865     0.782222     0.774579     0.766936     0.759293     0.751650     0.744007     0.736364     0.728721     0.721077
      0.713434     0.705791     0.698148     0.690505     0.682862     0.675219     0.667576     0.659933     0.652290     0.644646
      0.637003     0.629360     0.621717     0.614074     0.606431     0.598788     0.591145     0.583502     0.575858     0.568215
      0.560572     0.552929     0.545286     0.537643     0.530000     0.522357     0.514714     0.507071     0.499427     0.491784
      0.484141     0.476498     0.468855     0.461212     0.453569     0.445925     0.438282     0.430639     0.422996     0.415353
      0.407710     0.400067     0.392424     0.384780     0.377137     0.369494     0.361851     0.354208     0.346565     0.338922
      0.331278     0.323635     0.315992     0.308349     0.300706     0.293063     0.285420     0.277777     0.270133     0.262490
      0.254847     0.247204     0.239561     0.231918     0.224275     0.216631     0.208988     0.201345
 NY phased data points follow
  -2.71994E+00  1.18337E+00 -2.11232E+00 -1.98575E+00 -1.46183E+00 -3.19924E-01 -8.68446E-02 -1.33550E+00 -1.71912E+00 -1.37877E+00
  -1.04242E+00  1.23011E-01  1.68600E-01 -1.01112E+00  2.06184E+00 -6.21388E-01  3.88994E-01 -1.18004E+00 -7.10161E-01 -2.21619E-01
  -1.80497E-02 -5.02557E-01  4.72284E-01  6.63488E-01 -9.30835E-01 -1.70104E+00  2.78317E-01 -9.65770E-01 -4.18556E-01 -4.91493E-01
   4.20898E-01  3.73963E-01  4.91740E-01 -2.26659E-01 -2.73734E-01 -7.49201E-01  5.99418E-01 -2.00386E+00 -6.39283E-01  1.44654E+00
  -1.88684E-01 -1.15709E+00 -1.89890E+00  4.41318E-02  1.63021E+00 -2.95176E-01  9.96513E-01  8.49531E-02 -1.53516E+00  3.37809E-02
  -8.61052E-01  5.50819E-01 -1.31765E+00 -1.64305E+00 -2.45617E-01  1.59471E+00  6.93038E-01 -5.19277E-01  5.78604E-01  1.19413E+00
  -9.73891E-01 -7.65056E-01  1.19344E+00  4.29642E+00 -3.44742E-01 -3.63337E-01  8.36320E-01 -2.75752E-01 -3.69436E-01 -1.86063E+00
   5.47601E-01 -9.82111E-01 -3.36257E+00 -2.69834E+00  8.05329E-01 -3.19361E+00 -1.34674E+00  1.31744E+00 -9.64406E-01 -3.39207E-01
  -4.86259E-01  8.10837E-01 -1.73719E+00  5.18857E-01 -1.28887E+00 -2.30040E-01 -5.77913E-01 -2.84540E-01  1.33195E+00  8.87578E-02
   1.30650E-02 -8.62916E-01  2.09298E-01 -1.14021E+00  8.02739E-01 -2.04168E-01 -7.87916E-01  5.37764E-01 -1.78697E+00  3.10967E-01
  -1.45428E+00 -1.41752E+00 -2.75878E-01 -1.68105E+00 -4.46422E-01  1.28839E-01 -7.95813E-01 -7.43304E-01  1.14876E+00 -1.04070E+00
   8.16665E-01 -1.92329E+00 -1.03980E+00 -2.58819E-01 -8.85944E-01 -1.13705E+00 -2.38027E-01 -1.24606E+00  9.04079E-02 -1.34908E+00
  -1.16801E+00  5.64849E-01 -3.68200E+00  2.03556E-01 -1.37616E-01  8.49991E-01  1.33713E-01  1.31977E+00 -2.18481E-01 -9.48258E-01
  -1.94698E-01  2.00497E-01 -1.54665E+00 -9.76122E-01  1.01196E+00 -6.81686E-01 -6.29913E-01 -4.86652E-01 -7.19784E-01  4.25091E-01
   3.07596E-04 -1.79312E+00  9.79553E-01 -1.15364E+00 -3.70746E+00 -1.31500E+00  5.20810E-02  4.21009E-01  7.52748E-02 -5.42735E-01
  -1.23260E+00  6.06352E-02 -7.02412E-02 -1.46266E+00 -5.72670E-01 -4.40376E-01 -1.76057E+00  1.38984E+00 -2.48144E+00 -2.14415E-01
  -3.78802E-01  9.45608E-02 -2.30384E+00 -5.54319E-01 -4.50734E-01 -8.33546E-01  2.52328E+00 -1.70061E+00 -1.08419E+00 -7.03016E-01
  -7.28944E-01  2.85537E+00  7.35250E-01 -6.03045E-02  6.01671E-01 -2.25724E+00 -8.13776E-01  2.32903E+00  2.06285E+00  4.91552E-01
  -1.48384E+00  1.10377E+00 -1.97884E+00 -2.51018E+00 -1.44451E+00 -8.96508E-02 -6.58214E-01 -1.70143E+00  8.22890E-01  2.32182E+00
  -8.14228E-01  1.08841E+00  4.54691E-01  9.55291E-01  2.71907E+00  2.71792E-01  1.18711E-01 -4.32312E-03 -1.49965E+00 -2.86644E-01
   4.15649E-01 -2.33967E-01  6.46653E-01  1.66200E+00 -8.97337E-01 -3.21795E-01 -1.46658E+00 -9.46479E-01 -1.08783E+00 -7.76168E-03
   4.50725E-01 -7.09483E-01 -1.60760E+00 -1.43111E+00  1.70826E-01 -1.71691E+00  2.65324E+00 -1.87167E-01  1.12572E+00 -4.19712E-01
  -7.21616E-01  1.71446E+00 -1.88488E+00 -3.54842E-01  4.72920E-01 -2.07770E+00 -1.49451E+00 -3.24809E-01 -1.98661E+00 -2.74898E+00
  -2.01079E+00 -9.11683E-01  3.84392E-01 -1.14812E+00 -9.10733E-01 -6.79443E-01  1.03746E-02 -1.79513E+00 -9.60644E-02 -1.72137E+00
  -2.21524E+00  1.52438E+00 -1.62610E+00 -8.82858E-01 -1.00632E+00  4.79658E-02 -7.61676E-01 -1.86023E+00 -5.72858E-01 -1.27351E+00
  -1.93721E+00 -1.57377E+00 -1.65479E+00 -2.76400E+00 -2.33970E+00 -4.05438E+00  4.53343E-01  9.34161E-02 -1.10368E+00  1.90698E-02
  -1.35923E-01 -2.82629E+00  1.25070E+00  4.00137E-01  1.59698E+00 -3.30512E+00 -5.93742E-01  4.49877E-01  7.65346E-01  6.42747E-01
   1.90132E+00 -1.02508E+00  1.22139E-01 -1.44780E+00 -1.08755E-01  1.62443E-01  4.16688E-01  1.23948E+00 -9.54432E-01 -5.77257E-01
  -3.80967E-01  7.11665E-01 -3.56841E-01  5.90426E-01 -2.56405E+00 -4.28856E-01 -1.11282E+00 -9.94787E-01 -1.66433E+00 -2.31968E+00
  -9.04218E-01 -3.06465E+00 -2.75990E-01 -3.48972E+00 -1.92710E+00 -1.14927E+00 -3.23177E+00 -2.55714E+00 -1.72308E+00 -2.73175E+00
  -1.43249E+00 -1.45517E+00 -1.97803E+00 -1.71389E+00 -1.45780E+00 -1.72782E+00 -1.27365E+00 -2.94455E+00  5.83041E-02 -1.53884E+00
   7.16840E-02 -8.29391E-01 -3.43257E-01  9.18224E-02  2.14047E+00 -4.26564E-01 -8.60680E-01 -7.52602E-01 -1.43107E-01 -7.12860E-01
   4.80416E+00  1.89983E+00  1.88354E+00  4.16552E+00  5.11763E+00  5.69116E+00  4.65568E+00  4.79731E+00  5.94706E+00  7.12733E+00
   4.01083E+00  6.02530E+00  6.39146E+00  7.41768E+00  2.94536E+00  5.20166E+00  6.10097E+00  7.71121E+00  6.21877E+00  6.33155E+00
   4.89561E+00  6.82574E+00  6.11901E+00  5.96463E+00  7.09804E+00  6.11839E+00  3.21532E+00  5.74090E+00  5.90305E+00  4.89593E+00
   1.59922E+00  3.40767E+00  1.86715E+00  3.16110E+00  2.79396E+00  3.27279E+00  1.19431E+00  2.32664E+00  1.21494E+00  3.16312E+00
   1.78996E+00 -2.37573E-01 -7.90969E-02  1.20378E+00 -9.67541E-02  1.64431E+00  1.44767E+00  1.95189E+00  1.99308E+00  1.57691E+00
   4.83121E-01  7.05730E-01  6.59848E-01  8.47826E-01  2.47464E+00  4.09149E+00  3.28437E+00  1.56530E+00 -3.32502E-01  1.88847E+00
   2.85533E+00  3.05553E+00  1.72234E+00  2.82424E+00  1.26231E+00  2.61264E+00  2.48037E-01  6.72251E-01  9.66912E-01  1.88544E+00
   2.14717E+00  1.49220E+00  1.24234E-01  1.84116E+00 -5.19069E-01  1.53941E+00 -1.47373E+00  3.77326E-01  2.30040E+00  5.43920E-01
   1.75949E+00 -6.50323E-01  1.29880E+00  1.70460E+00 -7.08252E-01 -1.21331E+00 -7.62242E-01  1.09122E+00  1.86769E+00  6.59426E-01
  -2.67106E-01  8.45029E-01 -1.30284E-01  1.74423E+00  1.78795E+00  3.93944E-01  1.19032E+00  6.09697E-01  1.39106E+00  1.64522E+00
   5.64853E-01  1.15828E+00  8.98735E-01  1.09081E+00  2.09013E-01 -1.08225E-01  1.26705E+00  1.42851E+00  8.84499E-01  5.72455E-01
  -4.10124E-01 -1.03368E+00  3.71143E-01  1.19256E+00 -1.68459E-01  1.50432E+00 -8.97682E-01 -5.04053E-01  1.18523E-01  1.27591E+00
   1.92382E+00 -8.17947E-01 -8.22739E-01 -1.26952E+00 -4.47223E-01  1.17178E+00 -1.23492E+00  2.20130E+00 -6.96898E-01 -2.36775E-01
   2.02010E+00 -7.96402E-01 -2.03813E+00  3.45394E-01 -1.25989E+00  1.39836E+00  1.84936E+00 -1.16806E+00  6.28254E-01 -6.31343E-01
   7.39343E-01  3.90267E-01  6.61520E-03  5.08126E-01 -1.11653E+00 -2.49878E+00  3.93765E-01 -2.53742E+00  5.32846E-01 -5.40090E-01
   9.59938E-01  2.79998E+00  9.83797E-01  7.05892E-01  9.21310E-01  1.41766E+00  5.18487E-03 -3.66557E-01 -6.32472E-01  9.20227E-01
   2.89877E-02  3.50139E-01 -3.02583E-01  4.91518E-01 -1.24485E+00 -7.24800E-01  1.68471E+00  2.63167E+00  3.84847E-01  4.55238E-01
   5.11563E-01 -3.67824E-01 -6.89867E-01  3.67796E-02 -5.40579E-02  1.68907E-01  1.34759E+00  1.87859E-01
 NY points of the fit to the data follow
  -4.68542E-01 -6.53791E-01 -4.27883E-01 -5.60654E-01 -3.78677E-01 -5.24785E-01 -4.59712E-01 -5.93846E-01 -6.13967E-01 -7.19303E-01
  -7.75777E-01 -8.08193E-01 -7.74354E-01 -7.34882E-01 -6.85848E-01 -6.08298E-01 -5.64281E-01 -4.87198E-01 -4.56100E-01 -4.05699E-01
  -3.65918E-01 -3.30054E-01 -2.91530E-01 -2.76575E-01 -2.37873E-01 -2.45870E-01 -2.02569E-01 -2.30270E-01 -1.71277E-01 -1.90087E-01
  -1.02233E-01 -1.22861E-01 -3.30442E-02 -6.65824E-02  8.69255E-03 -4.49191E-02  1.16671E-02 -5.58527E-02 -1.20251E-02 -8.76287E-02
  -5.63527E-02 -1.21231E-01 -9.26779E-02 -1.40977E-01 -1.17518E-01 -1.55974E-01 -1.46315E-01 -1.82913E-01 -1.94223E-01 -2.30667E-01
  -2.47143E-01 -2.75282E-01 -2.79723E-01 -3.06950E-01 -3.04483E-01 -3.24072E-01 -3.11156E-01 -3.31673E-01 -3.14838E-01 -3.40146E-01
  -3.24091E-01 -3.61022E-01 -3.51213E-01 -3.95497E-01 -3.83731E-01 -4.26694E-01 -4.07591E-01 -4.42389E-01 -4.14355E-01 -4.44622E-01
  -4.15544E-01 -4.61558E-01 -4.45445E-01 -5.07024E-01 -4.98553E-01 -5.66739E-01 -5.60017E-01 -6.28856E-01 -6.18106E-01 -6.85574E-01
  -6.74558E-01 -7.39689E-01 -7.27890E-01 -7.93017E-01 -7.77913E-01 -8.17401E-01 -7.82571E-01 -8.15254E-01 -7.62950E-01 -7.95085E-01
  -7.26020E-01 -7.60745E-01 -6.77076E-01 -7.14410E-01 -6.16771E-01 -6.60596E-01 -5.55280E-01 -6.06630E-01 -4.96303E-01 -5.54094E-01
  -4.41232E-01 -5.06351E-01 -3.95807E-01 -4.71640E-01 -3.69618E-01 -4.56625E-01 -3.67961E-01 -4.63127E-01 -3.86391E-01 -4.66634E-01
  -4.04394E-01 -4.69725E-01 -4.20878E-01 -4.70117E-01 -4.32803E-01 -4.60386E-01 -4.33895E-01 -4.50912E-01 -4.42257E-01 -4.51657E-01
  -4.62927E-01 -4.57102E-01 -4.76632E-01 -4.47861E-01 -4.63418E-01 -4.15700E-01 -4.24301E-01 -3.85833E-01 -3.95254E-01 -3.71599E-01
  -3.81735E-01 -3.74212E-01 -3.84449E-01 -3.92334E-01 -4.01630E-01 -4.21773E-01 -4.29447E-01 -4.60387E-01 -4.64502E-01 -5.03440E-01
  -5.03636E-01 -5.49080E-01 -5.46356E-01 -5.95481E-01 -5.90324E-01 -6.38190E-01 -6.30671E-01 -6.70996E-01 -6.60554E-01 -6.86499E-01
  -6.76318E-01 -6.96503E-01 -6.88068E-01 -7.03044E-01 -6.96326E-01 -7.06351E-01 -7.03179E-01 -7.14690E-01 -7.17265E-01 -7.27404E-01
  -7.32660E-01 -7.37865E-01 -7.41585E-01 -7.42327E-01 -7.43598E-01 -7.43503E-01 -7.43792E-01 -7.46459E-01 -7.46086E-01 -7.51303E-01
  -7.49907E-01 -7.55016E-01 -7.48301E-01 -7.49749E-01 -7.36627E-01 -7.37678E-01 -7.22086E-01 -7.25765E-01 -7.11224E-01 -7.23145E-01
  -7.12627E-01 -7.22710E-01 -7.12553E-01 -7.17737E-01 -7.07858E-01 -7.07040E-01 -6.98091E-01 -6.91790E-01 -6.85019E-01 -6.73281E-01
  -6.69333E-01 -6.52686E-01 -6.52627E-01 -6.31957E-01 -6.36072E-01 -6.11399E-01 -6.19472E-01 -5.90828E-01 -6.00678E-01 -5.68689E-01
  -5.79163E-01 -5.45787E-01 -5.56548E-01 -5.24845E-01 -5.35802E-01 -5.07601E-01 -5.17438E-01 -4.92980E-01 -4.99879E-01 -4.77576E-01
  -4.79953E-01 -4.59379E-01 -4.57591E-01 -4.45149E-01 -4.44115E-01 -4.38525E-01 -4.38368E-01 -4.36106E-01 -4.34040E-01 -4.27891E-01
  -4.22842E-01 -4.17677E-01 -4.13632E-01 -4.13877E-01 -4.12463E-01 -4.19155E-01 -4.20182E-01 -4.26522E-01 -4.23640E-01 -4.28483E-01
  -4.21212E-01 -4.24483E-01 -4.13301E-01 -4.16760E-01 -4.04249E-01 -4.09180E-01 -3.96579E-01 -4.03591E-01 -3.91118E-01 -3.99011E-01
  -3.86295E-01 -3.93017E-01 -3.79267E-01 -3.82623E-01 -3.67325E-01 -3.67192E-01 -3.51646E-01 -3.49993E-01 -3.36479E-01 -3.35101E-01
  -3.25273E-01 -3.24389E-01 -3.18443E-01 -3.17181E-01 -3.13485E-01 -3.07569E-01 -3.03316E-01 -2.93458E-01 -2.88610E-01 -2.76981E-01
  -2.73651E-01 -2.66777E-01 -2.66902E-01 -2.62755E-01 -2.63818E-01 -2.60155E-01 -2.60127E-01 -2.54169E-01 -2.50591E-01 -2.43747E-01
  -2.38402E-01 -2.31587E-01 -2.25390E-01 -2.18981E-01 -2.12762E-01 -2.06472E-01 -1.99948E-01 -1.93142E-01 -1.86039E-01 -1.78546E-01
  -1.70706E-01 -1.62379E-01 -1.53673E-01 -1.44387E-01 -1.34644E-01 -1.24248E-01 -1.13334E-01 -1.01745E-01 -8.96088E-02 -7.67514E-02
  -6.32564E-02 -4.89418E-02 -3.38828E-02 -1.78222E-02 -8.84412E-04  1.72727E-02  3.65457E-02  5.73164E-02  7.95140E-02  1.03553E-01
   1.29448E-01  1.57783E-01  1.88793E-01  2.23272E-01  2.61899E-01  3.06169E-01  3.58238E-01  4.23144E-01  5.13680E-01  6.28040E-01
   6.83681E-01  8.06533E-01  8.11561E-01  9.33229E-01  8.84069E-01  9.93953E-01  8.94186E-01  1.07416E+00  9.73871E-01  1.22017E+00
   1.12747E+00  1.43411E+00  1.35841E+00  1.72692E+00  1.68956E+00  2.15317E+00  2.23205E+00  2.94456E+00  3.49995E+00  4.21836E+00
   4.51030E+00  5.09610E+00  4.93639E+00  5.34582E+00  4.62126E+00  4.81624E+00  4.21262E+00  4.66248E+00  4.09099E+00  4.77232E+00
   4.11720E+00  4.96484E+00  4.13430E+00  5.06831E+00  4.04133E+00  5.02811E+00  3.76784E+00  4.80023E+00  3.38337E+00  4.47027E+00
   2.98478E+00  4.14658E+00  2.76269E+00  4.01549E+00  2.75188E+00  4.00781E+00  2.81219E+00  4.00874E+00  2.86258E+00  3.89850E+00
   2.85286E+00  3.72950E+00  2.91356E+00  3.67520E+00  3.13349E+00  3.77354E+00  3.45798E+00  3.93911E+00  3.73944E+00  3.88626E+00
   3.39668E+00  3.24945E+00  2.65495E+00  2.33385E+00  1.78853E+00  1.43139E+00  1.19840E+00  1.02780E+00  8.95365E-01  7.89182E-01
   7.02095E-01  6.29755E-01  5.68980E-01  5.17724E-01  4.74224E-01  4.37385E-01  4.06121E-01  3.79843E-01  3.57811E-01  3.39660E-01
   3.24790E-01  3.12943E-01  3.03609E-01  2.96601E-01  2.91431E-01  2.87900E-01  2.85503E-01  2.84045E-01  2.83042E-01  2.82329E-01
   2.81442E-01  2.80245E-01  2.78327E-01  2.75642E-01  2.71893E-01  2.67145E-01  2.61199E-01  2.54222E-01  2.46124E-01  2.37183E-01
   2.27404E-01  2.17126E-01  2.06384E-01  1.95530E-01  1.84606E-01  1.73958E-01  1.63601E-01  1.53826E-01  1.44580E-01  1.36098E-01
   1.28280E-01  1.21315E-01  1.15054E-01  1.09635E-01  1.04865E-01  1.00860E-01  9.74211E-02  9.46572E-02  9.23583E-02  9.06222E-02
   8.92388E-02  8.83187E-02  8.76689E-02  8.74076E-02  8.73424E-02  8.75915E-02  8.79728E-02  8.86205E-02  8.93653E-02  9.03428E-02
   9.13801E-02  9.26132E-02  9.38790E-02  9.53249E-02  9.67921E-02  9.84234E-02  1.00055E-01  1.01831E-01  1.03598E-01  1.05507E-01
   1.07401E-01  1.09428E-01  1.11424E-01  1.13543E-01  1.15631E-01  1.17842E-01  1.20018E-01  1.22309E-01  1.24553E-01  1.26909E-01
   1.29221E-01  1.31645E-01  1.34021E-01  1.36501E-01  1.38925E-01  1.41454E-01  1.43932E-01  1.46516E-01  1.49041E-01  1.51663E-01
   1.54226E-01  1.56890E-01  1.59498E-01  1.62205E-01  1.64849E-01  1.67587E-01  1.70263E-01  1.73039E-01  1.75755E-01  1.78566E-01
   1.81313E-01  1.84153E-01  1.86934E-01  1.89813E-01  1.92632E-01  1.95546E-01  1.98399E-01  2.01350E-01  2.04247E-01  2.07247E-01
   2.10196E-01  2.13248E-01  2.16255E-01  2.19380E-01  2.22476E-01  2.25707E-01  2.28933E-01  2.32328E-01
 NY background values follow
    -1.344E+00   -1.341E+00   -1.338E+00   -1.335E+00   -1.332E+00   -1.329E+00   -1.326E+00   -1.322E+00   -1.319E+00   -1.316E+00
    -1.313E+00   -1.310E+00   -1.307E+00   -1.304E+00   -1.301E+00   -1.297E+00   -1.294E+00   -1.291E+00   -1.288E+00   -1.285E+00
    -1.282E+00   -1.279E+00   -1.276E+00   -1.272E+00   -1.269E+00   -1.266E+00   -1.263E+00   -1.260E+00   -1.257E+00   -1.254E+00
    -1.251E+00   -1.247E+00   -1.244E+00   -1.241E+00   -1.238E+00   -1.235E+00   -1.232E+00   -1.229E+00   -1.226E+00   -1.222E+00
    -1.219E+00   -1.216E+00   -1.213E+00   -1.210E+00   -1.207E+00   -1.204E+00   -1.201E+00   -1.197E+00   -1.194E+00   -1.191E+00
    -1.188E+00   -1.185E+00   -1.182E+00   -1.179E+00   -1.176E+00   -1.172E+00   -1.169E+00   -1.166E+00   -1.163E+00   -1.160E+00
    -1.157E+00   -1.154E+00   -1.151E+00   -1.147E+00   -1.144E+00   -1.141E+00   -1.138E+00   -1.135E+00   -1.132E+00   -1.129E+00
    -1.126E+00   -1.122E+00   -1.119E+00   -1.116E+00   -1.113E+00   -1.110E+00   -1.107E+00   -1.104E+00   -1.101E+00   -1.098E+00
    -1.094E+00   -1.091E+00   -1.088E+00   -1.085E+00   -1.082E+00   -1.079E+00   -1.076E+00   -1.073E+00   -1.069E+00   -1.066E+00
    -1.063E+00   -1.060E+00   -1.057E+00   -1.054E+00   -1.051E+00   -1.048E+00   -1.044E+00   -1.041E+00   -1.038E+00   -1.035E+00
    -1.032E+00   -1.029E+00   -1.026E+00   -1.023E+00   -1.019E+00   -1.016E+00   -1.013E+00   -1.010E+00   -1.007E+00   -1.004E+00
    -1.001E+00   -9.975E-01   -9.944E-01   -9.913E-01   -9.881E-01   -9.850E-01   -9.819E-01   -9.788E-01   -9.756E-01   -9.725E-01
    -9.694E-01   -9.663E-01   -9.631E-01   -9.600E-01   -9.569E-01   -9.538E-01   -9.506E-01   -9.475E-01   -9.444E-01   -9.413E-01
    -9.381E-01   -9.350E-01   -9.319E-01   -9.288E-01   -9.256E-01   -9.225E-01   -9.194E-01   -9.163E-01   -9.131E-01   -9.100E-01
    -9.069E-01   -9.037E-01   -9.006E-01   -8.975E-01   -8.944E-01   -8.912E-01   -8.881E-01   -8.850E-01   -8.819E-01   -8.787E-01
    -8.756E-01   -8.725E-01   -8.694E-01   -8.662E-01   -8.631E-01   -8.600E-01   -8.569E-01   -8.537E-01   -8.506E-01   -8.475E-01
    -8.443E-01   -8.412E-01   -8.381E-01   -8.350E-01   -8.318E-01   -8.287E-01   -8.256E-01   -8.225E-01   -8.193E-01   -8.162E-01
    -8.131E-01   -8.099E-01   -8.068E-01   -8.037E-01   -8.006E-01   -7.974E-01   -7.943E-01   -7.912E-01   -7.881E-01   -7.849E-01
    -7.818E-01   -7.787E-01   -7.755E-01   -7.724E-01   -7.693E-01   -7.662E-01   -7.630E-01   -7.599E-01   -7.568E-01   -7.536E-01
    -7.505E-01   -7.474E-01   -7.443E-01   -7.411E-01   -7.380E-01   -7.349E-01   -7.317E-01   -7.286E-01   -7.255E-01   -7.224E-01
    -7.192E-01   -7.161E-01   -7.130E-01   -7.098E-01   -7.067E-01   -7.036E-01   -7.004E-01   -6.973E-01   -6.942E-01   -6.911E-01
    -6.879E-01   -6.848E-01   -6.817E-01   -6.785E-01   -6.754E-01   -6.723E-01   -6.691E-01   -6.660E-01   -6.629E-01   -6.597E-01
    -6.566E-01   -6.535E-01   -6.503E-01   -6.472E-01   -6.441E-01   -6.410E-01   -6.378E-01   -6.347E-01   -6.316E-01   -6.284E-01
    -6.253E-01   -6.222E-01   -6.190E-01   -6.159E-01   -6.128E-01   -6.096E-01   -6.065E-01   -6.034E-01   -6.002E-01   -5.971E-01
    -5.940E-01   -5.908E-01   -5.877E-01   -5.846E-01   -5.814E-01   -5.783E-01   -5.752E-01   -5.720E-01   -5.689E-01   -5.657E-01
    -5.626E-01   -5.595E-01   -5.563E-01   -5.532E-01   -5.501E-01   -5.469E-01   -5.438E-01   -5.407E-01   -5.375E-01   -5.344E-01
    -5.313E-01   -5.281E-01   -5.250E-01   -5.218E-01   -5.187E-01   -5.156E-01   -5.124E-01   -5.093E-01   -5.062E-01   -5.030E-01
    -4.999E-01   -4.967E-01   -4.936E-01   -4.905E-01   -4.873E-01   -4.842E-01   -4.810E-01   -4.779E-01   -4.748E-01   -4.716E-01
    -4.685E-01   -4.653E-01   -4.622E-01   -4.591E-01   -4.559E-01   -4.528E-01   -4.496E-01   -4.465E-01   -4.434E-01   -4.402E-01
    -4.371E-01   -4.339E-01   -4.308E-01   -4.276E-01   -4.245E-01   -4.214E-01   -4.182E-01   -4.151E-01   -4.119E-01   -4.088E-01
    -4.056E-01   -4.025E-01   -3.994E-01   -3.962E-01   -3.931E-01   -3.899E-01   -3.868E-01   -3.836E-01   -3.805E-01   -3.773E-01
    -3.742E-01   -3.711E-01   -3.679E-01   -3.648E-01   -3.616E-01   -3.585E-01   -3.553E-01   -3.522E-01   -3.490E-01   -3.459E-01
    -3.427E-01   -3.396E-01   -3.364E-01   -3.333E-01   -3.301E-01   -3.270E-01   -3.238E-01   -3.207E-01   -3.175E-01   -3.144E-01
    -3.112E-01   -3.081E-01   -3.049E-01   -3.018E-01   -2.986E-01   -2.955E-01   -2.923E-01   -2.892E-01   -2.860E-01   -2.829E-01
    -2.797E-01   -2.766E-01   -2.734E-01   -2.703E-01   -2.671E-01   -2.640E-01   -2.608E-01   -2.577E-01   -2.545E-01   -2.514E-01
    -2.482E-01   -2.450E-01   -2.419E-01   -2.387E-01   -2.356E-01   -2.324E-01   -2.293E-01   -2.261E-01   -2.230E-01   -2.198E-01
    -2.167E-01   -2.135E-01   -2.103E-01   -2.072E-01   -2.040E-01   -2.009E-01   -1.977E-01   -1.946E-01   -1.914E-01   -1.882E-01
    -1.851E-01   -1.819E-01   -1.788E-01   -1.756E-01   -1.725E-01   -1.693E-01   -1.661E-01   -1.630E-01   -1.598E-01   -1.567E-01
    -1.535E-01   -1.503E-01   -1.472E-01   -1.440E-01   -1.409E-01   -1.377E-01   -1.345E-01   -1.314E-01   -1.282E-01   -1.251E-01
    -1.219E-01   -1.187E-01   -1.156E-01   -1.124E-01   -1.093E-01   -1.061E-01   -1.029E-01   -9.978E-02   -9.662E-02   -9.345E-02
    -9.029E-02   -8.713E-02   -8.397E-02   -8.081E-02   -7.765E-02   -7.449E-02   -7.132E-02   -6.816E-02   -6.500E-02   -6.184E-02
    -5.867E-02   -5.551E-02   -5.235E-02   -4.919E-02   -4.602E-02   -4.286E-02   -3.970E-02   -3.654E-02   -3.337E-02   -3.021E-02
    -2.705E-02   -2.389E-02   -2.072E-02   -1.756E-02   -1.440E-02   -1.123E-02   -8.069E-03   -4.906E-03   -1.742E-03    1.421E-03
     4.585E-03    7.748E-03    1.091E-02    1.408E-02    1.724E-02    2.040E-02    2.357E-02    2.673E-02    2.989E-02    3.306E-02
     3.622E-02    3.939E-02    4.255E-02    4.571E-02    4.888E-02    5.204E-02    5.521E-02    5.837E-02    6.153E-02    6.470E-02
     6.786E-02    7.103E-02    7.419E-02    7.735E-02    8.052E-02    8.368E-02    8.685E-02    9.001E-02    9.317E-02    9.634E-02
     9.950E-02    1.027E-01    1.058E-01    1.090E-01    1.122E-01    1.153E-01    1.185E-01    1.216E-01    1.248E-01    1.280E-01
     1.311E-01    1.343E-01    1.375E-01    1.406E-01    1.438E-01    1.470E-01    1.501E-01    1.533E-01    1.564E-01    1.596E-01
     1.628E-01    1.659E-01    1.691E-01    1.723E-01    1.754E-01    1.786E-01    1.818E-01    1.849E-01    1.881E-01    1.912E-01
     1.944E-01    1.976E-01    2.007E-01    2.039E-01    2.071E-01    2.102E-01    2.134E-01    2.165E-01
 Ala      Conc. = 2.30E+02
