 LCModel (Version 6.3-1L) Copyright: S.W. Provencher.          Ref.: Magn. Reson. Med. 30:672-679 (1993).                
 Slice#3 Row#11 Col#9  PD_05_press_2_raw_act
 36 lines in following concentration table = NCONC+1
    Conc.  %SD /Cr+PCr  Metabolite                                         
  106.002 145%   0.428 Ala                                                 
   28.288 106%   0.114 Asp                                                 
    0.000 999%   0.000 Cr                                                  
  247.714  19%   1.000 PCr                                                 
   16.354 110% 6.6E-02 GABA                                                
   13.570 133% 5.5E-02 Glc                                                 
  670.673  51%   2.707 Gln                                                 
  237.466 155%   0.959 Glu                                                 
   44.384  41%   0.179 GPC                                                 
    0.000 999%   0.000 PCh                                                 
   97.916  76%   0.395 GSH                                                 
  157.743 141%   0.637 Ins                                                 
    0.999 999% 4.0E-03 Lac                                                 
  178.289  27%   0.720 NAA                                                 
    0.000 999%   0.000 NAAG                                                
    3.743 159% 1.5E-02 Scyllo                                              
    8.062 369% 3.3E-02 Tau                                                 
    0.000 999%   0.000 -CrCH2                                              
   44.384  41%   0.179 GPC+PCh                                             
  178.289  27%   0.720 NAA+NAAG                                            
  247.714  19%   1.000 Cr+PCr                                              
  908.139  65%   3.666 Glu+Gln                                             
 2.43E+03  16%   9.819 Lip13a                                              
    0.000 999%   0.000 Lip13b                                              
  611.099  19%   2.467 Lip09                                               
    1.866 999% 7.5E-03 MM09                                                
  365.939  22%   1.477 Lip20                                               
    0.000 999%   0.000 MM20                                                
    0.261 999% 1.1E-03 MM12                                                
   71.005  98%   0.287 MM14                                                
    0.000 999%   0.000 MM17                                                
 2.43E+03  16%   9.819 Lip13a+Lip13b                                       
 2.50E+03  15%  10.107 MM14+Lip13a+Lip13b+MM12                             
  612.964  19%   2.474 MM09+Lip09                                          
  365.939  22%   1.477 MM20+Lip20                                          
   6 lines in following misc. output table
  FWHM = 0.084 ppm    S/N =   2                                            
  Data shift = 0.000 ppm                                                   
  Ph: 141 deg     -29.3 deg/ppm                                            
  alphaB,S = 7.4E-01,   1.5E+02                                            
   14 spline knots.   Ns =10(1)                                            
  (11) 4 infls.   (10) 1 extrs.                                            
  498 points on ppm-axis = NY
      4.000000     3.992357     3.984714     3.977070     3.969427     3.961784     3.954141     3.946497     3.938854     3.931211
      3.923568     3.915925     3.908281     3.900638     3.892995     3.885352     3.877708     3.870065     3.862422     3.854779
      3.847136     3.839492     3.831849     3.824206     3.816563     3.808919     3.801276     3.793633     3.785990     3.778347
      3.770703     3.763060     3.755417     3.747774     3.740130     3.732487     3.724844     3.717201     3.709558     3.701914
      3.694271     3.686628     3.678985     3.671341     3.663698     3.656055     3.648412     3.640769     3.633125     3.625482
      3.617839     3.610196     3.602552     3.594909     3.587266     3.579623     3.571980     3.564336     3.556693     3.549050
      3.541407     3.533763     3.526120     3.518477     3.510834     3.503191     3.495547     3.487904     3.480261     3.472618
      3.464974     3.457331     3.449688     3.442045     3.434402     3.426758     3.419115     3.411472     3.403829     3.396185
      3.388542     3.380899     3.373256     3.365613     3.357969     3.350326     3.342683     3.335040     3.327396     3.319753
      3.312110     3.304467     3.296824     3.289180     3.281537     3.273894     3.266251     3.258607     3.250964     3.243321
      3.235678     3.228034     3.220391     3.212748     3.205105     3.197462     3.189818     3.182175     3.174532     3.166889
      3.159245     3.151602     3.143959     3.136316     3.128673     3.121029     3.113386     3.105743     3.098100     3.090456
      3.082813     3.075170     3.067527     3.059884     3.052240     3.044597     3.036954     3.029311     3.021667     3.014024
      3.006381     2.998738     2.991095     2.983451     2.975808     2.968165     2.960522     2.952878     2.945235     2.937592
      2.929949     2.922306     2.914662     2.907019     2.899376     2.891733     2.884089     2.876446     2.868803     2.861160
      2.853517     2.845873     2.838230     2.830587     2.822944     2.815300     2.807657     2.800014     2.792371     2.784728
      2.777084     2.769441     2.761798     2.754155     2.746511     2.738868     2.731225     2.723582     2.715939     2.708295
      2.700652     2.693009     2.685366     2.677722     2.670079     2.662436     2.654793     2.647150     2.639506     2.631863
      2.624220     2.616577     2.608933     2.601290     2.593647     2.586004     2.578361     2.570717     2.563074     2.555431
      2.547788     2.540144     2.532501     2.524858     2.517215     2.509572     2.501928     2.494285     2.486642     2.478999
      2.471355     2.463712     2.456069     2.448426     2.440783     2.433139     2.425496     2.417853     2.410210     2.402566
      2.394923     2.387280     2.379637     2.371994     2.364350     2.356707     2.349064     2.341421     2.333777     2.326134
      2.318491     2.310848     2.303205     2.295561     2.287918     2.280275     2.272632     2.264988     2.257345     2.249702
      2.242059     2.234416     2.226772     2.219129     2.211486     2.203843     2.196199     2.188556     2.180913     2.173270
      2.165627     2.157983     2.150340     2.142697     2.135054     2.127410     2.119767     2.112124     2.104481     2.096838
      2.089194     2.081551     2.073908     2.066265     2.058621     2.050978     2.043335     2.035692     2.028049     2.020405
      2.012762     2.005119     1.997476     1.989833     1.982190     1.974546     1.966903     1.959260     1.951617     1.943974
      1.936331     1.928688     1.921045     1.913402     1.905759     1.898115     1.890472     1.882829     1.875186     1.867543
      1.859900     1.852257     1.844614     1.836971     1.829327     1.821684     1.814041     1.806398     1.798755     1.791112
      1.783469     1.775826     1.768183     1.760540     1.752896     1.745253     1.737610     1.729967     1.722324     1.714681
      1.707038     1.699395     1.691752     1.684108     1.676465     1.668822     1.661179     1.653536     1.645893     1.638250
      1.630607     1.622964     1.615321     1.607677     1.600034     1.592391     1.584748     1.577105     1.569462     1.561819
      1.554176     1.546533     1.538890     1.531246     1.523603     1.515960     1.508317     1.500674     1.493031     1.485388
      1.477745     1.470102     1.462458     1.454815     1.447172     1.439529     1.431886     1.424243     1.416600     1.408957
      1.401314     1.393671     1.386027     1.378384     1.370741     1.363098     1.355455     1.347812     1.340169     1.332526
      1.324883     1.317240     1.309596     1.301953     1.294310     1.286667     1.279024     1.271381     1.263738     1.256095
      1.248452     1.240808     1.233165     1.225522     1.217879     1.210236     1.202593     1.194950     1.187307     1.179664
      1.172021     1.164377     1.156734     1.149091     1.141448     1.133805     1.126162     1.118519     1.110876     1.103233
      1.095590     1.087946     1.080303     1.072660     1.065017     1.057374     1.049731     1.042088     1.034445     1.026802
      1.019158     1.011515     1.003872     0.996229     0.988586     0.980943     0.973300     0.965657     0.958014     0.950371
      0.942727     0.935084     0.927441     0.919798     0.912155     0.904512     0.896869     0.889226     0.881583     0.873940
      0.866296     0.858653     0.851010     0.843367     0.835724     0.828081     0.820438     0.812795     0.805152     0.797508
      0.789865     0.782222     0.774579     0.766936     0.759293     0.751650     0.744007     0.736364     0.728721     0.721077
      0.713434     0.705791     0.698148     0.690505     0.682862     0.675219     0.667576     0.659933     0.652290     0.644646
      0.637003     0.629360     0.621717     0.614074     0.606431     0.598788     0.591145     0.583502     0.575858     0.568215
      0.560572     0.552929     0.545286     0.537643     0.530000     0.522357     0.514714     0.507071     0.499427     0.491784
      0.484141     0.476498     0.468855     0.461212     0.453569     0.445925     0.438282     0.430639     0.422996     0.415353
      0.407710     0.400067     0.392424     0.384780     0.377137     0.369494     0.361851     0.354208     0.346565     0.338922
      0.331278     0.323635     0.315992     0.308349     0.300706     0.293063     0.285420     0.277777     0.270133     0.262490
      0.254847     0.247204     0.239561     0.231918     0.224275     0.216631     0.208988     0.201345
 NY phased data points follow
   2.65549E+01  2.49022E+01  2.37891E+01  2.78070E+01  3.08957E+01  2.75715E+01  2.52808E+01  2.67619E+01  2.78152E+01  2.55148E+01
   2.59895E+01  2.12578E+01  2.37118E+01  2.65638E+01  2.70035E+01  2.43013E+01  2.35902E+01  1.99796E+01  2.27776E+01  1.68583E+01
   2.14830E+01  2.30852E+01  2.28136E+01  1.84206E+01  2.10152E+01  2.12128E+01  2.16221E+01  1.86403E+01  1.66010E+01  1.58876E+01
   2.28897E+01  2.09358E+01  1.40036E+01  2.19197E+01  1.67765E+01  1.96949E+01  2.11694E+01  1.67035E+01  1.35206E+01  1.31708E+01
   1.51723E+01  1.58069E+01  1.69704E+01  1.40073E+01  1.50845E+01  1.85459E+01  1.53106E+01  1.58423E+01  1.02788E+01  1.58712E+01
   1.51711E+01  1.69364E+01  1.31915E+01  1.24445E+01  1.53523E+01  1.40132E+01  1.33411E+01  1.32164E+01  1.59394E+01  1.38766E+01
   1.46528E+01  1.26616E+01  1.15820E+01  1.22651E+01  1.63961E+01  1.60504E+01  1.02805E+01  1.33178E+01  9.46638E+00  7.68835E+00
   1.18251E+01  1.15094E+01  1.24092E+01  9.38702E+00  5.34281E+00  9.15423E+00  6.22380E+00  1.31794E+01  8.10025E+00  5.24648E+00
   4.45416E+00  9.89498E+00  9.57462E+00  5.46183E+00  1.06496E+01  9.29398E+00  8.42239E+00  1.29024E+01  6.30635E+00  9.08457E+00
   1.09335E+01  1.04842E+01  8.96385E+00  4.22446E+00  4.27514E+00  5.36949E+00  7.26124E+00  4.42625E+00  5.88115E+00  5.07544E+00
   7.00074E+00  8.47816E+00  1.11646E+01  8.46721E+00  4.91870E+00  8.69853E+00  1.31042E+01  1.10351E+01  1.15045E+01  1.34698E+01
   6.82505E+00  9.23934E+00  6.43115E+00  5.81173E+00  4.72888E+00  6.06760E+00  5.39712E+00  2.90755E+00  8.79589E+00  6.54527E+00
   3.41566E+00  9.40095E+00  7.12247E+00  7.89804E+00  9.23909E+00  5.05146E+00  6.11064E+00  7.15128E+00  7.78260E+00  9.00934E+00
   7.11823E+00  7.45929E+00  1.08872E+01  6.60683E+00  9.55413E+00  4.99944E+00  7.45444E+00  3.36991E+00  2.48009E+00  4.22035E+00
   5.88144E+00  4.83574E+00 -2.19778E+00  4.04224E+00  6.84917E+00  2.44174E+00  2.41890E+00  8.41130E+00  3.98550E+00  4.63379E+00
   2.96397E+00  1.62491E+00  6.95863E+00  3.58103E+00  4.81751E+00  5.48675E-01  3.96064E+00 -3.80332E-01  5.15751E+00  2.09063E+00
   2.35026E+00  2.69325E-01  2.69658E-02 -7.76484E-01  1.27789E+00  2.91645E+00  2.35036E+00  1.22129E+00  3.58837E+00  4.43520E+00
   7.26305E-01  6.81918E+00 -7.93369E-01 -8.92424E-01  3.19737E+00 -2.61436E+00  1.26306E+00 -1.34775E+00  4.14425E+00  1.01082E+00
  -4.69674E-01 -2.07430E+00  1.78479E+00  1.18576E+00  2.71320E+00 -3.29965E-01 -8.14237E-01  4.44702E+00 -4.01776E+00 -2.43353E-02
  -2.81599E-01  3.43931E+00  1.72317E-01 -1.29629E+00  1.82256E+00  5.22329E-01  1.72174E+00  3.85438E+00 -4.72407E-01  5.00429E+00
   3.27190E+00 -5.72037E-01 -6.76754E-01 -2.27244E+00 -3.38969E-01  5.23369E-01  4.71637E-01  1.08309E+00 -1.26860E+00 -1.92330E-01
  -3.89070E+00  4.66861E-01 -7.65596E-01 -8.41252E-01 -9.40811E-01 -8.05764E-01  1.41401E+00 -1.41204E+00  2.72612E+00 -1.98241E+00
   2.19349E+00 -3.04639E+00  2.99958E+00 -2.10206E+00  2.75399E+00  1.89699E+00 -1.69903E+00  1.22312E+00  1.90259E+00  7.08245E-01
   1.01472E+00  3.23904E+00  1.68667E+00 -5.02614E-01 -4.46443E-01  2.32862E-01  3.47106E+00  2.38808E-01 -3.23205E+00 -6.56809E-03
   2.63981E+00 -2.49676E+00  2.96759E+00  2.00332E+00 -3.09444E+00  2.29480E+00  2.40463E+00 -8.40549E-01 -6.80048E+00 -2.27395E+00
   5.17401E-01 -4.86086E+00 -3.90136E+00 -3.94346E+00 -6.08422E+00 -2.50793E-01 -3.13598E+00  7.77603E-01 -2.48771E+00  1.11672E+00
   3.36243E+00  9.64188E-01  1.58575E+00 -7.67162E-02  4.32667E+00  1.94897E+00  7.65751E+00  2.18756E+00  3.18400E+00 -1.72200E+00
   2.49908E+00  2.11279E-01 -8.43079E-01 -2.66746E+00 -1.29961E+00  7.55317E-01 -1.36343E+00  6.55868E-01  2.63677E-01 -3.46100E+00
  -3.40604E+00 -1.36508E+00 -1.38492E+00 -7.58053E+00 -4.27070E+00 -2.13353E+00  4.63603E+00  2.07672E+00 -2.89396E+00 -4.37087E+00
  -5.65397E+00 -3.78820E+00 -3.39139E+00 -5.38682E+00 -4.67306E+00 -3.36124E+00 -2.92935E+00 -6.42986E+00 -4.15994E+00 -2.86438E+00
  -3.11135E+00 -4.11347E+00 -3.19944E+00 -6.36562E+00 -4.19256E+00 -5.97832E+00 -7.18383E+00 -6.87435E+00 -4.72088E+00 -1.74610E+00
  -4.40998E+00 -2.94866E+00 -3.42864E+00 -1.66397E+00 -3.72422E+00 -4.61761E+00 -5.43179E+00 -2.52525E+00 -6.93699E-01 -2.45293E+00
  -1.11948E+00 -1.67185E-01  3.30105E+00  6.59159E-01 -1.45202E+00 -2.27557E+00 -3.60918E+00  2.76853E+00 -1.35343E+00  1.62243E+00
   1.90755E+00  2.69006E+00  1.15108E+00 -9.25767E-01 -4.94951E-01  3.76177E+00  3.10344E+00  6.72982E+00  1.90317E+00  4.77260E+00
   7.09821E+00  6.02127E+00  7.17034E+00  2.91906E+00  5.58250E+00  4.55105E+00  3.94677E+00  1.88908E+00  4.25692E+00  2.08907E+00
   2.65445E+00  5.64531E+00  5.18473E+00  3.21099E+00  2.73532E+00  4.04582E+00  3.08065E+00  6.60360E+00  1.15727E+00  2.31961E+00
   7.31233E-01 -1.66320E+00  2.43285E+00  1.02065E+00 -3.47646E+00  8.09016E-01  2.96424E+00  5.22393E+00  5.04942E-02  1.85350E+00
   1.51144E+00  2.35596E+00  1.22050E+00  2.85458E+00  2.63016E+00  4.53662E+00  9.38384E-01  1.68836E+00  1.12543E+00  4.54397E+00
   1.13647E+00  2.49924E+00 -9.94861E-01 -1.09797E+00  3.59107E+00  1.56049E+00 -1.50400E+00 -2.63283E+00 -2.02216E+00  8.23321E-01
  -2.85973E+00 -2.41872E+00  3.23250E-01  4.19284E+00  1.48998E+00 -2.19608E+00 -5.12083E-01  7.53025E-01 -2.29797E-01  1.86408E+00
  -1.07912E+00  2.21743E-01 -1.92828E+00 -6.09296E+00 -3.65490E+00  2.83432E+00 -2.30989E+00  2.13550E+00 -1.84608E-01  2.86066E+00
  -3.42927E-01 -1.89807E+00 -9.06182E-01 -1.22491E+00  1.31858E+00 -1.32623E+00 -1.98208E+00 -1.66772E+00  3.66717E-01 -6.25323E-01
   9.19220E-02  1.49747E+00 -4.37556E+00 -5.98765E+00 -2.91089E+00 -1.39661E+00 -9.56962E-01 -3.04637E+00 -5.74418E-01 -3.25563E+00
  -2.94167E+00 -3.02987E+00 -2.57644E+00 -2.40506E+00 -4.72388E-01  4.13759E+00 -2.73350E+00 -2.26852E+00 -7.01557E+00 -1.47363E+00
  -4.78959E+00 -4.16608E+00 -4.06278E+00 -3.92948E+00 -1.07909E+00 -2.52424E+00 -4.87058E+00 -9.36755E-01 -2.09493E+00 -3.49819E-01
  -3.89630E+00 -1.56358E+00 -3.62238E+00 -2.83922E+00 -1.81355E+00 -2.21498E+00 -4.24503E+00 -3.95341E+00 -2.99229E+00 -3.39086E+00
  -5.31539E+00 -2.51689E+00 -3.09663E+00 -1.99419E+00 -4.45040E+00  3.45332E-01  7.22938E-01 -2.87950E+00  4.13368E+00 -1.26510E+00
   3.32779E+00 -1.87352E+00 -5.04618E+00 -3.42930E+00 -3.31233E+00 -3.43413E+00  5.23508E-01  1.25501E-01 -1.79574E+00 -2.98269E+00
  -1.57031E+00 -4.16007E+00 -4.38350E+00 -1.52988E+00 -3.85959E+00 -5.34345E+00 -2.69554E+00  9.45356E-01 -2.82044E+00 -3.11479E+00
  -4.74664E+00 -4.95275E+00 -3.50022E+00 -3.44724E+00 -2.95788E+00 -1.96060E+00 -4.20494E+00  9.20674E-01
 NY points of the fit to the data follow
   2.24406E+01  2.24637E+01  2.25351E+01  2.26397E+01  2.27568E+01  2.28760E+01  2.29949E+01  2.31218E+01  2.32626E+01  2.34090E+01
   2.35467E+01  2.36494E+01  2.36724E+01  2.35569E+01  2.32513E+01  2.27459E+01  2.20841E+01  2.13378E+01  2.05865E+01  1.99158E+01
   1.94249E+01  1.91561E+01  1.90147E+01  1.89567E+01  1.89679E+01  1.90160E+01  1.90630E+01  1.90728E+01  1.90197E+01  1.89040E+01
   1.87536E+01  1.86141E+01  1.85313E+01  1.85282E+01  1.85804E+01  1.86191E+01  1.85634E+01  1.83512E+01  1.79382E+01  1.73613E+01
   1.67298E+01  1.61759E+01  1.57982E+01  1.56048E+01  1.55795E+01  1.56378E+01  1.56900E+01  1.56890E+01  1.56159E+01  1.54771E+01
   1.52984E+01  1.51135E+01  1.49177E+01  1.46908E+01  1.44304E+01  1.41479E+01  1.38584E+01  1.35804E+01  1.33378E+01  1.31484E+01
   1.30080E+01  1.28934E+01  1.27855E+01  1.26750E+01  1.25560E+01  1.24235E+01  1.22753E+01  1.21139E+01  1.19454E+01  1.17777E+01
   1.16191E+01  1.14791E+01  1.13601E+01  1.12553E+01  1.11555E+01  1.10509E+01  1.09366E+01  1.08103E+01  1.06704E+01  1.05182E+01
   1.03560E+01  1.01868E+01  1.00137E+01  9.84184E+00  9.67801E+00  9.52202E+00  9.37197E+00  9.22733E+00  9.08613E+00  8.94502E+00
   8.80192E+00  8.65815E+00  8.52294E+00  8.42729E+00  8.40276E+00  8.45261E+00  8.56400E+00  8.71929E+00  8.88959E+00  9.04045E+00
   9.15978E+00  9.25663E+00  9.34389E+00  9.42914E+00  9.51448E+00  9.59095E+00  9.63220E+00  9.59302E+00  9.42208E+00  9.08629E+00
   8.59774E+00  8.01455E+00  7.41053E+00  6.85883E+00  6.43323E+00  6.19431E+00  6.11252E+00  6.15632E+00  6.32583E+00  6.59888E+00
   6.94991E+00  7.34430E+00  7.73584E+00  8.10307E+00  8.45703E+00  8.81266E+00  9.17257E+00  9.52946E+00  9.86279E+00  1.01285E+01
   1.02553E+01  1.01517E+01  9.74283E+00  9.02260E+00  8.07492E+00  7.03021E+00  6.02207E+00  5.17800E+00  4.62012E+00  4.35036E+00
   4.18632E+00  4.06166E+00  3.97514E+00  3.92851E+00  3.91642E+00  3.92542E+00  3.93027E+00  3.90326E+00  3.83704E+00  3.73780E+00
   3.61712E+00  3.49081E+00  3.36884E+00  3.25540E+00  3.15061E+00  3.04950E+00  2.95205E+00  2.85899E+00  2.77035E+00  2.68446E+00
   2.59941E+00  2.51390E+00  2.42583E+00  2.33459E+00  2.24112E+00  2.14724E+00  2.05457E+00  1.96410E+00  1.87685E+00  1.79096E+00
   1.70266E+00  1.60849E+00  1.50648E+00  1.39681E+00  1.28394E+00  1.17313E+00  1.06683E+00  9.65902E-01  8.67516E-01  7.71916E-01
   6.84431E-01  6.11251E-01  5.56595E-01  5.19099E-01  4.90451E-01  4.61528E-01  4.22126E-01  3.62114E-01  2.76633E-01  1.72200E-01
   6.32716E-02 -3.48868E-02 -1.05789E-01 -1.41739E-01 -1.46376E-01 -1.26706E-01 -9.67027E-02 -7.66518E-02 -7.60268E-02 -9.30519E-02
  -1.29492E-01 -1.69577E-01 -1.77459E-01 -1.32732E-01 -4.48197E-02  5.85650E-02  1.34954E-01  1.30974E-01 -8.76863E-03 -2.92211E-01
  -6.84614E-01 -1.12731E+00 -1.54045E+00 -1.81929E+00 -1.87487E+00 -1.67075E+00 -1.22709E+00 -6.16610E-01  2.64547E-02  5.67276E-01
   9.06910E-01  9.76493E-01  7.81792E-01  4.72185E-01  1.66710E-01 -9.97011E-02 -3.01652E-01 -4.09337E-01 -4.12685E-01 -3.54700E-01
  -2.77099E-01 -1.98109E-01 -1.38676E-01 -1.37246E-01 -2.15579E-01 -3.52073E-01 -5.11789E-01 -6.74965E-01 -8.23429E-01 -9.34879E-01
  -9.96294E-01 -1.00111E+00 -9.62988E-01 -9.25745E-01 -9.34509E-01 -1.01405E+00 -1.18140E+00 -1.44047E+00 -1.74469E+00 -1.97389E+00
  -2.03682E+00 -1.88472E+00 -1.51295E+00 -9.68298E-01 -3.51349E-01  2.37456E-01  7.53706E-01  1.16660E+00  1.47306E+00  1.69515E+00
   1.85972E+00  1.98830E+00  2.10485E+00  2.21285E+00  2.26972E+00  2.20293E+00  1.94283E+00  1.46642E+00  8.17180E-01  8.05951E-02
  -6.46461E-01 -1.26293E+00 -1.66156E+00 -1.84414E+00 -1.94786E+00 -2.02365E+00 -2.08012E+00 -2.12422E+00 -2.16057E+00 -2.19145E+00
  -2.22166E+00 -2.25506E+00 -2.29333E+00 -2.33558E+00 -2.37922E+00 -2.41976E+00 -2.45392E+00 -2.48112E+00 -2.50147E+00 -2.51585E+00
  -2.52601E+00 -2.53360E+00 -2.53996E+00 -2.54585E+00 -2.55110E+00 -2.55549E+00 -2.55874E+00 -2.56024E+00 -2.55942E+00 -2.55610E+00
  -2.55015E+00 -2.54120E+00 -2.52901E+00 -2.51364E+00 -2.49500E+00 -2.47291E+00 -2.44730E+00 -2.41796E+00 -2.38454E+00 -2.34669E+00
  -2.30394E+00 -2.25575E+00 -2.20142E+00 -2.14005E+00 -2.07028E+00 -1.98997E+00 -1.89495E+00 -1.77843E+00 -1.64198E+00 -1.49626E+00
  -1.35107E+00 -1.21411E+00 -1.09332E+00 -9.91961E-01 -9.07168E-01 -8.28289E-01 -7.41465E-01 -6.40054E-01 -5.24296E-01 -3.98932E-01
  -2.75972E-01 -1.70762E-01 -8.72770E-02 -8.64891E-03  9.89285E-02  2.70540E-01  5.30828E-01  8.91371E-01  1.34843E+00  1.86892E+00
   2.37668E+00  2.81729E+00  3.17221E+00  3.43766E+00  3.62167E+00  3.74058E+00  3.82289E+00  3.91334E+00  4.02338E+00  4.13089E+00
   4.22343E+00  4.29455E+00  4.34030E+00  4.35838E+00  4.34762E+00  4.30780E+00  4.23933E+00  4.14315E+00  4.02067E+00  3.87358E+00
   3.70360E+00  3.51287E+00  3.30425E+00  3.08096E+00  2.84641E+00  2.60408E+00  2.35747E+00  2.11007E+00  1.86477E+00  1.62400E+00
   1.39001E+00  1.16481E+00  9.50130E-01  7.47412E-01  5.57840E-01  3.82341E-01  2.21620E-01  7.61797E-02 -5.36549E-02 -1.67710E-01
  -2.65938E-01 -3.48399E-01 -4.15254E-01 -4.66750E-01 -5.03225E-01 -5.25105E-01 -5.32917E-01 -5.27292E-01 -5.08986E-01 -4.78893E-01
  -4.38061E-01 -3.87706E-01 -3.29211E-01 -2.64137E-01 -1.94209E-01 -1.21310E-01 -4.74532E-02  2.52612E-02  9.46821E-02  1.58665E-01
   2.15126E-01  2.62104E-01  2.97833E-01  3.20782E-01  3.29730E-01  3.23791E-01  3.02453E-01  2.65583E-01  2.13439E-01  1.46641E-01
   6.61526E-02 -2.67736E-02 -1.30644E-01 -2.43785E-01 -3.64409E-01 -4.90676E-01 -6.20757E-01 -7.52885E-01 -8.85410E-01 -1.01683E+00
  -1.14581E+00 -1.27123E+00 -1.39213E+00 -1.50780E+00 -1.61768E+00 -1.72140E+00 -1.81875E+00 -1.90965E+00 -1.99415E+00 -2.07237E+00
  -2.14453E+00 -2.21090E+00 -2.27175E+00 -2.32743E+00 -2.37826E+00 -2.42459E+00 -2.46673E+00 -2.50502E+00 -2.53975E+00 -2.57121E+00
  -2.59967E+00 -2.62538E+00 -2.64857E+00 -2.66945E+00 -2.68821E+00 -2.70502E+00 -2.72005E+00 -2.73344E+00 -2.74532E+00 -2.75581E+00
  -2.76502E+00 -2.77305E+00 -2.77999E+00 -2.78592E+00 -2.79091E+00 -2.79504E+00 -2.79835E+00 -2.80091E+00 -2.80277E+00 -2.80397E+00
  -2.80456E+00 -2.80457E+00 -2.80404E+00 -2.80300E+00 -2.80150E+00 -2.79954E+00 -2.79717E+00 -2.79440E+00 -2.79125E+00 -2.78776E+00
  -2.78393E+00 -2.77979E+00 -2.77535E+00 -2.77063E+00 -2.76565E+00 -2.76042E+00 -2.75495E+00 -2.74926E+00 -2.74335E+00 -2.73723E+00
  -2.73093E+00 -2.72444E+00 -2.71778E+00 -2.71096E+00 -2.70397E+00 -2.69684E+00 -2.68957E+00 -2.68217E+00 -2.67464E+00 -2.66698E+00
  -2.65921E+00 -2.65133E+00 -2.64334E+00 -2.63525E+00 -2.62707E+00 -2.61879E+00 -2.61042E+00 -2.60197E+00
 NY background values follow
     2.128E+01    2.113E+01    2.097E+01    2.082E+01    2.067E+01    2.052E+01    2.037E+01    2.022E+01    2.007E+01    1.992E+01
     1.977E+01    1.962E+01    1.947E+01    1.932E+01    1.917E+01    1.902E+01    1.887E+01    1.872E+01    1.857E+01    1.842E+01
     1.827E+01    1.812E+01    1.797E+01    1.782E+01    1.767E+01    1.752E+01    1.738E+01    1.723E+01    1.708E+01    1.693E+01
     1.678E+01    1.663E+01    1.649E+01    1.634E+01    1.619E+01    1.605E+01    1.590E+01    1.575E+01    1.561E+01    1.546E+01
     1.532E+01    1.517E+01    1.503E+01    1.488E+01    1.474E+01    1.460E+01    1.445E+01    1.431E+01    1.417E+01    1.403E+01
     1.389E+01    1.374E+01    1.360E+01    1.346E+01    1.332E+01    1.318E+01    1.305E+01    1.291E+01    1.277E+01    1.263E+01
     1.249E+01    1.236E+01    1.222E+01    1.209E+01    1.195E+01    1.182E+01    1.168E+01    1.155E+01    1.142E+01    1.128E+01
     1.115E+01    1.102E+01    1.089E+01    1.076E+01    1.063E+01    1.050E+01    1.037E+01    1.025E+01    1.012E+01    9.994E+00
     9.869E+00    9.744E+00    9.619E+00    9.496E+00    9.373E+00    9.250E+00    9.129E+00    9.008E+00    8.888E+00    8.768E+00
     8.650E+00    8.532E+00    8.414E+00    8.298E+00    8.182E+00    8.067E+00    7.953E+00    7.839E+00    7.726E+00    7.614E+00
     7.503E+00    7.392E+00    7.282E+00    7.173E+00    7.065E+00    6.957E+00    6.850E+00    6.744E+00    6.638E+00    6.534E+00
     6.430E+00    6.326E+00    6.224E+00    6.122E+00    6.021E+00    5.920E+00    5.820E+00    5.721E+00    5.623E+00    5.526E+00
     5.429E+00    5.333E+00    5.237E+00    5.142E+00    5.048E+00    4.955E+00    4.863E+00    4.771E+00    4.680E+00    4.589E+00
     4.500E+00    4.411E+00    4.322E+00    4.235E+00    4.148E+00    4.062E+00    3.977E+00    3.892E+00    3.808E+00    3.724E+00
     3.642E+00    3.560E+00    3.479E+00    3.398E+00    3.318E+00    3.239E+00    3.160E+00    3.082E+00    3.005E+00    2.928E+00
     2.852E+00    2.777E+00    2.702E+00    2.628E+00    2.555E+00    2.482E+00    2.409E+00    2.338E+00    2.266E+00    2.196E+00
     2.126E+00    2.057E+00    1.988E+00    1.920E+00    1.852E+00    1.785E+00    1.718E+00    1.652E+00    1.587E+00    1.522E+00
     1.458E+00    1.394E+00    1.331E+00    1.268E+00    1.205E+00    1.144E+00    1.082E+00    1.022E+00    9.613E-01    9.015E-01
     8.422E-01    7.833E-01    7.249E-01    6.670E-01    6.095E-01    5.525E-01    4.960E-01    4.399E-01    3.843E-01    3.291E-01
     2.743E-01    2.200E-01    1.661E-01    1.126E-01    5.962E-02    7.016E-03   -4.517E-02   -9.694E-02   -1.483E-01   -1.992E-01
    -2.498E-01   -2.999E-01   -3.497E-01   -3.990E-01   -4.480E-01   -4.965E-01   -5.447E-01   -5.925E-01   -6.400E-01   -6.870E-01
    -7.337E-01   -7.800E-01   -8.260E-01   -8.716E-01   -9.168E-01   -9.617E-01   -1.006E+00   -1.050E+00   -1.094E+00   -1.138E+00
    -1.181E+00   -1.224E+00   -1.266E+00   -1.309E+00   -1.351E+00   -1.392E+00   -1.433E+00   -1.474E+00   -1.515E+00   -1.555E+00
    -1.595E+00   -1.635E+00   -1.674E+00   -1.713E+00   -1.752E+00   -1.791E+00   -1.829E+00   -1.867E+00   -1.904E+00   -1.941E+00
    -1.978E+00   -2.015E+00   -2.051E+00   -2.087E+00   -2.122E+00   -2.157E+00   -2.192E+00   -2.227E+00   -2.261E+00   -2.295E+00
    -2.328E+00   -2.361E+00   -2.394E+00   -2.427E+00   -2.459E+00   -2.490E+00   -2.522E+00   -2.553E+00   -2.584E+00   -2.614E+00
    -2.644E+00   -2.674E+00   -2.703E+00   -2.732E+00   -2.761E+00   -2.789E+00   -2.817E+00   -2.845E+00   -2.872E+00   -2.899E+00
    -2.925E+00   -2.951E+00   -2.977E+00   -3.002E+00   -3.027E+00   -3.052E+00   -3.076E+00   -3.100E+00   -3.124E+00   -3.147E+00
    -3.170E+00   -3.192E+00   -3.214E+00   -3.236E+00   -3.258E+00   -3.279E+00   -3.299E+00   -3.320E+00   -3.340E+00   -3.359E+00
    -3.379E+00   -3.398E+00   -3.416E+00   -3.434E+00   -3.452E+00   -3.470E+00   -3.487E+00   -3.504E+00   -3.521E+00   -3.537E+00
    -3.553E+00   -3.568E+00   -3.583E+00   -3.598E+00   -3.613E+00   -3.627E+00   -3.641E+00   -3.654E+00   -3.668E+00   -3.680E+00
    -3.693E+00   -3.705E+00   -3.717E+00   -3.728E+00   -3.740E+00   -3.751E+00   -3.761E+00   -3.771E+00   -3.781E+00   -3.791E+00
    -3.800E+00   -3.809E+00   -3.818E+00   -3.826E+00   -3.834E+00   -3.842E+00   -3.849E+00   -3.857E+00   -3.864E+00   -3.870E+00
    -3.876E+00   -3.883E+00   -3.888E+00   -3.894E+00   -3.899E+00   -3.904E+00   -3.909E+00   -3.913E+00   -3.918E+00   -3.922E+00
    -3.926E+00   -3.929E+00   -3.932E+00   -3.935E+00   -3.938E+00   -3.941E+00   -3.943E+00   -3.946E+00   -3.948E+00   -3.949E+00
    -3.951E+00   -3.952E+00   -3.953E+00   -3.954E+00   -3.955E+00   -3.956E+00   -3.956E+00   -3.957E+00   -3.957E+00   -3.957E+00
    -3.956E+00   -3.956E+00   -3.955E+00   -3.955E+00   -3.954E+00   -3.953E+00   -3.951E+00   -3.950E+00   -3.948E+00   -3.947E+00
    -3.945E+00   -3.943E+00   -3.941E+00   -3.939E+00   -3.936E+00   -3.933E+00   -3.931E+00   -3.928E+00   -3.925E+00   -3.921E+00
    -3.918E+00   -3.915E+00   -3.911E+00   -3.907E+00   -3.903E+00   -3.899E+00   -3.895E+00   -3.890E+00   -3.886E+00   -3.881E+00
    -3.876E+00   -3.871E+00   -3.866E+00   -3.861E+00   -3.855E+00   -3.849E+00   -3.844E+00   -3.838E+00   -3.832E+00   -3.826E+00
    -3.819E+00   -3.813E+00   -3.806E+00   -3.799E+00   -3.792E+00   -3.785E+00   -3.778E+00   -3.771E+00   -3.763E+00   -3.756E+00
    -3.748E+00   -3.740E+00   -3.732E+00   -3.724E+00   -3.716E+00   -3.707E+00   -3.699E+00   -3.690E+00   -3.681E+00   -3.672E+00
    -3.663E+00   -3.654E+00   -3.645E+00   -3.636E+00   -3.626E+00   -3.617E+00   -3.607E+00   -3.597E+00   -3.587E+00   -3.578E+00
    -3.568E+00   -3.557E+00   -3.547E+00   -3.537E+00   -3.527E+00   -3.516E+00   -3.506E+00   -3.495E+00   -3.485E+00   -3.474E+00
    -3.463E+00   -3.452E+00   -3.442E+00   -3.431E+00   -3.420E+00   -3.409E+00   -3.398E+00   -3.387E+00   -3.375E+00   -3.364E+00
    -3.353E+00   -3.342E+00   -3.330E+00   -3.319E+00   -3.308E+00   -3.296E+00   -3.285E+00   -3.273E+00   -3.262E+00   -3.250E+00
    -3.239E+00   -3.227E+00   -3.215E+00   -3.204E+00   -3.192E+00   -3.181E+00   -3.169E+00   -3.157E+00   -3.145E+00   -3.134E+00
    -3.122E+00   -3.110E+00   -3.098E+00   -3.087E+00   -3.075E+00   -3.063E+00   -3.051E+00   -3.039E+00   -3.028E+00   -3.016E+00
    -3.004E+00   -2.992E+00   -2.980E+00   -2.969E+00   -2.957E+00   -2.945E+00   -2.933E+00   -2.921E+00   -2.910E+00   -2.898E+00
    -2.886E+00   -2.874E+00   -2.862E+00   -2.851E+00   -2.839E+00   -2.827E+00   -2.815E+00   -2.804E+00
 Ala      Conc. = 1.06E+02
