 LCModel (Version 6.3-1L) Copyright: S.W. Provencher.          Ref.: Magn. Reson. Med. 30:672-679 (1993).                
 Slice#2 Row#3 Col#10  PD_05_press_2_raw_act
 36 lines in following concentration table = NCONC+1
    Conc.  %SD /Cr+PCr  Metabolite                                         
 1.36E+03  56%   0.937 Ala                                                 
    0.000 999%   0.000 Asp                                                 
  700.400 171%   0.481 Cr                                                  
  754.756 158%   0.519 PCr                                                 
  130.616 128% 9.0E-02 GABA                                                
   61.846 269% 4.3E-02 Glc                                                 
    0.000 999%   0.000 Gln                                                 
    0.000 999%   0.000 Glu                                                 
    0.000 999%   0.000 GPC                                                 
  519.636  14%   0.357 PCh                                                 
  474.822  60%   0.326 GSH                                                 
 1.58E+03  48%   1.084 Ins                                                 
    0.000 999%   0.000 Lac                                                 
    0.000 999%   0.000 NAA                                                 
 1.31E+03  20%   0.898 NAAG                                                
   38.705 130% 2.7E-02 Scyllo                                              
   97.201 271% 6.7E-02 Tau                                                 
 1.23E+03  24%   0.842 -CrCH2                                              
  519.636  14%   0.357 GPC+PCh                                             
 1.31E+03  20%   0.898 NAA+NAAG                                            
 1.46E+03  13%   1.000 Cr+PCr                                              
    0.000 999%   0.000 Glu+Gln                                             
    0.000 999%   0.000 Lip13a                                              
    0.000 999%   0.000 Lip13b                                              
 7.64E-03 999% 5.2E-06 Lip09                                               
 1.95E+03  16%   1.338 MM09                                                
 9.19E-03 999% 6.3E-06 Lip20                                               
 3.99E+03  19%   2.742 MM20                                                
   81.134 299% 5.6E-02 MM12                                                
    0.000 999%   0.000 MM14                                                
 1.02E+03  34%   0.700 MM17                                                
    0.000 999%   0.000 Lip13a+Lip13b                                       
   81.134 299% 5.6E-02 MM14+Lip13a+Lip13b+MM12                             
 1.95E+03  16%   1.338 MM09+Lip09                                          
 3.99E+03  19%   2.742 MM20+Lip20                                          
   6 lines in following misc. output table
  FWHM = 0.122 ppm    S/N =   2                                            
  Data shift = 0.023 ppm                                                   
  Ph:  36 deg      24.8 deg/ppm                                            
  alphaB,S = 8.5E+01,   1.1E+02                                            
   14 spline knots.   Ns = 8(2)                                            
   2 inflections.     1 extrema                                            
  498 points on ppm-axis = NY
      4.000000     3.992357     3.984714     3.977070     3.969427     3.961784     3.954141     3.946497     3.938854     3.931211
      3.923568     3.915925     3.908281     3.900638     3.892995     3.885352     3.877708     3.870065     3.862422     3.854779
      3.847136     3.839492     3.831849     3.824206     3.816563     3.808919     3.801276     3.793633     3.785990     3.778347
      3.770703     3.763060     3.755417     3.747774     3.740130     3.732487     3.724844     3.717201     3.709558     3.701914
      3.694271     3.686628     3.678985     3.671341     3.663698     3.656055     3.648412     3.640769     3.633125     3.625482
      3.617839     3.610196     3.602552     3.594909     3.587266     3.579623     3.571980     3.564336     3.556693     3.549050
      3.541407     3.533763     3.526120     3.518477     3.510834     3.503191     3.495547     3.487904     3.480261     3.472618
      3.464974     3.457331     3.449688     3.442045     3.434402     3.426758     3.419115     3.411472     3.403829     3.396185
      3.388542     3.380899     3.373256     3.365613     3.357969     3.350326     3.342683     3.335040     3.327396     3.319753
      3.312110     3.304467     3.296824     3.289180     3.281537     3.273894     3.266251     3.258607     3.250964     3.243321
      3.235678     3.228034     3.220391     3.212748     3.205105     3.197462     3.189818     3.182175     3.174532     3.166889
      3.159245     3.151602     3.143959     3.136316     3.128673     3.121029     3.113386     3.105743     3.098100     3.090456
      3.082813     3.075170     3.067527     3.059884     3.052240     3.044597     3.036954     3.029311     3.021667     3.014024
      3.006381     2.998738     2.991095     2.983451     2.975808     2.968165     2.960522     2.952878     2.945235     2.937592
      2.929949     2.922306     2.914662     2.907019     2.899376     2.891733     2.884089     2.876446     2.868803     2.861160
      2.853517     2.845873     2.838230     2.830587     2.822944     2.815300     2.807657     2.800014     2.792371     2.784728
      2.777084     2.769441     2.761798     2.754155     2.746511     2.738868     2.731225     2.723582     2.715939     2.708295
      2.700652     2.693009     2.685366     2.677722     2.670079     2.662436     2.654793     2.647150     2.639506     2.631863
      2.624220     2.616577     2.608933     2.601290     2.593647     2.586004     2.578361     2.570717     2.563074     2.555431
      2.547788     2.540144     2.532501     2.524858     2.517215     2.509572     2.501928     2.494285     2.486642     2.478999
      2.471355     2.463712     2.456069     2.448426     2.440783     2.433139     2.425496     2.417853     2.410210     2.402566
      2.394923     2.387280     2.379637     2.371994     2.364350     2.356707     2.349064     2.341421     2.333777     2.326134
      2.318491     2.310848     2.303205     2.295561     2.287918     2.280275     2.272632     2.264988     2.257345     2.249702
      2.242059     2.234416     2.226772     2.219129     2.211486     2.203843     2.196199     2.188556     2.180913     2.173270
      2.165627     2.157983     2.150340     2.142697     2.135054     2.127410     2.119767     2.112124     2.104481     2.096838
      2.089194     2.081551     2.073908     2.066265     2.058621     2.050978     2.043335     2.035692     2.028049     2.020405
      2.012762     2.005119     1.997476     1.989833     1.982190     1.974546     1.966903     1.959260     1.951617     1.943974
      1.936331     1.928688     1.921045     1.913402     1.905759     1.898115     1.890472     1.882829     1.875186     1.867543
      1.859900     1.852257     1.844614     1.836971     1.829327     1.821684     1.814041     1.806398     1.798755     1.791112
      1.783469     1.775826     1.768183     1.760540     1.752896     1.745253     1.737610     1.729967     1.722324     1.714681
      1.707038     1.699395     1.691752     1.684108     1.676465     1.668822     1.661179     1.653536     1.645893     1.638250
      1.630607     1.622964     1.615321     1.607677     1.600034     1.592391     1.584748     1.577105     1.569462     1.561819
      1.554176     1.546533     1.538890     1.531246     1.523603     1.515960     1.508317     1.500674     1.493031     1.485388
      1.477745     1.470102     1.462458     1.454815     1.447172     1.439529     1.431886     1.424243     1.416600     1.408957
      1.401314     1.393671     1.386027     1.378384     1.370741     1.363098     1.355455     1.347812     1.340169     1.332526
      1.324883     1.317240     1.309596     1.301953     1.294310     1.286667     1.279024     1.271381     1.263738     1.256095
      1.248452     1.240808     1.233165     1.225522     1.217879     1.210236     1.202593     1.194950     1.187307     1.179664
      1.172021     1.164377     1.156734     1.149091     1.141448     1.133805     1.126162     1.118519     1.110876     1.103233
      1.095590     1.087946     1.080303     1.072660     1.065017     1.057374     1.049731     1.042088     1.034445     1.026802
      1.019158     1.011515     1.003872     0.996229     0.988586     0.980943     0.973300     0.965657     0.958014     0.950371
      0.942727     0.935084     0.927441     0.919798     0.912155     0.904512     0.896869     0.889226     0.881583     0.873940
      0.866296     0.858653     0.851010     0.843367     0.835724     0.828081     0.820438     0.812795     0.805152     0.797508
      0.789865     0.782222     0.774579     0.766936     0.759293     0.751650     0.744007     0.736364     0.728721     0.721077
      0.713434     0.705791     0.698148     0.690505     0.682862     0.675219     0.667576     0.659933     0.652290     0.644646
      0.637003     0.629360     0.621717     0.614074     0.606431     0.598788     0.591145     0.583502     0.575858     0.568215
      0.560572     0.552929     0.545286     0.537643     0.530000     0.522357     0.514714     0.507071     0.499427     0.491784
      0.484141     0.476498     0.468855     0.461212     0.453569     0.445925     0.438282     0.430639     0.422996     0.415353
      0.407710     0.400067     0.392424     0.384780     0.377137     0.369494     0.361851     0.354208     0.346565     0.338922
      0.331278     0.323635     0.315992     0.308349     0.300706     0.293063     0.285420     0.277777     0.270133     0.262490
      0.254847     0.247204     0.239561     0.231918     0.224275     0.216631     0.208988     0.201345
 NY phased data points follow
  -2.15210E-01  5.13713E+00  9.32258E+00  7.50933E+00  7.74409E+00  1.74837E+00 -9.22190E+00 -2.30966E+00  1.24386E+01 -3.25956E+00
   9.42541E+00 -3.54050E+00  2.86915E+00 -3.74878E+00 -1.65615E+00  6.92656E+00  7.44996E+00  8.44575E+00  1.03233E+01  7.99385E+00
  -3.62687E+00 -6.30805E+00  7.90535E+00  4.56968E+00  1.66254E+00  1.45495E+01  6.87505E+00 -6.62772E+00  9.91512E+00  2.56383E+00
  -5.25507E+00  2.70170E+00  2.37236E+00  2.44502E+00  8.89064E+00  1.61007E+01  3.98512E+00  1.45544E+00  1.69219E+01  8.31610E+00
   7.06111E+00  5.19386E+00 -4.10765E+00  5.88690E+00  7.81973E+00  2.28832E+01  1.58287E+01  1.88195E+01  2.94584E+00  1.06197E+01
   1.36110E+01  8.65360E+00  2.55493E+00 -1.82874E+00  9.61080E+00  8.65515E+00 -1.80271E+00  5.83512E+00  2.20267E+01  1.18520E+01
   2.59542E+00  4.24507E+00  1.83171E+01  1.47299E+01  1.54201E+01 -2.32071E+00 -3.15682E+00  3.35920E+00  7.75701E+00 -5.26305E+00
  -6.61299E+00 -1.59728E+00 -4.16850E+00 -7.29191E+00  2.01473E+00 -9.29606E+00  1.11353E+01 -6.67324E+00  9.03839E+00  1.91031E+00
   2.02532E+00  1.16211E+01  1.17976E+01  1.73414E+01 -2.24031E+00 -6.49871E+00  6.39113E+00 -9.66538E+00 -2.81432E+00  9.79824E+00
   1.03451E+00 -7.21604E+00  7.60910E+00  7.32751E+00  1.28297E+01  1.03261E+01  1.63273E+01  2.14835E+01  1.41480E+01  2.01561E+01
   2.43622E+01  1.46495E+01  1.40697E+01  1.11143E+01  2.05853E+01  2.48435E+01  3.30754E+01  1.94930E+01  3.30374E+01  2.57677E+01
   2.16840E+01  8.99191E+00  1.99183E+01  1.51701E+01  1.52911E+01  2.21589E+01  1.12088E+01  4.20494E+00  1.20266E+01  1.45113E+01
   1.80330E+01  2.48258E+01  2.28929E+01  1.40000E+01  1.70106E+01  2.51655E+01  4.69452E+00  3.28460E+01  3.22337E+01  2.43285E+01
   3.73782E+01  3.88706E+01  3.73974E+01  2.19794E+01  1.59252E+01  2.29150E+01  7.02768E+00  8.42796E-01  1.55352E+01  1.47484E+01
   1.25250E+01  2.25292E+01  5.66465E+00 -2.09489E+00  1.33934E+01  1.70905E+01  1.30909E+01  4.52581E+00  1.31061E+01  3.89264E+00
   1.07986E+01  2.97519E+00 -1.00875E+00  1.72797E+01  9.11387E+00  5.66888E+00  1.59425E+01  5.36323E+00 -4.38063E+00 -1.01991E+01
   1.66942E+01  7.39840E+00  1.07883E+01 -5.47301E+00  9.24752E+00  3.96564E-01 -2.97120E+00 -4.80126E-01  1.15874E+00 -7.55089E+00
  -1.13338E+01 -1.87986E+00 -1.56833E+01 -1.39806E-01 -4.52812E+00 -1.18018E+01 -4.10758E+00 -3.37937E+00 -4.24250E+00  5.28947E+00
  -1.00479E+01 -9.47214E+00 -9.31463E+00  2.89960E+00 -3.09367E+00  2.00365E+00  1.59466E+00 -3.52507E+00  6.38403E-01  4.30006E+00
  -4.48431E+00  6.65996E+00 -1.44363E+00  6.29788E+00  1.92784E+01  1.04249E+01  7.35777E-01 -6.13748E+00 -1.88982E+00  2.17439E+00
  -7.71389E+00 -3.39414E+00 -5.43276E+00  4.96261E+00  1.41974E+00  1.31452E+00  5.16257E+00  1.95543E-01  1.75273E+01  4.89418E-01
   3.10801E+00 -2.60113E+00  1.60522E+00  5.74142E+00  9.71891E+00  9.60053E+00  8.95286E+00  1.28887E+01  1.20817E+00  1.35517E+01
   1.97310E-01  1.25202E+01  1.36533E+01  5.24042E+00  5.44107E+00  4.84423E+00 -3.24122E+00  1.03134E+01  5.83069E+00  2.75128E+00
   2.44029E+01  1.51494E+01  1.20894E+01  4.29307E+00  2.97954E+01  6.00413E+00  8.70953E+00  1.12976E+01  1.99273E+01  1.13002E+01
   8.15383E+00  1.28417E+01  1.14871E+01  1.81231E+01  1.44586E+01  1.44221E+01  2.17205E+01  2.48131E+01  2.39106E+01  2.55181E+01
   2.41756E+01  2.66582E+01  4.08903E+01  3.18257E+01  4.01956E+01  2.72518E+01  4.10783E+01  3.47822E+01  3.10198E+01  3.82638E+01
   4.35467E+01  2.64020E+01  2.75202E+01  1.78640E+01  2.24194E+01  1.65661E+01  2.13833E+01 -1.05035E+01  8.39113E+00 -2.27948E-01
   1.47617E+01  7.80506E+00  2.97238E+00 -4.81569E+00 -8.68555E+00 -1.95113E-01  5.58325E+00 -7.19308E+00  2.83982E+00  4.62183E+00
  -1.87276E+00  7.25270E+00 -7.94769E+00 -3.13982E+00  2.89669E+00 -6.06933E+00 -1.01027E+01 -1.54656E+01 -2.95485E+00  8.19583E-01
  -1.39311E+01 -2.21200E+00  1.20190E+01 -2.65668E+00  7.37540E+00 -9.75604E+00  1.06961E+01  7.66188E+00  3.73597E+00  1.06062E+00
  -1.28780E+00  1.00186E+01  1.20428E+01  1.21354E+01 -1.83996E+00  1.09646E+01  8.81701E+00  1.65546E+01  3.68993E-01  3.26606E+00
   4.55452E+00 -9.42702E-01  1.21383E+01  3.39336E+00  1.97116E+01  1.48418E+01  2.19484E+01  2.58457E+01  1.38527E+01  1.01076E+01
   9.41645E+00  3.36268E+00  9.83629E+00 -3.07272E+00 -2.17821E+01 -1.03464E+01 -2.00934E+01 -3.01522E+00 -1.78397E+01  4.48085E+00
  -5.78806E+00 -3.65259E+00 -1.25524E+01 -9.05087E+00 -1.21059E+01 -1.22089E+01 -5.38062E+00 -6.32972E+00  4.84206E+00  1.36884E+01
   7.84321E+00  2.82885E+00  3.66225E+00  7.18973E+00 -4.13813E+00 -7.83449E+00 -1.45731E+01  1.72378E+00 -7.11756E+00 -8.93387E+00
   1.57958E-01  7.63942E+00  8.14377E+00 -1.47377E+01  4.16545E+00 -6.97350E+00  7.80199E+00 -1.86462E+01 -2.03206E+01 -1.08995E+01
  -1.24236E+01 -1.18842E+01 -4.77976E+00 -1.07689E+01 -4.56030E+00 -4.80254E+00 -4.40197E+00  5.23139E+00  2.79115E+00 -1.41902E+01
  -3.16795E+00  9.34477E+00 -6.27739E+00 -4.10860E+00 -1.04417E+01  3.54848E+00  1.71763E+00 -4.72126E+00 -2.46059E+00  2.28093E+00
  -7.23002E+00 -1.17267E+00 -2.48374E+00  1.14851E+01  3.91746E+00  1.93391E+01  1.22711E+01 -2.27218E+00  2.13186E+00  8.70632E+00
   2.79366E+01 -1.21392E+00  8.02519E+00  4.51332E+00  1.09414E+01  1.15251E+01  5.25650E+00  1.41516E+00  2.10941E+01  1.65986E+01
   2.95111E+00  1.23496E+01  2.01052E+01  1.31355E+01  9.10381E+00  7.17767E+00  2.18885E+01  8.16966E+00  7.87986E+00  1.12843E+01
   6.12873E+00  9.92491E+00  1.45710E+01  1.36996E+01  1.12614E+01  5.50564E+00  1.40575E+01  8.64011E+00  2.64074E+00  5.01549E+00
   2.59154E+00 -1.07492E-01  9.36480E-01 -6.69043E-01  1.24126E+01  1.59110E+01 -6.01566E+00 -3.14879E+00 -1.86066E+00 -1.36274E+01
   1.88251E+00  1.29049E+01 -1.83895E-01  7.71680E+00  5.67767E+00  7.56544E+00  5.22167E+00  3.60872E+00  1.60895E+01  5.62533E-01
  -2.69806E-02 -7.26968E+00 -1.51324E-01 -2.31235E+00 -1.64257E+01  9.14632E+00  8.86019E+00  7.65888E-01  3.34039E+00 -6.27314E+00
  -6.89209E+00 -2.41309E+00 -2.01617E+00 -2.55402E+00 -4.90656E-01 -6.62645E+00 -1.26833E+01  1.99402E+01 -5.99111E+00 -1.09988E+01
   3.78041E+00 -3.44907E+00 -3.07715E+00 -1.31320E+01 -6.75985E+00  3.61836E+00 -1.99601E+00 -2.30949E+00  1.12076E+01  5.00525E+00
  -1.12095E+00  2.90710E+00 -5.00838E+00 -2.56006E+00 -4.42570E+00 -3.57725E+00 -1.29974E+01 -2.35085E+00 -7.18793E+00  2.36124E+00
   4.35517E+00 -5.82895E+00 -4.54747E+00  2.64643E+00 -9.46473E-01  2.08754E+00 -2.27170E+00 -4.40014E+00 -1.36063E+00  1.25592E+01
  -2.09966E+00 -5.22465E+00 -4.84801E+00  5.09532E+00  1.56122E+00  1.04209E+00  1.11811E+01  8.61145E+00
 NY points of the fit to the data follow
   5.53504E+00  4.64141E+00  5.06513E+00  3.83758E+00  4.85436E+00  3.29334E+00  4.77281E+00  2.91315E+00  4.76827E+00  2.66897E+00
   5.04071E+00  2.89926E+00  5.68956E+00  3.66143E+00  6.36445E+00  4.51523E+00  6.68047E+00  4.95561E+00  6.32584E+00  5.06480E+00
   5.86451E+00  5.25810E+00  5.78157E+00  5.87814E+00  6.24308E+00  6.76902E+00  6.76002E+00  7.39349E+00  6.92455E+00  7.50878E+00
   6.99809E+00  7.63913E+00  7.19365E+00  7.82377E+00  7.38077E+00  7.97751E+00  7.38386E+00  7.87142E+00  7.23630E+00  7.52782E+00
   6.96171E+00  7.03883E+00  6.63911E+00  6.56814E+00  6.30795E+00  6.25829E+00  6.10762E+00  6.20815E+00  6.23576E+00  6.40570E+00
   6.54510E+00  6.49468E+00  6.40296E+00  6.06718E+00  5.76354E+00  5.33528E+00  5.06003E+00  4.79430E+00  4.73615E+00  4.65750E+00
   4.77277E+00  4.75866E+00  4.95497E+00  4.80815E+00  4.97982E+00  4.68601E+00  4.83665E+00  4.57377E+00  4.77885E+00  4.55139E+00
   4.74598E+00  4.58001E+00  4.83123E+00  4.65553E+00  4.90044E+00  4.58916E+00  4.75745E+00  4.29045E+00  4.34813E+00  3.81632E+00
   3.83903E+00  3.29904E+00  3.35682E+00  2.81817E+00  2.93653E+00  2.40294E+00  2.56058E+00  1.94462E+00  2.04657E+00  2.01168E+00
   2.77341E+00  3.30280E+00  5.15741E+00  5.95673E+00  9.09988E+00  9.56800E+00  1.37786E+01  1.33140E+01  1.81260E+01  1.65547E+01
   2.16668E+01  1.91012E+01  2.44094E+01  2.11224E+01  2.66434E+01  2.23925E+01  2.75457E+01  2.20058E+01  2.58028E+01  1.93276E+01
   2.11845E+01  1.50837E+01  1.58449E+01  1.19561E+01  1.25840E+01  1.13102E+01  1.22319E+01  1.29857E+01  1.38925E+01  1.58051E+01
   1.62650E+01  1.87993E+01  1.88533E+01  2.19095E+01  2.19190E+01  2.47131E+01  2.43768E+01  2.69106E+01  2.61255E+01  2.78400E+01
   2.63759E+01  2.64477E+01  2.42754E+01  2.24173E+01  2.00262E+01  1.72695E+01  1.52247E+01  1.25785E+01  1.11484E+01  9.12893E+00
   8.20803E+00  6.63554E+00  6.04053E+00  4.59647E+00  4.26294E+00  3.08126E+00  3.01771E+00  2.49923E+00  2.43599E+00  2.01053E+00
   1.81733E+00  1.50976E+00  1.24139E+00  1.05379E+00  7.51581E-01  5.91424E-01  2.27204E-01  1.12465E-01 -2.72162E-01 -2.85878E-01
  -6.47678E-01 -5.89005E-01 -9.46971E-01 -8.73294E-01 -1.24319E+00 -1.18462E+00 -1.53203E+00 -1.48064E+00 -1.80009E+00 -1.73427E+00
  -1.99230E+00 -1.90777E+00 -2.08701E+00 -2.00449E+00 -2.09217E+00 -2.05043E+00 -1.99737E+00 -1.97438E+00 -1.75988E+00 -1.72661E+00
  -1.38907E+00 -1.33486E+00 -9.04004E-01 -8.93143E-01 -4.36315E-01 -4.69776E-01 -1.33356E-02 -6.85871E-02  3.43760E-01  3.21359E-01
   6.46020E-01  7.08736E-01  9.55417E-01  1.03318E+00  1.13420E+00  1.12939E+00  1.07202E+00  9.97122E-01  8.51679E-01  8.01165E-01
   7.06935E-01  7.35054E-01  7.77976E-01  8.48424E-01  1.02993E+00  1.03425E+00  1.22773E+00  1.14641E+00  1.31649E+00  1.21507E+00
   1.42914E+00  1.40375E+00  1.72166E+00  1.78448E+00  2.15765E+00  2.30625E+00  2.65350E+00  2.82066E+00  3.07815E+00  3.27710E+00
   3.49354E+00  3.73049E+00  3.94548E+00  4.26589E+00  4.53361E+00  4.93415E+00  5.23756E+00  5.64367E+00  5.90234E+00  6.24422E+00
   6.44404E+00  6.73987E+00  6.95270E+00  7.29266E+00  7.62815E+00  8.10076E+00  8.62145E+00  9.22947E+00  9.87885E+00  1.04380E+01
   1.10027E+01  1.18477E+01  1.30108E+01  1.41022E+01  1.62745E+01  1.73967E+01  2.07847E+01  2.14699E+01  2.58050E+01  2.55202E+01
   3.02326E+01  2.87423E+01  3.34733E+01  3.08933E+01  3.55432E+01  3.21452E+01  3.67616E+01  3.24598E+01  3.65412E+01  3.11986E+01
   3.38721E+01  2.78500E+01  2.86063E+01  2.29955E+01  2.25127E+01  1.80765E+01  1.71817E+01  1.40376E+01  1.32159E+01  1.09639E+01
   1.01556E+01  8.44223E+00  7.48141E+00  6.30543E+00  5.39128E+00  4.85503E+00  4.41136E+00  3.99224E+00  3.61261E+00  3.23068E+00
   2.90615E+00  2.57619E+00  2.33537E+00  2.09337E+00  1.95163E+00  1.79714E+00  1.75291E+00  1.66664E+00  1.70388E+00  1.67486E+00
   1.79506E+00  1.84895E+00  2.07872E+00  2.24257E+00  2.59296E+00  2.87649E+00  3.32880E+00  3.70517E+00  4.22359E+00  4.66144E+00
   5.20745E+00  5.66709E+00  6.19609E+00  6.63759E+00  7.09973E+00  7.46756E+00  7.80746E+00  8.05033E+00  8.22519E+00  8.31539E+00
   8.31548E+00  8.31643E+00  8.44101E+00  8.50447E+00  8.51762E+00  8.67726E+00  8.29537E+00  8.55675E+00  7.44511E+00  7.60565E+00
   5.63847E+00  6.08547E+00  3.45969E+00  4.53559E+00  1.44090E+00  3.38658E+00 -6.41363E-02  2.69804E+00 -1.27627E+00  1.93617E+00
  -2.54403E+00  8.24661E-01 -3.67066E+00 -2.03329E-01 -3.86875E+00 -8.94452E-02 -2.63827E+00  1.27474E+00 -4.26757E-01  2.97957E+00
   1.58609E+00  3.76316E+00  2.45728E+00  3.47562E+00  2.45761E+00  2.82018E+00  2.23435E+00  2.39599E+00  1.89823E+00  1.90518E+00
   1.51283E+00  1.30555E+00  9.74815E-01  6.19593E-01  3.88103E-01  2.55723E-01  1.38004E-01  7.27090E-02  5.48028E-04 -3.13968E-02
  -7.80995E-02 -8.98595E-02 -1.20162E-01 -1.18116E-01 -1.36502E-01 -1.23682E-01 -1.31971E-01 -1.09124E-01 -1.07087E-01 -7.30682E-02
  -5.86790E-02 -1.05881E-02  1.99511E-02  8.68415E-02  1.39223E-01  2.31614E-01  3.13606E-01  4.40397E-01  5.62080E-01  7.34555E-01
   9.08398E-01  1.14012E+00  1.38063E+00  1.68675E+00  2.00928E+00  2.40480E+00  2.82321E+00  3.31989E+00  3.84276E+00  4.44476E+00
   5.07056E+00  5.76937E+00  6.48141E+00  7.25131E+00  8.01431E+00  8.81031E+00  9.57009E+00  1.03300E+01  1.10181E+01  1.16697E+01
   1.22129E+01  1.26851E+01  1.30183E+01  1.32552E+01  1.33343E+01  1.33062E+01  1.31178E+01  1.28282E+01  1.23924E+01  1.18770E+01
   1.12431E+01  1.05620E+01  9.79765E+00  9.02289E+00  8.20119E+00  7.40354E+00  6.59027E+00  5.82846E+00  5.07376E+00  4.38845E+00
   3.72326E+00  3.13597E+00  2.57310E+00  2.08898E+00  1.62717E+00  1.23981E+00  8.68795E-01  5.65308E-01  2.70600E-01  3.57869E-02
  -1.97815E-01 -3.78643E-01 -5.64940E-01 -7.04467E-01 -8.54911E-01 -9.63327E-01 -1.08688E+00 -1.17199E+00 -1.27538E+00 -1.34297E+00
  -1.43117E+00 -1.48547E+00 -1.56209E+00 -1.60619E+00 -1.67385E+00 -1.70999E+00 -1.77062E+00 -1.80046E+00 -1.85550E+00 -1.88029E+00
  -1.93081E+00 -1.95148E+00 -1.99831E+00 -2.01561E+00 -2.05939E+00 -2.07387E+00 -2.11510E+00 -2.12721E+00 -2.16631E+00 -2.17641E+00
  -2.21369E+00 -2.22208E+00 -2.25780E+00 -2.26471E+00 -2.29909E+00 -2.30473E+00 -2.33795E+00 -2.34248E+00 -2.37469E+00 -2.37824E+00
  -2.40957E+00 -2.41225E+00 -2.44281E+00 -2.44472E+00 -2.47459E+00 -2.47583E+00 -2.50508E+00 -2.50571E+00 -2.53442E+00 -2.53450E+00
  -2.56272E+00 -2.56230E+00 -2.59007E+00 -2.58920E+00 -2.61657E+00 -2.61528E+00 -2.64228E+00 -2.64060E+00 -2.66726E+00 -2.66522E+00
  -2.69156E+00 -2.68917E+00 -2.71520E+00 -2.71248E+00 -2.73820E+00 -2.73514E+00 -2.76055E+00 -2.75714E+00
 NY background values follow
     7.484E-01    7.409E-01    7.333E-01    7.258E-01    7.183E-01    7.107E-01    7.032E-01    6.956E-01    6.881E-01    6.806E-01
     6.730E-01    6.655E-01    6.580E-01    6.504E-01    6.429E-01    6.353E-01    6.278E-01    6.203E-01    6.127E-01    6.052E-01
     5.977E-01    5.901E-01    5.826E-01    5.750E-01    5.675E-01    5.600E-01    5.524E-01    5.449E-01    5.373E-01    5.298E-01
     5.223E-01    5.147E-01    5.072E-01    4.997E-01    4.921E-01    4.846E-01    4.770E-01    4.695E-01    4.620E-01    4.544E-01
     4.469E-01    4.394E-01    4.318E-01    4.243E-01    4.167E-01    4.092E-01    4.017E-01    3.941E-01    3.866E-01    3.791E-01
     3.715E-01    3.640E-01    3.564E-01    3.489E-01    3.414E-01    3.338E-01    3.263E-01    3.188E-01    3.112E-01    3.037E-01
     2.961E-01    2.886E-01    2.811E-01    2.735E-01    2.660E-01    2.585E-01    2.509E-01    2.434E-01    2.358E-01    2.283E-01
     2.208E-01    2.132E-01    2.057E-01    1.982E-01    1.906E-01    1.831E-01    1.755E-01    1.680E-01    1.605E-01    1.529E-01
     1.454E-01    1.379E-01    1.303E-01    1.228E-01    1.152E-01    1.077E-01    1.002E-01    9.263E-02    8.509E-02    7.755E-02
     7.001E-02    6.247E-02    5.494E-02    4.740E-02    3.986E-02    3.232E-02    2.478E-02    1.725E-02    9.709E-03    2.171E-03
    -5.367E-03   -1.291E-02   -2.044E-02   -2.798E-02   -3.552E-02   -4.306E-02   -5.060E-02   -5.813E-02   -6.567E-02   -7.321E-02
    -8.075E-02   -8.829E-02   -9.582E-02   -1.034E-01   -1.109E-01   -1.184E-01   -1.260E-01   -1.335E-01   -1.411E-01   -1.486E-01
    -1.561E-01   -1.637E-01   -1.712E-01   -1.787E-01   -1.863E-01   -1.938E-01   -2.014E-01   -2.089E-01   -2.164E-01   -2.240E-01
    -2.315E-01   -2.390E-01   -2.466E-01   -2.541E-01   -2.617E-01   -2.692E-01   -2.767E-01   -2.843E-01   -2.918E-01   -2.994E-01
    -3.069E-01   -3.144E-01   -3.220E-01   -3.295E-01   -3.370E-01   -3.446E-01   -3.521E-01   -3.597E-01   -3.672E-01   -3.747E-01
    -3.823E-01   -3.898E-01   -3.974E-01   -4.049E-01   -4.124E-01   -4.200E-01   -4.275E-01   -4.350E-01   -4.426E-01   -4.501E-01
    -4.577E-01   -4.652E-01   -4.727E-01   -4.803E-01   -4.878E-01   -4.954E-01   -5.029E-01   -5.104E-01   -5.180E-01   -5.255E-01
    -5.331E-01   -5.406E-01   -5.481E-01   -5.557E-01   -5.632E-01   -5.707E-01   -5.783E-01   -5.858E-01   -5.934E-01   -6.009E-01
    -6.084E-01   -6.160E-01   -6.235E-01   -6.311E-01   -6.386E-01   -6.461E-01   -6.537E-01   -6.612E-01   -6.687E-01   -6.763E-01
    -6.838E-01   -6.914E-01   -6.989E-01   -7.064E-01   -7.140E-01   -7.215E-01   -7.291E-01   -7.366E-01   -7.441E-01   -7.517E-01
    -7.592E-01   -7.668E-01   -7.743E-01   -7.818E-01   -7.894E-01   -7.969E-01   -8.045E-01   -8.120E-01   -8.195E-01   -8.271E-01
    -8.346E-01   -8.421E-01   -8.497E-01   -8.572E-01   -8.648E-01   -8.723E-01   -8.798E-01   -8.874E-01   -8.949E-01   -9.025E-01
    -9.100E-01   -9.175E-01   -9.251E-01   -9.326E-01   -9.402E-01   -9.477E-01   -9.552E-01   -9.628E-01   -9.703E-01   -9.778E-01
    -9.854E-01   -9.929E-01   -1.000E+00   -1.008E+00   -1.016E+00   -1.023E+00   -1.031E+00   -1.038E+00   -1.046E+00   -1.053E+00
    -1.061E+00   -1.068E+00   -1.076E+00   -1.083E+00   -1.091E+00   -1.098E+00   -1.106E+00   -1.114E+00   -1.121E+00   -1.129E+00
    -1.136E+00   -1.144E+00   -1.151E+00   -1.159E+00   -1.166E+00   -1.174E+00   -1.181E+00   -1.189E+00   -1.196E+00   -1.204E+00
    -1.212E+00   -1.219E+00   -1.227E+00   -1.234E+00   -1.242E+00   -1.249E+00   -1.257E+00   -1.264E+00   -1.272E+00   -1.279E+00
    -1.287E+00   -1.294E+00   -1.302E+00   -1.310E+00   -1.317E+00   -1.325E+00   -1.332E+00   -1.340E+00   -1.347E+00   -1.355E+00
    -1.362E+00   -1.370E+00   -1.377E+00   -1.385E+00   -1.392E+00   -1.400E+00   -1.408E+00   -1.415E+00   -1.423E+00   -1.430E+00
    -1.438E+00   -1.445E+00   -1.453E+00   -1.460E+00   -1.468E+00   -1.475E+00   -1.483E+00   -1.490E+00   -1.498E+00   -1.506E+00
    -1.513E+00   -1.521E+00   -1.528E+00   -1.536E+00   -1.543E+00   -1.551E+00   -1.558E+00   -1.566E+00   -1.573E+00   -1.581E+00
    -1.588E+00   -1.596E+00   -1.604E+00   -1.611E+00   -1.619E+00   -1.626E+00   -1.634E+00   -1.641E+00   -1.649E+00   -1.656E+00
    -1.664E+00   -1.671E+00   -1.679E+00   -1.686E+00   -1.694E+00   -1.702E+00   -1.709E+00   -1.717E+00   -1.724E+00   -1.732E+00
    -1.739E+00   -1.747E+00   -1.754E+00   -1.762E+00   -1.769E+00   -1.777E+00   -1.784E+00   -1.792E+00   -1.800E+00   -1.807E+00
    -1.815E+00   -1.822E+00   -1.830E+00   -1.837E+00   -1.845E+00   -1.852E+00   -1.860E+00   -1.867E+00   -1.875E+00   -1.882E+00
    -1.890E+00   -1.897E+00   -1.905E+00   -1.913E+00   -1.920E+00   -1.928E+00   -1.935E+00   -1.943E+00   -1.950E+00   -1.958E+00
    -1.965E+00   -1.973E+00   -1.980E+00   -1.988E+00   -1.995E+00   -2.003E+00   -2.011E+00   -2.018E+00   -2.026E+00   -2.033E+00
    -2.041E+00   -2.048E+00   -2.056E+00   -2.063E+00   -2.071E+00   -2.078E+00   -2.086E+00   -2.093E+00   -2.101E+00   -2.108E+00
    -2.116E+00   -2.124E+00   -2.131E+00   -2.139E+00   -2.146E+00   -2.154E+00   -2.161E+00   -2.169E+00   -2.176E+00   -2.184E+00
    -2.191E+00   -2.199E+00   -2.206E+00   -2.214E+00   -2.222E+00   -2.229E+00   -2.237E+00   -2.244E+00   -2.252E+00   -2.259E+00
    -2.267E+00   -2.274E+00   -2.282E+00   -2.289E+00   -2.297E+00   -2.304E+00   -2.312E+00   -2.319E+00   -2.327E+00   -2.335E+00
    -2.342E+00   -2.350E+00   -2.357E+00   -2.365E+00   -2.372E+00   -2.380E+00   -2.387E+00   -2.395E+00   -2.402E+00   -2.410E+00
    -2.417E+00   -2.425E+00   -2.432E+00   -2.440E+00   -2.448E+00   -2.455E+00   -2.463E+00   -2.470E+00   -2.478E+00   -2.485E+00
    -2.493E+00   -2.500E+00   -2.508E+00   -2.515E+00   -2.523E+00   -2.530E+00   -2.538E+00   -2.545E+00   -2.553E+00   -2.561E+00
    -2.568E+00   -2.576E+00   -2.583E+00   -2.591E+00   -2.598E+00   -2.606E+00   -2.613E+00   -2.621E+00   -2.628E+00   -2.636E+00
    -2.643E+00   -2.651E+00   -2.659E+00   -2.666E+00   -2.674E+00   -2.681E+00   -2.689E+00   -2.696E+00   -2.704E+00   -2.711E+00
    -2.719E+00   -2.726E+00   -2.734E+00   -2.741E+00   -2.749E+00   -2.756E+00   -2.764E+00   -2.772E+00   -2.779E+00   -2.787E+00
    -2.794E+00   -2.802E+00   -2.809E+00   -2.817E+00   -2.824E+00   -2.832E+00   -2.839E+00   -2.847E+00   -2.854E+00   -2.862E+00
    -2.869E+00   -2.877E+00   -2.885E+00   -2.892E+00   -2.900E+00   -2.907E+00   -2.915E+00   -2.922E+00   -2.930E+00   -2.937E+00
    -2.945E+00   -2.952E+00   -2.960E+00   -2.967E+00   -2.975E+00   -2.982E+00   -2.990E+00   -2.998E+00
 Ala      Conc. = 1.36E+03
