 LCModel (Version 6.3-1L) Copyright: S.W. Provencher.          Ref.: Magn. Reson. Med. 30:672-679 (1993).                
 Slice#3 Row#12 Col#6  PD_05_press_2_raw_act
 36 lines in following concentration table = NCONC+1
    Conc.  %SD /Cr+PCr  Metabolite                                         
    3.472 999% 5.0E-02 Ala                                                 
   10.661  36%   0.154 Asp                                                 
   15.316 527%   0.221 Cr                                                  
   53.911 150%   0.779 PCr                                                 
    6.410  36% 9.3E-02 GABA                                                
    6.395  36% 9.2E-02 Glc                                                 
    0.000 999%   0.000 Gln                                                 
  208.395  59%   3.010 Glu                                                 
    5.216 218% 7.5E-02 GPC                                                 
    0.000 999%   0.000 PCh                                                 
   38.565 106%   0.557 GSH                                                 
  292.848  44%   4.230 Ins                                                 
   89.612  69%   1.294 Lac                                                 
  128.450  27%   1.855 NAA                                                 
    0.000 999%   0.000 NAAG                                                
    2.143  36% 3.1E-02 Scyllo                                              
   10.664  36%   0.154 Tau                                                 
    6.460  71% 9.3E-02 -CrCH2                                              
    5.216 218% 7.5E-02 GPC+PCh                                             
  128.450  27%   1.855 NAA+NAAG                                            
   69.227  43%   1.000 Cr+PCr                                              
  208.395  59%   3.010 Glu+Gln                                             
    0.000 999%   0.000 Lip13a                                              
    0.000 999%   0.000 Lip13b                                              
    0.000 999%   0.000 Lip09                                               
  224.201  37%   3.239 MM09                                                
    0.000 999%   0.000 Lip20                                               
  246.150  55%   3.556 MM20                                                
   62.745  52%   0.906 MM12                                                
  643.760  12%   9.299+MM14                                                
  191.758  33%   2.770 MM17                                                
    0.000 999%   0.000 Lip13a+Lip13b                                       
  706.506  14%  10.206 MM14+Lip13a+Lip13b+MM12                             
  224.201  37%   3.239 MM09+Lip09                                          
  246.150  55%   3.556 MM20+Lip20                                          
   6 lines in following misc. output table
  FWHM = 0.046 ppm    S/N =   1                                            
  Data shift = 0.023 ppm                                                   
  Ph: -89 deg      -6.4 deg/ppm                                            
  alphaB,S = 2.0E+01,   3.9E+01                                            
   14 spline knots.   Ns = 5(1)                                            
   2 inflections.     1 extrema                                            
  498 points on ppm-axis = NY
      4.000000     3.992357     3.984714     3.977070     3.969427     3.961784     3.954141     3.946497     3.938854     3.931211
      3.923568     3.915925     3.908281     3.900638     3.892995     3.885352     3.877708     3.870065     3.862422     3.854779
      3.847136     3.839492     3.831849     3.824206     3.816563     3.808919     3.801276     3.793633     3.785990     3.778347
      3.770703     3.763060     3.755417     3.747774     3.740130     3.732487     3.724844     3.717201     3.709558     3.701914
      3.694271     3.686628     3.678985     3.671341     3.663698     3.656055     3.648412     3.640769     3.633125     3.625482
      3.617839     3.610196     3.602552     3.594909     3.587266     3.579623     3.571980     3.564336     3.556693     3.549050
      3.541407     3.533763     3.526120     3.518477     3.510834     3.503191     3.495547     3.487904     3.480261     3.472618
      3.464974     3.457331     3.449688     3.442045     3.434402     3.426758     3.419115     3.411472     3.403829     3.396185
      3.388542     3.380899     3.373256     3.365613     3.357969     3.350326     3.342683     3.335040     3.327396     3.319753
      3.312110     3.304467     3.296824     3.289180     3.281537     3.273894     3.266251     3.258607     3.250964     3.243321
      3.235678     3.228034     3.220391     3.212748     3.205105     3.197462     3.189818     3.182175     3.174532     3.166889
      3.159245     3.151602     3.143959     3.136316     3.128673     3.121029     3.113386     3.105743     3.098100     3.090456
      3.082813     3.075170     3.067527     3.059884     3.052240     3.044597     3.036954     3.029311     3.021667     3.014024
      3.006381     2.998738     2.991095     2.983451     2.975808     2.968165     2.960522     2.952878     2.945235     2.937592
      2.929949     2.922306     2.914662     2.907019     2.899376     2.891733     2.884089     2.876446     2.868803     2.861160
      2.853517     2.845873     2.838230     2.830587     2.822944     2.815300     2.807657     2.800014     2.792371     2.784728
      2.777084     2.769441     2.761798     2.754155     2.746511     2.738868     2.731225     2.723582     2.715939     2.708295
      2.700652     2.693009     2.685366     2.677722     2.670079     2.662436     2.654793     2.647150     2.639506     2.631863
      2.624220     2.616577     2.608933     2.601290     2.593647     2.586004     2.578361     2.570717     2.563074     2.555431
      2.547788     2.540144     2.532501     2.524858     2.517215     2.509572     2.501928     2.494285     2.486642     2.478999
      2.471355     2.463712     2.456069     2.448426     2.440783     2.433139     2.425496     2.417853     2.410210     2.402566
      2.394923     2.387280     2.379637     2.371994     2.364350     2.356707     2.349064     2.341421     2.333777     2.326134
      2.318491     2.310848     2.303205     2.295561     2.287918     2.280275     2.272632     2.264988     2.257345     2.249702
      2.242059     2.234416     2.226772     2.219129     2.211486     2.203843     2.196199     2.188556     2.180913     2.173270
      2.165627     2.157983     2.150340     2.142697     2.135054     2.127410     2.119767     2.112124     2.104481     2.096838
      2.089194     2.081551     2.073908     2.066265     2.058621     2.050978     2.043335     2.035692     2.028049     2.020405
      2.012762     2.005119     1.997476     1.989833     1.982190     1.974546     1.966903     1.959260     1.951617     1.943974
      1.936331     1.928688     1.921045     1.913402     1.905759     1.898115     1.890472     1.882829     1.875186     1.867543
      1.859900     1.852257     1.844614     1.836971     1.829327     1.821684     1.814041     1.806398     1.798755     1.791112
      1.783469     1.775826     1.768183     1.760540     1.752896     1.745253     1.737610     1.729967     1.722324     1.714681
      1.707038     1.699395     1.691752     1.684108     1.676465     1.668822     1.661179     1.653536     1.645893     1.638250
      1.630607     1.622964     1.615321     1.607677     1.600034     1.592391     1.584748     1.577105     1.569462     1.561819
      1.554176     1.546533     1.538890     1.531246     1.523603     1.515960     1.508317     1.500674     1.493031     1.485388
      1.477745     1.470102     1.462458     1.454815     1.447172     1.439529     1.431886     1.424243     1.416600     1.408957
      1.401314     1.393671     1.386027     1.378384     1.370741     1.363098     1.355455     1.347812     1.340169     1.332526
      1.324883     1.317240     1.309596     1.301953     1.294310     1.286667     1.279024     1.271381     1.263738     1.256095
      1.248452     1.240808     1.233165     1.225522     1.217879     1.210236     1.202593     1.194950     1.187307     1.179664
      1.172021     1.164377     1.156734     1.149091     1.141448     1.133805     1.126162     1.118519     1.110876     1.103233
      1.095590     1.087946     1.080303     1.072660     1.065017     1.057374     1.049731     1.042088     1.034445     1.026802
      1.019158     1.011515     1.003872     0.996229     0.988586     0.980943     0.973300     0.965657     0.958014     0.950371
      0.942727     0.935084     0.927441     0.919798     0.912155     0.904512     0.896869     0.889226     0.881583     0.873940
      0.866296     0.858653     0.851010     0.843367     0.835724     0.828081     0.820438     0.812795     0.805152     0.797508
      0.789865     0.782222     0.774579     0.766936     0.759293     0.751650     0.744007     0.736364     0.728721     0.721077
      0.713434     0.705791     0.698148     0.690505     0.682862     0.675219     0.667576     0.659933     0.652290     0.644646
      0.637003     0.629360     0.621717     0.614074     0.606431     0.598788     0.591145     0.583502     0.575858     0.568215
      0.560572     0.552929     0.545286     0.537643     0.530000     0.522357     0.514714     0.507071     0.499427     0.491784
      0.484141     0.476498     0.468855     0.461212     0.453569     0.445925     0.438282     0.430639     0.422996     0.415353
      0.407710     0.400067     0.392424     0.384780     0.377137     0.369494     0.361851     0.354208     0.346565     0.338922
      0.331278     0.323635     0.315992     0.308349     0.300706     0.293063     0.285420     0.277777     0.270133     0.262490
      0.254847     0.247204     0.239561     0.231918     0.224275     0.216631     0.208988     0.201345
 NY phased data points follow
   1.16583E+01  1.06639E+01  4.78940E+00  5.95952E+00  4.50033E+00  7.97919E+00  8.15582E+00  3.97400E+00  7.15562E+00  1.04992E+01
   9.20548E+00  6.46401E+00  1.28355E+01  1.07466E+01  7.74758E+00  8.74701E+00  3.29386E+00  6.29378E+00  8.04906E+00  7.13068E+00
   8.93548E+00  4.90758E+00  8.08194E+00  8.27254E+00  7.86313E+00  6.28611E+00  8.09042E+00  8.69146E+00  4.70236E+00  5.71439E+00
   7.17873E+00  5.89149E+00  7.07716E+00  5.37873E+00  7.66714E+00  7.05049E+00  8.25315E+00  1.24522E+01  6.44843E+00  3.17213E+00
   5.99305E+00  6.36724E+00  3.89556E+00  3.82692E+00  4.69860E+00  8.35969E+00  5.79869E+00  4.86764E+00  9.39780E+00  7.37405E+00
   7.08166E+00  7.06915E+00  6.83676E+00  6.99860E+00  2.50283E+00  6.29722E+00  5.82902E+00  3.94356E+00  7.59595E+00  7.53261E+00
   3.73202E+00  1.05617E+01  4.48205E+00  2.42664E+00  4.45065E+00  7.05737E+00  5.65863E+00  7.09166E+00  6.09018E+00  1.37957E+00
   9.85107E-02  7.67515E+00  3.71930E+00  6.00783E+00  4.58721E+00  5.74947E+00  6.85916E+00  4.62163E+00  7.46448E+00  2.33558E+00
   2.10512E+00  5.16253E+00  3.38479E+00  8.99373E+00  6.40748E+00  4.13129E+00  5.79581E+00  9.38942E+00  3.05206E+00  4.78975E+00
   2.26079E+00  4.13327E+00  9.15487E+00  7.90426E+00  7.01592E+00  6.87748E+00  2.42267E+00  4.05140E+00  3.18716E+00  3.03349E+00
   5.97533E+00  3.61310E+00  4.29495E+00  3.65563E+00  8.25599E+00  2.22719E-01  5.06048E+00  6.60432E+00  2.65569E+00  4.07998E+00
   8.11212E+00  4.23139E+00  3.76231E+00  4.01334E+00  7.05600E+00  7.98500E+00  7.79443E+00  2.18848E+00  2.48440E+00  7.32058E-01
   3.59748E+00  1.79764E+00 -6.00300E-01  3.11626E+00  3.56841E+00  1.28211E+00  5.73397E+00  4.33933E+00  8.10316E+00  7.09001E+00
   7.03661E+00  2.62878E+00  2.70123E+00  4.02495E+00  6.30263E+00  4.86268E+00  1.47443E+00  5.95740E+00  4.86027E+00 -8.70066E-01
   7.85563E+00 -5.53530E-01  2.38318E+00  3.23377E+00  4.73442E+00 -6.74934E-01  3.81141E+00  6.05326E+00  5.35041E+00  2.70867E+00
   2.74161E+00  1.52456E+00  2.41363E+00  8.11386E+00  6.06215E+00  5.25523E+00  6.17346E+00 -3.85901E-01  4.95860E+00  1.99530E+00
   1.68758E+00  1.58368E+00  5.21530E+00  7.08571E-01  1.99377E+00  8.76579E+00  4.76276E+00  5.06927E+00  3.31720E+00 -6.55165E-01
   5.37010E+00  2.39515E+00 -1.06493E+00  5.12877E+00 -7.72156E-01  4.64822E+00  6.93503E+00  1.65089E+00  2.25506E+00  5.14512E+00
   1.53149E-02  2.25292E+00  3.03187E+00  3.60725E+00  7.13058E+00  3.82523E+00  1.51495E+00  2.14512E+00  4.69527E+00  6.79251E-01
   2.83121E+00  8.00651E+00  4.91232E+00  2.90481E+00  3.79354E+00  2.68689E+00  5.08359E+00  1.56320E+00 -5.04081E-01 -1.37418E+00
   6.10208E+00  3.74020E+00 -2.21720E+00  3.73238E+00  4.41671E+00  1.49043E+00  4.22220E+00  2.03586E+00  2.99814E+00  5.69378E+00
   2.12105E+00  4.74343E+00  2.64456E+00 -8.74746E-02  4.95255E+00  3.85137E+00  4.27900E+00  5.63784E-01  4.69098E+00  1.54499E+00
   1.13523E+00 -1.22296E+00  2.89730E+00  3.98376E+00  7.79425E-01  3.29930E+00 -5.23480E-01  5.15093E+00  3.82903E+00  3.95183E+00
   3.66858E+00  5.96119E+00  5.56368E+00 -3.01358E-01  1.55491E+00  2.65736E+00  5.64551E-01  4.40676E+00  6.98152E+00  5.17944E+00
   3.00387E+00  3.49232E+00  6.44953E+00  2.17913E+00  3.99220E+00  2.29890E+00  1.26927E+00  4.91752E+00  3.55529E+00  6.98415E+00
   7.52707E+00  4.65177E+00  5.86327E+00 -3.34298E-01 -1.36205E+00 -3.13484E+00 -8.32795E+00 -2.10642E-01  2.02491E+00  4.38974E+00
   6.59756E+00  8.27556E+00  1.22223E+01  8.95204E+00  6.27907E+00  4.97282E+00  4.16073E+00  4.01591E+00  1.28271E+00  1.23007E+00
   2.67786E+00  6.24530E-01  4.74260E+00 -1.11590E+00  5.62674E+00  2.10785E+00  1.71247E+00  6.52476E+00  1.72004E+00 -6.08652E-01
   7.48013E+00  6.15528E+00  6.49351E+00  5.17228E+00  1.71074E+00 -5.20205E-01  8.16526E+00  4.30454E+00  4.27561E+00  7.05092E+00
   5.43185E+00  4.88680E+00  6.46595E+00  6.18943E+00  4.35635E+00  2.49693E+00  1.19633E+00  2.53870E+00  3.21926E+00  3.86623E+00
   1.73623E+00  4.07898E+00 -2.18503E+00  2.81478E+00  6.74831E+00 -8.11445E-01  3.35581E+00  3.64342E+00  4.38160E+00  3.41704E+00
   4.54179E+00  4.85853E+00  1.71131E+00  4.61136E+00  6.24731E+00  5.11916E+00  8.28464E+00  6.59832E+00  7.64788E+00  9.49060E+00
   9.95810E+00  8.73229E+00  9.60794E+00  1.27188E+01  1.07743E+01  1.12410E+01  8.43510E+00  8.39998E+00  1.66377E+01  8.28190E+00
   1.33581E+01  9.08040E+00  1.25607E+01  1.09382E+01  9.31843E+00  9.44407E+00  1.27168E+01  5.28890E+00  7.36359E+00  5.62613E+00
   4.72710E+00  5.10049E+00  3.70272E+00  7.33539E+00  4.75504E+00  6.57824E+00  5.60593E+00  6.80268E+00  4.20715E+00  3.03982E+00
   2.93703E+00  2.73586E+00  1.36170E-01 -1.61843E+00  1.38824E+00  2.32873E+00 -1.58919E+00 -4.59900E+00 -1.39917E-02  9.39341E-01
   1.83772E+00  7.20588E-01  1.49210E+00  4.55821E-01 -2.62656E-01  3.01202E+00  6.20849E+00  2.54245E-01  1.34774E+00  2.63949E+00
   5.06796E+00  5.01188E+00  2.28540E+00  1.94989E+00  3.51529E+00  2.62408E+00  7.26655E+00 -9.22468E-01  3.84450E+00  8.64023E-01
   8.21319E-02  2.59772E+00 -8.22501E-01 -9.27857E-01 -4.22742E+00  1.20694E+00 -7.95274E-01 -7.64041E-01  1.13954E+00  1.52451E+00
   2.00287E+00 -2.06909E+00  2.92592E+00 -2.78249E-02  2.98467E+00  2.11896E+00  5.03637E+00 -3.96320E+00  5.93647E+00  1.40403E+00
   5.58128E-01 -3.11688E-01 -1.23451E+00  2.77255E+00  3.93469E-01  6.65416E+00  1.20759E+00  4.37506E+00  1.04896E+00  4.10189E+00
   1.29298E+00  1.90853E+00  1.57809E+00  1.77775E+00  2.56419E+00 -1.78564E-02 -1.40946E-01  4.68167E-01  3.23350E+00  2.86128E+00
  -2.41611E-01 -6.32347E-01 -3.68741E-01 -5.35059E-01  3.80803E+00 -5.32845E-01 -1.07324E+00  4.56904E+00  3.17110E+00  2.12465E+00
  -3.61184E+00  3.06874E+00 -1.95747E+00  1.34301E-01 -3.23711E-02  3.51894E+00  3.46058E+00  2.76183E+00  1.07165E+00  5.40065E+00
  -1.07599E+00  1.59094E+00  3.44380E-01  1.27706E+00  1.76475E+00  2.87044E+00  2.30972E+00  1.24112E+00  3.39476E+00  1.15569E-01
  -3.12406E+00  3.69236E+00  2.05897E+00  3.40540E+00 -1.45623E-01  4.45376E+00  5.52611E+00  2.91428E+00  2.09035E+00 -2.44794E+00
   3.52997E+00 -3.27827E-02  1.46546E-01  2.53215E-01  7.75687E-01  3.39292E+00  4.20752E+00  1.97460E+00  1.39445E+00  4.77280E-01
   3.76751E+00  2.21618E+00 -1.11252E+00  3.69861E-01  3.24281E+00 -3.92104E+00 -3.53065E+00  2.93791E+00  1.47450E-01  4.47829E-01
  -3.97695E-01  4.31652E-01  9.59257E-01 -5.22556E-01 -1.99022E+00  3.05417E+00 -7.71366E-01  2.99135E+00  7.51778E-01  2.81811E+00
   1.90037E+00  2.40993E+00  6.46310E-02 -3.45540E-01  4.12415E+00  4.79048E+00 -5.02717E-01  1.81364E+00
 NY points of the fit to the data follow
   6.46525E+00  6.18997E+00  5.98922E+00  5.89059E+00  5.82501E+00  5.80799E+00  5.91636E+00  6.17126E+00  6.54194E+00  6.94245E+00
   7.26507E+00  7.41813E+00  7.35515E+00  7.08923E+00  6.69293E+00  6.28979E+00  6.00816E+00  5.84356E+00  5.75537E+00  5.72706E+00
   5.72385E+00  5.72881E+00  5.74816E+00  5.80222E+00  5.85142E+00  5.82460E+00  5.74847E+00  5.71553E+00  5.77289E+00  5.93933E+00
   6.21521E+00  6.56517E+00  6.90502E+00  7.13982E+00  7.19607E+00  7.01417E+00  6.66364E+00  6.28373E+00  5.92174E+00  5.59482E+00
   5.36382E+00  5.23481E+00  5.15132E+00  5.13097E+00  5.34174E+00  5.87867E+00  6.62673E+00  7.39341E+00  7.96680E+00  8.16931E+00
   7.91930E+00  7.25466E+00  6.34988E+00  5.48695E+00  4.93161E+00  4.76505E+00  4.86723E+00  5.09990E+00  5.41957E+00  5.78416E+00
   6.11635E+00  6.33302E+00  6.37121E+00  6.22164E+00  5.92149E+00  5.56153E+00  5.27564E+00  5.13521E+00  5.15524E+00  5.31230E+00
   5.52565E+00  5.72599E+00  5.87011E+00  5.94073E+00  5.94405E+00  5.88875E+00  5.78830E+00  5.65744E+00  5.52712E+00  5.43710E+00
   5.37461E+00  5.32631E+00  5.30821E+00  5.31042E+00  5.28593E+00  5.18047E+00  4.97593E+00  4.69617E+00  4.39832E+00  4.15158E+00
   4.02017E+00  4.03721E+00  4.20302E+00  4.47584E+00  4.74808E+00  4.93529E+00  5.00023E+00  4.94786E+00  4.79791E+00  4.62501E+00
   4.50204E+00  4.46190E+00  4.50607E+00  4.61183E+00  4.72720E+00  4.79165E+00  4.78311E+00  4.70768E+00  4.60006E+00  4.51120E+00
   4.47875E+00  4.47308E+00  4.47207E+00  4.47653E+00  4.47968E+00  4.48093E+00  4.47505E+00  4.45928E+00  4.43546E+00  4.40681E+00
   4.37446E+00  4.32512E+00  4.23290E+00  4.27548E+00  4.63305E+00  5.28758E+00  6.08793E+00  6.82796E+00  7.31495E+00  7.42268E+00
   7.13543E+00  6.54145E+00  5.81618E+00  5.19953E+00  4.87547E+00  4.69763E+00  4.51936E+00  4.33710E+00  4.19166E+00  4.12135E+00
   4.14347E+00  4.23916E+00  4.35119E+00  4.43223E+00  4.46062E+00  4.43409E+00  4.37229E+00  4.30250E+00  4.23817E+00  4.18954E+00
   4.14834E+00  4.10871E+00  4.06940E+00  4.03298E+00  4.00145E+00  3.97794E+00  3.96752E+00  3.95945E+00  3.93722E+00  3.89472E+00
   3.83483E+00  3.77740E+00  3.74117E+00  3.73256E+00  3.74875E+00  3.77746E+00  3.80174E+00  3.80321E+00  3.76964E+00  3.71346E+00
   3.65742E+00  3.61812E+00  3.59508E+00  3.55988E+00  3.50721E+00  3.45343E+00  3.41595E+00  3.39721E+00  3.38850E+00  3.38464E+00
   3.38549E+00  3.38885E+00  3.38515E+00  3.35724E+00  3.30686E+00  3.26245E+00  3.23815E+00  3.24394E+00  3.28778E+00  3.38007E+00
   3.51498E+00  3.66108E+00  3.77618E+00  3.83336E+00  3.81135E+00  3.72073E+00  3.60076E+00  3.48692E+00  3.40380E+00  3.35918E+00
   3.36102E+00  3.41190E+00  3.51393E+00  3.64620E+00  3.76466E+00  3.83770E+00  3.84889E+00  3.78605E+00  3.64415E+00  3.43008E+00
   3.18768E+00  2.97720E+00  2.92317E+00  3.11764E+00  3.51982E+00  4.01841E+00  4.47293E+00  4.73319E+00  4.67912E+00  4.22299E+00
   3.42311E+00  2.52976E+00  1.82187E+00  1.50792E+00  1.58379E+00  1.96318E+00  2.55227E+00  3.19697E+00  3.70155E+00  3.92420E+00
   3.88664E+00  3.73513E+00  3.58452E+00  3.47939E+00  3.47015E+00  3.57311E+00  3.74547E+00  3.90186E+00  3.96703E+00  3.89393E+00
   3.70022E+00  3.44661E+00  3.22467E+00  3.11132E+00  3.15338E+00  3.34788E+00  3.62178E+00  3.86779E+00  4.00193E+00  3.99869E+00
   3.87020E+00  3.69350E+00  3.54563E+00  3.47504E+00  3.45715E+00  3.38027E+00  3.31433E+00  3.66080E+00  4.56311E+00  5.87642E+00
   7.30933E+00  8.50356E+00  9.12970E+00  8.99594E+00  8.10994E+00  6.69950E+00  5.22333E+00  4.22587E+00  3.80748E+00  3.57616E+00
   3.40777E+00  3.29086E+00  3.21267E+00  3.16399E+00  3.14982E+00  3.15782E+00  3.17013E+00  3.16829E+00  3.14084E+00  3.08636E+00
   3.01802E+00  2.95100E+00  2.89203E+00  2.84415E+00  2.80875E+00  2.78418E+00  2.76711E+00  2.75320E+00  2.73912E+00  2.72593E+00
   2.71441E+00  2.70516E+00  2.69945E+00  2.69857E+00  2.70303E+00  2.71288E+00  2.72862E+00  2.75099E+00  2.78005E+00  2.81586E+00
   2.85898E+00  2.90971E+00  2.96838E+00  3.03523E+00  3.11051E+00  3.19452E+00  3.28767E+00  3.39053E+00  3.50387E+00  3.62867E+00
   3.76616E+00  3.91744E+00  4.08340E+00  4.26474E+00  4.46183E+00  4.67461E+00  4.90236E+00  5.14364E+00  5.39609E+00  5.65639E+00
   5.92023E+00  6.18234E+00  6.43687E+00  6.68075E+00  6.90922E+00  7.11162E+00  7.27608E+00  7.39267E+00  7.45486E+00  7.46003E+00
   7.40742E+00  7.30121E+00  7.15386E+00  6.97835E+00  6.78263E+00  6.56588E+00  6.32673E+00  6.06838E+00  5.79429E+00  5.50875E+00
   5.21803E+00  4.93022E+00  4.65462E+00  4.46218E+00  4.45194E+00  4.55908E+00  4.64064E+00  4.56667E+00  4.25958E+00  3.70605E+00
   2.90750E+00  1.97582E+00  1.19364E+00  8.18373E-01  9.61462E-01  1.48480E+00  2.11508E+00  2.71093E+00  3.15827E+00  3.36594E+00
   3.30488E+00  3.04634E+00  2.78244E+00  2.62617E+00  2.52861E+00  2.45895E+00  2.40479E+00  2.36005E+00  2.32139E+00  2.28687E+00
   2.25528E+00  2.22591E+00  2.19833E+00  2.17239E+00  2.14810E+00  2.12557E+00  2.10498E+00  2.08659E+00  2.07070E+00  2.05767E+00
   2.04791E+00  2.04183E+00  2.03988E+00  2.04250E+00  2.05015E+00  2.06327E+00  2.08231E+00  2.10762E+00  2.13948E+00  2.17807E+00
   2.22342E+00  2.27539E+00  2.33363E+00  2.39755E+00  2.46629E+00  2.53873E+00  2.61350E+00  2.68899E+00  2.76340E+00  2.83477E+00
   2.90109E+00  2.96034E+00  3.01064E+00  3.05028E+00  3.07781E+00  3.09216E+00  3.09263E+00  3.07898E+00  3.05140E+00  3.01052E+00
   2.95734E+00  2.89319E+00  2.81966E+00  2.73851E+00  2.65159E+00  2.56074E+00  2.46773E+00  2.37419E+00  2.28157E+00  2.19109E+00
   2.10376E+00  2.02033E+00  1.94132E+00  1.86706E+00  1.79770E+00  1.73323E+00  1.67352E+00  1.61835E+00  1.56744E+00  1.52045E+00
   1.47707E+00  1.43695E+00  1.39974E+00  1.36514E+00  1.33286E+00  1.30262E+00  1.27419E+00  1.24735E+00  1.22192E+00  1.19772E+00
   1.17461E+00  1.15248E+00  1.13121E+00  1.11070E+00  1.09088E+00  1.07167E+00  1.05301E+00  1.03484E+00  1.01713E+00  9.99820E-01
   9.82879E-01  9.66273E-01  9.49977E-01  9.33965E-01  9.18214E-01  9.02700E-01  8.87408E-01  8.72320E-01  8.57425E-01  8.42708E-01
   8.28154E-01  8.13751E-01  7.99488E-01  7.85359E-01  7.71357E-01  7.57473E-01  7.43697E-01  7.30022E-01  7.16444E-01  7.02958E-01
   6.89560E-01  6.76241E-01  6.62997E-01  6.49825E-01  6.36722E-01  6.23687E-01  6.10714E-01  5.97799E-01  5.84936E-01  5.72125E-01
   5.59365E-01  5.46652E-01  5.33983E-01  5.21353E-01  5.08761E-01  4.96206E-01  4.83689E-01  4.71205E-01  4.58751E-01  4.46323E-01
   4.33920E-01  4.21544E-01  4.09192E-01  3.96861E-01  3.84546E-01  3.72244E-01  3.59958E-01  3.47685E-01
 NY background values follow
     5.659E+00    5.648E+00    5.637E+00    5.626E+00    5.615E+00    5.604E+00    5.593E+00    5.581E+00    5.570E+00    5.559E+00
     5.548E+00    5.537E+00    5.526E+00    5.515E+00    5.504E+00    5.493E+00    5.482E+00    5.471E+00    5.460E+00    5.449E+00
     5.438E+00    5.427E+00    5.416E+00    5.404E+00    5.393E+00    5.382E+00    5.371E+00    5.360E+00    5.349E+00    5.338E+00
     5.327E+00    5.316E+00    5.305E+00    5.294E+00    5.283E+00    5.272E+00    5.261E+00    5.250E+00    5.239E+00    5.228E+00
     5.216E+00    5.205E+00    5.194E+00    5.183E+00    5.172E+00    5.161E+00    5.150E+00    5.139E+00    5.128E+00    5.117E+00
     5.106E+00    5.095E+00    5.084E+00    5.073E+00    5.062E+00    5.051E+00    5.040E+00    5.028E+00    5.017E+00    5.006E+00
     4.995E+00    4.984E+00    4.973E+00    4.962E+00    4.951E+00    4.940E+00    4.929E+00    4.918E+00    4.907E+00    4.896E+00
     4.885E+00    4.874E+00    4.863E+00    4.852E+00    4.841E+00    4.830E+00    4.818E+00    4.807E+00    4.796E+00    4.785E+00
     4.774E+00    4.763E+00    4.752E+00    4.741E+00    4.730E+00    4.719E+00    4.708E+00    4.697E+00    4.686E+00    4.675E+00
     4.664E+00    4.653E+00    4.642E+00    4.631E+00    4.620E+00    4.609E+00    4.598E+00    4.586E+00    4.575E+00    4.564E+00
     4.553E+00    4.542E+00    4.531E+00    4.520E+00    4.509E+00    4.498E+00    4.487E+00    4.476E+00    4.465E+00    4.454E+00
     4.443E+00    4.432E+00    4.421E+00    4.410E+00    4.399E+00    4.388E+00    4.377E+00    4.366E+00    4.355E+00    4.344E+00
     4.333E+00    4.322E+00    4.311E+00    4.299E+00    4.288E+00    4.277E+00    4.266E+00    4.255E+00    4.244E+00    4.233E+00
     4.222E+00    4.211E+00    4.200E+00    4.189E+00    4.178E+00    4.167E+00    4.156E+00    4.145E+00    4.134E+00    4.123E+00
     4.112E+00    4.101E+00    4.090E+00    4.079E+00    4.068E+00    4.057E+00    4.046E+00    4.035E+00    4.024E+00    4.013E+00
     4.002E+00    3.991E+00    3.980E+00    3.969E+00    3.958E+00    3.947E+00    3.936E+00    3.925E+00    3.914E+00    3.903E+00
     3.892E+00    3.881E+00    3.870E+00    3.859E+00    3.848E+00    3.837E+00    3.826E+00    3.815E+00    3.804E+00    3.793E+00
     3.782E+00    3.771E+00    3.760E+00    3.749E+00    3.738E+00    3.727E+00    3.716E+00    3.704E+00    3.693E+00    3.682E+00
     3.671E+00    3.660E+00    3.649E+00    3.638E+00    3.627E+00    3.616E+00    3.605E+00    3.594E+00    3.584E+00    3.573E+00
     3.562E+00    3.551E+00    3.540E+00    3.529E+00    3.518E+00    3.507E+00    3.496E+00    3.485E+00    3.474E+00    3.463E+00
     3.452E+00    3.441E+00    3.430E+00    3.419E+00    3.408E+00    3.397E+00    3.386E+00    3.375E+00    3.364E+00    3.353E+00
     3.342E+00    3.331E+00    3.320E+00    3.309E+00    3.298E+00    3.287E+00    3.276E+00    3.265E+00    3.254E+00    3.243E+00
     3.232E+00    3.221E+00    3.210E+00    3.199E+00    3.188E+00    3.177E+00    3.166E+00    3.155E+00    3.144E+00    3.133E+00
     3.122E+00    3.111E+00    3.100E+00    3.089E+00    3.078E+00    3.067E+00    3.056E+00    3.045E+00    3.034E+00    3.024E+00
     3.013E+00    3.002E+00    2.991E+00    2.980E+00    2.969E+00    2.958E+00    2.947E+00    2.936E+00    2.925E+00    2.914E+00
     2.903E+00    2.892E+00    2.881E+00    2.870E+00    2.859E+00    2.848E+00    2.837E+00    2.826E+00    2.815E+00    2.804E+00
     2.793E+00    2.782E+00    2.772E+00    2.761E+00    2.750E+00    2.739E+00    2.728E+00    2.717E+00    2.706E+00    2.695E+00
     2.684E+00    2.673E+00    2.662E+00    2.651E+00    2.640E+00    2.629E+00    2.618E+00    2.607E+00    2.596E+00    2.586E+00
     2.575E+00    2.564E+00    2.553E+00    2.542E+00    2.531E+00    2.520E+00    2.509E+00    2.498E+00    2.487E+00    2.476E+00
     2.465E+00    2.454E+00    2.443E+00    2.432E+00    2.422E+00    2.411E+00    2.400E+00    2.389E+00    2.378E+00    2.367E+00
     2.356E+00    2.345E+00    2.334E+00    2.323E+00    2.312E+00    2.301E+00    2.290E+00    2.280E+00    2.269E+00    2.258E+00
     2.247E+00    2.236E+00    2.225E+00    2.214E+00    2.203E+00    2.192E+00    2.181E+00    2.170E+00    2.159E+00    2.149E+00
     2.138E+00    2.127E+00    2.116E+00    2.105E+00    2.094E+00    2.083E+00    2.072E+00    2.061E+00    2.050E+00    2.039E+00
     2.029E+00    2.018E+00    2.007E+00    1.996E+00    1.985E+00    1.974E+00    1.963E+00    1.952E+00    1.941E+00    1.930E+00
     1.919E+00    1.909E+00    1.898E+00    1.887E+00    1.876E+00    1.865E+00    1.854E+00    1.843E+00    1.832E+00    1.821E+00
     1.811E+00    1.800E+00    1.789E+00    1.778E+00    1.767E+00    1.756E+00    1.745E+00    1.734E+00    1.723E+00    1.713E+00
     1.702E+00    1.691E+00    1.680E+00    1.669E+00    1.658E+00    1.647E+00    1.636E+00    1.625E+00    1.615E+00    1.604E+00
     1.593E+00    1.582E+00    1.571E+00    1.560E+00    1.549E+00    1.538E+00    1.528E+00    1.517E+00    1.506E+00    1.495E+00
     1.484E+00    1.473E+00    1.462E+00    1.451E+00    1.441E+00    1.430E+00    1.419E+00    1.408E+00    1.397E+00    1.386E+00
     1.375E+00    1.365E+00    1.354E+00    1.343E+00    1.332E+00    1.321E+00    1.310E+00    1.299E+00    1.289E+00    1.278E+00
     1.267E+00    1.256E+00    1.245E+00    1.234E+00    1.223E+00    1.213E+00    1.202E+00    1.191E+00    1.180E+00    1.169E+00
     1.158E+00    1.147E+00    1.137E+00    1.126E+00    1.115E+00    1.104E+00    1.093E+00    1.082E+00    1.072E+00    1.061E+00
     1.050E+00    1.039E+00    1.028E+00    1.017E+00    1.007E+00    9.957E-01    9.849E-01    9.741E-01    9.632E-01    9.524E-01
     9.416E-01    9.308E-01    9.199E-01    9.091E-01    8.983E-01    8.875E-01    8.766E-01    8.658E-01    8.550E-01    8.442E-01
     8.333E-01    8.225E-01    8.117E-01    8.009E-01    7.901E-01    7.792E-01    7.684E-01    7.576E-01    7.468E-01    7.360E-01
     7.252E-01    7.144E-01    7.036E-01    6.927E-01    6.819E-01    6.711E-01    6.603E-01    6.495E-01    6.387E-01    6.279E-01
     6.171E-01    6.063E-01    5.955E-01    5.847E-01    5.739E-01    5.631E-01    5.523E-01    5.415E-01    5.307E-01    5.199E-01
     5.091E-01    4.983E-01    4.875E-01    4.767E-01    4.659E-01    4.551E-01    4.444E-01    4.336E-01    4.228E-01    4.120E-01
     4.012E-01    3.904E-01    3.796E-01    3.689E-01    3.581E-01    3.473E-01    3.365E-01    3.257E-01    3.149E-01    3.042E-01
     2.934E-01    2.826E-01    2.718E-01    2.611E-01    2.503E-01    2.395E-01    2.287E-01    2.180E-01
 Ala      Conc. = 3.47E+00
