 LCModel (Version 6.3-1L) Copyright: S.W. Provencher.          Ref.: Magn. Reson. Med. 30:672-679 (1993).                
 Slice#1 Row#11 Col#11  PD_05_press_2_raw_act
 36 lines in following concentration table = NCONC+1
    Conc.  %SD /Cr+PCr  Metabolite                                         
   16.511  64%   0.985 Ala                                                 
    2.891 111%   0.173 Asp                                                 
    0.000 999%   0.000 Cr                                                  
   16.754  44%   1.000 PCr                                                 
    1.803 106%   0.108 GABA                                                
    1.820 106%   0.109 Glc                                                 
    0.000 999%   0.000 Gln                                                 
    0.000 999%   0.000 Glu                                                 
    5.369  51%   0.320 GPC                                                 
    0.000 999%   0.000 PCh                                                 
    1.656 490% 9.9E-02 GSH                                                 
   22.759 113%   1.358 Ins                                                 
    8.118 130%   0.485 Lac                                                 
   23.930  38%   1.428 NAA                                                 
    0.000 999%   0.000 NAAG                                                
    0.675  94% 4.0E-02 Scyllo                                              
    2.775 115%   0.166 Tau                                                 
    1.659 253% 9.9E-02 -CrCH2                                              
    5.369  51%   0.320 GPC+PCh                                             
   23.930  38%   1.428 NAA+NAAG                                            
   16.754  44%   1.000 Cr+PCr                                              
    0.000 999%   0.000 Glu+Gln                                             
 2.09E+03   7% 124.603 Lip13a                                              
    0.000 999%   0.000 Lip13b                                              
  388.899  17%  23.212 Lip09                                               
    0.000 999%   0.000 MM09                                                
  196.660  29%  11.738 Lip20                                               
    0.000 999%   0.000 MM20                                                
 7.62E-04 999% 4.5E-05 MM12                                                
 6.63E-02 999% 4.0E-03 MM14                                                
    0.000 999%   0.000 MM17                                                
 2.09E+03   7% 124.603 Lip13a+Lip13b                                       
 2.09E+03   7% 124.607 MM14+Lip13a+Lip13b+MM12                             
  388.899  17%  23.212 MM09+Lip09                                          
  196.660  29%  11.738 MM20+Lip20                                          
   6 lines in following misc. output table
  FWHM = 0.038 ppm    S/N =   2                                            
  Data shift = 0.015 ppm                                                   
  Ph: 136 deg     -26.4 deg/ppm                                            
  alphaB,S = 8.5E+01,   1.3E+01                                            
   14 spline knots.   Ns = 7(1)                                            
   2 inflections.     2 extrema                                            
  498 points on ppm-axis = NY
      4.000000     3.992357     3.984714     3.977070     3.969427     3.961784     3.954141     3.946497     3.938854     3.931211
      3.923568     3.915925     3.908281     3.900638     3.892995     3.885352     3.877708     3.870065     3.862422     3.854779
      3.847136     3.839492     3.831849     3.824206     3.816563     3.808919     3.801276     3.793633     3.785990     3.778347
      3.770703     3.763060     3.755417     3.747774     3.740130     3.732487     3.724844     3.717201     3.709558     3.701914
      3.694271     3.686628     3.678985     3.671341     3.663698     3.656055     3.648412     3.640769     3.633125     3.625482
      3.617839     3.610196     3.602552     3.594909     3.587266     3.579623     3.571980     3.564336     3.556693     3.549050
      3.541407     3.533763     3.526120     3.518477     3.510834     3.503191     3.495547     3.487904     3.480261     3.472618
      3.464974     3.457331     3.449688     3.442045     3.434402     3.426758     3.419115     3.411472     3.403829     3.396185
      3.388542     3.380899     3.373256     3.365613     3.357969     3.350326     3.342683     3.335040     3.327396     3.319753
      3.312110     3.304467     3.296824     3.289180     3.281537     3.273894     3.266251     3.258607     3.250964     3.243321
      3.235678     3.228034     3.220391     3.212748     3.205105     3.197462     3.189818     3.182175     3.174532     3.166889
      3.159245     3.151602     3.143959     3.136316     3.128673     3.121029     3.113386     3.105743     3.098100     3.090456
      3.082813     3.075170     3.067527     3.059884     3.052240     3.044597     3.036954     3.029311     3.021667     3.014024
      3.006381     2.998738     2.991095     2.983451     2.975808     2.968165     2.960522     2.952878     2.945235     2.937592
      2.929949     2.922306     2.914662     2.907019     2.899376     2.891733     2.884089     2.876446     2.868803     2.861160
      2.853517     2.845873     2.838230     2.830587     2.822944     2.815300     2.807657     2.800014     2.792371     2.784728
      2.777084     2.769441     2.761798     2.754155     2.746511     2.738868     2.731225     2.723582     2.715939     2.708295
      2.700652     2.693009     2.685366     2.677722     2.670079     2.662436     2.654793     2.647150     2.639506     2.631863
      2.624220     2.616577     2.608933     2.601290     2.593647     2.586004     2.578361     2.570717     2.563074     2.555431
      2.547788     2.540144     2.532501     2.524858     2.517215     2.509572     2.501928     2.494285     2.486642     2.478999
      2.471355     2.463712     2.456069     2.448426     2.440783     2.433139     2.425496     2.417853     2.410210     2.402566
      2.394923     2.387280     2.379637     2.371994     2.364350     2.356707     2.349064     2.341421     2.333777     2.326134
      2.318491     2.310848     2.303205     2.295561     2.287918     2.280275     2.272632     2.264988     2.257345     2.249702
      2.242059     2.234416     2.226772     2.219129     2.211486     2.203843     2.196199     2.188556     2.180913     2.173270
      2.165627     2.157983     2.150340     2.142697     2.135054     2.127410     2.119767     2.112124     2.104481     2.096838
      2.089194     2.081551     2.073908     2.066265     2.058621     2.050978     2.043335     2.035692     2.028049     2.020405
      2.012762     2.005119     1.997476     1.989833     1.982190     1.974546     1.966903     1.959260     1.951617     1.943974
      1.936331     1.928688     1.921045     1.913402     1.905759     1.898115     1.890472     1.882829     1.875186     1.867543
      1.859900     1.852257     1.844614     1.836971     1.829327     1.821684     1.814041     1.806398     1.798755     1.791112
      1.783469     1.775826     1.768183     1.760540     1.752896     1.745253     1.737610     1.729967     1.722324     1.714681
      1.707038     1.699395     1.691752     1.684108     1.676465     1.668822     1.661179     1.653536     1.645893     1.638250
      1.630607     1.622964     1.615321     1.607677     1.600034     1.592391     1.584748     1.577105     1.569462     1.561819
      1.554176     1.546533     1.538890     1.531246     1.523603     1.515960     1.508317     1.500674     1.493031     1.485388
      1.477745     1.470102     1.462458     1.454815     1.447172     1.439529     1.431886     1.424243     1.416600     1.408957
      1.401314     1.393671     1.386027     1.378384     1.370741     1.363098     1.355455     1.347812     1.340169     1.332526
      1.324883     1.317240     1.309596     1.301953     1.294310     1.286667     1.279024     1.271381     1.263738     1.256095
      1.248452     1.240808     1.233165     1.225522     1.217879     1.210236     1.202593     1.194950     1.187307     1.179664
      1.172021     1.164377     1.156734     1.149091     1.141448     1.133805     1.126162     1.118519     1.110876     1.103233
      1.095590     1.087946     1.080303     1.072660     1.065017     1.057374     1.049731     1.042088     1.034445     1.026802
      1.019158     1.011515     1.003872     0.996229     0.988586     0.980943     0.973300     0.965657     0.958014     0.950371
      0.942727     0.935084     0.927441     0.919798     0.912155     0.904512     0.896869     0.889226     0.881583     0.873940
      0.866296     0.858653     0.851010     0.843367     0.835724     0.828081     0.820438     0.812795     0.805152     0.797508
      0.789865     0.782222     0.774579     0.766936     0.759293     0.751650     0.744007     0.736364     0.728721     0.721077
      0.713434     0.705791     0.698148     0.690505     0.682862     0.675219     0.667576     0.659933     0.652290     0.644646
      0.637003     0.629360     0.621717     0.614074     0.606431     0.598788     0.591145     0.583502     0.575858     0.568215
      0.560572     0.552929     0.545286     0.537643     0.530000     0.522357     0.514714     0.507071     0.499427     0.491784
      0.484141     0.476498     0.468855     0.461212     0.453569     0.445925     0.438282     0.430639     0.422996     0.415353
      0.407710     0.400067     0.392424     0.384780     0.377137     0.369494     0.361851     0.354208     0.346565     0.338922
      0.331278     0.323635     0.315992     0.308349     0.300706     0.293063     0.285420     0.277777     0.270133     0.262490
      0.254847     0.247204     0.239561     0.231918     0.224275     0.216631     0.208988     0.201345
 NY phased data points follow
  -2.29661E+00 -9.06260E-01  1.18826E+00 -5.01066E-01  1.64662E+00  2.44638E-01  6.23234E-01  9.59804E-01 -1.94861E+00  1.51279E+00
   1.50660E+00  2.33715E+00  1.56330E+00  9.57127E-01  4.36787E+00 -7.20367E-01 -1.79662E-01 -1.12193E+00  2.12476E+00 -4.53343E-01
   2.03393E+00  2.56072E-01  1.14246E+00 -1.74597E+00  5.20041E-01  7.04926E-01  1.31152E+00  1.14580E+00  9.11601E-01  2.36805E+00
   1.63324E+00 -7.05346E-01  1.02115E+00  4.92194E-01 -6.46793E-01 -6.62701E-02  3.18000E+00 -4.06894E-01 -7.64015E-01  1.50236E+00
   1.07357E+00 -5.85774E-01 -9.59758E-01 -2.06500E+00 -1.26002E-01 -1.52812E+00  1.63837E+00  1.85201E+00  9.96662E-01  2.08383E+00
  -1.03649E+00 -1.84237E+00  2.86191E+00  1.71867E-01  3.49102E+00 -5.19846E-01  1.41115E+00 -2.28917E+00  1.21440E+00  1.99118E+00
   1.03858E+00  5.74620E-01  2.17627E+00  7.58259E-01 -1.60119E-01  4.59984E-02 -3.27034E-01 -6.22622E-02 -6.40899E-03 -1.06417E+00
  -1.62107E+00  1.27325E+00  1.99422E-01 -6.59556E-01  2.13346E+00  1.11183E+00 -1.14977E+00  2.40612E+00  7.40130E-01  8.89717E-01
  -8.97623E-01  1.73776E-01  6.37050E-01  1.58036E+00  1.21558E+00  1.59811E+00  5.01153E-01  1.81541E+00  1.88036E+00  1.37433E+00
   1.12238E+00  1.03750E+00  1.42413E+00  2.01493E-01  2.71876E-01  1.10838E+00  2.85615E-01 -5.34256E-01 -5.24599E-01 -2.94998E+00
   1.06107E+00 -1.11799E+00 -1.55059E+00  1.31013E+00  1.34601E-01  1.11329E+00  2.53761E+00  2.15124E+00  5.81369E-01 -4.54170E-01
   1.14766E+00  2.71806E+00  6.95981E-01 -1.52269E+00 -2.85783E+00  1.54975E+00 -1.52404E+00 -3.89995E-01  1.79988E-01  3.51925E-01
  -1.90586E+00  1.63826E-01 -2.22259E+00  7.26776E-01 -7.70159E-01 -2.01266E-01  7.16551E-01  5.41974E-01  7.24334E-01 -4.27612E-01
   3.85557E+00  1.59497E+00  2.57998E+00 -1.75752E-02  1.25625E+00  1.72568E+00  1.97005E+00  1.07318E+00  2.46110E-01  2.96739E-01
   1.46931E+00  9.90297E-01  2.66154E+00  1.09892E+00  2.54266E-01 -1.76510E+00  1.08820E+00 -1.81350E+00  8.91831E-01  1.28411E+00
   3.76078E+00  1.81934E+00  5.56605E-01  1.50650E+00  7.80725E-01  5.73829E-01 -6.07776E-01 -2.33967E-01  1.31665E-01 -5.32730E-01
   3.22308E+00 -1.91963E-01 -8.39504E-02 -1.93730E+00  1.28938E+00 -1.98641E+00 -4.16083E-01 -7.04549E-01  3.55721E+00 -1.02162E+00
   2.46310E+00  4.13773E+00  9.37930E-01  1.22721E-01  1.95282E+00  3.27917E-01 -1.07863E+00  4.13745E-01 -4.97194E-02 -9.37726E-01
  -1.48154E+00  3.26545E+00  2.09540E-01 -1.24200E-01  1.09675E-01  1.63253E+00  5.21219E-01 -6.96967E-01 -3.50198E-01 -1.40733E+00
  -6.63389E-01  8.52785E-01 -2.73892E-01 -3.60636E-02  7.82466E-01  1.65292E+00  1.40669E+00  5.62590E-01 -1.97301E+00  2.07030E+00
   1.60416E+00  9.65936E-01 -1.00771E+00 -4.42152E-01  3.34599E-01 -1.12067E-01  6.98840E-01  1.94649E+00 -6.25853E-01  9.11889E-01
   1.10076E+00  5.05886E-01 -1.75952E+00  1.71375E+00  2.34661E-01  1.33628E+00  7.38897E-02  3.13324E-01 -2.03261E+00  2.34335E+00
  -3.00177E-01  8.62018E-02 -9.38522E-02  9.01828E-01 -3.26096E-01  3.76729E-01  1.69202E+00  1.12800E+00  7.52929E-01 -1.37243E+00
   3.61888E-01  1.90260E+00  1.57181E+00 -4.32815E+00 -6.05414E-02 -1.31065E-01  2.00208E+00  5.30610E-02 -2.21597E-01 -8.51465E-02
  -1.00265E-02  4.64915E-01  1.55097E+00 -1.71202E+00  7.10469E-01  9.21903E-01  2.47749E-01 -3.38155E-01 -7.75250E-01  2.38878E+00
  -4.81689E-01  7.67668E-01 -2.46559E+00 -2.31033E+00 -1.34102E+00 -2.37914E+00 -3.04094E+00 -2.22547E+00 -6.96008E+00 -2.59849E+00
  -1.09214E+00 -1.35331E+00 -8.16690E-01 -1.59349E+00  1.41049E+00  5.70839E-01  2.67549E+00  2.28512E+00  3.16601E+00  4.54412E-01
  -3.21140E-01  1.66747E+00 -2.63757E+00 -1.08040E+00  1.91864E+00  1.26892E+00  1.74589E+00 -2.92415E+00 -3.49255E-01 -1.77555E-01
  -1.88552E-01 -3.17846E-01  1.38398E+00 -1.07035E+00 -5.99400E-01 -1.11247E+00  1.32987E-01 -1.23390E+00 -9.34992E-01 -2.61680E+00
  -5.54052E-01 -1.90734E+00 -5.98796E-02 -1.70035E+00  9.20579E-01  6.31178E-03  1.32337E+00  3.43043E-01  1.51575E+00 -1.16235E+00
  -1.45364E+00  1.24622E+00  5.13939E-01 -1.81610E+00 -5.23631E-01 -2.15361E+00 -1.52129E-01 -9.20965E-01  1.37866E-01  1.33983E+00
  -1.13207E+00 -8.80339E-02 -8.08626E-01  1.03889E-01  7.39203E-01 -1.91270E-01  1.38362E-01 -2.22465E+00 -6.03487E-01  1.75497E+00
   1.31941E+00  2.17311E+00 -4.72061E-01  2.07496E+00  4.03568E+00  6.41663E+00  4.36691E+00  3.72093E+00  6.68083E+00  7.44947E+00
   6.23688E+00  5.34462E+00  5.58305E+00  5.73158E+00  5.96956E+00  5.10624E+00  5.04220E+00  3.42524E+00  8.07574E+00  4.38533E+00
   5.33959E+00  4.80968E+00  5.46844E+00  5.96011E+00  7.63928E+00  3.74971E+00  6.34336E+00  7.94993E+00  8.84296E+00  6.10493E+00
   7.67953E+00  7.67727E+00  6.10261E+00  6.97806E+00  6.54745E+00  5.27850E+00  8.18178E+00  5.50952E+00  9.26329E+00  6.80769E+00
   6.39788E+00  7.25962E+00  4.99825E+00  4.86977E+00  3.89581E+00  5.56924E+00  1.58554E+00  5.38100E+00  2.56045E+00  5.07788E+00
   5.33310E+00  5.02335E+00  2.85553E+00  5.13311E+00  3.77701E+00  2.42262E+00  1.54671E+00  1.80833E+00 -1.51775E-01  4.68442E+00
   1.20620E+00  1.89821E+00  1.81161E+00  8.52244E-01  1.61555E-01  2.11758E+00  2.08778E+00  4.85699E-01  2.04394E+00  2.56940E+00
   2.43162E+00  1.04747E+00  3.27268E+00  1.28732E+00  3.77905E+00  1.91267E-01  8.06335E-01  1.80287E+00  5.05352E-01  1.23172E+00
   5.49894E-01  2.90371E-01  7.13087E-01  1.65845E+00 -7.43334E-01 -8.45666E-01  3.42705E-01  4.47716E-01  1.38899E+00 -9.84796E-02
  -7.28940E-01 -6.40787E-01 -1.29420E+00 -6.26084E-01 -1.02557E+00 -4.90835E-01 -1.03808E+00 -1.62705E+00  1.80329E+00 -1.43104E+00
   2.25778E+00 -1.93636E+00  1.21266E+00 -5.94953E-01  1.63559E+00 -9.85570E-01 -1.94596E+00 -3.90982E-01 -1.29143E+00  4.39245E-01
   1.16950E+00 -1.11297E+00 -4.86891E-01  2.61497E+00 -6.69450E-01  2.94811E-02  1.93225E+00 -3.07264E-01 -1.30282E+00 -1.57537E+00
  -6.20072E-02 -1.61392E+00 -1.14535E+00 -4.54356E-01  5.55775E-01  5.13788E-01 -3.20245E+00  7.21556E-01  3.07059E-01 -2.89859E+00
  -1.39865E+00 -1.68310E+00 -1.63423E+00 -2.21298E+00 -1.98481E+00  1.16381E+00 -1.27286E+00  6.60566E-01 -1.29527E+00 -1.01943E+00
  -3.00248E+00 -1.32880E+00 -2.17113E-01  1.07722E+00  1.08295E-01 -9.26082E-01 -2.75945E+00  9.53979E-01  3.38778E-01 -2.50440E+00
   1.43863E+00 -2.27632E+00 -2.69003E+00  3.71136E+00  1.41938E-01  9.29316E-01  2.13259E+00 -2.25024E+00  4.49635E-02 -1.04584E+00
   9.30449E-01 -2.14090E-01  1.16497E+00  5.40680E-01 -3.02061E+00  5.94720E-01 -1.08534E+00 -3.20111E-01 -2.62941E-01 -1.00154E+00
  -1.30385E+00  9.58003E-02  4.14547E-01 -1.51126E+00 -1.28418E+00  1.23216E+00  3.53035E-01 -7.69258E-01
 NY points of the fit to the data follow
   6.88494E-01  5.51084E-01  3.63702E-01  1.36279E-01 -5.83585E-02 -1.48014E-01 -1.10913E-01  4.99852E-02  3.13722E-01  6.37186E-01
   9.69109E-01  1.26219E+00  1.46764E+00  1.53812E+00  1.44752E+00  1.20723E+00  8.85605E-01  6.13105E-01  4.86648E-01  4.22206E-01
   3.82318E-01  3.73023E-01  3.90775E-01  4.22782E-01  4.63660E-01  5.12026E-01  5.53547E-01  5.59096E-01  5.22042E-01  4.53235E-01
   3.67005E-01  2.79982E-01  2.15422E-01  2.00755E-01  2.54147E-01  3.50895E-01  4.50501E-01  5.38205E-01  6.08156E-01  6.48408E-01
   6.17518E-01  4.92273E-01  3.14378E-01  1.53261E-01  4.94453E-02  3.23248E-02  1.17829E-01  2.93330E-01  5.09955E-01  7.09166E-01
   8.46179E-01  9.08269E-01  8.83551E-01  7.58642E-01  5.54693E-01  3.40890E-01  1.99416E-01  1.60058E-01  1.93144E-01  2.63408E-01
   3.46628E-01  4.25988E-01  4.85734E-01  5.16831E-01  5.16173E-01  4.80557E-01  4.11619E-01  3.25549E-01  2.54412E-01  2.17958E-01
   2.19175E-01  2.51831E-01  2.98822E-01  3.47886E-01  3.90494E-01  4.21613E-01  4.40508E-01  4.44352E-01  4.33414E-01  4.02559E-01
   3.62930E-01  3.37213E-01  3.29633E-01  3.37643E-01  3.59888E-01  3.87948E-01  4.05997E-01  4.04334E-01  3.81006E-01  3.36484E-01
   2.77659E-01  2.17298E-01  1.66057E-01  1.34737E-01  1.29820E-01  1.23326E-01  1.38648E-02 -2.09899E-01 -4.55721E-01 -6.15361E-01
  -6.15577E-01 -4.29501E-01 -7.87696E-02  3.80185E-01  8.75501E-01  1.33407E+00  1.67223E+00  1.81037E+00  1.70421E+00  1.35998E+00
   8.75126E-01  4.51218E-01  2.77765E-01  2.41058E-01  2.29749E-01  2.24494E-01  2.18835E-01  2.09827E-01  1.84990E-01  9.51231E-02
  -1.24514E-01 -4.21452E-01 -6.81483E-01 -8.02356E-01 -7.26650E-01 -4.45532E-01  1.38548E-03  5.42332E-01  1.09517E+00  1.57503E+00
   1.89625E+00  1.98416E+00  1.80253E+00  1.38359E+00  8.62544E-01  4.73860E-01  3.43282E-01  3.03632E-01  2.79749E-01  2.63517E-01
   2.55935E-01  2.59142E-01  2.74732E-01  2.99871E-01  3.26868E-01  3.51072E-01  3.68606E-01  3.78366E-01  3.84047E-01  3.88211E-01
   3.90680E-01  3.90436E-01  3.86886E-01  3.83216E-01  3.84663E-01  3.94626E-01  4.08086E-01  4.17409E-01  4.15954E-01  4.01097E-01
   3.76607E-01  3.48247E-01  3.21175E-01  2.99064E-01  2.84418E-01  2.79270E-01  2.84405E-01  2.98359E-01  3.16424E-01  3.30857E-01
   3.32222E-01  3.14824E-01  2.83584E-01  2.46116E-01  2.14440E-01  1.90513E-01  1.68304E-01  1.46597E-01  1.25206E-01  1.06612E-01
   9.60039E-02  9.57894E-02  9.96452E-02  9.89986E-02  8.62144E-02  5.74146E-02  2.11568E-02 -7.25332E-04 -2.74737E-03  8.07520E-03
   2.02600E-02  3.36277E-02  5.86391E-02  9.58377E-02  1.36909E-01  1.68392E-01  1.79048E-01  1.69560E-01  1.53469E-01  1.36400E-01
   1.21863E-01  1.10936E-01  1.03835E-01  1.03728E-01  1.13738E-01  1.36707E-01  1.74950E-01  2.19089E-01  2.56550E-01  2.79246E-01
   2.81349E-01  2.63391E-01  2.34640E-01  2.09423E-01  1.88779E-01  1.71023E-01  1.57944E-01  1.52485E-01  1.57921E-01  1.76511E-01
   2.07242E-01  2.43673E-01  2.75766E-01  3.04075E-01  3.36359E-01  3.70463E-01  3.99752E-01  4.18288E-01  4.23095E-01  4.13652E-01
   3.92317E-01  3.65027E-01  3.41551E-01  3.30286E-01  3.34379E-01  3.52539E-01  3.81847E-01  4.17403E-01  4.51451E-01  4.74763E-01
   4.82372E-01  4.77684E-01  4.67768E-01  4.57019E-01  4.49301E-01  4.48792E-01  4.58458E-01  4.76885E-01  4.97365E-01  5.14600E-01
   5.24792E-01  5.22704E-01  4.94281E-01  3.74919E-01  7.24280E-02 -3.39589E-01 -6.99431E-01 -8.62717E-01 -7.49317E-01 -3.49009E-01
   2.79465E-01  1.03203E+00  1.79002E+00  2.43392E+00  2.84240E+00  2.91192E+00  2.59910E+00  1.95541E+00  1.17392E+00  5.86757E-01
   3.83850E-01  3.22482E-01  2.86844E-01  2.61946E-01  2.45117E-01  2.35204E-01  2.31203E-01  2.31557E-01  2.33225E-01  2.33365E-01
   2.31365E-01  2.27055E-01  2.20822E-01  2.13873E-01  2.07828E-01  2.04755E-01  2.05600E-01  2.09775E-01  2.16860E-01  2.26640E-01
   2.38130E-01  2.50365E-01  2.62622E-01  2.74508E-01  2.86551E-01  2.99423E-01  3.13205E-01  3.27950E-01  3.44038E-01  3.61720E-01
   3.80996E-01  4.01946E-01  4.24665E-01  4.48983E-01  4.74946E-01  5.02681E-01  5.32331E-01  5.64048E-01  5.97986E-01  6.34291E-01
   6.73118E-01  7.14628E-01  7.58977E-01  8.06291E-01  8.56628E-01  9.09915E-01  9.65829E-01  1.02349E+00  1.08069E+00  1.13121E+00
   1.16150E+00  1.18958E+00  1.27602E+00  1.46008E+00  1.74380E+00  2.10136E+00  2.49296E+00  2.87567E+00  3.18923E+00  3.35404E+00
   3.34100E+00  3.17704E+00  2.93180E+00  2.70229E+00  2.59822E+00  2.71962E+00  3.11182E+00  3.68053E+00  4.28995E+00  4.89391E+00
   5.43652E+00  5.87417E+00  6.18853E+00  6.39492E+00  6.58829E+00  6.86178E+00  7.16500E+00  7.44255E+00  7.63965E+00  7.71933E+00
   7.67621E+00  7.52855E+00  7.31171E+00  7.07264E+00  6.86305E+00  6.72840E+00  6.68201E+00  6.66303E+00  6.61681E+00  6.52723E+00
   6.37485E+00  6.14045E+00  5.81911E+00  5.44232E+00  5.08101E+00  4.75022E+00  4.43599E+00  4.13502E+00  3.84764E+00  3.57500E+00
   3.31830E+00  3.07853E+00  2.85644E+00  2.65245E+00  2.46665E+00  2.29889E+00  2.14878E+00  2.01576E+00  1.89915E+00  1.79815E+00
   1.71188E+00  1.63936E+00  1.57962E+00  1.53165E+00  1.49442E+00  1.46687E+00  1.44793E+00  1.43649E+00  1.43143E+00  1.43163E+00
   1.43594E+00  1.44321E+00  1.45225E+00  1.46190E+00  1.47102E+00  1.47853E+00  1.48338E+00  1.48462E+00  1.48136E+00  1.47287E+00
   1.45853E+00  1.43791E+00  1.41069E+00  1.37676E+00  1.33612E+00  1.28899E+00  1.23570E+00  1.17675E+00  1.11271E+00  1.04426E+00
   9.72142E-01  8.97135E-01  8.20048E-01  7.41667E-01  6.62749E-01  5.83994E-01  5.06053E-01  4.29504E-01  3.54847E-01  2.82494E-01
   2.12768E-01  1.45917E-01  8.21191E-02  2.14862E-02 -3.59292E-02 -9.01359E-02 -1.41184E-01 -1.89159E-01 -2.34163E-01 -2.76323E-01
  -3.15779E-01 -3.52690E-01 -3.87213E-01 -4.19506E-01 -4.49714E-01 -4.77985E-01 -5.04463E-01 -5.29287E-01 -5.52586E-01 -5.74478E-01
  -5.95066E-01 -6.14454E-01 -6.32737E-01 -6.50010E-01 -6.66348E-01 -6.81824E-01 -6.96498E-01 -7.10434E-01 -7.23691E-01 -7.36325E-01
  -7.48377E-01 -7.59889E-01 -7.70895E-01 -7.81436E-01 -7.91548E-01 -8.01262E-01 -8.10601E-01 -8.19587E-01 -8.28244E-01 -8.36597E-01
  -8.44669E-01 -8.52476E-01 -8.60031E-01 -8.67348E-01 -8.74443E-01 -8.81333E-01 -8.88032E-01 -8.94548E-01 -9.00888E-01 -9.07063E-01
  -9.13083E-01 -9.18962E-01 -9.24705E-01 -9.30319E-01 -9.35805E-01 -9.41173E-01 -9.46432E-01 -9.51590E-01 -9.56649E-01 -9.61612E-01
  -9.66482E-01 -9.71267E-01 -9.75972E-01 -9.80604E-01 -9.85161E-01 -9.89646E-01 -9.94060E-01 -9.98413E-01 -1.00271E+00 -1.00695E+00
  -1.01113E+00 -1.01526E+00 -1.01933E+00 -1.02336E+00 -1.02734E+00 -1.03129E+00 -1.03519E+00 -1.03904E+00
 NY background values follow
     4.196E-01    4.167E-01    4.137E-01    4.108E-01    4.079E-01    4.050E-01    4.020E-01    3.991E-01    3.962E-01    3.933E-01
     3.904E-01    3.874E-01    3.845E-01    3.816E-01    3.787E-01    3.757E-01    3.728E-01    3.699E-01    3.670E-01    3.640E-01
     3.611E-01    3.582E-01    3.553E-01    3.524E-01    3.494E-01    3.465E-01    3.436E-01    3.407E-01    3.377E-01    3.348E-01
     3.319E-01    3.290E-01    3.261E-01    3.231E-01    3.202E-01    3.173E-01    3.144E-01    3.114E-01    3.085E-01    3.056E-01
     3.027E-01    2.998E-01    2.968E-01    2.939E-01    2.910E-01    2.881E-01    2.851E-01    2.822E-01    2.793E-01    2.764E-01
     2.735E-01    2.705E-01    2.676E-01    2.647E-01    2.618E-01    2.589E-01    2.559E-01    2.530E-01    2.501E-01    2.472E-01
     2.442E-01    2.413E-01    2.384E-01    2.355E-01    2.326E-01    2.296E-01    2.267E-01    2.238E-01    2.209E-01    2.180E-01
     2.150E-01    2.121E-01    2.092E-01    2.063E-01    2.034E-01    2.004E-01    1.975E-01    1.946E-01    1.917E-01    1.887E-01
     1.858E-01    1.829E-01    1.800E-01    1.771E-01    1.741E-01    1.712E-01    1.683E-01    1.654E-01    1.625E-01    1.595E-01
     1.566E-01    1.537E-01    1.508E-01    1.479E-01    1.449E-01    1.420E-01    1.391E-01    1.362E-01    1.333E-01    1.304E-01
     1.274E-01    1.245E-01    1.216E-01    1.187E-01    1.158E-01    1.128E-01    1.099E-01    1.070E-01    1.041E-01    1.012E-01
     9.824E-02    9.533E-02    9.241E-02    8.949E-02    8.657E-02    8.365E-02    8.073E-02    7.782E-02    7.490E-02    7.198E-02
     6.906E-02    6.614E-02    6.323E-02    6.031E-02    5.739E-02    5.447E-02    5.156E-02    4.864E-02    4.572E-02    4.280E-02
     3.989E-02    3.697E-02    3.405E-02    3.114E-02    2.822E-02    2.530E-02    2.239E-02    1.947E-02    1.655E-02    1.364E-02
     1.072E-02    7.803E-03    4.887E-03    1.971E-03   -9.456E-04   -3.862E-03   -6.778E-03   -9.693E-03   -1.261E-02   -1.552E-02
    -1.844E-02   -2.136E-02   -2.427E-02   -2.719E-02   -3.010E-02   -3.302E-02   -3.593E-02   -3.885E-02   -4.176E-02   -4.468E-02
    -4.759E-02   -5.051E-02   -5.342E-02   -5.634E-02   -5.925E-02   -6.216E-02   -6.508E-02   -6.799E-02   -7.091E-02   -7.382E-02
    -7.673E-02   -7.965E-02   -8.256E-02   -8.548E-02   -8.839E-02   -9.130E-02   -9.422E-02   -9.713E-02   -1.000E-01   -1.030E-01
    -1.059E-01   -1.088E-01   -1.117E-01   -1.146E-01   -1.175E-01   -1.204E-01   -1.233E-01   -1.263E-01   -1.292E-01   -1.321E-01
    -1.350E-01   -1.379E-01   -1.408E-01   -1.437E-01   -1.466E-01   -1.496E-01   -1.525E-01   -1.554E-01   -1.583E-01   -1.612E-01
    -1.641E-01   -1.670E-01   -1.699E-01   -1.728E-01   -1.757E-01   -1.787E-01   -1.816E-01   -1.845E-01   -1.874E-01   -1.903E-01
    -1.932E-01   -1.961E-01   -1.990E-01   -2.019E-01   -2.048E-01   -2.078E-01   -2.107E-01   -2.136E-01   -2.165E-01   -2.194E-01
    -2.223E-01   -2.252E-01   -2.281E-01   -2.310E-01   -2.339E-01   -2.368E-01   -2.398E-01   -2.427E-01   -2.456E-01   -2.485E-01
    -2.514E-01   -2.543E-01   -2.572E-01   -2.601E-01   -2.630E-01   -2.659E-01   -2.688E-01   -2.717E-01   -2.746E-01   -2.775E-01
    -2.804E-01   -2.834E-01   -2.863E-01   -2.892E-01   -2.921E-01   -2.950E-01   -2.979E-01   -3.008E-01   -3.037E-01   -3.066E-01
    -3.095E-01   -3.124E-01   -3.153E-01   -3.182E-01   -3.211E-01   -3.240E-01   -3.269E-01   -3.298E-01   -3.327E-01   -3.356E-01
    -3.385E-01   -3.414E-01   -3.444E-01   -3.473E-01   -3.502E-01   -3.531E-01   -3.560E-01   -3.589E-01   -3.618E-01   -3.647E-01
    -3.676E-01   -3.705E-01   -3.734E-01   -3.763E-01   -3.792E-01   -3.821E-01   -3.850E-01   -3.879E-01   -3.908E-01   -3.937E-01
    -3.966E-01   -3.995E-01   -4.024E-01   -4.053E-01   -4.082E-01   -4.111E-01   -4.140E-01   -4.169E-01   -4.198E-01   -4.227E-01
    -4.256E-01   -4.285E-01   -4.314E-01   -4.343E-01   -4.372E-01   -4.401E-01   -4.430E-01   -4.459E-01   -4.488E-01   -4.517E-01
    -4.546E-01   -4.575E-01   -4.604E-01   -4.633E-01   -4.662E-01   -4.691E-01   -4.720E-01   -4.749E-01   -4.777E-01   -4.806E-01
    -4.835E-01   -4.864E-01   -4.893E-01   -4.922E-01   -4.951E-01   -4.980E-01   -5.009E-01   -5.038E-01   -5.067E-01   -5.096E-01
    -5.125E-01   -5.154E-01   -5.183E-01   -5.212E-01   -5.241E-01   -5.270E-01   -5.299E-01   -5.328E-01   -5.356E-01   -5.385E-01
    -5.414E-01   -5.443E-01   -5.472E-01   -5.501E-01   -5.530E-01   -5.559E-01   -5.588E-01   -5.617E-01   -5.646E-01   -5.675E-01
    -5.704E-01   -5.732E-01   -5.761E-01   -5.790E-01   -5.819E-01   -5.848E-01   -5.877E-01   -5.906E-01   -5.935E-01   -5.964E-01
    -5.993E-01   -6.021E-01   -6.050E-01   -6.079E-01   -6.108E-01   -6.137E-01   -6.166E-01   -6.195E-01   -6.224E-01   -6.253E-01
    -6.281E-01   -6.310E-01   -6.339E-01   -6.368E-01   -6.397E-01   -6.426E-01   -6.455E-01   -6.484E-01   -6.512E-01   -6.541E-01
    -6.570E-01   -6.599E-01   -6.628E-01   -6.657E-01   -6.686E-01   -6.714E-01   -6.743E-01   -6.772E-01   -6.801E-01   -6.830E-01
    -6.859E-01   -6.887E-01   -6.916E-01   -6.945E-01   -6.974E-01   -7.003E-01   -7.032E-01   -7.060E-01   -7.089E-01   -7.118E-01
    -7.147E-01   -7.176E-01   -7.205E-01   -7.233E-01   -7.262E-01   -7.291E-01   -7.320E-01   -7.349E-01   -7.377E-01   -7.406E-01
    -7.435E-01   -7.464E-01   -7.493E-01   -7.522E-01   -7.550E-01   -7.579E-01   -7.608E-01   -7.637E-01   -7.665E-01   -7.694E-01
    -7.723E-01   -7.752E-01   -7.781E-01   -7.809E-01   -7.838E-01   -7.867E-01   -7.896E-01   -7.924E-01   -7.953E-01   -7.982E-01
    -8.011E-01   -8.040E-01   -8.068E-01   -8.097E-01   -8.126E-01   -8.155E-01   -8.183E-01   -8.212E-01   -8.241E-01   -8.270E-01
    -8.298E-01   -8.327E-01   -8.356E-01   -8.385E-01   -8.413E-01   -8.442E-01   -8.471E-01   -8.500E-01   -8.528E-01   -8.557E-01
    -8.586E-01   -8.614E-01   -8.643E-01   -8.672E-01   -8.701E-01   -8.729E-01   -8.758E-01   -8.787E-01   -8.815E-01   -8.844E-01
    -8.873E-01   -8.902E-01   -8.930E-01   -8.959E-01   -8.988E-01   -9.016E-01   -9.045E-01   -9.074E-01   -9.102E-01   -9.131E-01
    -9.160E-01   -9.188E-01   -9.217E-01   -9.246E-01   -9.274E-01   -9.303E-01   -9.332E-01   -9.360E-01   -9.389E-01   -9.418E-01
    -9.446E-01   -9.475E-01   -9.504E-01   -9.532E-01   -9.561E-01   -9.590E-01   -9.618E-01   -9.647E-01   -9.676E-01   -9.704E-01
    -9.733E-01   -9.762E-01   -9.790E-01   -9.819E-01   -9.847E-01   -9.876E-01   -9.905E-01   -9.933E-01   -9.962E-01   -9.991E-01
    -1.002E+00   -1.005E+00   -1.008E+00   -1.011E+00   -1.013E+00   -1.016E+00   -1.019E+00   -1.022E+00
 Ala      Conc. = 1.65E+01
