 LCModel (Version 6.3-1L) Copyright: S.W. Provencher.          Ref.: Magn. Reson. Med. 30:672-679 (1993).                
 Slice#1 Row#1 Col#7  PD_05_press_2_raw_act
 36 lines in following concentration table = NCONC+1
    Conc.  %SD /Cr+PCr  Metabolite                                         
  575.767  54%   8.011 Ala                                                 
   43.336  78%   0.603 Asp                                                 
   61.299 590%   0.853 Cr                                                  
   10.570 999%   0.147 PCr                                                 
   25.105  80%   0.349 GABA                                                
   25.715  78%   0.358 Glc                                                 
   70.694 775%   0.984 Gln                                                 
  740.970  84%  10.310 Glu                                                 
   77.192 440%   1.074 GPC                                                 
   41.773 820%   0.581 PCh                                                 
   69.437 296%   0.966 GSH                                                 
  887.922  71%  12.355 Ins                                                 
    0.000 999%   0.000 Lac                                                 
  427.423  44%   5.947 NAA                                                 
    0.000 999%   0.000 NAAG                                                
    8.756  77%   0.122 Scyllo                                              
   43.419  77%   0.604 Tau                                                 
   14.458 305%   0.201 -CrCH2                                              
  118.965  48%   1.655 GPC+PCh                                             
  427.423  46%   5.947 NAA+NAAG                                            
   71.870 203%   1.000 Cr+PCr                                              
  811.664  98%  11.294 Glu+Gln                                             
    0.000 999%   0.000 Lip13a                                              
    0.000 999%   0.000 Lip13b                                              
 6.66E-04 999% 9.3E-06 Lip09                                               
  508.771  67%   7.079 MM09                                                
    0.000 999%   0.000 Lip20                                               
    0.000 999%   0.000 MM20                                                
    0.000 999%   0.000 MM12                                                
    0.000 999%   0.000 MM14                                                
    0.000 999%   0.000 MM17                                                
    0.000 999%   0.000 Lip13a+Lip13b                                       
    0.000 999%   0.000 MM14+Lip13a+Lip13b+MM12                             
  508.772  67%   7.079 MM09+Lip09                                          
    0.000 999%   0.000 MM20+Lip20                                          
   6 lines in following misc. output table
  FWHM = 0.038 ppm    S/N =   1                                            
  Data shift = 0.054 ppm                                                   
  Ph:  16 deg      -8.0 deg/ppm                                            
  alphaB,S = 8.5E+01,   1.3E+01                                            
   14 spline knots.   Ns = 5(1)                                            
   2 inflections.     1 extrema                                            
  498 points on ppm-axis = NY
      4.000000     3.992357     3.984714     3.977070     3.969427     3.961784     3.954141     3.946497     3.938854     3.931211
      3.923568     3.915925     3.908281     3.900638     3.892995     3.885352     3.877708     3.870065     3.862422     3.854779
      3.847136     3.839492     3.831849     3.824206     3.816563     3.808919     3.801276     3.793633     3.785990     3.778347
      3.770703     3.763060     3.755417     3.747774     3.740130     3.732487     3.724844     3.717201     3.709558     3.701914
      3.694271     3.686628     3.678985     3.671341     3.663698     3.656055     3.648412     3.640769     3.633125     3.625482
      3.617839     3.610196     3.602552     3.594909     3.587266     3.579623     3.571980     3.564336     3.556693     3.549050
      3.541407     3.533763     3.526120     3.518477     3.510834     3.503191     3.495547     3.487904     3.480261     3.472618
      3.464974     3.457331     3.449688     3.442045     3.434402     3.426758     3.419115     3.411472     3.403829     3.396185
      3.388542     3.380899     3.373256     3.365613     3.357969     3.350326     3.342683     3.335040     3.327396     3.319753
      3.312110     3.304467     3.296824     3.289180     3.281537     3.273894     3.266251     3.258607     3.250964     3.243321
      3.235678     3.228034     3.220391     3.212748     3.205105     3.197462     3.189818     3.182175     3.174532     3.166889
      3.159245     3.151602     3.143959     3.136316     3.128673     3.121029     3.113386     3.105743     3.098100     3.090456
      3.082813     3.075170     3.067527     3.059884     3.052240     3.044597     3.036954     3.029311     3.021667     3.014024
      3.006381     2.998738     2.991095     2.983451     2.975808     2.968165     2.960522     2.952878     2.945235     2.937592
      2.929949     2.922306     2.914662     2.907019     2.899376     2.891733     2.884089     2.876446     2.868803     2.861160
      2.853517     2.845873     2.838230     2.830587     2.822944     2.815300     2.807657     2.800014     2.792371     2.784728
      2.777084     2.769441     2.761798     2.754155     2.746511     2.738868     2.731225     2.723582     2.715939     2.708295
      2.700652     2.693009     2.685366     2.677722     2.670079     2.662436     2.654793     2.647150     2.639506     2.631863
      2.624220     2.616577     2.608933     2.601290     2.593647     2.586004     2.578361     2.570717     2.563074     2.555431
      2.547788     2.540144     2.532501     2.524858     2.517215     2.509572     2.501928     2.494285     2.486642     2.478999
      2.471355     2.463712     2.456069     2.448426     2.440783     2.433139     2.425496     2.417853     2.410210     2.402566
      2.394923     2.387280     2.379637     2.371994     2.364350     2.356707     2.349064     2.341421     2.333777     2.326134
      2.318491     2.310848     2.303205     2.295561     2.287918     2.280275     2.272632     2.264988     2.257345     2.249702
      2.242059     2.234416     2.226772     2.219129     2.211486     2.203843     2.196199     2.188556     2.180913     2.173270
      2.165627     2.157983     2.150340     2.142697     2.135054     2.127410     2.119767     2.112124     2.104481     2.096838
      2.089194     2.081551     2.073908     2.066265     2.058621     2.050978     2.043335     2.035692     2.028049     2.020405
      2.012762     2.005119     1.997476     1.989833     1.982190     1.974546     1.966903     1.959260     1.951617     1.943974
      1.936331     1.928688     1.921045     1.913402     1.905759     1.898115     1.890472     1.882829     1.875186     1.867543
      1.859900     1.852257     1.844614     1.836971     1.829327     1.821684     1.814041     1.806398     1.798755     1.791112
      1.783469     1.775826     1.768183     1.760540     1.752896     1.745253     1.737610     1.729967     1.722324     1.714681
      1.707038     1.699395     1.691752     1.684108     1.676465     1.668822     1.661179     1.653536     1.645893     1.638250
      1.630607     1.622964     1.615321     1.607677     1.600034     1.592391     1.584748     1.577105     1.569462     1.561819
      1.554176     1.546533     1.538890     1.531246     1.523603     1.515960     1.508317     1.500674     1.493031     1.485388
      1.477745     1.470102     1.462458     1.454815     1.447172     1.439529     1.431886     1.424243     1.416600     1.408957
      1.401314     1.393671     1.386027     1.378384     1.370741     1.363098     1.355455     1.347812     1.340169     1.332526
      1.324883     1.317240     1.309596     1.301953     1.294310     1.286667     1.279024     1.271381     1.263738     1.256095
      1.248452     1.240808     1.233165     1.225522     1.217879     1.210236     1.202593     1.194950     1.187307     1.179664
      1.172021     1.164377     1.156734     1.149091     1.141448     1.133805     1.126162     1.118519     1.110876     1.103233
      1.095590     1.087946     1.080303     1.072660     1.065017     1.057374     1.049731     1.042088     1.034445     1.026802
      1.019158     1.011515     1.003872     0.996229     0.988586     0.980943     0.973300     0.965657     0.958014     0.950371
      0.942727     0.935084     0.927441     0.919798     0.912155     0.904512     0.896869     0.889226     0.881583     0.873940
      0.866296     0.858653     0.851010     0.843367     0.835724     0.828081     0.820438     0.812795     0.805152     0.797508
      0.789865     0.782222     0.774579     0.766936     0.759293     0.751650     0.744007     0.736364     0.728721     0.721077
      0.713434     0.705791     0.698148     0.690505     0.682862     0.675219     0.667576     0.659933     0.652290     0.644646
      0.637003     0.629360     0.621717     0.614074     0.606431     0.598788     0.591145     0.583502     0.575858     0.568215
      0.560572     0.552929     0.545286     0.537643     0.530000     0.522357     0.514714     0.507071     0.499427     0.491784
      0.484141     0.476498     0.468855     0.461212     0.453569     0.445925     0.438282     0.430639     0.422996     0.415353
      0.407710     0.400067     0.392424     0.384780     0.377137     0.369494     0.361851     0.354208     0.346565     0.338922
      0.331278     0.323635     0.315992     0.308349     0.300706     0.293063     0.285420     0.277777     0.270133     0.262490
      0.254847     0.247204     0.239561     0.231918     0.224275     0.216631     0.208988     0.201345
 NY phased data points follow
   3.59214E+01  1.88773E+01  2.90593E+01 -2.85931E-01 -9.30369E+00 -5.01291E+00 -2.59982E+00  8.42621E+00  3.86290E+00  2.35711E+01
  -1.75450E+01 -7.14525E+00 -6.46096E+00  1.15646E+00  2.10852E+01  4.80557E+00  2.25140E+01  1.04274E+01  1.65009E+01  8.40108E+00
  -1.80402E+00  9.62564E+00  9.43266E+00  2.12220E+00  1.15424E+01  2.35454E+00  4.92130E+00  1.84775E+01  2.27104E+01  1.24712E+01
  -5.42060E+00  1.10519E+01  2.62149E+01 -2.14241E+00  1.57859E+01  5.57621E+00  2.26634E+01 -9.12484E+00  2.33790E+01  1.12896E+01
   5.03337E+00  6.12290E+00  1.63683E+01  1.19100E+01  1.01649E+01  7.69531E+00  2.65491E+01  9.65666E+00  2.61221E+00  4.74461E+00
  -2.96547E+00  1.05853E+01  1.90774E+01  5.37496E+00  3.83112E+00 -1.36354E+01  2.52513E+00  1.08543E+01 -2.77986E+00  1.27053E+01
   4.46643E+00  1.20945E+01 -1.39989E+01  8.62941E+00  1.55886E+01  1.99759E+01  1.83786E+01  8.65185E+00  1.03838E+01  3.44028E+01
   8.35703E+00  1.26521E+01  5.76569E+00 -9.14010E-01  2.23998E+01 -7.94316E+00 -1.85848E+00  1.44366E+01 -1.66262E+01  1.59099E+01
   3.82661E+00  3.17181E+00 -5.80143E+00  7.85473E+00  8.52598E+00  1.49627E+01  1.06584E+01 -6.90968E+00 -1.04122E+01  2.93375E+01
   1.67252E+00 -1.22438E+01 -1.26253E+00  3.19618E+01  1.62904E+01  3.88955E+00  1.55351E+01 -1.97585E+01  1.21544E+01 -1.33094E+01
   2.46999E+01 -5.01832E+00  1.04047E+01  3.40893E+01  1.21167E+01 -8.20351E-02  2.19907E+01  1.50867E+01  7.73224E-01  6.85958E+00
   1.01214E+01  2.09477E+00  1.04328E+01  1.10164E+01 -3.77079E+00 -2.87469E+00  2.22270E+00  8.71212E+00 -1.62878E+01  1.45189E+01
   1.12078E+01 -7.51011E+00 -2.91094E+01 -1.03716E+01  2.91882E+00  2.23419E+01 -1.00917E+01  4.34531E+00  1.13255E+01  2.04892E+01
   2.80322E+01  3.13154E-01 -8.71864E+00 -1.13471E+01  7.44380E+00  1.67538E+01  1.47614E+01  4.24190E+00  2.51544E+01  2.12166E+01
  -1.39167E+01 -2.88930E+01  2.65155E+01  1.74594E+01 -1.95199E+01 -1.94809E+01  2.58039E+01  4.64966E+00 -1.91915E+00  2.01159E+01
  -2.46645E+01  7.14346E+00  3.30750E+00  1.59232E+01  1.83699E+00 -1.86658E+01  3.18202E+00  2.57043E+00  8.95393E+00 -5.74496E+00
   1.08453E+01  1.76932E+00 -1.87222E+01  9.44546E+00 -2.81417E+00  6.97829E+00  1.14662E+00  1.52854E+01  1.25117E+01 -1.75985E+01
   1.16082E+01 -1.57183E+01  1.39261E+01 -7.86576E+00  1.96510E+01 -1.59736E+01 -9.29131E+00  6.24712E+00  5.95860E+00  1.87348E+01
  -6.11645E+00 -8.03894E+00  1.89445E+01  1.65851E+01 -5.44266E+00  8.63705E+00  7.34217E+00 -5.25976E+00  1.30208E+01 -3.71142E+00
  -1.50261E+01  1.10921E+00 -4.44922E+00 -4.82634E+00  2.13394E+01  5.87511E+00  1.85638E+01 -7.81802E+00  7.49047E+00  2.10803E+01
  -1.92407E-01 -1.66974E+00 -1.87171E-01  1.10698E+01  3.36190E+00 -5.11802E+00  2.26552E+01  1.69611E+01  9.68334E+00  4.47103E+00
  -7.55126E+00  1.43075E+01  8.85755E+00 -6.23625E+00 -1.70520E+00 -4.15291E+00  1.27384E+01  1.91900E+00  3.21018E+01  1.51535E+01
  -5.75638E+00 -5.68110E+00 -8.16899E+00 -1.92632E+01 -1.51023E+01  1.70965E+01  4.69671E+00 -6.75053E+00 -1.33649E+01 -1.54400E+01
   2.81446E+01 -7.00355E+00  8.25589E+00 -9.01576E+00  5.21902E+00 -2.12982E+01 -7.06541E+00 -1.97368E+01  7.55323E+00 -1.64651E+01
  -2.52431E+01 -1.65421E+00  1.36936E+01 -1.22837E+01 -2.59238E+00 -1.28002E+01 -2.19630E+01  1.16798E+01 -5.52055E+00 -2.47785E+01
  -1.36343E+01 -8.47647E+00  2.03564E+01 -4.38022E+00  2.96771E+01  3.10335E-01  3.93993E+00 -1.39370E+01  7.29591E+00  1.43120E+01
   2.39988E+01  3.28215E+01  2.13204E+01  3.07152E+00 -2.77790E+00 -2.39799E+01  5.59872E+00 -3.95596E+00  1.83233E+01 -3.96476E+00
   7.98233E+00 -1.06770E+01 -3.02951E+01 -6.56350E+00  1.06683E+01  7.66592E+00  1.49567E+01  1.61775E+01 -4.41668E+00  1.96128E+01
   1.66929E+01 -1.28585E+01  1.02496E+01 -2.14632E+00 -5.42121E+00 -3.97435E+00 -6.69929E+00  1.06676E+01 -8.51429E+00 -6.05118E+00
   6.19543E+00 -9.81025E-01 -7.94126E+00  3.58759E-02 -4.13573E+00  4.52529E+00  7.80767E+00 -2.48804E+01  4.84594E+00  2.15324E+00
   1.35807E+01  1.91021E+01  1.47690E+01  9.20055E-01 -2.09866E+01 -1.93236E+01 -1.73287E+01 -9.50896E+00 -3.62553E+01 -9.64522E+00
  -1.26497E+01  5.07225E+00 -1.18146E+01  1.70145E+00  8.82888E+00 -8.05700E+00 -2.89986E+01 -1.95525E+01  8.46147E+00  2.85655E+00
  -1.58419E+01  1.49693E+01 -1.43432E+01 -9.52075E+00  4.15844E+00  2.12415E+00 -1.31423E+01  7.27721E+00 -2.95875E+00 -1.09268E+01
  -7.52631E+00 -1.18129E+01 -4.09368E+00 -3.25167E+01 -5.30864E+00  9.57053E+00  2.04162E+01  2.11524E+01  1.18615E+00  1.49227E+01
   1.59775E+01  2.65308E+01 -1.05447E+01  2.22169E+01 -4.52448E+00  2.99163E+00 -3.44196E+00  3.16209E+00 -1.29115E+01  1.40792E+00
   1.20545E+01 -1.90244E+00  1.06558E+01 -1.32507E+01  1.67199E+01  2.41135E+00  1.05201E+01 -2.52744E+01 -7.92718E-01 -6.92546E+00
  -6.11546E+00 -2.96516E+00 -8.23706E+00 -2.66760E+01 -1.59589E+01 -3.14904E+01 -2.38147E+01 -1.26846E+01 -3.16684E+01 -3.66628E+01
  -8.76927E+00 -2.23993E+01 -2.81728E+01 -1.56049E+01  8.36493E-02 -1.70777E+00 -6.27958E+00 -2.04891E+01  7.62999E+00 -1.02096E+01
  -2.62599E+00 -1.50746E+00  1.57565E+00 -1.76045E+00  1.59747E+01 -3.55102E+00 -4.26471E+00  2.64720E+00 -8.91742E-01 -1.28497E-01
   1.66212E+01 -1.10661E+01  2.28929E+00 -4.67358E+00  8.76859E+00  3.21678E+00  1.58797E+01  3.50924E+00  1.32535E+01 -5.90095E+00
  -6.36290E+00 -7.15495E+00 -1.55720E+01 -3.44177E+00 -7.09595E+00 -2.10477E+01  9.01843E-01  2.66116E+01 -8.11993E+00  1.81051E+01
  -5.83664E+00 -1.95492E+00  2.10892E+01  7.24322E+00  1.15040E+01 -4.09391E+00  1.14133E+01  2.26823E+01  1.91961E+01  7.88678E+00
   1.35000E+00 -4.70414E+00  2.92427E+01  3.67604E+00 -4.44052E+00  1.78762E+01  1.51920E+01 -1.50072E+01  5.65800E+00 -7.86841E+00
   1.53247E+01  6.90146E+00  4.20127E+00 -2.33133E+01  7.96778E+00  9.83518E-01  7.22894E+00 -8.22325E+00 -1.13453E+01  3.82683E+00
   4.75674E-01 -1.46597E+01  1.08497E+00 -2.40459E+00 -1.49018E+01  5.20844E+00  6.61879E+00  9.23215E+00  1.07276E+01  1.08944E+01
  -4.19230E+00 -1.59265E+01  1.21632E+01  1.42392E+01  5.69571E+00  1.10337E+01 -8.03211E+00 -1.70197E+01 -6.93096E+00  1.28551E+01
  -7.64109E+00  3.06002E+00 -1.68342E+01  1.00282E+01 -3.35491E+01 -9.71711E+00 -3.75224E+00  5.91361E+00  1.08219E+01 -2.08070E+01
  -2.09683E+01  1.27058E+00  1.73442E+00  3.14366E+01  1.71497E+01 -6.98731E+00  5.42656E+00 -1.46816E+00 -1.13955E+01  7.03848E+00
   1.89850E+00 -1.96357E+01  1.30990E+01  5.02625E+00  8.85108E+00  4.39252E-01 -1.44734E+01 -9.10332E+00 -3.20135E+00  2.99438E+00
   1.53274E+01  5.25013E+00  7.38524E+00 -1.50132E+01 -1.15739E+01  3.92349E+00 -9.92009E-01 -1.86282E+00
 NY points of the fit to the data follow
   6.96322E+00  6.47001E+00  6.15446E+00  6.02777E+00  6.01738E+00  6.05358E+00  6.08735E+00  6.14403E+00  6.34212E+00  6.74322E+00
   7.24292E+00  7.61418E+00  7.65887E+00  7.38265E+00  6.92648E+00  6.39769E+00  5.87083E+00  5.45138E+00  5.30819E+00  5.52332E+00
   6.01347E+00  6.70414E+00  7.51743E+00  8.22149E+00  8.42212E+00  7.75871E+00  6.35914E+00  4.83283E+00  3.80567E+00  3.64277E+00
   4.42241E+00  5.98847E+00  7.99854E+00  9.82161E+00  1.07963E+01  1.06101E+01  9.52257E+00  8.04379E+00  6.50220E+00  5.18840E+00
   4.41620E+00  4.24622E+00  4.50902E+00  5.21811E+00  6.71659E+00  9.13608E+00  1.18791E+01  1.38245E+01  1.39877E+01  1.23252E+01
   9.71645E+00  7.18430E+00  5.30101E+00  4.21406E+00  3.87641E+00  4.11677E+00  4.73020E+00  5.60492E+00  6.67216E+00  7.70741E+00
   8.31912E+00  8.23925E+00  7.51027E+00  6.44941E+00  5.44996E+00  4.80022E+00  4.63313E+00  4.85990E+00  5.31612E+00  5.88515E+00
   6.43508E+00  6.86177E+00  7.06647E+00  7.00930E+00  6.77374E+00  6.46599E+00  6.14280E+00  5.80791E+00  5.49892E+00  5.28006E+00
   5.14256E+00  5.06523E+00  5.03696E+00  4.99250E+00  4.77355E+00  4.23654E+00  3.38422E+00  2.43740E+00  1.74461E+00  1.55150E+00
   1.85702E+00  2.47595E+00  3.20412E+00  3.89631E+00  4.39323E+00  4.58749E+00  4.46409E+00  4.10744E+00  3.77805E+00  4.24788E+00
   6.45926E+00  1.03622E+01  1.46511E+01  1.74204E+01  1.73611E+01  1.48849E+01  1.14999E+01  8.37440E+00  5.93594E+00  4.27493E+00
   3.49234E+00  3.26449E+00  3.18064E+00  3.13107E+00  3.08133E+00  3.02432E+00  2.95318E+00  2.86580E+00  2.77029E+00  2.68204E+00
   2.61736E+00  2.59125E+00  2.62590E+00  2.84284E+00  3.41798E+00  4.32364E+00  5.27445E+00  5.86811E+00  5.84733E+00  5.32989E+00
   4.66149E+00  4.07919E+00  3.61140E+00  3.20266E+00  2.83548E+00  2.47896E+00  2.16321E+00  1.98216E+00  1.98110E+00  2.13219E+00
   2.35174E+00  2.54828E+00  2.65809E+00  2.67976E+00  2.64295E+00  2.57212E+00  2.48583E+00  2.39580E+00  2.31048E+00  2.23855E+00
   2.17417E+00  2.11545E+00  2.06406E+00  2.02578E+00  2.00353E+00  1.99700E+00  1.99780E+00  1.96714E+00  1.85889E+00  1.67439E+00
   1.47461E+00  1.36480E+00  1.41607E+00  1.58450E+00  1.75539E+00  1.83034E+00  1.78528E+00  1.66780E+00  1.53089E+00  1.40971E+00
   1.31461E+00  1.23895E+00  1.16208E+00  1.03678E+00  8.72151E-01  7.43409E-01  7.21789E-01  8.08845E-01  9.10041E-01  9.30536E-01
   8.73656E-01  8.20011E-01  8.24966E-01  8.42828E-01  8.06136E-01  7.44247E-01  7.48914E-01  9.11541E-01  1.23730E+00  1.63094E+00
   1.95843E+00  2.13253E+00  2.14289E+00  2.03696E+00  1.86683E+00  1.67379E+00  1.49288E+00  1.35305E+00  1.30284E+00  1.38357E+00
   1.59943E+00  1.92756E+00  2.32889E+00  2.71725E+00  2.94008E+00  2.86769E+00  2.45016E+00  1.69796E+00  7.58760E-01 -1.58634E-01
  -8.00746E-01 -8.83157E-01 -1.66309E-01  1.43145E+00  3.52460E+00  5.34768E+00  6.11957E+00  5.42212E+00  3.49256E+00  8.21094E-01
  -2.08978E+00 -4.53774E+00 -5.75874E+00 -5.29206E+00 -3.47394E+00 -1.19452E+00  8.01538E-01  2.17364E+00  2.83141E+00  2.80028E+00
   2.29998E+00  1.71138E+00  1.32561E+00  1.19640E+00  1.28464E+00  1.50359E+00  1.73592E+00  1.83168E+00  1.66152E+00  1.19505E+00
   5.37966E-01 -8.06613E-02 -4.29674E-01 -3.87002E-01  2.63533E-02  6.22975E-01  1.13241E+00  1.35416E+00  1.22302E+00  8.15346E-01
   3.13067E-01  6.85494E-03  6.14941E-02  4.10887E-01  8.32702E-01  1.18063E+00  1.93135E+00  4.30045E+00  8.82274E+00  1.43835E+01
   1.87408E+01  1.97985E+01  1.73968E+01  1.32477E+01  9.06286E+00  5.56947E+00  2.96361E+00  1.45534E+00  8.39315E-01  4.78774E-01
   2.25901E-01  1.11770E-01  1.46909E-01  2.91613E-01  4.87893E-01  6.51119E-01  7.32677E-01  7.25157E-01  6.42687E-01  5.09138E-01
   3.63217E-01  2.43768E-01  1.67264E-01  1.29286E-01  1.17134E-01  1.16987E-01  1.17773E-01  1.11723E-01  9.52632E-02  7.32481E-02
   4.88918E-02  2.25717E-02 -4.14005E-03 -2.90670E-02 -5.14722E-02 -7.16241E-02 -8.95691E-02 -1.05129E-01 -1.19000E-01 -1.31744E-01
  -1.42743E-01 -1.51547E-01 -1.57879E-01 -1.62074E-01 -1.64955E-01 -1.66953E-01 -1.67598E-01 -1.65956E-01 -1.61102E-01 -1.52225E-01
  -1.38356E-01 -1.18436E-01 -9.12803E-02 -5.51986E-02 -7.90067E-03  5.37487E-02  1.34226E-01  2.40084E-01  3.81168E-01  5.72880E-01
   8.40951E-01  1.23251E+00  1.86626E+00  3.07067E+00  4.93601E+00  6.61851E+00  6.80439E+00  4.62036E+00  3.63698E-01 -4.48139E+00
  -8.58229E+00 -1.13989E+01 -1.23496E+01 -1.07713E+01 -6.67011E+00 -1.42748E+00  2.92318E+00  5.22766E+00  5.64230E+00  4.95179E+00
   3.77814E+00  2.45329E+00  1.36617E+00  7.21026E-01  3.13115E-01  2.60286E-02 -1.88890E-01 -3.56550E-01 -4.91453E-01 -6.02738E-01
  -6.96431E-01 -7.76634E-01 -8.46221E-01 -9.07310E-01 -9.61522E-01 -1.01011E+00 -1.05402E+00 -1.09392E+00 -1.13032E+00 -1.16366E+00
  -1.19431E+00 -1.22260E+00 -1.24872E+00 -1.27280E+00 -1.29490E+00 -1.31511E+00 -1.33350E+00 -1.35012E+00 -1.36490E+00 -1.37775E+00
  -1.38852E+00 -1.39710E+00 -1.40336E+00 -1.40707E+00 -1.40790E+00 -1.40546E+00 -1.39932E+00 -1.38902E+00 -1.37400E+00 -1.35359E+00
  -1.32698E+00 -1.29329E+00 -1.25160E+00 -1.20096E+00 -1.14034E+00 -1.06871E+00 -9.85011E-01 -8.88369E-01 -7.78114E-01 -6.53864E-01
  -5.15557E-01 -3.63550E-01 -1.98733E-01 -2.26496E-02  1.62477E-01  3.53753E-01  5.47679E-01  7.40187E-01  9.26720E-01  1.10236E+00
   1.26205E+00  1.40085E+00  1.51420E+00  1.59813E+00  1.64941E+00  1.66573E+00  1.64592E+00  1.58997E+00  1.49907E+00  1.37552E+00
   1.22252E+00  1.04404E+00  8.44658E-01  6.29308E-01  4.03043E-01  1.70759E-01 -6.29923E-02 -2.94148E-01 -5.19195E-01 -7.35249E-01
  -9.40098E-01 -1.13223E+00 -1.31075E+00 -1.47530E+00 -1.62594E+00 -1.76306E+00 -1.88736E+00 -1.99975E+00 -2.10126E+00 -2.19294E+00
  -2.27582E+00 -2.35088E+00 -2.41907E+00 -2.48129E+00 -2.53836E+00 -2.59096E+00 -2.63968E+00 -2.68502E+00 -2.72747E+00 -2.76743E+00
  -2.80526E+00 -2.84122E+00 -2.87552E+00 -2.90836E+00 -2.93993E+00 -2.97043E+00 -2.99997E+00 -3.02864E+00 -3.05651E+00 -3.08366E+00
  -3.11021E+00 -3.13623E+00 -3.16175E+00 -3.18680E+00 -3.21140E+00 -3.23561E+00 -3.25950E+00 -3.28309E+00 -3.30638E+00 -3.32939E+00
  -3.35212E+00 -3.37464E+00 -3.39698E+00 -3.41914E+00 -3.44110E+00 -3.46286E+00 -3.48445E+00 -3.50592E+00 -3.52728E+00 -3.54852E+00
  -3.56961E+00 -3.59057E+00 -3.61142E+00 -3.63220E+00 -3.65290E+00 -3.67350E+00 -3.69399E+00 -3.71438E+00 -3.73471E+00 -3.75500E+00
  -3.77524E+00 -3.79538E+00 -3.81544E+00 -3.83544E+00 -3.85540E+00 -3.87534E+00 -3.89521E+00 -3.91501E+00 -3.93474E+00 -3.95443E+00
  -3.97411E+00 -3.99376E+00 -4.01334E+00 -4.03284E+00 -4.05229E+00 -4.07173E+00 -4.09115E+00 -4.11051E+00
 NY background values follow
     4.998E+00    4.980E+00    4.961E+00    4.943E+00    4.924E+00    4.906E+00    4.888E+00    4.869E+00    4.851E+00    4.832E+00
     4.814E+00    4.795E+00    4.777E+00    4.758E+00    4.740E+00    4.721E+00    4.703E+00    4.684E+00    4.666E+00    4.648E+00
     4.629E+00    4.611E+00    4.592E+00    4.574E+00    4.555E+00    4.537E+00    4.518E+00    4.500E+00    4.481E+00    4.463E+00
     4.444E+00    4.426E+00    4.408E+00    4.389E+00    4.371E+00    4.352E+00    4.334E+00    4.315E+00    4.297E+00    4.278E+00
     4.260E+00    4.241E+00    4.223E+00    4.204E+00    4.186E+00    4.168E+00    4.149E+00    4.131E+00    4.112E+00    4.094E+00
     4.075E+00    4.057E+00    4.038E+00    4.020E+00    4.001E+00    3.983E+00    3.965E+00    3.946E+00    3.928E+00    3.909E+00
     3.891E+00    3.872E+00    3.854E+00    3.835E+00    3.817E+00    3.798E+00    3.780E+00    3.761E+00    3.743E+00    3.725E+00
     3.706E+00    3.688E+00    3.669E+00    3.651E+00    3.632E+00    3.614E+00    3.595E+00    3.577E+00    3.558E+00    3.540E+00
     3.521E+00    3.503E+00    3.485E+00    3.466E+00    3.448E+00    3.429E+00    3.411E+00    3.392E+00    3.374E+00    3.355E+00
     3.337E+00    3.318E+00    3.300E+00    3.282E+00    3.263E+00    3.245E+00    3.226E+00    3.208E+00    3.189E+00    3.171E+00
     3.152E+00    3.134E+00    3.115E+00    3.097E+00    3.078E+00    3.060E+00    3.042E+00    3.023E+00    3.005E+00    2.986E+00
     2.968E+00    2.949E+00    2.931E+00    2.912E+00    2.894E+00    2.875E+00    2.857E+00    2.838E+00    2.820E+00    2.802E+00
     2.783E+00    2.765E+00    2.746E+00    2.728E+00    2.709E+00    2.691E+00    2.672E+00    2.654E+00    2.635E+00    2.617E+00
     2.599E+00    2.580E+00    2.562E+00    2.543E+00    2.525E+00    2.506E+00    2.488E+00    2.469E+00    2.451E+00    2.432E+00
     2.414E+00    2.395E+00    2.377E+00    2.359E+00    2.340E+00    2.322E+00    2.303E+00    2.285E+00    2.266E+00    2.248E+00
     2.229E+00    2.211E+00    2.192E+00    2.174E+00    2.155E+00    2.137E+00    2.119E+00    2.100E+00    2.082E+00    2.063E+00
     2.045E+00    2.026E+00    2.008E+00    1.989E+00    1.971E+00    1.952E+00    1.934E+00    1.916E+00    1.897E+00    1.879E+00
     1.860E+00    1.842E+00    1.823E+00    1.805E+00    1.786E+00    1.768E+00    1.749E+00    1.731E+00    1.712E+00    1.694E+00
     1.676E+00    1.657E+00    1.639E+00    1.620E+00    1.602E+00    1.583E+00    1.565E+00    1.546E+00    1.528E+00    1.509E+00
     1.491E+00    1.472E+00    1.454E+00    1.436E+00    1.417E+00    1.399E+00    1.380E+00    1.362E+00    1.343E+00    1.325E+00
     1.306E+00    1.288E+00    1.269E+00    1.251E+00    1.233E+00    1.214E+00    1.196E+00    1.177E+00    1.159E+00    1.140E+00
     1.122E+00    1.103E+00    1.085E+00    1.066E+00    1.048E+00    1.029E+00    1.011E+00    9.926E-01    9.741E-01    9.556E-01
     9.372E-01    9.187E-01    9.003E-01    8.818E-01    8.634E-01    8.449E-01    8.264E-01    8.080E-01    7.895E-01    7.711E-01
     7.526E-01    7.341E-01    7.157E-01    6.972E-01    6.788E-01    6.603E-01    6.419E-01    6.234E-01    6.049E-01    5.865E-01
     5.680E-01    5.496E-01    5.311E-01    5.126E-01    4.942E-01    4.757E-01    4.573E-01    4.388E-01    4.204E-01    4.019E-01
     3.834E-01    3.650E-01    3.465E-01    3.281E-01    3.096E-01    2.912E-01    2.727E-01    2.542E-01    2.358E-01    2.173E-01
     1.989E-01    1.804E-01    1.620E-01    1.435E-01    1.250E-01    1.066E-01    8.812E-02    6.966E-02    5.121E-02    3.275E-02
     1.429E-02   -4.167E-03   -2.262E-02   -4.108E-02   -5.954E-02   -7.800E-02   -9.645E-02   -1.149E-01   -1.334E-01   -1.518E-01
    -1.703E-01   -1.887E-01   -2.072E-01   -2.257E-01   -2.441E-01   -2.626E-01   -2.810E-01   -2.995E-01   -3.179E-01   -3.364E-01
    -3.549E-01   -3.733E-01   -3.918E-01   -4.102E-01   -4.287E-01   -4.471E-01   -4.656E-01   -4.840E-01   -5.025E-01   -5.210E-01
    -5.394E-01   -5.579E-01   -5.763E-01   -5.948E-01   -6.132E-01   -6.317E-01   -6.502E-01   -6.686E-01   -6.871E-01   -7.055E-01
    -7.240E-01   -7.424E-01   -7.609E-01   -7.794E-01   -7.978E-01   -8.163E-01   -8.347E-01   -8.532E-01   -8.716E-01   -8.901E-01
    -9.085E-01   -9.270E-01   -9.455E-01   -9.639E-01   -9.824E-01   -1.001E+00   -1.019E+00   -1.038E+00   -1.056E+00   -1.075E+00
    -1.093E+00   -1.112E+00   -1.130E+00   -1.148E+00   -1.167E+00   -1.185E+00   -1.204E+00   -1.222E+00   -1.241E+00   -1.259E+00
    -1.278E+00   -1.296E+00   -1.315E+00   -1.333E+00   -1.351E+00   -1.370E+00   -1.388E+00   -1.407E+00   -1.425E+00   -1.444E+00
    -1.462E+00   -1.481E+00   -1.499E+00   -1.518E+00   -1.536E+00   -1.554E+00   -1.573E+00   -1.591E+00   -1.610E+00   -1.628E+00
    -1.647E+00   -1.665E+00   -1.684E+00   -1.702E+00   -1.721E+00   -1.739E+00   -1.757E+00   -1.776E+00   -1.794E+00   -1.813E+00
    -1.831E+00   -1.850E+00   -1.868E+00   -1.887E+00   -1.905E+00   -1.924E+00   -1.942E+00   -1.961E+00   -1.979E+00   -1.997E+00
    -2.016E+00   -2.034E+00   -2.053E+00   -2.071E+00   -2.090E+00   -2.108E+00   -2.127E+00   -2.145E+00   -2.164E+00   -2.182E+00
    -2.200E+00   -2.219E+00   -2.237E+00   -2.256E+00   -2.274E+00   -2.293E+00   -2.311E+00   -2.330E+00   -2.348E+00   -2.366E+00
    -2.385E+00   -2.403E+00   -2.422E+00   -2.440E+00   -2.459E+00   -2.477E+00   -2.496E+00   -2.514E+00   -2.533E+00   -2.551E+00
    -2.569E+00   -2.588E+00   -2.606E+00   -2.625E+00   -2.643E+00   -2.662E+00   -2.680E+00   -2.699E+00   -2.717E+00   -2.736E+00
    -2.754E+00   -2.772E+00   -2.791E+00   -2.809E+00   -2.828E+00   -2.846E+00   -2.865E+00   -2.883E+00   -2.902E+00   -2.920E+00
    -2.939E+00   -2.957E+00   -2.975E+00   -2.994E+00   -3.012E+00   -3.031E+00   -3.049E+00   -3.068E+00   -3.086E+00   -3.105E+00
    -3.123E+00   -3.142E+00   -3.160E+00   -3.178E+00   -3.197E+00   -3.215E+00   -3.234E+00   -3.252E+00   -3.271E+00   -3.289E+00
    -3.308E+00   -3.326E+00   -3.345E+00   -3.363E+00   -3.381E+00   -3.400E+00   -3.418E+00   -3.437E+00   -3.455E+00   -3.474E+00
    -3.492E+00   -3.511E+00   -3.529E+00   -3.548E+00   -3.566E+00   -3.584E+00   -3.603E+00   -3.621E+00   -3.640E+00   -3.658E+00
    -3.677E+00   -3.695E+00   -3.714E+00   -3.732E+00   -3.751E+00   -3.769E+00   -3.787E+00   -3.806E+00   -3.824E+00   -3.843E+00
    -3.861E+00   -3.880E+00   -3.898E+00   -3.917E+00   -3.935E+00   -3.954E+00   -3.972E+00   -3.990E+00   -4.009E+00   -4.027E+00
    -4.046E+00   -4.064E+00   -4.083E+00   -4.101E+00   -4.120E+00   -4.138E+00   -4.157E+00   -4.175E+00
 Ala      Conc. = 5.76E+02
