 LCModel (Version 6.3-1L) Copyright: S.W. Provencher.          Ref.: Magn. Reson. Med. 30:672-679 (1993).                
 Slice#2 Row#8 Col#2  PD_05_press_2_raw_act
 36 lines in following concentration table = NCONC+1
    Conc.  %SD /Cr+PCr  Metabolite                                         
  205.876  78%   0.102 Ala                                                 
    0.000 999%   0.000 Asp                                                 
 1.32E+03  25%   0.654 Cr                                                  
  694.581  49%   0.346 PCr                                                 
  295.739  75%   0.147 GABA                                                
    0.000 999%   0.000 Glc                                                 
  663.985  50%   0.330 Gln                                                 
 2.39E+03  17%   1.190 Glu                                                 
  635.143   6%   0.316 GPC                                                 
    0.000 999%   0.000 PCh                                                 
  806.761  14%   0.401 GSH                                                 
 1.58E+03  26%   0.785 Ins                                                 
    0.000 999%   0.000 Lac                                                 
 3.65E+03   6%   1.813 NAA                                                 
  453.256  46%   0.225 NAAG                                                
  125.336  34% 6.2E-02 Scyllo                                              
    0.000 999%   0.000 Tau                                                 
  475.792  38%   0.237 -CrCH2                                              
  635.143   6%   0.316 GPC+PCh                                             
 4.10E+03   4%   2.039 NAA+NAAG                                            
 2.01E+03   5%   1.000 Cr+PCr                                              
 3.06E+03  18%   1.520 Glu+Gln                                             
    2.810 999% 1.4E-03 Lip13a                                              
  401.116 143%   0.200 Lip13b                                              
    0.000 999%   0.000 Lip09                                               
 2.95E+03  15%   1.468 MM09                                                
  109.619 106% 5.5E-02 Lip20                                               
 5.42E+03  12%   2.696 MM20                                                
  896.212  19%   0.446 MM12                                                
 2.17E+03  22%   1.081 MM14                                                
  999.613  32%   0.497 MM17                                                
  403.926 107%   0.201 Lip13a+Lip13b                                       
 3.47E+03  20%   1.728 MM14+Lip13a+Lip13b+MM12                             
 2.95E+03  15%   1.468 MM09+Lip09                                          
 5.53E+03  12%   2.750 MM20+Lip20                                          
   6 lines in following misc. output table
  FWHM = 0.046 ppm    S/N =  14                                            
  Data shift = 0.015 ppm                                                   
  Ph: -20 deg      -7.9 deg/ppm                                            
  alphaB,S = 5.8E-01,   5.5E+01                                            
   14 spline knots.   Ns = 7(1)                                            
  (12) 3 infls.   (11) 1 extrs.                                            
  498 points on ppm-axis = NY
      4.000000     3.992357     3.984714     3.977070     3.969427     3.961784     3.954141     3.946497     3.938854     3.931211
      3.923568     3.915925     3.908281     3.900638     3.892995     3.885352     3.877708     3.870065     3.862422     3.854779
      3.847136     3.839492     3.831849     3.824206     3.816563     3.808919     3.801276     3.793633     3.785990     3.778347
      3.770703     3.763060     3.755417     3.747774     3.740130     3.732487     3.724844     3.717201     3.709558     3.701914
      3.694271     3.686628     3.678985     3.671341     3.663698     3.656055     3.648412     3.640769     3.633125     3.625482
      3.617839     3.610196     3.602552     3.594909     3.587266     3.579623     3.571980     3.564336     3.556693     3.549050
      3.541407     3.533763     3.526120     3.518477     3.510834     3.503191     3.495547     3.487904     3.480261     3.472618
      3.464974     3.457331     3.449688     3.442045     3.434402     3.426758     3.419115     3.411472     3.403829     3.396185
      3.388542     3.380899     3.373256     3.365613     3.357969     3.350326     3.342683     3.335040     3.327396     3.319753
      3.312110     3.304467     3.296824     3.289180     3.281537     3.273894     3.266251     3.258607     3.250964     3.243321
      3.235678     3.228034     3.220391     3.212748     3.205105     3.197462     3.189818     3.182175     3.174532     3.166889
      3.159245     3.151602     3.143959     3.136316     3.128673     3.121029     3.113386     3.105743     3.098100     3.090456
      3.082813     3.075170     3.067527     3.059884     3.052240     3.044597     3.036954     3.029311     3.021667     3.014024
      3.006381     2.998738     2.991095     2.983451     2.975808     2.968165     2.960522     2.952878     2.945235     2.937592
      2.929949     2.922306     2.914662     2.907019     2.899376     2.891733     2.884089     2.876446     2.868803     2.861160
      2.853517     2.845873     2.838230     2.830587     2.822944     2.815300     2.807657     2.800014     2.792371     2.784728
      2.777084     2.769441     2.761798     2.754155     2.746511     2.738868     2.731225     2.723582     2.715939     2.708295
      2.700652     2.693009     2.685366     2.677722     2.670079     2.662436     2.654793     2.647150     2.639506     2.631863
      2.624220     2.616577     2.608933     2.601290     2.593647     2.586004     2.578361     2.570717     2.563074     2.555431
      2.547788     2.540144     2.532501     2.524858     2.517215     2.509572     2.501928     2.494285     2.486642     2.478999
      2.471355     2.463712     2.456069     2.448426     2.440783     2.433139     2.425496     2.417853     2.410210     2.402566
      2.394923     2.387280     2.379637     2.371994     2.364350     2.356707     2.349064     2.341421     2.333777     2.326134
      2.318491     2.310848     2.303205     2.295561     2.287918     2.280275     2.272632     2.264988     2.257345     2.249702
      2.242059     2.234416     2.226772     2.219129     2.211486     2.203843     2.196199     2.188556     2.180913     2.173270
      2.165627     2.157983     2.150340     2.142697     2.135054     2.127410     2.119767     2.112124     2.104481     2.096838
      2.089194     2.081551     2.073908     2.066265     2.058621     2.050978     2.043335     2.035692     2.028049     2.020405
      2.012762     2.005119     1.997476     1.989833     1.982190     1.974546     1.966903     1.959260     1.951617     1.943974
      1.936331     1.928688     1.921045     1.913402     1.905759     1.898115     1.890472     1.882829     1.875186     1.867543
      1.859900     1.852257     1.844614     1.836971     1.829327     1.821684     1.814041     1.806398     1.798755     1.791112
      1.783469     1.775826     1.768183     1.760540     1.752896     1.745253     1.737610     1.729967     1.722324     1.714681
      1.707038     1.699395     1.691752     1.684108     1.676465     1.668822     1.661179     1.653536     1.645893     1.638250
      1.630607     1.622964     1.615321     1.607677     1.600034     1.592391     1.584748     1.577105     1.569462     1.561819
      1.554176     1.546533     1.538890     1.531246     1.523603     1.515960     1.508317     1.500674     1.493031     1.485388
      1.477745     1.470102     1.462458     1.454815     1.447172     1.439529     1.431886     1.424243     1.416600     1.408957
      1.401314     1.393671     1.386027     1.378384     1.370741     1.363098     1.355455     1.347812     1.340169     1.332526
      1.324883     1.317240     1.309596     1.301953     1.294310     1.286667     1.279024     1.271381     1.263738     1.256095
      1.248452     1.240808     1.233165     1.225522     1.217879     1.210236     1.202593     1.194950     1.187307     1.179664
      1.172021     1.164377     1.156734     1.149091     1.141448     1.133805     1.126162     1.118519     1.110876     1.103233
      1.095590     1.087946     1.080303     1.072660     1.065017     1.057374     1.049731     1.042088     1.034445     1.026802
      1.019158     1.011515     1.003872     0.996229     0.988586     0.980943     0.973300     0.965657     0.958014     0.950371
      0.942727     0.935084     0.927441     0.919798     0.912155     0.904512     0.896869     0.889226     0.881583     0.873940
      0.866296     0.858653     0.851010     0.843367     0.835724     0.828081     0.820438     0.812795     0.805152     0.797508
      0.789865     0.782222     0.774579     0.766936     0.759293     0.751650     0.744007     0.736364     0.728721     0.721077
      0.713434     0.705791     0.698148     0.690505     0.682862     0.675219     0.667576     0.659933     0.652290     0.644646
      0.637003     0.629360     0.621717     0.614074     0.606431     0.598788     0.591145     0.583502     0.575858     0.568215
      0.560572     0.552929     0.545286     0.537643     0.530000     0.522357     0.514714     0.507071     0.499427     0.491784
      0.484141     0.476498     0.468855     0.461212     0.453569     0.445925     0.438282     0.430639     0.422996     0.415353
      0.407710     0.400067     0.392424     0.384780     0.377137     0.369494     0.361851     0.354208     0.346565     0.338922
      0.331278     0.323635     0.315992     0.308349     0.300706     0.293063     0.285420     0.277777     0.270133     0.262490
      0.254847     0.247204     0.239561     0.231918     0.224275     0.216631     0.208988     0.201345
 NY phased data points follow
  -1.79634E+02 -1.64005E+02 -1.57623E+02 -1.61602E+02 -1.48891E+02 -1.37976E+02 -1.35193E+02 -1.27281E+02 -1.13507E+02 -1.14115E+02
  -1.03113E+02 -1.07596E+02 -1.11682E+02 -1.18266E+02 -1.24886E+02 -1.29214E+02 -1.25156E+02 -1.27563E+02 -1.32317E+02 -1.31608E+02
  -1.28809E+02 -1.29814E+02 -1.23542E+02 -1.25666E+02 -1.18218E+02 -1.16642E+02 -1.19802E+02 -1.16716E+02 -1.08073E+02 -1.10715E+02
  -1.02544E+02 -9.84677E+01 -1.03040E+02 -1.08810E+02 -1.03801E+02 -1.06858E+02 -1.07026E+02 -1.03637E+02 -1.01604E+02 -1.06723E+02
  -1.02734E+02 -1.11867E+02 -1.00642E+02 -1.06355E+02 -9.28200E+01 -9.22596E+01 -8.97741E+01 -8.79575E+01 -8.96372E+01 -9.30663E+01
  -9.38035E+01 -9.70581E+01 -9.80043E+01 -9.60519E+01 -9.97392E+01 -9.57316E+01 -9.50711E+01 -9.25526E+01 -9.70461E+01 -9.32508E+01
  -1.01092E+02 -9.87004E+01 -9.56796E+01 -1.00350E+02 -9.80167E+01 -1.05034E+02 -9.84660E+01 -9.70682E+01 -9.76188E+01 -9.31541E+01
  -9.54616E+01 -9.99963E+01 -9.15750E+01 -8.86754E+01 -8.84415E+01 -8.62193E+01 -9.03517E+01 -8.71501E+01 -8.45439E+01 -8.39147E+01
  -8.35764E+01 -8.60676E+01 -7.64635E+01 -7.89826E+01 -7.85350E+01 -7.79359E+01 -7.98234E+01 -7.43038E+01 -8.59432E+01 -7.30285E+01
  -7.33392E+01 -7.84330E+01 -7.59632E+01 -6.73528E+01 -6.17908E+01 -6.89864E+01 -6.30873E+01 -5.79745E+01 -5.27312E+01 -4.67488E+01
  -3.78208E+01 -2.46476E+01 -1.44440E+01 -1.97508E+01 -2.40024E+01 -2.45438E+01 -4.57190E+01 -4.77423E+01 -5.05535E+01 -6.21920E+01
  -6.10561E+01 -6.71051E+01 -5.64546E+01 -6.84507E+01 -5.84426E+01 -6.28789E+01 -5.74401E+01 -6.52080E+01 -5.75722E+01 -6.02103E+01
  -5.33995E+01 -5.38614E+01 -4.27216E+01 -2.89654E+01 -2.95754E+00 -1.30017E+00  6.11163E+00  1.17735E+01  7.91375E-01 -1.36069E+01
  -2.68711E+01 -3.64918E+01 -4.36581E+01 -5.06517E+01 -5.72601E+01 -6.00404E+01 -5.73431E+01 -6.02850E+01 -6.03669E+01 -5.72237E+01
  -5.02545E+01 -5.39189E+01 -6.49259E+01 -6.19591E+01 -5.76315E+01 -5.93629E+01 -5.25595E+01 -5.88376E+01 -6.01458E+01 -5.27364E+01
  -5.60995E+01 -5.78015E+01 -6.50469E+01 -5.26931E+01 -6.01617E+01 -6.43353E+01 -5.49401E+01 -5.45913E+01 -6.15378E+01 -5.91901E+01
  -6.11661E+01 -6.01039E+01 -6.41870E+01 -5.40285E+01 -5.37198E+01 -5.33588E+01 -5.95803E+01 -5.78879E+01 -4.93228E+01 -5.47069E+01
  -5.85271E+01 -5.74186E+01 -6.49447E+01 -7.01155E+01 -7.11273E+01 -6.50900E+01 -6.86389E+01 -6.60926E+01 -6.40949E+01 -6.44279E+01
  -6.76012E+01 -6.54255E+01 -6.17374E+01 -6.34573E+01 -6.40618E+01 -6.32818E+01 -6.49992E+01 -5.65088E+01 -5.61056E+01 -4.85968E+01
  -4.53629E+01 -5.08225E+01 -4.04712E+01 -4.88401E+01 -4.95689E+01 -4.60146E+01 -5.59115E+01 -5.61805E+01 -6.23547E+01 -5.10816E+01
  -4.97113E+01 -5.11241E+01 -5.20760E+01 -5.00100E+01 -5.06982E+01 -4.71824E+01 -5.05110E+01 -4.96979E+01 -5.19339E+01 -5.66978E+01
  -4.64626E+01 -4.95081E+01 -2.62309E+01 -3.42889E+01 -3.09905E+01 -3.41767E+01 -3.03128E+01 -2.86263E+01 -4.01469E+01 -4.24076E+01
  -4.26510E+01 -4.63105E+01 -5.10966E+01 -4.23749E+01 -3.56962E+01 -3.07676E+01 -2.58574E+01 -2.86908E+01 -2.97533E+01 -3.41693E+01
  -2.51871E+01 -2.69360E+01 -2.83001E+01 -2.79412E+01 -3.20181E+01 -2.63799E+01 -2.22928E+01 -1.91715E+01 -1.91557E+01 -1.90040E+01
  -2.42763E+01 -2.31669E+01 -2.17838E+01 -2.10078E+01 -1.63062E+01 -1.10292E+01 -2.27046E+00 -4.87619E+00  5.12598E+00 -6.97534E+00
   1.05460E-01  2.17330E+00  1.63055E+01  3.19666E+01  2.60754E+01  3.69466E+01  5.36073E+01  7.57449E+01  1.07355E+02  1.23308E+02
   1.16826E+02  1.00187E+02  7.34017E+01  4.33698E+01  2.87858E+01  8.79928E+00  4.71373E+00 -9.52576E+00 -8.53230E+00 -2.14314E+01
  -1.79401E+01 -1.40799E+01 -1.79547E+01 -1.99746E+01 -2.10826E+01 -1.83575E+01 -1.82740E+01 -1.98228E+01 -2.44669E+01 -2.36380E+01
  -2.52066E+01 -2.04012E+01 -2.43297E+01 -2.32317E+01 -2.62838E+01 -3.41252E+01 -2.42780E+01 -2.31512E+01 -3.06107E+01 -3.29428E+01
  -2.54245E+01 -2.26107E+01 -2.79183E+01 -2.93864E+01 -2.41430E+01 -3.22681E+01 -2.46917E+01 -2.42019E+01 -2.35969E+01 -1.84280E+01
  -2.21436E+01 -2.85208E+01 -2.44213E+01 -2.08375E+01 -2.14229E+01 -2.24516E+01 -2.13580E+01 -1.85011E+01 -1.89362E+01 -2.45645E+01
  -1.66257E+01 -1.81402E+01 -1.92639E+01 -1.96385E+01 -2.46706E+01 -2.05127E+01 -2.44484E+01 -2.01770E+01 -1.86292E+01 -2.39109E+01
  -2.62067E+01 -1.86564E+01 -2.09361E+01 -1.96666E+01 -2.36855E+01 -1.03611E+01 -2.34885E+01 -2.84396E+01 -2.53798E+01 -2.00845E+01
  -2.54010E+01 -2.12834E+01 -1.11160E+01 -1.96010E+01 -1.03964E+01 -1.91984E+01 -1.42383E+01 -1.33824E+01 -1.76792E+01 -1.44334E+01
  -1.74920E+01 -2.13797E+01 -1.14400E+01 -1.81388E+01 -1.16931E+01 -9.50697E+00 -9.01686E+00 -1.55847E+01 -1.38580E+01 -6.83760E+00
  -9.84009E+00 -1.37856E+01 -1.36457E+01 -1.64916E+01 -1.00152E+01 -1.57037E+01 -1.46568E+01 -2.33267E+01 -1.78490E+01 -1.39325E+01
  -1.55337E+01 -1.42466E+01 -1.94752E+01 -1.92132E+01 -2.77089E+01 -2.30136E+01 -1.87825E+01 -1.65866E+01 -1.61510E+01 -2.28223E+01
  -1.70264E+01 -1.21885E+01 -1.81393E+01 -1.91711E+01 -1.53018E+01 -2.12543E+01 -1.23422E+01 -1.04709E+01 -1.98715E+01 -1.34099E+01
  -1.80828E+01 -2.09586E+01 -2.29793E+01 -2.00352E+01 -2.04279E+01 -1.78670E+01 -1.14884E+01 -1.17305E+01 -1.35897E+01 -1.86805E+01
  -1.38707E+01 -2.05726E+01 -1.07265E+01 -1.24144E+01 -1.69396E+01 -9.78450E+00 -1.12806E+01 -1.29851E+01 -1.23168E+01 -9.05672E+00
  -1.79278E+01 -1.22676E+01 -1.33561E+01 -1.39547E+01 -1.19476E+01 -1.34080E+01 -7.84901E+00 -6.52962E+00 -6.02195E+00 -1.38535E+01
  -1.26435E+01 -1.78998E+01 -7.89276E+00 -8.01207E+00 -1.42964E+01 -1.14184E+01 -1.24865E+01 -1.42754E+01 -1.65304E+01 -2.06494E+01
  -1.52602E+01 -1.43169E+01 -1.77935E+01 -1.67688E+01 -1.66472E+01 -2.05374E+01 -6.44121E+00 -7.02040E+00 -2.11919E+01 -2.00119E+01
  -1.62824E+01 -1.33384E+01 -1.10010E+01 -1.75717E+01 -9.08317E+00 -1.54108E+01 -1.94752E+01 -1.56431E+01 -1.36873E+01 -1.39628E+01
  -1.84815E+01 -1.34215E+01 -1.65889E+01 -1.52710E+01 -1.61647E+01 -1.20564E+01 -1.02007E+01 -1.26380E+01 -1.77822E+01 -1.25536E+01
  -1.94844E+01 -2.01094E+01 -1.52272E+01 -5.38477E+00 -1.49515E+01 -9.99585E+00 -1.34157E+01 -1.20534E+01 -1.11453E+01 -1.49996E+01
  -2.37165E+01 -1.60381E+01 -1.17072E+01 -8.16776E+00 -1.90377E+01 -1.41639E+01 -1.51406E+01 -9.11527E+00 -8.00498E+00 -1.27981E+01
  -7.45482E+00 -1.35227E+01 -5.80862E+00 -1.14315E+01 -1.00247E+01 -1.45971E+01 -6.58818E+00 -1.38251E+01 -7.09350E+00 -5.19274E+00
  -1.32990E+01 -1.59256E+01 -1.14231E+01 -1.29908E+01 -1.46579E+01 -1.03328E+01 -1.05608E+01 -1.69421E+01 -7.30210E+00 -8.10677E+00
  -1.14570E+01 -1.05302E+01 -1.11079E+01 -1.87536E+01 -8.88527E+00 -1.37929E+01 -1.11966E+01 -1.57851E+01
 NY points of the fit to the data follow
  -1.54364E+02 -1.53602E+02 -1.52041E+02 -1.49317E+02 -1.45101E+02 -1.40930E+02 -1.35473E+02 -1.27361E+02 -1.17967E+02 -1.10347E+02
  -1.06681E+02 -1.07408E+02 -1.11473E+02 -1.16855E+02 -1.21474E+02 -1.24476E+02 -1.26291E+02 -1.27699E+02 -1.28821E+02 -1.29457E+02
  -1.29212E+02 -1.28864E+02 -1.28322E+02 -1.26893E+02 -1.25608E+02 -1.24660E+02 -1.22123E+02 -1.17191E+02 -1.10999E+02 -1.05325E+02
  -1.01151E+02 -9.93706E+01 -1.00440E+02 -1.03281E+02 -1.06648E+02 -1.09653E+02 -1.11786E+02 -1.13087E+02 -1.13564E+02 -1.12739E+02
  -1.10753E+02 -1.08554E+02 -1.06448E+02 -1.03763E+02 -1.00282E+02 -9.68523E+01 -9.44981E+01 -9.37641E+01 -9.46765E+01 -9.66451E+01
  -9.88407E+01 -1.00459E+02 -1.01055E+02 -1.00949E+02 -1.00549E+02 -9.98294E+01 -9.86443E+01 -9.70394E+01 -9.54409E+01 -9.42537E+01
  -9.36759E+01 -9.37474E+01 -9.41853E+01 -9.46055E+01 -9.45994E+01 -9.40031E+01 -9.30837E+01 -9.20037E+01 -9.07896E+01 -8.95331E+01
  -8.84109E+01 -8.75320E+01 -8.69247E+01 -8.65445E+01 -8.62949E+01 -8.60479E+01 -8.57090E+01 -8.52754E+01 -8.47258E+01 -8.38835E+01
  -8.29360E+01 -8.21567E+01 -8.10049E+01 -7.93370E+01 -7.77609E+01 -7.69379E+01 -7.69977E+01 -7.76574E+01 -7.85165E+01 -7.90031E+01
  -7.88662E+01 -7.82427E+01 -7.74099E+01 -7.65766E+01 -7.57319E+01 -7.38272E+01 -6.90230E+01 -6.43499E+01 -5.88470E+01 -4.85671E+01
  -3.42166E+01 -2.09398E+01 -1.35937E+01 -1.39052E+01 -2.09995E+01 -3.19363E+01 -4.26522E+01 -5.05935E+01 -5.59156E+01 -5.98448E+01
  -6.31670E+01 -6.58885E+01 -6.70050E+01 -6.69975E+01 -6.66434E+01 -6.61438E+01 -6.56464E+01 -6.50836E+01 -6.40940E+01 -6.09962E+01
  -5.45377E+01 -4.91109E+01 -4.14561E+01 -2.77306E+01 -1.05053E+01  3.59837E+00  9.93039E+00  7.54203E+00 -2.14504E+00 -1.50943E+01
  -2.65108E+01 -3.46511E+01 -4.07973E+01 -4.65237E+01 -5.24129E+01 -5.74269E+01 -5.98354E+01 -6.01986E+01 -5.92499E+01 -5.76383E+01
  -5.60928E+01 -5.51171E+01 -5.47972E+01 -5.49465E+01 -5.53813E+01 -5.58782E+01 -5.63179E+01 -5.67699E+01 -5.72574E+01 -5.77114E+01
  -5.81548E+01 -5.85352E+01 -5.88079E+01 -5.89861E+01 -5.91637E+01 -5.91330E+01 -5.90394E+01 -5.92304E+01 -5.97244E+01 -6.04851E+01
  -6.09642E+01 -6.07236E+01 -5.99794E+01 -5.93113E+01 -5.91502E+01 -5.96105E+01 -6.04844E+01 -6.13871E+01 -6.20270E+01 -6.24154E+01
  -6.26322E+01 -6.27803E+01 -6.32957E+01 -6.40772E+01 -6.46440E+01 -6.44853E+01 -6.37205E+01 -6.28827E+01 -6.24268E+01 -6.23718E+01
  -6.24648E+01 -6.21849E+01 -6.15458E+01 -6.08533E+01 -6.00560E+01 -5.88752E+01 -5.70555E+01 -5.44748E+01 -5.13656E+01 -4.84599E+01
  -4.65760E+01 -4.62320E+01 -4.67008E+01 -4.74892E+01 -4.85379E+01 -4.95769E+01 -5.00624E+01 -4.95581E+01 -4.82750E+01 -4.63668E+01
  -4.40739E+01 -4.18213E+01 -4.02369E+01 -3.99502E+01 -4.06166E+01 -4.23867E+01 -4.52041E+01 -4.79976E+01 -4.98006E+01 -4.99208E+01
  -4.89206E+01 -4.66652E+01 -4.26822E+01 -3.78803E+01 -3.40731E+01 -3.27072E+01 -3.38661E+01 -3.67733E+01 -4.08970E+01 -4.55461E+01
  -4.87681E+01 -4.93161E+01 -4.72857E+01 -4.34593E+01 -3.90207E+01 -3.48521E+01 -3.17411E+01 -3.02400E+01 -3.00349E+01 -3.02476E+01
  -2.99429E+01 -2.90222E+01 -2.77560E+01 -2.59825E+01 -2.36574E+01 -2.15146E+01 -2.02773E+01 -1.98784E+01 -2.02599E+01 -2.12259E+01
  -2.23215E+01 -2.25488E+01 -2.13491E+01 -1.89440E+01 -1.59095E+01 -1.28690E+01 -1.02639E+01 -8.35812E+00 -6.66862E+00 -4.56111E+00
  -2.44124E+00  6.81184E-01  6.72363E+00  1.92280E+01  3.24796E+01  4.22032E+01  5.75316E+01  8.09983E+01  1.04346E+02  1.17373E+02
   1.15665E+02  9.98266E+01  7.45264E+01  4.79309E+01  2.69906E+01  1.26980E+01  2.12494E+00 -6.93591E+00 -1.50267E+01 -2.01469E+01
  -2.18487E+01 -2.24060E+01 -2.25292E+01 -2.24888E+01 -2.25256E+01 -2.27689E+01 -2.32031E+01 -2.37873E+01 -2.44209E+01 -2.50091E+01
  -2.55033E+01 -2.58925E+01 -2.61491E+01 -2.62657E+01 -2.62860E+01 -2.62476E+01 -2.61727E+01 -2.60775E+01 -2.59510E+01 -2.57777E+01
  -2.55673E+01 -2.53350E+01 -2.50906E+01 -2.48359E+01 -2.45779E+01 -2.43134E+01 -2.40348E+01 -2.37397E+01 -2.34290E+01 -2.31074E+01
  -2.27834E+01 -2.24666E+01 -2.21705E+01 -2.19089E+01 -2.16873E+01 -2.15073E+01 -2.13686E+01 -2.12698E+01 -2.12098E+01 -2.11828E+01
  -2.11834E+01 -2.12053E+01 -2.12400E+01 -2.12774E+01 -2.13071E+01 -2.13177E+01 -2.12973E+01 -2.12314E+01 -2.10985E+01 -2.08560E+01
  -2.04857E+01 -2.01939E+01 -1.98572E+01 -1.93620E+01 -1.89534E+01 -1.89340E+01 -1.93714E+01 -2.00826E+01 -2.06575E+01 -2.09699E+01
  -2.09991E+01 -2.05378E+01 -1.95319E+01 -1.81774E+01 -1.67808E+01 -1.55821E+01 -1.47101E+01 -1.42766E+01 -1.41949E+01 -1.42474E+01
  -1.43134E+01 -1.43845E+01 -1.44839E+01 -1.46274E+01 -1.47386E+01 -1.47657E+01 -1.47321E+01 -1.46486E+01 -1.45232E+01 -1.43694E+01
  -1.42076E+01 -1.40641E+01 -1.39684E+01 -1.39492E+01 -1.40300E+01 -1.42246E+01 -1.45340E+01 -1.49462E+01 -1.54380E+01 -1.59787E+01
  -1.65353E+01 -1.70768E+01 -1.75781E+01 -1.80217E+01 -1.83987E+01 -1.87075E+01 -1.89526E+01 -1.91415E+01 -1.92829E+01 -1.93847E+01
  -1.94534E+01 -1.94939E+01 -1.95089E+01 -1.94992E+01 -1.94641E+01 -1.94014E+01 -1.93088E+01 -1.91837E+01 -1.90235E+01 -1.88254E+01
  -1.85871E+01 -1.83066E+01 -1.79828E+01 -1.76154E+01 -1.72048E+01 -1.67518E+01 -1.62586E+01 -1.57280E+01 -1.51643E+01 -1.45728E+01
  -1.39598E+01 -1.33324E+01 -1.26987E+01 -1.20679E+01 -1.14498E+01 -1.08548E+01 -1.02932E+01 -9.77510E+00 -9.31022E+00 -8.90768E+00
  -8.57548E+00 -8.32008E+00 -8.14607E+00 -8.05615E+00 -8.05111E+00 -8.12979E+00 -8.28899E+00 -8.52345E+00 -8.82622E+00 -9.18916E+00
  -9.60317E+00 -1.00585E+01 -1.05449E+01 -1.10520E+01 -1.15698E+01 -1.20888E+01 -1.26007E+01 -1.30980E+01 -1.35743E+01 -1.40241E+01
  -1.44433E+01 -1.48290E+01 -1.51794E+01 -1.54936E+01 -1.57711E+01 -1.60126E+01 -1.62189E+01 -1.63917E+01 -1.65329E+01 -1.66445E+01
  -1.67284E+01 -1.67868E+01 -1.68218E+01 -1.68356E+01 -1.68304E+01 -1.68080E+01 -1.67700E+01 -1.67182E+01 -1.66540E+01 -1.65790E+01
  -1.64946E+01 -1.64018E+01 -1.63015E+01 -1.61948E+01 -1.60827E+01 -1.59660E+01 -1.58454E+01 -1.57216E+01 -1.55951E+01 -1.54665E+01
  -1.53364E+01 -1.52055E+01 -1.50739E+01 -1.49421E+01 -1.48101E+01 -1.46783E+01 -1.45469E+01 -1.44160E+01 -1.42856E+01 -1.41557E+01
  -1.40264E+01 -1.38980E+01 -1.37704E+01 -1.36438E+01 -1.35179E+01 -1.33929E+01 -1.32688E+01 -1.31457E+01 -1.30237E+01 -1.29025E+01
  -1.27822E+01 -1.26628E+01 -1.25444E+01 -1.24269E+01 -1.23103E+01 -1.21945E+01 -1.20794E+01 -1.19651E+01 -1.18517E+01 -1.17390E+01
  -1.16270E+01 -1.15156E+01 -1.14046E+01 -1.12942E+01 -1.11844E+01 -1.10752E+01 -1.09662E+01 -1.08575E+01 -1.07490E+01 -1.06407E+01
  -1.05327E+01 -1.04248E+01 -1.03167E+01 -1.02085E+01 -1.01002E+01 -9.99160E+00 -9.88272E+00 -9.77335E+00
 NY background values follow
    -1.576E+02   -1.565E+02   -1.555E+02   -1.544E+02   -1.533E+02   -1.523E+02   -1.512E+02   -1.501E+02   -1.491E+02   -1.480E+02
    -1.470E+02   -1.459E+02   -1.449E+02   -1.438E+02   -1.428E+02   -1.417E+02   -1.407E+02   -1.396E+02   -1.386E+02   -1.376E+02
    -1.366E+02   -1.355E+02   -1.345E+02   -1.335E+02   -1.325E+02   -1.315E+02   -1.305E+02   -1.295E+02   -1.285E+02   -1.275E+02
    -1.265E+02   -1.256E+02   -1.246E+02   -1.236E+02   -1.227E+02   -1.217E+02   -1.208E+02   -1.199E+02   -1.189E+02   -1.180E+02
    -1.171E+02   -1.162E+02   -1.153E+02   -1.144E+02   -1.135E+02   -1.126E+02   -1.117E+02   -1.109E+02   -1.100E+02   -1.092E+02
    -1.083E+02   -1.075E+02   -1.067E+02   -1.059E+02   -1.051E+02   -1.043E+02   -1.035E+02   -1.027E+02   -1.019E+02   -1.011E+02
    -1.004E+02   -9.961E+01   -9.886E+01   -9.812E+01   -9.739E+01   -9.666E+01   -9.595E+01   -9.524E+01   -9.454E+01   -9.384E+01
    -9.316E+01   -9.248E+01   -9.181E+01   -9.115E+01   -9.049E+01   -8.985E+01   -8.921E+01   -8.857E+01   -8.795E+01   -8.733E+01
    -8.672E+01   -8.612E+01   -8.553E+01   -8.494E+01   -8.436E+01   -8.379E+01   -8.323E+01   -8.267E+01   -8.212E+01   -8.158E+01
    -8.104E+01   -8.052E+01   -8.000E+01   -7.949E+01   -7.898E+01   -7.848E+01   -7.800E+01   -7.751E+01   -7.704E+01   -7.657E+01
    -7.611E+01   -7.565E+01   -7.521E+01   -7.477E+01   -7.433E+01   -7.391E+01   -7.349E+01   -7.308E+01   -7.267E+01   -7.227E+01
    -7.188E+01   -7.149E+01   -7.111E+01   -7.074E+01   -7.038E+01   -7.002E+01   -6.966E+01   -6.932E+01   -6.898E+01   -6.864E+01
    -6.831E+01   -6.799E+01   -6.768E+01   -6.737E+01   -6.706E+01   -6.677E+01   -6.647E+01   -6.619E+01   -6.591E+01   -6.564E+01
    -6.537E+01   -6.511E+01   -6.485E+01   -6.460E+01   -6.435E+01   -6.411E+01   -6.388E+01   -6.365E+01   -6.343E+01   -6.321E+01
    -6.300E+01   -6.279E+01   -6.258E+01   -6.238E+01   -6.219E+01   -6.199E+01   -6.180E+01   -6.162E+01   -6.143E+01   -6.125E+01
    -6.107E+01   -6.090E+01   -6.072E+01   -6.055E+01   -6.038E+01   -6.021E+01   -6.004E+01   -5.987E+01   -5.971E+01   -5.954E+01
    -5.937E+01   -5.921E+01   -5.904E+01   -5.887E+01   -5.871E+01   -5.854E+01   -5.837E+01   -5.820E+01   -5.803E+01   -5.785E+01
    -5.768E+01   -5.750E+01   -5.732E+01   -5.713E+01   -5.695E+01   -5.676E+01   -5.656E+01   -5.637E+01   -5.617E+01   -5.596E+01
    -5.575E+01   -5.554E+01   -5.532E+01   -5.510E+01   -5.487E+01   -5.464E+01   -5.440E+01   -5.416E+01   -5.392E+01   -5.367E+01
    -5.342E+01   -5.317E+01   -5.291E+01   -5.265E+01   -5.238E+01   -5.212E+01   -5.185E+01   -5.157E+01   -5.130E+01   -5.102E+01
    -5.074E+01   -5.045E+01   -5.017E+01   -4.988E+01   -4.959E+01   -4.930E+01   -4.901E+01   -4.871E+01   -4.841E+01   -4.812E+01
    -4.782E+01   -4.752E+01   -4.722E+01   -4.692E+01   -4.661E+01   -4.631E+01   -4.601E+01   -4.570E+01   -4.540E+01   -4.509E+01
    -4.479E+01   -4.448E+01   -4.418E+01   -4.388E+01   -4.357E+01   -4.327E+01   -4.297E+01   -4.267E+01   -4.237E+01   -4.207E+01
    -4.177E+01   -4.147E+01   -4.118E+01   -4.088E+01   -4.059E+01   -4.030E+01   -4.001E+01   -3.972E+01   -3.944E+01   -3.916E+01
    -3.887E+01   -3.860E+01   -3.832E+01   -3.805E+01   -3.778E+01   -3.751E+01   -3.724E+01   -3.698E+01   -3.672E+01   -3.647E+01
    -3.621E+01   -3.596E+01   -3.572E+01   -3.548E+01   -3.524E+01   -3.500E+01   -3.477E+01   -3.455E+01   -3.433E+01   -3.411E+01
    -3.389E+01   -3.369E+01   -3.348E+01   -3.328E+01   -3.309E+01   -3.290E+01   -3.271E+01   -3.253E+01   -3.236E+01   -3.219E+01
    -3.202E+01   -3.186E+01   -3.171E+01   -3.156E+01   -3.142E+01   -3.129E+01   -3.115E+01   -3.103E+01   -3.091E+01   -3.079E+01
    -3.068E+01   -3.057E+01   -3.047E+01   -3.037E+01   -3.027E+01   -3.018E+01   -3.010E+01   -3.002E+01   -2.994E+01   -2.986E+01
    -2.979E+01   -2.972E+01   -2.965E+01   -2.959E+01   -2.953E+01   -2.948E+01   -2.942E+01   -2.937E+01   -2.932E+01   -2.928E+01
    -2.923E+01   -2.919E+01   -2.915E+01   -2.911E+01   -2.907E+01   -2.904E+01   -2.901E+01   -2.897E+01   -2.894E+01   -2.891E+01
    -2.888E+01   -2.885E+01   -2.883E+01   -2.880E+01   -2.877E+01   -2.875E+01   -2.872E+01   -2.870E+01   -2.867E+01   -2.864E+01
    -2.862E+01   -2.859E+01   -2.857E+01   -2.854E+01   -2.851E+01   -2.849E+01   -2.846E+01   -2.844E+01   -2.841E+01   -2.838E+01
    -2.836E+01   -2.833E+01   -2.830E+01   -2.827E+01   -2.825E+01   -2.822E+01   -2.819E+01   -2.816E+01   -2.813E+01   -2.810E+01
    -2.807E+01   -2.804E+01   -2.801E+01   -2.798E+01   -2.795E+01   -2.791E+01   -2.788E+01   -2.785E+01   -2.781E+01   -2.778E+01
    -2.774E+01   -2.770E+01   -2.767E+01   -2.763E+01   -2.759E+01   -2.755E+01   -2.751E+01   -2.747E+01   -2.743E+01   -2.739E+01
    -2.734E+01   -2.730E+01   -2.725E+01   -2.721E+01   -2.716E+01   -2.711E+01   -2.706E+01   -2.701E+01   -2.696E+01   -2.691E+01
    -2.685E+01   -2.679E+01   -2.674E+01   -2.668E+01   -2.662E+01   -2.655E+01   -2.649E+01   -2.642E+01   -2.635E+01   -2.628E+01
    -2.621E+01   -2.614E+01   -2.606E+01   -2.598E+01   -2.590E+01   -2.582E+01   -2.573E+01   -2.564E+01   -2.555E+01   -2.546E+01
    -2.536E+01   -2.527E+01   -2.516E+01   -2.506E+01   -2.495E+01   -2.484E+01   -2.473E+01   -2.461E+01   -2.449E+01   -2.437E+01
    -2.424E+01   -2.411E+01   -2.398E+01   -2.384E+01   -2.370E+01   -2.356E+01   -2.341E+01   -2.326E+01   -2.311E+01   -2.295E+01
    -2.279E+01   -2.262E+01   -2.245E+01   -2.228E+01   -2.211E+01   -2.193E+01   -2.175E+01   -2.157E+01   -2.139E+01   -2.120E+01
    -2.101E+01   -2.082E+01   -2.063E+01   -2.044E+01   -2.024E+01   -2.005E+01   -1.985E+01   -1.965E+01   -1.945E+01   -1.925E+01
    -1.905E+01   -1.885E+01   -1.865E+01   -1.845E+01   -1.825E+01   -1.805E+01   -1.785E+01   -1.766E+01   -1.746E+01   -1.726E+01
    -1.706E+01   -1.687E+01   -1.667E+01   -1.648E+01   -1.629E+01   -1.610E+01   -1.591E+01   -1.573E+01   -1.554E+01   -1.536E+01
    -1.518E+01   -1.500E+01   -1.483E+01   -1.466E+01   -1.449E+01   -1.433E+01   -1.416E+01   -1.400E+01   -1.385E+01   -1.369E+01
    -1.354E+01   -1.339E+01   -1.324E+01   -1.309E+01   -1.295E+01   -1.281E+01   -1.267E+01   -1.253E+01   -1.239E+01   -1.226E+01
    -1.213E+01   -1.200E+01   -1.187E+01   -1.174E+01   -1.161E+01   -1.149E+01   -1.137E+01   -1.125E+01   -1.113E+01   -1.101E+01
    -1.089E+01   -1.077E+01   -1.066E+01   -1.054E+01   -1.043E+01   -1.032E+01   -1.021E+01   -1.010E+01   -9.986E+00   -9.877E+00
    -9.768E+00   -9.660E+00   -9.552E+00   -9.445E+00   -9.338E+00   -9.232E+00   -9.126E+00   -9.020E+00
 Ala      Conc. = 2.06E+02
