 LCModel (Version 6.3-1L) Copyright: S.W. Provencher.          Ref.: Magn. Reson. Med. 30:672-679 (1993).                
 Slice#2 Row#3 Col#7  PD_05_press_2_raw_act
 36 lines in following concentration table = NCONC+1
    Conc.  %SD /Cr+PCr  Metabolite                                         
  884.598  45%   0.433 Ala                                                 
  210.812 219%   0.103 Asp                                                 
 1.01E+03  60%   0.495 Cr                                                  
 1.03E+03  59%   0.505 PCr                                                 
  310.516  92%   0.152 GABA                                                
  102.130 279% 5.0E-02 Glc                                                 
 1.07E+03  75%   0.523 Gln                                                 
 2.68E+03  34%   1.312 Glu                                                 
  799.363   9%   0.391 GPC                                                 
    0.000 999%   0.000 PCh                                                 
  509.042  50%   0.249 GSH                                                 
 2.44E+03  35%   1.197 Ins                                                 
    0.000 999%   0.000 Lac                                                 
 1.99E+03  14%   0.974 NAA                                                 
 1.34E+03  22%   0.657 NAAG                                                
   18.336 387% 9.0E-03 Scyllo                                              
    0.000 999%   0.000 Tau                                                 
    0.000 999%   0.000 -CrCH2                                              
  799.363   9%   0.391 GPC+PCh                                             
 3.33E+03   8%   1.631 NAA+NAAG                                            
 2.04E+03   9%   1.000 Cr+PCr                                              
 3.75E+03  34%   1.835 Glu+Gln                                             
   63.870 999% 3.1E-02 Lip13a                                              
    0.000 999%   0.000 Lip13b                                              
   10.153 999% 5.0E-03 Lip09                                               
 3.44E+03  18%   1.686 MM09                                                
    7.755 999% 3.8E-03 Lip20                                               
 5.59E+03  20%   2.736 MM20                                                
 1.12E+03  40%   0.546 MM12                                                
 4.26E+03  21%   2.087 MM14                                                
 2.63E+03  23%   1.287 MM17                                                
   63.870 999% 3.1E-02 Lip13a+Lip13b                                       
 5.44E+03  19%   2.664 MM14+Lip13a+Lip13b+MM12                             
 3.45E+03  16%   1.691 MM09+Lip09                                          
 5.60E+03  19%   2.740 MM20+Lip20                                          
   6 lines in following misc. output table
  FWHM = 0.054 ppm    S/N =   4                                            
  Data shift = 0.046 ppm                                                   
  Ph:  27 deg      21.3 deg/ppm                                            
  alphaB,S = 1.6E+00,   7.4E+01                                            
   14 spline knots.   Ns = 7(1)                                            
  (10) 2 infls.   ( 7) 1 extrs.                                            
  498 points on ppm-axis = NY
      4.000000     3.992357     3.984714     3.977070     3.969427     3.961784     3.954141     3.946497     3.938854     3.931211
      3.923568     3.915925     3.908281     3.900638     3.892995     3.885352     3.877708     3.870065     3.862422     3.854779
      3.847136     3.839492     3.831849     3.824206     3.816563     3.808919     3.801276     3.793633     3.785990     3.778347
      3.770703     3.763060     3.755417     3.747774     3.740130     3.732487     3.724844     3.717201     3.709558     3.701914
      3.694271     3.686628     3.678985     3.671341     3.663698     3.656055     3.648412     3.640769     3.633125     3.625482
      3.617839     3.610196     3.602552     3.594909     3.587266     3.579623     3.571980     3.564336     3.556693     3.549050
      3.541407     3.533763     3.526120     3.518477     3.510834     3.503191     3.495547     3.487904     3.480261     3.472618
      3.464974     3.457331     3.449688     3.442045     3.434402     3.426758     3.419115     3.411472     3.403829     3.396185
      3.388542     3.380899     3.373256     3.365613     3.357969     3.350326     3.342683     3.335040     3.327396     3.319753
      3.312110     3.304467     3.296824     3.289180     3.281537     3.273894     3.266251     3.258607     3.250964     3.243321
      3.235678     3.228034     3.220391     3.212748     3.205105     3.197462     3.189818     3.182175     3.174532     3.166889
      3.159245     3.151602     3.143959     3.136316     3.128673     3.121029     3.113386     3.105743     3.098100     3.090456
      3.082813     3.075170     3.067527     3.059884     3.052240     3.044597     3.036954     3.029311     3.021667     3.014024
      3.006381     2.998738     2.991095     2.983451     2.975808     2.968165     2.960522     2.952878     2.945235     2.937592
      2.929949     2.922306     2.914662     2.907019     2.899376     2.891733     2.884089     2.876446     2.868803     2.861160
      2.853517     2.845873     2.838230     2.830587     2.822944     2.815300     2.807657     2.800014     2.792371     2.784728
      2.777084     2.769441     2.761798     2.754155     2.746511     2.738868     2.731225     2.723582     2.715939     2.708295
      2.700652     2.693009     2.685366     2.677722     2.670079     2.662436     2.654793     2.647150     2.639506     2.631863
      2.624220     2.616577     2.608933     2.601290     2.593647     2.586004     2.578361     2.570717     2.563074     2.555431
      2.547788     2.540144     2.532501     2.524858     2.517215     2.509572     2.501928     2.494285     2.486642     2.478999
      2.471355     2.463712     2.456069     2.448426     2.440783     2.433139     2.425496     2.417853     2.410210     2.402566
      2.394923     2.387280     2.379637     2.371994     2.364350     2.356707     2.349064     2.341421     2.333777     2.326134
      2.318491     2.310848     2.303205     2.295561     2.287918     2.280275     2.272632     2.264988     2.257345     2.249702
      2.242059     2.234416     2.226772     2.219129     2.211486     2.203843     2.196199     2.188556     2.180913     2.173270
      2.165627     2.157983     2.150340     2.142697     2.135054     2.127410     2.119767     2.112124     2.104481     2.096838
      2.089194     2.081551     2.073908     2.066265     2.058621     2.050978     2.043335     2.035692     2.028049     2.020405
      2.012762     2.005119     1.997476     1.989833     1.982190     1.974546     1.966903     1.959260     1.951617     1.943974
      1.936331     1.928688     1.921045     1.913402     1.905759     1.898115     1.890472     1.882829     1.875186     1.867543
      1.859900     1.852257     1.844614     1.836971     1.829327     1.821684     1.814041     1.806398     1.798755     1.791112
      1.783469     1.775826     1.768183     1.760540     1.752896     1.745253     1.737610     1.729967     1.722324     1.714681
      1.707038     1.699395     1.691752     1.684108     1.676465     1.668822     1.661179     1.653536     1.645893     1.638250
      1.630607     1.622964     1.615321     1.607677     1.600034     1.592391     1.584748     1.577105     1.569462     1.561819
      1.554176     1.546533     1.538890     1.531246     1.523603     1.515960     1.508317     1.500674     1.493031     1.485388
      1.477745     1.470102     1.462458     1.454815     1.447172     1.439529     1.431886     1.424243     1.416600     1.408957
      1.401314     1.393671     1.386027     1.378384     1.370741     1.363098     1.355455     1.347812     1.340169     1.332526
      1.324883     1.317240     1.309596     1.301953     1.294310     1.286667     1.279024     1.271381     1.263738     1.256095
      1.248452     1.240808     1.233165     1.225522     1.217879     1.210236     1.202593     1.194950     1.187307     1.179664
      1.172021     1.164377     1.156734     1.149091     1.141448     1.133805     1.126162     1.118519     1.110876     1.103233
      1.095590     1.087946     1.080303     1.072660     1.065017     1.057374     1.049731     1.042088     1.034445     1.026802
      1.019158     1.011515     1.003872     0.996229     0.988586     0.980943     0.973300     0.965657     0.958014     0.950371
      0.942727     0.935084     0.927441     0.919798     0.912155     0.904512     0.896869     0.889226     0.881583     0.873940
      0.866296     0.858653     0.851010     0.843367     0.835724     0.828081     0.820438     0.812795     0.805152     0.797508
      0.789865     0.782222     0.774579     0.766936     0.759293     0.751650     0.744007     0.736364     0.728721     0.721077
      0.713434     0.705791     0.698148     0.690505     0.682862     0.675219     0.667576     0.659933     0.652290     0.644646
      0.637003     0.629360     0.621717     0.614074     0.606431     0.598788     0.591145     0.583502     0.575858     0.568215
      0.560572     0.552929     0.545286     0.537643     0.530000     0.522357     0.514714     0.507071     0.499427     0.491784
      0.484141     0.476498     0.468855     0.461212     0.453569     0.445925     0.438282     0.430639     0.422996     0.415353
      0.407710     0.400067     0.392424     0.384780     0.377137     0.369494     0.361851     0.354208     0.346565     0.338922
      0.331278     0.323635     0.315992     0.308349     0.300706     0.293063     0.285420     0.277777     0.270133     0.262490
      0.254847     0.247204     0.239561     0.231918     0.224275     0.216631     0.208988     0.201345
 NY phased data points follow
   1.26742E+02  1.15964E+02  1.19431E+02  9.15554E+01  1.22445E+02  8.43400E+01  1.25697E+02  1.29410E+02  1.34090E+02  1.22719E+02
   1.39623E+02  1.44441E+02  1.33941E+02  1.07282E+02  1.16921E+02  1.10270E+02  1.28276E+02  8.11755E+01  9.97299E+01  9.07190E+01
   1.00326E+02  1.12504E+02  1.02469E+02  9.85527E+01  1.22336E+02  8.55985E+01  1.02510E+02  7.50518E+01  8.20976E+01  7.81249E+01
   9.93660E+01  7.24640E+01  1.16428E+02  9.11055E+01  7.73171E+01  5.97415E+01  7.38096E+01  7.68911E+01  9.81659E+01  8.09392E+01
   6.60490E+01  7.08485E+01  8.29165E+01  7.39227E+01  7.88745E+01  9.56066E+01  9.79204E+01  8.32865E+01  1.05156E+02  7.16624E+01
   8.84802E+01  6.54723E+01  7.48788E+01  7.35510E+01  7.10437E+01  5.45273E+01  8.20869E+01  7.62902E+01  6.68025E+01  7.25429E+01
   8.27207E+01  7.69840E+01  7.11367E+01  6.36351E+01  6.48633E+01  6.39294E+01  7.26683E+01  5.38521E+01  3.82676E+01  2.82640E+01
   5.52303E+01  4.91336E+01  3.92991E+01  5.46118E+01  4.63289E+01  3.62543E+01  7.99945E+01  4.84494E+01  4.58928E+01  4.75799E+01
   5.11189E+01  3.76568E+01  5.19124E+01  5.38120E+01  6.17242E+01  3.45808E+01  5.28870E+01  3.07606E+01  4.77008E+01  3.59395E+01
   5.91398E+01  3.90712E+01  6.06847E+01  3.60426E+01  6.13971E+01  4.89521E+01  5.57742E+01  5.26077E+01  4.18954E+01  6.38612E+01
   9.24256E+01  1.08909E+02  1.28875E+02  1.18439E+02  1.11068E+02  1.01735E+02  9.03597E+01  5.31463E+01  6.92057E+01  3.80428E+01
   4.96574E+01  5.23863E+01  5.79018E+01  4.95350E+01  4.08969E+01  5.15184E+01  4.46767E+01  4.99725E+01  6.02659E+01  2.04696E+01
   4.00753E+01  2.49306E+01  4.14357E+01  5.14570E+01  7.52366E+01  9.01018E+01  9.30414E+01  1.07550E+02  9.65194E+01  8.71439E+01
   7.94677E+01  7.34969E+01  7.46551E+01  4.37855E+01  5.06603E+01  3.96017E+01  4.39090E+01  2.49574E+01  6.18891E+01  3.44598E+01
   5.53154E+01  3.31323E+01  3.53587E+01  1.69560E+01  3.74747E+01  3.35637E+01  2.82869E+01  3.28520E+01  1.95396E+01  2.98798E+01
   3.84348E+01  2.54258E+01  2.82555E+01  2.05148E+01  3.93901E+01  3.25681E+00  2.27812E+01  3.52743E+01  3.53311E+01 -5.45119E+00
   8.98629E+00  1.02159E+01  2.36454E+01  5.37420E-01  2.72877E+01  3.85281E+01  3.05896E+01  4.26221E+00  1.90414E+01  1.10957E+01
   9.35006E-01  1.64509E+01  2.48178E+01  2.40668E+00  7.64567E+00  1.86096E+00  2.12394E+01  1.83206E+01  5.07126E+00 -1.39016E+01
   5.76398E+00 -9.38452E+00  7.00893E+00 -2.11160E+01 -9.32304E+00  1.59774E+00 -4.06039E+00 -8.41078E-01  1.84389E+01  6.22874E-01
   7.12264E+00  1.42297E+01  1.86956E+00  1.26000E+01  1.71800E+01  9.53221E+00  2.02301E+01  3.25939E-01 -5.67520E+00 -9.28044E+00
   9.34811E+00  6.71473E-01  1.99377E+00  2.62786E+01  1.83595E+01  9.19792E+00 -1.43577E+01  1.56621E+01 -2.52933E+00 -3.32998E+00
   1.11717E-01 -1.25976E+01 -2.21585E+00  5.66215E+00  4.07932E+01  2.24860E+01  1.89575E+01  2.05684E+01  2.42052E+01  1.31250E+01
  -6.88284E+00  4.16711E+00  4.33740E+00 -1.50279E+01 -7.08815E-01  2.00805E+01  1.40931E+01  1.13407E+00 -8.26279E+00  8.25628E+00
   8.86383E+00  3.62898E+00 -2.26211E+00  1.61663E+01 -1.30881E+01  2.38246E+01  1.78832E+01  1.60515E+01  7.47844E+00 -1.30971E+01
   3.05476E+01  2.77306E+01  1.30812E+01 -6.67012E+00  2.91525E+01  3.27334E+01  3.40997E+01  2.82755E+01  2.66175E+01  3.14068E+01
   5.13521E+01  3.76099E+01  6.20445E+01  4.70062E+01  7.84389E+01  5.68992E+01  7.39456E+01  8.04548E+01  1.27049E+02  1.23674E+02
   9.73346E+01  9.94307E+01  6.86453E+01  7.45206E+01  4.81545E+01  2.08177E+01  3.00440E+01  1.44638E+01 -1.64162E+00 -7.87935E-01
  -6.19981E+00  2.42101E+00  1.91211E+00  1.48469E+01 -1.32635E+00 -1.42101E+01 -1.16025E+01 -3.04019E+00  1.16726E+01 -1.45500E+01
  -3.76800E+00  4.01719E+00 -5.47117E+00 -1.38710E+01 -9.33715E+00  1.62620E-01  5.79540E+00 -2.21975E+01 -1.33116E+01  1.40906E+01
  -3.73424E+00 -1.95122E+01  1.43007E+01 -2.01452E+01  2.03707E+01 -3.45380E+00  1.91193E+00  3.34698E+00  1.05161E+01 -1.64878E+00
   2.38244E+01 -1.10414E+01  3.94831E+01  2.00965E+01 -1.29631E+01  4.97599E+00  1.41682E+01  4.57927E+00  1.79740E+01  9.28897E+00
   1.43931E+01  9.87772E-01  1.22682E+01  9.22869E+00  1.53342E+01  1.43983E+01  1.25036E+01  1.85008E+01  1.20825E+01 -8.72919E+00
   4.62709E+00  2.71529E+01  1.04077E+01  8.24521E+00  2.00581E+01 -4.08712E+00  3.42039E+01 -4.62738E+00  6.74072E+00  9.24844E+00
   1.19699E+01 -1.39444E+01  1.57576E+01 -2.83615E+01  6.79684E+00  9.26395E+00  4.09421E+00  1.22987E+01  1.23796E+01 -1.60681E+00
   6.98339E+00  1.57478E+00  4.59973E+00  1.65339E+01  3.29414E+01  1.44965E+01  1.99007E+01  2.85852E+01  1.89020E+01  6.21883E-01
   8.77786E+00  6.24174E+00 -1.92745E+00  1.47898E+01 -1.84400E+00 -9.49245E+00  1.38477E+01 -5.30101E+00 -1.75557E+01 -7.41591E-01
  -1.42451E+01 -2.32139E+01 -1.22492E+01 -1.24043E+01 -1.73103E+00 -2.46634E+00 -1.45205E+00 -1.21313E+01 -1.59198E+01 -1.15106E+01
   3.26724E+00 -9.48381E+00 -8.78882E+00  9.64613E+00 -2.36114E+00  1.44844E+01  8.61180E+00 -1.04847E+01 -1.43412E+01  5.34383E-01
   6.55348E+00  3.78343E+00  1.87378E+01 -1.24697E+00 -7.52227E+00 -1.86008E+01 -4.14226E+00  4.41756E+00 -1.85617E+00 -3.18200E+00
   1.34616E+01 -2.40886E+01 -1.55122E+01 -1.74391E+01  5.02672E+00  6.65476E+00  1.99545E+01  8.03740E+00  4.41540E+00  1.48712E+00
   3.22965E+00  5.21627E+00  2.56952E+00  3.71953E+00  1.71735E+01  1.03726E+01  1.20551E+01 -1.61720E+01  7.00019E+00  9.38749E+00
   1.04643E+01  5.12667E+00  4.41734E+00 -2.92999E+00 -1.25011E+01 -1.21519E+01 -1.84876E+01 -9.36830E+00 -8.72102E+00  6.83719E+00
   7.34476E+00 -2.60580E+00 -1.56007E+01 -1.00004E+01  7.20179E+00 -1.01339E+00 -1.05513E+01 -9.26125E+00 -6.17069E+00 -1.73095E+01
  -9.32453E+00 -1.96385E+01 -1.44104E+01 -1.47639E+01 -1.97028E+01 -1.92864E+01 -9.87545E+00 -2.39052E+01  8.49383E+00 -1.25819E+01
  -6.13419E+00  2.04255E+00 -2.00161E+01 -3.26661E-01 -1.49582E+01  5.19982E+00 -1.26992E+01 -1.05018E+01 -1.27673E+01 -2.36547E+01
  -1.99350E+01 -6.72472E+00 -6.56638E+00 -2.58054E+01 -4.42351E+01 -3.18145E+01 -2.92823E+01  3.59957E+00 -2.42887E+01 -2.12502E+00
  -1.16497E+01 -3.02117E+01 -9.08829E+00 -2.14861E+01 -1.80463E+01 -2.00604E+01  7.46217E+00 -2.41907E+01 -2.30833E+00 -2.21087E+01
  -1.94702E+01 -1.94906E+01 -2.12600E+01 -9.51554E+00 -2.18427E+00 -2.40347E+01 -1.15413E+01 -3.41454E+01 -7.17686E+00 -2.38119E+01
  -6.77886E+00 -1.08187E+01 -1.82509E+01 -5.15068E+00 -2.27730E+01 -3.07124E+01 -5.08686E+00 -1.57666E+01  1.23459E+01 -2.78890E+01
  -2.16773E+01 -1.93779E+01 -1.05648E+01 -3.66162E+01 -2.55142E+01 -3.06946E+01 -3.35382E+00 -8.82277E+00
 NY points of the fit to the data follow
   9.55022E+01  9.44441E+01  9.43466E+01  9.53733E+01  9.79379E+01  1.02747E+02  1.09694E+02  1.17861E+02  1.25605E+02  1.31016E+02
   1.32797E+02  1.30719E+02  1.25628E+02  1.18853E+02  1.11562E+02  1.04511E+02  9.82894E+01  9.33459E+01  9.00178E+01  8.80984E+01
   8.71518E+01  8.69232E+01  8.66862E+01  8.59321E+01  8.44846E+01  8.29219E+01  8.22712E+01  8.31106E+01  8.52593E+01  8.80770E+01
   9.09020E+01  9.30162E+01  9.36737E+01  9.25217E+01  8.99306E+01  8.66540E+01  8.32967E+01  8.01601E+01  7.75936E+01  7.60089E+01
   7.53754E+01  7.56278E+01  7.69051E+01  7.94612E+01  8.31432E+01  8.69669E+01  8.95573E+01  8.99633E+01  8.81757E+01  8.48550E+01
   8.07022E+01  7.64205E+01  7.26739E+01  6.98154E+01  6.79003E+01  6.70028E+01  6.71817E+01  6.82094E+01  6.94211E+01  7.01039E+01
   6.98654E+01  6.87149E+01  6.69407E+01  6.49622E+01  6.32015E+01  6.19528E+01  6.12792E+01  6.11035E+01  6.13621E+01  6.19084E+01
   6.24466E+01  6.27102E+01  6.25540E+01  6.20228E+01  6.12373E+01  6.02972E+01  5.93062E+01  5.83470E+01  5.74553E+01  5.66275E+01
   5.58236E+01  5.50429E+01  5.41590E+01  5.29675E+01  5.13260E+01  4.93159E+01  4.72802E+01  4.56345E+01  4.46513E+01  4.43960E+01
   4.47910E+01  4.56512E+01  4.67328E+01  4.77516E+01  4.84887E+01  4.90706E+01  5.04067E+01  5.37007E+01  6.10283E+01  7.42458E+01
   9.16584E+01  1.07955E+02  1.17597E+02  1.18556E+02  1.12476E+02  1.02095E+02  8.94943E+01  7.65481E+01  6.50611E+01  5.58793E+01
   4.88969E+01  4.39525E+01  4.16079E+01  4.09059E+01  4.05598E+01  4.02893E+01  4.00099E+01  3.97342E+01  3.95493E+01  3.96764E+01
   4.08054E+01  4.38515E+01  5.01726E+01  6.14078E+01  7.67986E+01  9.22680E+01  1.02842E+02  1.05958E+02  1.02441E+02  9.45617E+01
   8.41632E+01  7.26591E+01  6.15082E+01  5.16910E+01  4.35352E+01  3.72401E+01  3.35109E+01  3.21326E+01  3.17982E+01  3.19145E+01
   3.21320E+01  3.22281E+01  3.21278E+01  3.18102E+01  3.12451E+01  3.04805E+01  2.95899E+01  2.86211E+01  2.76260E+01  2.66195E+01
   2.55842E+01  2.45609E+01  2.36335E+01  2.29145E+01  2.24471E+01  2.21399E+01  2.17636E+01  2.11238E+01  2.02338E+01  1.92762E+01
   1.84920E+01  1.79796E+01  1.76252E+01  1.72302E+01  1.66828E+01  1.59774E+01  1.51725E+01  1.44110E+01  1.38286E+01  1.34238E+01
   1.30553E+01  1.25449E+01  1.18026E+01  1.09681E+01  1.02989E+01  9.89764E+00  9.66272E+00  9.39461E+00  8.98930E+00  8.55422E+00
   8.30904E+00  8.34138E+00  8.55188E+00  8.82857E+00  9.21411E+00  9.87196E+00  1.09420E+01  1.23734E+01  1.38994E+01  1.51338E+01
   1.56971E+01  1.54050E+01  1.43560E+01  1.28268E+01  1.11112E+01  9.59785E+00  8.71069E+00  8.77063E+00  9.78301E+00  1.14960E+01
   1.35581E+01  1.55827E+01  1.70565E+01  1.73994E+01  1.62908E+01  1.36341E+01  9.65596E+00  5.13894E+00  1.26634E+00 -8.71110E-01
  -7.41406E-01  1.74807E+00  6.26639E+00  1.17306E+01  1.64720E+01  1.89840E+01  1.86528E+01  1.57185E+01  1.07750E+01  4.72608E+00
  -6.78745E-01 -3.73227E+00 -3.88189E+00 -1.66572E+00  1.85848E+00  5.84883E+00  9.40120E+00  1.17495E+01  1.27440E+01  1.28118E+01
   1.26103E+01  1.25023E+01  1.26057E+01  1.30964E+01  1.40604E+01  1.52611E+01  1.62970E+01  1.68248E+01  1.66511E+01  1.58214E+01
   1.46527E+01  1.37295E+01  1.35702E+01  1.42405E+01  1.54537E+01  1.67952E+01  1.80334E+01  1.90553E+01  2.00587E+01  2.17977E+01
   2.51183E+01  3.11923E+01  4.05799E+01  5.23658E+01  6.41526E+01  7.44881E+01  8.46362E+01  9.54170E+01  1.04473E+02  1.07864E+02
   1.03957E+02  9.43371E+01  8.14671E+01  6.70121E+01  5.25574E+01  4.00663E+01  2.98576E+01  2.15424E+01  1.49903E+01  1.08616E+01
   8.89482E+00  7.82856E+00  7.19212E+00  6.73036E+00  6.22162E+00  5.54609E+00  4.72561E+00  3.78938E+00  2.79471E+00  1.83188E+00
   9.94524E-01  3.17278E-01 -2.02574E-01 -5.78558E-01 -8.41128E-01 -1.03090E+00 -1.17981E+00 -1.27687E+00 -1.27658E+00 -1.14418E+00
  -8.81361E-01 -5.05303E-01 -3.62099E-02  5.05471E-01  1.09813E+00  1.72876E+00  2.39428E+00  3.10782E+00  3.88567E+00  4.72348E+00
   5.59936E+00  6.49155E+00  7.36767E+00  8.18773E+00  8.91674E+00  9.52876E+00  1.00063E+01  1.03374E+01  1.05141E+01  1.05432E+01
   1.04366E+01  1.02099E+01  9.88548E+00  9.49039E+00  9.05579E+00  8.61644E+00  8.21045E+00  7.88046E+00  7.67772E+00  7.67581E+00
   8.00327E+00  8.76699E+00  1.00240E+01  1.17268E+01  1.32853E+01  1.37202E+01  1.23747E+01  9.38691E+00  5.54638E+00  1.69341E+00
  -1.60150E+00 -3.55730E+00 -3.31507E+00 -7.66100E-01  3.22746E+00  7.43215E+00  1.10626E+01  1.37240E+01  1.51578E+01  1.54573E+01
   1.49022E+01  1.38369E+01  1.25011E+01  1.09887E+01  9.45973E+00  8.18132E+00  7.07499E+00  6.05286E+00  5.08445E+00  4.16008E+00
   3.27828E+00  2.44100E+00  1.65122E+00  9.11625E-01  2.23951E-01 -4.11257E-01 -9.94698E-01 -1.52835E+00 -2.01541E+00 -2.46011E+00
  -2.86740E+00 -3.24253E+00 -3.59075E+00 -3.91712E+00 -4.22631E+00 -4.52239E+00 -4.80853E+00 -5.08680E+00 -5.35814E+00 -5.62245E+00
  -5.87860E+00 -6.12446E+00 -6.35687E+00 -6.57171E+00 -6.76409E+00 -6.92857E+00 -7.05928E+00 -7.14994E+00 -7.19393E+00 -7.18440E+00
  -7.11456E+00 -6.97782E+00 -6.76796E+00 -6.47924E+00 -6.10663E+00 -5.64612E+00 -5.09519E+00 -4.45317E+00 -3.72153E+00 -2.90418E+00
  -2.00779E+00 -1.04212E+00 -2.02570E-02  1.04146E+00  2.12368E+00  3.20449E+00  4.25991E+00  5.26456E+00  6.19255E+00  7.01858E+00
   7.71908E+00  8.27330E+00  8.66420E+00  8.87919E+00  8.91075E+00  8.75684E+00  8.42102E+00  7.91217E+00  7.24387E+00  6.43361E+00
   5.50196E+00  4.47163E+00  3.36641E+00  2.21012E+00  1.02559E+00 -1.66106E-01 -1.34617E+00 -2.49841E+00 -3.60952E+00 -4.66919E+00
  -5.67008E+00 -6.60750E+00 -7.47909E+00 -8.28438E+00 -9.02451E+00 -9.70197E+00 -1.03202E+01 -1.08832E+01 -1.13952E+01 -1.18607E+01
  -1.22839E+01 -1.26691E+01 -1.30204E+01 -1.33413E+01 -1.36353E+01 -1.39052E+01 -1.41538E+01 -1.43834E+01 -1.45963E+01 -1.47943E+01
  -1.49789E+01 -1.51515E+01 -1.53134E+01 -1.54657E+01 -1.56095E+01 -1.57454E+01 -1.58743E+01 -1.59967E+01 -1.61132E+01 -1.62245E+01
  -1.63309E+01 -1.64329E+01 -1.65308E+01 -1.66248E+01 -1.67154E+01 -1.68027E+01 -1.68872E+01 -1.69688E+01 -1.70478E+01 -1.71243E+01
  -1.71987E+01 -1.72711E+01 -1.73414E+01 -1.74099E+01 -1.74767E+01 -1.75418E+01 -1.76054E+01 -1.76677E+01 -1.77286E+01 -1.77882E+01
  -1.78466E+01 -1.79039E+01 -1.79602E+01 -1.80156E+01 -1.80699E+01 -1.81232E+01 -1.81758E+01 -1.82276E+01 -1.82786E+01 -1.83290E+01
  -1.83787E+01 -1.84276E+01 -1.84761E+01 -1.85240E+01 -1.85715E+01 -1.86184E+01 -1.86648E+01 -1.87108E+01 -1.87564E+01 -1.88017E+01
  -1.88468E+01 -1.88914E+01 -1.89358E+01 -1.89799E+01 -1.90239E+01 -1.90678E+01 -1.91116E+01 -1.91551E+01
 NY background values follow
     8.633E+01    8.588E+01    8.542E+01    8.497E+01    8.451E+01    8.406E+01    8.360E+01    8.315E+01    8.269E+01    8.224E+01
     8.178E+01    8.133E+01    8.087E+01    8.042E+01    7.996E+01    7.950E+01    7.905E+01    7.859E+01    7.814E+01    7.768E+01
     7.723E+01    7.678E+01    7.632E+01    7.587E+01    7.541E+01    7.496E+01    7.450E+01    7.405E+01    7.360E+01    7.314E+01
     7.269E+01    7.224E+01    7.179E+01    7.133E+01    7.088E+01    7.043E+01    6.998E+01    6.953E+01    6.908E+01    6.863E+01
     6.818E+01    6.773E+01    6.728E+01    6.683E+01    6.638E+01    6.593E+01    6.549E+01    6.504E+01    6.459E+01    6.415E+01
     6.370E+01    6.326E+01    6.281E+01    6.237E+01    6.192E+01    6.148E+01    6.104E+01    6.060E+01    6.016E+01    5.972E+01
     5.928E+01    5.884E+01    5.840E+01    5.796E+01    5.752E+01    5.709E+01    5.665E+01    5.622E+01    5.578E+01    5.535E+01
     5.491E+01    5.448E+01    5.405E+01    5.362E+01    5.319E+01    5.276E+01    5.233E+01    5.191E+01    5.148E+01    5.105E+01
     5.063E+01    5.020E+01    4.978E+01    4.936E+01    4.894E+01    4.852E+01    4.810E+01    4.768E+01    4.726E+01    4.685E+01
     4.643E+01    4.602E+01    4.560E+01    4.519E+01    4.478E+01    4.437E+01    4.396E+01    4.355E+01    4.315E+01    4.274E+01
     4.234E+01    4.193E+01    4.153E+01    4.113E+01    4.073E+01    4.033E+01    3.993E+01    3.953E+01    3.913E+01    3.874E+01
     3.835E+01    3.795E+01    3.756E+01    3.717E+01    3.678E+01    3.639E+01    3.600E+01    3.562E+01    3.523E+01    3.485E+01
     3.447E+01    3.408E+01    3.370E+01    3.332E+01    3.295E+01    3.257E+01    3.219E+01    3.182E+01    3.145E+01    3.107E+01
     3.070E+01    3.033E+01    2.996E+01    2.960E+01    2.923E+01    2.887E+01    2.850E+01    2.814E+01    2.778E+01    2.742E+01
     2.706E+01    2.670E+01    2.634E+01    2.599E+01    2.564E+01    2.528E+01    2.493E+01    2.458E+01    2.423E+01    2.389E+01
     2.354E+01    2.320E+01    2.285E+01    2.251E+01    2.217E+01    2.183E+01    2.149E+01    2.116E+01    2.082E+01    2.049E+01
     2.016E+01    1.983E+01    1.950E+01    1.917E+01    1.884E+01    1.852E+01    1.820E+01    1.788E+01    1.756E+01    1.724E+01
     1.692E+01    1.660E+01    1.629E+01    1.598E+01    1.567E+01    1.536E+01    1.505E+01    1.475E+01    1.444E+01    1.414E+01
     1.384E+01    1.354E+01    1.324E+01    1.294E+01    1.265E+01    1.236E+01    1.206E+01    1.177E+01    1.149E+01    1.120E+01
     1.092E+01    1.063E+01    1.035E+01    1.007E+01    9.792E+00    9.516E+00    9.241E+00    8.967E+00    8.696E+00    8.425E+00
     8.157E+00    7.890E+00    7.625E+00    7.361E+00    7.099E+00    6.839E+00    6.580E+00    6.323E+00    6.067E+00    5.813E+00
     5.561E+00    5.310E+00    5.061E+00    4.814E+00    4.568E+00    4.324E+00    4.081E+00    3.840E+00    3.601E+00    3.363E+00
     3.126E+00    2.892E+00    2.659E+00    2.427E+00    2.198E+00    1.969E+00    1.743E+00    1.518E+00    1.294E+00    1.073E+00
     8.524E-01    6.337E-01    4.167E-01    2.012E-01   -1.274E-02   -2.251E-01   -4.359E-01   -6.451E-01   -8.527E-01   -1.059E+00
    -1.263E+00   -1.466E+00   -1.668E+00   -1.868E+00   -2.066E+00   -2.263E+00   -2.458E+00   -2.652E+00   -2.844E+00   -3.035E+00
    -3.224E+00   -3.412E+00   -3.598E+00   -3.782E+00   -3.965E+00   -4.147E+00   -4.327E+00   -4.506E+00   -4.683E+00   -4.859E+00
    -5.033E+00   -5.205E+00   -5.377E+00   -5.546E+00   -5.715E+00   -5.881E+00   -6.047E+00   -6.211E+00   -6.373E+00   -6.534E+00
    -6.693E+00   -6.851E+00   -7.008E+00   -7.163E+00   -7.317E+00   -7.469E+00   -7.620E+00   -7.770E+00   -7.918E+00   -8.064E+00
    -8.210E+00   -8.354E+00   -8.496E+00   -8.638E+00   -8.778E+00   -8.916E+00   -9.053E+00   -9.189E+00   -9.324E+00   -9.457E+00
    -9.589E+00   -9.720E+00   -9.850E+00   -9.978E+00   -1.010E+01   -1.023E+01   -1.036E+01   -1.048E+01   -1.060E+01   -1.072E+01
    -1.084E+01   -1.096E+01   -1.108E+01   -1.119E+01   -1.131E+01   -1.142E+01   -1.153E+01   -1.165E+01   -1.176E+01   -1.187E+01
    -1.197E+01   -1.208E+01   -1.219E+01   -1.229E+01   -1.240E+01   -1.250E+01   -1.260E+01   -1.270E+01   -1.280E+01   -1.290E+01
    -1.300E+01   -1.309E+01   -1.319E+01   -1.328E+01   -1.338E+01   -1.347E+01   -1.356E+01   -1.365E+01   -1.374E+01   -1.383E+01
    -1.392E+01   -1.400E+01   -1.409E+01   -1.417E+01   -1.426E+01   -1.434E+01   -1.442E+01   -1.450E+01   -1.458E+01   -1.466E+01
    -1.474E+01   -1.482E+01   -1.490E+01   -1.497E+01   -1.505E+01   -1.512E+01   -1.520E+01   -1.527E+01   -1.534E+01   -1.541E+01
    -1.548E+01   -1.555E+01   -1.562E+01   -1.569E+01   -1.576E+01   -1.583E+01   -1.589E+01   -1.596E+01   -1.602E+01   -1.609E+01
    -1.615E+01   -1.621E+01   -1.627E+01   -1.634E+01   -1.640E+01   -1.646E+01   -1.652E+01   -1.657E+01   -1.663E+01   -1.669E+01
    -1.675E+01   -1.680E+01   -1.686E+01   -1.691E+01   -1.697E+01   -1.702E+01   -1.707E+01   -1.713E+01   -1.718E+01   -1.723E+01
    -1.728E+01   -1.733E+01   -1.738E+01   -1.743E+01   -1.748E+01   -1.753E+01   -1.757E+01   -1.762E+01   -1.767E+01   -1.771E+01
    -1.776E+01   -1.780E+01   -1.785E+01   -1.789E+01   -1.794E+01   -1.798E+01   -1.802E+01   -1.806E+01   -1.811E+01   -1.815E+01
    -1.819E+01   -1.823E+01   -1.827E+01   -1.831E+01   -1.835E+01   -1.839E+01   -1.842E+01   -1.846E+01   -1.850E+01   -1.854E+01
    -1.857E+01   -1.861E+01   -1.864E+01   -1.868E+01   -1.871E+01   -1.875E+01   -1.878E+01   -1.882E+01   -1.885E+01   -1.888E+01
    -1.892E+01   -1.895E+01   -1.898E+01   -1.902E+01   -1.905E+01   -1.908E+01   -1.911E+01   -1.914E+01   -1.917E+01   -1.920E+01
    -1.923E+01   -1.926E+01   -1.929E+01   -1.932E+01   -1.935E+01   -1.938E+01   -1.941E+01   -1.944E+01   -1.946E+01   -1.949E+01
    -1.952E+01   -1.955E+01   -1.958E+01   -1.960E+01   -1.963E+01   -1.966E+01   -1.969E+01   -1.971E+01   -1.974E+01   -1.977E+01
    -1.979E+01   -1.982E+01   -1.984E+01   -1.987E+01   -1.990E+01   -1.992E+01   -1.995E+01   -1.997E+01   -2.000E+01   -2.003E+01
    -2.005E+01   -2.008E+01   -2.010E+01   -2.013E+01   -2.015E+01   -2.018E+01   -2.020E+01   -2.023E+01   -2.025E+01   -2.028E+01
    -2.030E+01   -2.033E+01   -2.035E+01   -2.038E+01   -2.040E+01   -2.042E+01   -2.045E+01   -2.047E+01   -2.050E+01   -2.052E+01
    -2.055E+01   -2.057E+01   -2.059E+01   -2.062E+01   -2.064E+01   -2.067E+01   -2.069E+01   -2.072E+01   -2.074E+01   -2.076E+01
    -2.079E+01   -2.081E+01   -2.084E+01   -2.086E+01   -2.088E+01   -2.091E+01   -2.093E+01   -2.096E+01
 Ala      Conc. = 8.85E+02
