 LCModel (Version 6.3-1L) Copyright: S.W. Provencher.          Ref.: Magn. Reson. Med. 30:672-679 (1993).                
 Slice#2 Row#11 Col#8  PD_05_press_2_raw_act
 36 lines in following concentration table = NCONC+1
    Conc.  %SD /Cr+PCr  Metabolite                                         
   49.310 142%   0.415 Ala                                                 
   20.671 111%   0.174 Asp                                                 
    0.000 999%   0.000 Cr                                                  
  118.893  28%   1.000 PCr                                                 
   12.274 113%   0.103 GABA                                                
   12.229 113%   0.103 Glc                                                 
    0.000 999%   0.000 Gln                                                 
  428.473  41%   3.604 Glu                                                 
    0.000 999%   0.000 GPC                                                 
   16.416  72%   0.138 PCh                                                 
   36.812 117%   0.310 GSH                                                 
  125.893 112%   1.059 Ins                                                 
  102.130  75%   0.859 Lac                                                 
  107.096  40%   0.901 NAA                                                 
  132.530  34%   1.115 NAAG                                                
    5.226  86% 4.4E-02 Scyllo                                              
   24.570  93%   0.207 Tau                                                 
   16.837 206%   0.142 -CrCH2                                              
   16.416  72%   0.138 GPC+PCh                                             
  239.625  18%   2.015 NAA+NAAG                                            
  118.893  28%   1.000 Cr+PCr                                              
  428.473  41%   3.604 Glu+Gln                                             
    0.000 999%   0.000 Lip13a                                              
    0.000 999%   0.000 Lip13b                                              
    0.000 999%   0.000 Lip09                                               
   26.308 289%   0.221 MM09                                                
    0.000 999%   0.000 Lip20                                               
   36.853 312%   0.310 MM20                                                
    7.642 304% 6.4E-02 MM12                                                
   28.451 210%   0.239 MM14                                                
   18.921 165%   0.159 MM17                                                
    0.000 999%   0.000 Lip13a+Lip13b                                       
   36.093 226%   0.304 MM14+Lip13a+Lip13b+MM12                             
   26.308 289%   0.221 MM09+Lip09                                          
   36.853 312%   0.310 MM20+Lip20                                          
   6 lines in following misc. output table
  FWHM = 0.023 ppm    S/N =   1                                            
  Data shift = 0.054 ppm                                                   
  Ph: -86 deg     -43.1 deg/ppm                                            
  alphaB,S = 5.0E+01,   4.4E+00                                            
   14 spline knots.   Ns = 5(1)                                            
  ( 4) 4 infls.   ( 3) 1 extrs.                                            
  498 points on ppm-axis = NY
      4.000000     3.992357     3.984714     3.977070     3.969427     3.961784     3.954141     3.946497     3.938854     3.931211
      3.923568     3.915925     3.908281     3.900638     3.892995     3.885352     3.877708     3.870065     3.862422     3.854779
      3.847136     3.839492     3.831849     3.824206     3.816563     3.808919     3.801276     3.793633     3.785990     3.778347
      3.770703     3.763060     3.755417     3.747774     3.740130     3.732487     3.724844     3.717201     3.709558     3.701914
      3.694271     3.686628     3.678985     3.671341     3.663698     3.656055     3.648412     3.640769     3.633125     3.625482
      3.617839     3.610196     3.602552     3.594909     3.587266     3.579623     3.571980     3.564336     3.556693     3.549050
      3.541407     3.533763     3.526120     3.518477     3.510834     3.503191     3.495547     3.487904     3.480261     3.472618
      3.464974     3.457331     3.449688     3.442045     3.434402     3.426758     3.419115     3.411472     3.403829     3.396185
      3.388542     3.380899     3.373256     3.365613     3.357969     3.350326     3.342683     3.335040     3.327396     3.319753
      3.312110     3.304467     3.296824     3.289180     3.281537     3.273894     3.266251     3.258607     3.250964     3.243321
      3.235678     3.228034     3.220391     3.212748     3.205105     3.197462     3.189818     3.182175     3.174532     3.166889
      3.159245     3.151602     3.143959     3.136316     3.128673     3.121029     3.113386     3.105743     3.098100     3.090456
      3.082813     3.075170     3.067527     3.059884     3.052240     3.044597     3.036954     3.029311     3.021667     3.014024
      3.006381     2.998738     2.991095     2.983451     2.975808     2.968165     2.960522     2.952878     2.945235     2.937592
      2.929949     2.922306     2.914662     2.907019     2.899376     2.891733     2.884089     2.876446     2.868803     2.861160
      2.853517     2.845873     2.838230     2.830587     2.822944     2.815300     2.807657     2.800014     2.792371     2.784728
      2.777084     2.769441     2.761798     2.754155     2.746511     2.738868     2.731225     2.723582     2.715939     2.708295
      2.700652     2.693009     2.685366     2.677722     2.670079     2.662436     2.654793     2.647150     2.639506     2.631863
      2.624220     2.616577     2.608933     2.601290     2.593647     2.586004     2.578361     2.570717     2.563074     2.555431
      2.547788     2.540144     2.532501     2.524858     2.517215     2.509572     2.501928     2.494285     2.486642     2.478999
      2.471355     2.463712     2.456069     2.448426     2.440783     2.433139     2.425496     2.417853     2.410210     2.402566
      2.394923     2.387280     2.379637     2.371994     2.364350     2.356707     2.349064     2.341421     2.333777     2.326134
      2.318491     2.310848     2.303205     2.295561     2.287918     2.280275     2.272632     2.264988     2.257345     2.249702
      2.242059     2.234416     2.226772     2.219129     2.211486     2.203843     2.196199     2.188556     2.180913     2.173270
      2.165627     2.157983     2.150340     2.142697     2.135054     2.127410     2.119767     2.112124     2.104481     2.096838
      2.089194     2.081551     2.073908     2.066265     2.058621     2.050978     2.043335     2.035692     2.028049     2.020405
      2.012762     2.005119     1.997476     1.989833     1.982190     1.974546     1.966903     1.959260     1.951617     1.943974
      1.936331     1.928688     1.921045     1.913402     1.905759     1.898115     1.890472     1.882829     1.875186     1.867543
      1.859900     1.852257     1.844614     1.836971     1.829327     1.821684     1.814041     1.806398     1.798755     1.791112
      1.783469     1.775826     1.768183     1.760540     1.752896     1.745253     1.737610     1.729967     1.722324     1.714681
      1.707038     1.699395     1.691752     1.684108     1.676465     1.668822     1.661179     1.653536     1.645893     1.638250
      1.630607     1.622964     1.615321     1.607677     1.600034     1.592391     1.584748     1.577105     1.569462     1.561819
      1.554176     1.546533     1.538890     1.531246     1.523603     1.515960     1.508317     1.500674     1.493031     1.485388
      1.477745     1.470102     1.462458     1.454815     1.447172     1.439529     1.431886     1.424243     1.416600     1.408957
      1.401314     1.393671     1.386027     1.378384     1.370741     1.363098     1.355455     1.347812     1.340169     1.332526
      1.324883     1.317240     1.309596     1.301953     1.294310     1.286667     1.279024     1.271381     1.263738     1.256095
      1.248452     1.240808     1.233165     1.225522     1.217879     1.210236     1.202593     1.194950     1.187307     1.179664
      1.172021     1.164377     1.156734     1.149091     1.141448     1.133805     1.126162     1.118519     1.110876     1.103233
      1.095590     1.087946     1.080303     1.072660     1.065017     1.057374     1.049731     1.042088     1.034445     1.026802
      1.019158     1.011515     1.003872     0.996229     0.988586     0.980943     0.973300     0.965657     0.958014     0.950371
      0.942727     0.935084     0.927441     0.919798     0.912155     0.904512     0.896869     0.889226     0.881583     0.873940
      0.866296     0.858653     0.851010     0.843367     0.835724     0.828081     0.820438     0.812795     0.805152     0.797508
      0.789865     0.782222     0.774579     0.766936     0.759293     0.751650     0.744007     0.736364     0.728721     0.721077
      0.713434     0.705791     0.698148     0.690505     0.682862     0.675219     0.667576     0.659933     0.652290     0.644646
      0.637003     0.629360     0.621717     0.614074     0.606431     0.598788     0.591145     0.583502     0.575858     0.568215
      0.560572     0.552929     0.545286     0.537643     0.530000     0.522357     0.514714     0.507071     0.499427     0.491784
      0.484141     0.476498     0.468855     0.461212     0.453569     0.445925     0.438282     0.430639     0.422996     0.415353
      0.407710     0.400067     0.392424     0.384780     0.377137     0.369494     0.361851     0.354208     0.346565     0.338922
      0.331278     0.323635     0.315992     0.308349     0.300706     0.293063     0.285420     0.277777     0.270133     0.262490
      0.254847     0.247204     0.239561     0.231918     0.224275     0.216631     0.208988     0.201345
 NY phased data points follow
   4.65757E+00  4.21664E+00  2.08252E+00  6.00294E+00  2.26381E+00  1.33316E+00  2.96744E+00  5.80440E+00  6.55454E+00  6.90164E+00
   3.73045E+00  6.68166E+00  3.74485E+00  8.38239E+00  5.21222E+00  6.16835E+00  4.43921E+00  2.95068E+00  4.36962E+00  1.79850E+00
   1.25641E+00  5.10556E+00  3.02909E+00  2.15393E+00  5.02630E+00  6.21787E+00  4.24483E-01  3.94437E+00  6.21517E+00 -1.18271E-01
   5.47003E+00  3.93702E+00  8.18222E-02  5.57434E+00  3.08106E+00  6.73754E+00  5.81012E+00  6.85525E+00  6.92301E+00  3.35821E+00
   7.08173E+00  5.21858E+00  7.32891E+00  5.34918E+00  7.34987E+00  1.00119E+01  4.47720E+00  4.29462E+00  9.72644E+00  6.38193E+00
   8.31997E+00  3.73182E+00  5.14775E+00  3.84728E+00  2.76480E+00  8.45613E+00  3.55388E+00  7.93489E+00  9.56058E+00  6.07314E+00
   5.40298E+00  7.37388E+00  9.27447E+00  5.28911E+00  3.75098E-02  9.23002E+00  3.59691E+00  2.39972E+00  7.30768E+00  4.56407E+00
   4.60093E+00  7.48448E+00  6.88374E+00  8.23826E+00  7.31132E+00  7.57100E+00  6.77274E+00  4.54755E+00  5.00673E+00  2.55402E+00
   3.13169E+00  5.65271E+00  6.26880E+00  7.19704E+00  4.96235E+00  7.48800E+00  5.02416E+00  5.66344E+00  1.04841E+01  1.59067E+00
   5.03195E+00  7.36053E+00  7.65724E+00  8.51809E+00  6.01185E+00  6.31973E+00  5.41105E+00  9.65721E+00  8.55624E+00  5.35535E+00
   5.01583E+00  6.48735E+00  1.21784E+01  5.19123E+00  1.20674E+01  5.82811E+00  7.54351E+00  4.91653E+00  3.93925E+00  5.84854E+00
   4.78603E+00  1.01885E+01  3.63171E+00  1.23527E+01  8.33264E+00  9.64156E+00  5.56678E+00  6.56989E+00  3.40272E+00  4.81937E+00
   9.04454E+00  2.82885E+00  9.31185E+00  6.26545E+00  8.01173E+00  1.38047E+01  7.84931E+00  1.13177E+01  1.04236E+01  1.06788E+01
   9.68377E+00  8.60961E+00  8.20719E+00  1.09049E+01  5.74882E+00  1.30837E+01  9.36051E+00  1.08320E+01  7.28392E+00  9.32439E+00
   7.21916E+00  1.06068E+01  7.22485E+00  6.58850E+00  7.46572E+00  1.15609E+01  5.91146E+00  1.20242E+01  1.11419E+01  4.59951E+00
   6.65137E+00  7.99293E+00  4.58091E+00  7.34686E+00  8.44675E+00  1.11384E+01  8.79201E+00  8.06707E+00  6.92005E+00  7.13886E+00
   6.08472E+00  1.36473E+01  1.05729E+01  5.48079E+00  6.42667E+00  7.37755E+00  6.17937E+00  8.46312E+00  3.84371E+00  5.59015E+00
   5.77698E+00  7.69343E+00  5.64129E+00  8.14149E+00  4.16067E+00  1.04171E+01  8.98763E+00  9.00670E+00  3.80618E+00  7.43467E+00
   5.44500E+00  5.44160E+00  8.41544E+00  2.39839E+00  1.05813E+01  2.09064E+00  8.37201E+00  7.03108E+00  3.91131E+00  1.02476E+01
   9.09849E+00  6.79790E+00  8.13939E+00  7.57972E+00  5.98805E+00  6.73186E+00  8.19697E+00  6.82664E+00  6.33839E+00  7.47662E+00
   4.17998E+00  6.33402E+00  1.12205E+01  9.21304E+00  9.69987E+00  7.81644E+00  5.30080E+00  6.20725E+00  5.30846E+00  8.98615E+00
   9.78246E-01  7.70022E+00  8.47211E+00  7.30594E+00  9.78761E+00  1.06651E+01  8.46026E+00  5.92253E+00  7.65052E+00  6.91014E+00
   6.49358E+00  5.28930E+00  5.19450E+00  4.28330E+00  4.36778E+00  1.00937E+01  7.82497E+00  4.68384E+00  6.93686E+00  3.63823E+00
   4.96548E+00  5.67794E+00  4.46050E+00  5.00677E+00  5.45139E+00  5.03949E+00  8.04933E+00  5.42527E+00  3.55042E+00  2.65093E+00
   3.70291E-01  4.65547E+00  3.42426E+00  3.48295E+00  5.92068E+00  2.68750E+00  4.26592E+00  2.24739E+00  8.60042E+00  6.50215E+00
   4.85184E+00  6.32911E+00  1.06460E+01  1.08096E+01  1.11530E+01  1.25819E+01  4.46679E+00  5.88885E+00  1.07320E+01  8.82171E+00
   1.96390E+01  1.60291E+01  8.49366E+00  1.22136E+01  1.20914E+01  7.05636E+00  8.71263E+00  1.02386E+01  6.94283E+00  5.41227E+00
   6.08712E+00  5.88943E+00  7.92481E+00  5.49855E+00  5.98463E+00  8.22170E+00  7.28127E+00  1.30079E+01  3.79606E+00  8.61567E+00
   7.40726E+00  8.18406E+00  5.58063E+00  8.86013E+00  1.38216E+01  9.52955E+00  7.52229E+00  1.00290E+01  8.32235E+00  1.59190E+01
   9.57809E+00  7.62990E+00  9.24857E+00  1.27013E+01  4.60630E+00  1.22573E+01  8.98149E+00  5.40035E+00  1.29041E+01  6.84341E+00
   8.80818E+00  1.12018E+01  6.91041E+00  1.14752E+01  1.05697E+01  9.65560E+00  7.62949E+00  5.94407E+00  9.42309E+00  1.10607E+01
   1.08095E+01  1.17773E+01  1.38071E+01  9.58136E+00  1.17537E+01  1.25160E+01  7.48557E+00  1.13277E+01  1.02347E+01  7.53575E+00
   9.71199E+00  7.29469E+00  9.48228E+00  7.55661E+00  6.59182E+00  1.22846E+01  7.88269E+00  1.23221E+01  1.05285E+01  9.31782E+00
   1.15824E+01  9.59747E+00  8.75980E+00  6.40919E+00  9.75513E+00  1.19609E+01  5.69054E+00  1.07578E+01  1.08200E+01  8.86462E+00
   7.65891E+00  1.38913E+01  7.35691E+00  5.78904E+00  1.07442E+01  9.03781E+00  4.00317E+00  7.48461E+00  8.20952E+00  7.03045E+00
   3.92888E+00  5.50027E+00 -6.15749E-01  6.75794E+00  3.37513E+00  4.86720E+00  7.86038E+00  5.79097E+00  7.76000E+00  4.50395E+00
   7.69868E+00  3.84438E+00  7.10932E+00  6.01123E+00  4.57906E+00  3.01747E+00  6.71935E+00  3.20779E+00  8.84141E+00  4.30602E+00
   7.20958E+00  8.21044E+00  8.81328E+00  1.26636E+00  1.72814E+00  5.38208E+00  6.44081E+00  7.97661E+00  5.06966E+00  9.46397E+00
   5.39622E+00  6.67151E+00  5.46575E+00  5.71423E+00  6.12869E+00  6.24991E+00  2.29996E+00  7.54705E+00  3.74648E+00  2.70124E+00
   5.08617E+00  4.06496E+00  1.72520E+00  4.65514E+00  4.75009E+00  8.10494E+00  7.28701E+00  6.61781E+00  2.99512E+00  6.81533E+00
  -6.62322E-01  4.77481E+00  4.29596E+00  2.64575E+00  5.82283E+00  7.93074E+00  6.01539E+00  5.60852E+00  1.89539E+00  6.47968E+00
   6.03128E+00  5.10298E+00  3.92619E+00  2.48214E+00  7.58746E+00  8.05979E+00  5.05889E+00  3.39527E+00  6.39006E+00  6.64881E+00
   7.87175E+00  4.36501E+00  1.31238E+00  7.25172E+00  5.72071E+00  6.48212E+00  4.12680E+00  1.67175E+00  3.64912E+00  4.77761E+00
   5.36827E+00  8.42478E-01  1.06428E+00  1.91522E+00  2.29863E+00  6.48849E+00  4.06483E+00  3.74637E+00  4.59719E+00  5.96358E+00
   7.21010E+00  8.14983E+00  6.61493E+00  6.03540E-01  1.86243E+00  2.43077E+00  4.26054E+00  3.39425E+00  5.46465E+00  3.48352E+00
   4.48000E+00  4.55636E+00  3.36351E+00  4.12038E+00  1.80393E+00  5.36749E+00  9.70244E-01  3.63024E+00  2.99078E-01  4.63786E+00
   3.40642E+00  5.99140E+00  6.35955E-01  3.38041E+00 -2.39251E+00  5.48889E+00  5.35886E+00  2.10384E+00  3.75395E+00  4.85865E+00
   4.57360E+00  4.74814E+00  3.45461E+00  3.89221E+00  5.91598E+00  2.71657E+00  6.12934E+00  6.34375E+00  9.67187E+00  5.09078E+00
   1.78066E+00  2.98512E+00  4.25477E+00  4.36147E+00  7.39591E-01  3.09156E+00  1.14471E+00  3.72824E+00  7.13963E+00  4.87015E+00
   3.26532E+00  1.61044E+00  3.18420E+00  6.49573E+00  2.86380E+00  4.37514E+00  3.77191E+00  3.38442E+00
 NY points of the fit to the data follow
   3.22999E+00  3.11589E+00  2.89950E+00  2.59437E+00  2.34660E+00  2.42536E+00  3.26544E+00  4.53768E+00  5.41561E+00  5.53050E+00
   5.02981E+00  4.69083E+00  4.82520E+00  5.17152E+00  5.41878E+00  5.20929E+00  4.81949E+00  4.56723E+00  4.41590E+00  4.37439E+00
   4.41181E+00  4.47401E+00  4.58296E+00  4.77814E+00  4.98796E+00  4.90345E+00  4.42801E+00  4.00490E+00  3.98141E+00  4.32415E+00
   4.90504E+00  5.49715E+00  6.06470E+00  6.37437E+00  6.28921E+00  5.94676E+00  5.39616E+00  5.07931E+00  5.20935E+00  5.46053E+00
   5.56778E+00  5.36300E+00  5.03442E+00  4.82569E+00  4.94390E+00  5.52321E+00  6.20246E+00  6.52425E+00  6.40229E+00  6.04929E+00
   5.81725E+00  5.82712E+00  5.95424E+00  5.99337E+00  5.86128E+00  5.67415E+00  5.58394E+00  5.65141E+00  5.81694E+00  5.99894E+00
   6.08281E+00  6.03702E+00  5.93717E+00  5.85521E+00  5.86670E+00  5.92603E+00  5.96468E+00  5.97429E+00  5.93926E+00  5.94013E+00
   5.99320E+00  6.06104E+00  6.14190E+00  6.22101E+00  6.30103E+00  6.34937E+00  6.33433E+00  6.28230E+00  6.22533E+00  6.20858E+00
   6.24216E+00  6.28202E+00  6.31430E+00  6.39917E+00  6.51638E+00  6.52858E+00  6.39734E+00  6.20308E+00  6.08768E+00  6.12326E+00
   6.21091E+00  6.23951E+00  6.16049E+00  6.04221E+00  5.99428E+00  5.98396E+00  5.96487E+00  5.87598E+00  5.71180E+00  5.63923E+00
   5.91676E+00  6.73781E+00  7.53516E+00  7.83184E+00  7.57922E+00  7.11110E+00  7.00700E+00  7.17297E+00  7.37644E+00  7.36406E+00
   7.07162E+00  6.84282E+00  6.71177E+00  6.61728E+00  6.52816E+00  6.44035E+00  6.34428E+00  6.22001E+00  6.06025E+00  5.86445E+00
   5.60881E+00  5.31373E+00  5.26460E+00  6.03594E+00  8.08915E+00  1.01435E+01  1.09533E+01  1.03665E+01  9.19825E+00  8.91411E+00
   9.41432E+00  1.00551E+01  1.01415E+01  9.36538E+00  8.60975E+00  8.15694E+00  7.92146E+00  7.85768E+00  7.87608E+00  7.90781E+00
   7.87150E+00  7.80006E+00  7.74853E+00  7.72613E+00  7.75835E+00  7.78737E+00  7.78614E+00  7.76715E+00  7.73583E+00  7.71785E+00
   7.68593E+00  7.61160E+00  7.50449E+00  7.43317E+00  7.44659E+00  7.53633E+00  7.63663E+00  7.63784E+00  7.52565E+00  7.36413E+00
   7.27079E+00  7.29804E+00  7.38011E+00  7.44248E+00  7.41570E+00  7.31585E+00  7.19668E+00  7.09846E+00  7.08192E+00  7.15030E+00
   7.25581E+00  7.30731E+00  7.22299E+00  7.04712E+00  6.90103E+00  6.88747E+00  7.00106E+00  7.09094E+00  7.03390E+00  6.84723E+00
   6.67339E+00  6.67366E+00  6.82054E+00  6.95113E+00  6.94119E+00  6.83344E+00  6.81412E+00  6.95957E+00  7.22739E+00  7.48330E+00
   7.56932E+00  7.50429E+00  7.38899E+00  7.30238E+00  7.27776E+00  7.25291E+00  7.24577E+00  7.30335E+00  7.36813E+00  7.42247E+00
   7.44599E+00  7.50172E+00  7.66568E+00  7.87211E+00  7.99287E+00  7.86020E+00  7.56651E+00  7.16614E+00  6.77879E+00  6.50919E+00
   6.36091E+00  6.57675E+00  7.25794E+00  8.47552E+00  9.71995E+00  1.00444E+01  9.50102E+00  8.47445E+00  7.50002E+00  6.62053E+00
   5.54707E+00  4.83306E+00  4.87487E+00  5.56188E+00  6.38779E+00  6.62756E+00  6.45281E+00  6.40103E+00  6.59058E+00  6.89255E+00
   7.07412E+00  7.16445E+00  7.42429E+00  7.72356E+00  7.87961E+00  7.86975E+00  7.70556E+00  7.44932E+00  7.08365E+00  6.67577E+00
   6.32102E+00  6.23151E+00  6.47273E+00  6.84167E+00  7.09575E+00  7.07710E+00  6.89250E+00  6.61476E+00  6.26427E+00  5.94796E+00
   5.84310E+00  6.30853E+00  7.73577E+00  1.01404E+01  1.17670E+01  1.16299E+01  1.04980E+01  1.01919E+01  1.21404E+01  1.42783E+01
   1.48800E+01  1.35994E+01  1.14726E+01  1.06140E+01  1.07074E+01  1.08510E+01  1.04350E+01  9.51595E+00  8.88259E+00  8.54514E+00
   8.33591E+00  8.27771E+00  8.33655E+00  8.34695E+00  8.26479E+00  8.13498E+00  8.03641E+00  7.99192E+00  7.97169E+00  7.93996E+00
   7.89388E+00  7.85513E+00  7.83111E+00  7.80221E+00  7.75635E+00  7.70597E+00  7.66319E+00  7.62858E+00  7.60061E+00  7.58795E+00
   7.59042E+00  7.59347E+00  7.57826E+00  7.54881E+00  7.52251E+00  7.49998E+00  7.47612E+00  7.45388E+00  7.43344E+00  7.42177E+00
   7.41619E+00  7.40498E+00  7.38903E+00  7.37142E+00  7.35650E+00  7.34663E+00  7.33556E+00  7.32282E+00  7.30911E+00  7.29379E+00
   7.27743E+00  7.26091E+00  7.24467E+00  7.22900E+00  7.21439E+00  7.20138E+00  7.19062E+00  7.18310E+00  7.18021E+00  7.18433E+00
   7.20037E+00  7.24023E+00  7.33572E+00  7.51310E+00  7.72758E+00  7.75429E+00  7.43125E+00  6.95722E+00  6.57786E+00  6.44492E+00
   6.43471E+00  6.36311E+00  6.37574E+00  6.60532E+00  6.93880E+00  7.18660E+00  7.15458E+00  7.00879E+00  7.02592E+00  7.17754E+00
   7.38289E+00  7.51882E+00  7.62903E+00  7.93502E+00  8.35678E+00  8.41064E+00  7.71808E+00  6.68848E+00  5.84725E+00  5.53285E+00
   5.55037E+00  5.53981E+00  5.80489E+00  6.31739E+00  6.80659E+00  7.04551E+00  6.78628E+00  6.53008E+00  6.61708E+00  6.88509E+00
   7.11252E+00  7.02533E+00  6.77810E+00  6.62550E+00  6.52881E+00  6.45760E+00  6.40054E+00  6.35220E+00  6.30957E+00  6.27095E+00
   6.23538E+00  6.20226E+00  6.17108E+00  6.14138E+00  6.11282E+00  6.08524E+00  6.05864E+00  6.03301E+00  6.00830E+00  5.98435E+00
   5.96111E+00  5.93862E+00  5.91700E+00  5.89632E+00  5.87658E+00  5.85769E+00  5.83967E+00  5.82259E+00  5.80655E+00  5.79156E+00
   5.77752E+00  5.76430E+00  5.75182E+00  5.74001E+00  5.72879E+00  5.71793E+00  5.70715E+00  5.69613E+00  5.68464E+00  5.67243E+00
   5.65931E+00  5.64493E+00  5.62902E+00  5.61133E+00  5.59180E+00  5.57037E+00  5.54708E+00  5.52187E+00  5.49483E+00  5.46608E+00
   5.43593E+00  5.40463E+00  5.37246E+00  5.33959E+00  5.30626E+00  5.27275E+00  5.23935E+00  5.20626E+00  5.17363E+00  5.14149E+00
   5.10994E+00  5.07906E+00  5.04896E+00  5.01961E+00  4.99096E+00  4.96291E+00  4.93544E+00  4.90854E+00  4.88222E+00  4.85637E+00
   4.83090E+00  4.80573E+00  4.78085E+00  4.75626E+00  4.73195E+00  4.70783E+00  4.68384E+00  4.65994E+00  4.63617E+00  4.61254E+00
   4.58904E+00  4.56560E+00  4.54218E+00  4.51877E+00  4.49544E+00  4.47219E+00  4.44900E+00  4.42580E+00  4.40259E+00  4.37938E+00
   4.35623E+00  4.33314E+00  4.31006E+00  4.28694E+00  4.26380E+00  4.24068E+00  4.21763E+00  4.19459E+00  4.17154E+00  4.14845E+00
   4.12535E+00  4.10228E+00  4.07926E+00  4.05624E+00  4.03320E+00  4.01012E+00  3.98704E+00  3.96400E+00  3.94101E+00  3.91800E+00
   3.89496E+00  3.87190E+00  3.84886E+00  3.82588E+00  3.80292E+00  3.77993E+00  3.75692E+00  3.73390E+00  3.71094E+00  3.68801E+00
   3.66510E+00  3.64217E+00  3.61922E+00  3.59629E+00  3.57343E+00  3.55060E+00  3.52779E+00  3.50495E+00  3.48213E+00  3.45936E+00
   3.43666E+00  3.41400E+00  3.39136E+00  3.36873E+00  3.34614E+00  3.32364E+00  3.30124E+00  3.27889E+00
 NY background values follow
     4.011E+00    4.044E+00    4.078E+00    4.111E+00    4.144E+00    4.176E+00    4.209E+00    4.241E+00    4.274E+00    4.306E+00
     4.338E+00    4.370E+00    4.401E+00    4.433E+00    4.464E+00    4.495E+00    4.526E+00    4.557E+00    4.588E+00    4.618E+00
     4.649E+00    4.679E+00    4.709E+00    4.739E+00    4.769E+00    4.798E+00    4.828E+00    4.857E+00    4.886E+00    4.915E+00
     4.944E+00    4.972E+00    5.001E+00    5.029E+00    5.057E+00    5.085E+00    5.113E+00    5.141E+00    5.168E+00    5.196E+00
     5.223E+00    5.250E+00    5.277E+00    5.303E+00    5.330E+00    5.356E+00    5.382E+00    5.408E+00    5.434E+00    5.460E+00
     5.485E+00    5.511E+00    5.536E+00    5.561E+00    5.586E+00    5.611E+00    5.635E+00    5.660E+00    5.684E+00    5.708E+00
     5.732E+00    5.756E+00    5.779E+00    5.803E+00    5.826E+00    5.849E+00    5.872E+00    5.895E+00    5.917E+00    5.940E+00
     5.962E+00    5.984E+00    6.006E+00    6.028E+00    6.049E+00    6.071E+00    6.092E+00    6.113E+00    6.134E+00    6.155E+00
     6.176E+00    6.196E+00    6.217E+00    6.237E+00    6.257E+00    6.277E+00    6.296E+00    6.316E+00    6.335E+00    6.354E+00
     6.373E+00    6.392E+00    6.411E+00    6.429E+00    6.448E+00    6.466E+00    6.484E+00    6.502E+00    6.519E+00    6.537E+00
     6.554E+00    6.571E+00    6.588E+00    6.605E+00    6.622E+00    6.639E+00    6.655E+00    6.671E+00    6.687E+00    6.703E+00
     6.719E+00    6.734E+00    6.750E+00    6.765E+00    6.780E+00    6.795E+00    6.810E+00    6.825E+00    6.839E+00    6.853E+00
     6.867E+00    6.881E+00    6.895E+00    6.909E+00    6.922E+00    6.936E+00    6.949E+00    6.962E+00    6.975E+00    6.987E+00
     7.000E+00    7.012E+00    7.024E+00    7.036E+00    7.048E+00    7.060E+00    7.071E+00    7.083E+00    7.094E+00    7.105E+00
     7.116E+00    7.127E+00    7.137E+00    7.148E+00    7.158E+00    7.168E+00    7.178E+00    7.188E+00    7.198E+00    7.207E+00
     7.216E+00    7.226E+00    7.235E+00    7.243E+00    7.252E+00    7.261E+00    7.269E+00    7.277E+00    7.285E+00    7.293E+00
     7.301E+00    7.309E+00    7.316E+00    7.323E+00    7.331E+00    7.338E+00    7.344E+00    7.351E+00    7.358E+00    7.364E+00
     7.370E+00    7.376E+00    7.382E+00    7.388E+00    7.394E+00    7.399E+00    7.404E+00    7.409E+00    7.414E+00    7.419E+00
     7.424E+00    7.428E+00    7.433E+00    7.437E+00    7.441E+00    7.445E+00    7.449E+00    7.453E+00    7.456E+00    7.459E+00
     7.463E+00    7.466E+00    7.469E+00    7.471E+00    7.474E+00    7.476E+00    7.479E+00    7.481E+00    7.483E+00    7.485E+00
     7.486E+00    7.488E+00    7.489E+00    7.491E+00    7.492E+00    7.493E+00    7.494E+00    7.494E+00    7.495E+00    7.495E+00
     7.496E+00    7.496E+00    7.496E+00    7.496E+00    7.495E+00    7.495E+00    7.494E+00    7.493E+00    7.493E+00    7.492E+00
     7.490E+00    7.489E+00    7.488E+00    7.486E+00    7.485E+00    7.483E+00    7.481E+00    7.479E+00    7.476E+00    7.474E+00
     7.471E+00    7.469E+00    7.466E+00    7.463E+00    7.460E+00    7.457E+00    7.453E+00    7.450E+00    7.446E+00    7.443E+00
     7.439E+00    7.435E+00    7.430E+00    7.426E+00    7.422E+00    7.417E+00    7.413E+00    7.408E+00    7.403E+00    7.398E+00
     7.393E+00    7.387E+00    7.382E+00    7.376E+00    7.370E+00    7.365E+00    7.359E+00    7.353E+00    7.346E+00    7.340E+00
     7.334E+00    7.327E+00    7.320E+00    7.313E+00    7.306E+00    7.299E+00    7.292E+00    7.285E+00    7.277E+00    7.270E+00
     7.262E+00    7.254E+00    7.246E+00    7.238E+00    7.230E+00    7.222E+00    7.213E+00    7.205E+00    7.196E+00    7.187E+00
     7.178E+00    7.169E+00    7.160E+00    7.151E+00    7.141E+00    7.132E+00    7.122E+00    7.113E+00    7.103E+00    7.093E+00
     7.083E+00    7.072E+00    7.062E+00    7.052E+00    7.041E+00    7.031E+00    7.020E+00    7.009E+00    6.998E+00    6.987E+00
     6.976E+00    6.965E+00    6.953E+00    6.942E+00    6.930E+00    6.918E+00    6.906E+00    6.895E+00    6.883E+00    6.870E+00
     6.858E+00    6.846E+00    6.833E+00    6.821E+00    6.808E+00    6.795E+00    6.782E+00    6.770E+00    6.756E+00    6.743E+00
     6.730E+00    6.717E+00    6.703E+00    6.690E+00    6.676E+00    6.662E+00    6.648E+00    6.634E+00    6.620E+00    6.606E+00
     6.592E+00    6.578E+00    6.563E+00    6.549E+00    6.534E+00    6.519E+00    6.505E+00    6.490E+00    6.475E+00    6.460E+00
     6.444E+00    6.429E+00    6.414E+00    6.398E+00    6.383E+00    6.367E+00    6.352E+00    6.336E+00    6.320E+00    6.304E+00
     6.288E+00    6.272E+00    6.256E+00    6.239E+00    6.223E+00    6.207E+00    6.190E+00    6.173E+00    6.157E+00    6.140E+00
     6.123E+00    6.106E+00    6.089E+00    6.072E+00    6.055E+00    6.038E+00    6.020E+00    6.003E+00    5.985E+00    5.968E+00
     5.950E+00    5.933E+00    5.915E+00    5.897E+00    5.879E+00    5.861E+00    5.843E+00    5.825E+00    5.807E+00    5.788E+00
     5.770E+00    5.752E+00    5.733E+00    5.715E+00    5.696E+00    5.677E+00    5.659E+00    5.640E+00    5.621E+00    5.602E+00
     5.583E+00    5.564E+00    5.545E+00    5.526E+00    5.506E+00    5.487E+00    5.468E+00    5.448E+00    5.429E+00    5.409E+00
     5.390E+00    5.370E+00    5.350E+00    5.330E+00    5.311E+00    5.291E+00    5.271E+00    5.251E+00    5.231E+00    5.211E+00
     5.190E+00    5.170E+00    5.150E+00    5.130E+00    5.109E+00    5.089E+00    5.068E+00    5.048E+00    5.027E+00    5.007E+00
     4.986E+00    4.965E+00    4.945E+00    4.924E+00    4.903E+00    4.882E+00    4.861E+00    4.840E+00    4.819E+00    4.798E+00
     4.777E+00    4.756E+00    4.735E+00    4.714E+00    4.692E+00    4.671E+00    4.650E+00    4.629E+00    4.607E+00    4.586E+00
     4.564E+00    4.543E+00    4.521E+00    4.500E+00    4.478E+00    4.456E+00    4.435E+00    4.413E+00    4.391E+00    4.370E+00
     4.348E+00    4.326E+00    4.304E+00    4.282E+00    4.260E+00    4.238E+00    4.216E+00    4.194E+00    4.172E+00    4.150E+00
     4.128E+00    4.106E+00    4.084E+00    4.062E+00    4.040E+00    4.018E+00    3.996E+00    3.973E+00    3.951E+00    3.929E+00
     3.907E+00    3.884E+00    3.862E+00    3.840E+00    3.817E+00    3.795E+00    3.773E+00    3.750E+00    3.728E+00    3.706E+00
     3.683E+00    3.661E+00    3.638E+00    3.616E+00    3.593E+00    3.571E+00    3.549E+00    3.526E+00    3.504E+00    3.481E+00
     3.459E+00    3.436E+00    3.414E+00    3.391E+00    3.368E+00    3.346E+00    3.323E+00    3.301E+00
 Ala      Conc. = 4.93E+01
