 LCModel (Version 6.3-1L) Copyright: S.W. Provencher.          Ref.: Magn. Reson. Med. 30:672-679 (1993).                
 Slice#1 Row#12 Col#4  PD_05_press_2_raw_act
 36 lines in following concentration table = NCONC+1
    Conc.  %SD /Cr+PCr  Metabolite                                         
   11.503 103%   0.549 Ala                                                 
    3.591 126%   0.171 Asp                                                 
    0.366 999% 1.7E-02 Cr                                                  
   20.577  77%   0.983 PCr                                                 
    2.182 124%   0.104 GABA                                                
    2.377 115%   0.114 Glc                                                 
    0.000 999%   0.000 Gln                                                 
   51.219  55%   2.446 Glu                                                 
    9.568  44%   0.457 GPC                                                 
    0.000 999%   0.000 PCh                                                 
   14.496  71%   0.692 GSH                                                 
   41.699  76%   1.991 Ins                                                 
    7.115 166%   0.340 Lac                                                 
   26.404  44%   1.261 NAA                                                 
    0.000 999%   0.000 NAAG                                                
    0.892 101% 4.3E-02 Scyllo                                              
    4.102 110%   0.196 Tau                                                 
    0.432 999% 2.1E-02 -CrCH2                                              
    9.568  44%   0.457 GPC+PCh                                             
   26.404  44%   1.261 NAA+NAAG                                            
   20.943  49%   1.000 Cr+PCr                                              
   51.219  55%   2.446 Glu+Gln                                             
 1.24E+03  18%  59.295 Lip13a                                              
    0.000 999%   0.000 Lip13b                                              
  329.493  19%  15.733 Lip09                                               
  607.709  14%  29.017 MM09                                                
  185.490  19%   8.857 Lip20                                               
  860.672  15%  41.096 MM20                                                
  182.668  15%   8.722 MM12                                                
  625.104  11%  29.848+MM14                                                
  308.944  13%  14.752 MM17                                                
 1.24E+03  18%  59.295 Lip13a+Lip13b                                       
 2.05E+03  10%  97.865 MM14+Lip13a+Lip13b+MM12                             
  937.202   9%  44.750 MM09+Lip09                                          
 1.05E+03  11%  49.953 MM20+Lip20                                          
   6 lines in following misc. output table
  FWHM = 0.031 ppm    S/N =   2                                            
  Data shift = 0.023 ppm                                                   
  Ph:  27 deg     -31.4 deg/ppm                                            
  alphaB,S = 1.1E+00,   4.6E+00                                            
   14 spline knots.   Ns = 5(1)                                            
   2 inflections.     2 extrema                                            
  498 points on ppm-axis = NY
      4.000000     3.992357     3.984714     3.977070     3.969427     3.961784     3.954141     3.946497     3.938854     3.931211
      3.923568     3.915925     3.908281     3.900638     3.892995     3.885352     3.877708     3.870065     3.862422     3.854779
      3.847136     3.839492     3.831849     3.824206     3.816563     3.808919     3.801276     3.793633     3.785990     3.778347
      3.770703     3.763060     3.755417     3.747774     3.740130     3.732487     3.724844     3.717201     3.709558     3.701914
      3.694271     3.686628     3.678985     3.671341     3.663698     3.656055     3.648412     3.640769     3.633125     3.625482
      3.617839     3.610196     3.602552     3.594909     3.587266     3.579623     3.571980     3.564336     3.556693     3.549050
      3.541407     3.533763     3.526120     3.518477     3.510834     3.503191     3.495547     3.487904     3.480261     3.472618
      3.464974     3.457331     3.449688     3.442045     3.434402     3.426758     3.419115     3.411472     3.403829     3.396185
      3.388542     3.380899     3.373256     3.365613     3.357969     3.350326     3.342683     3.335040     3.327396     3.319753
      3.312110     3.304467     3.296824     3.289180     3.281537     3.273894     3.266251     3.258607     3.250964     3.243321
      3.235678     3.228034     3.220391     3.212748     3.205105     3.197462     3.189818     3.182175     3.174532     3.166889
      3.159245     3.151602     3.143959     3.136316     3.128673     3.121029     3.113386     3.105743     3.098100     3.090456
      3.082813     3.075170     3.067527     3.059884     3.052240     3.044597     3.036954     3.029311     3.021667     3.014024
      3.006381     2.998738     2.991095     2.983451     2.975808     2.968165     2.960522     2.952878     2.945235     2.937592
      2.929949     2.922306     2.914662     2.907019     2.899376     2.891733     2.884089     2.876446     2.868803     2.861160
      2.853517     2.845873     2.838230     2.830587     2.822944     2.815300     2.807657     2.800014     2.792371     2.784728
      2.777084     2.769441     2.761798     2.754155     2.746511     2.738868     2.731225     2.723582     2.715939     2.708295
      2.700652     2.693009     2.685366     2.677722     2.670079     2.662436     2.654793     2.647150     2.639506     2.631863
      2.624220     2.616577     2.608933     2.601290     2.593647     2.586004     2.578361     2.570717     2.563074     2.555431
      2.547788     2.540144     2.532501     2.524858     2.517215     2.509572     2.501928     2.494285     2.486642     2.478999
      2.471355     2.463712     2.456069     2.448426     2.440783     2.433139     2.425496     2.417853     2.410210     2.402566
      2.394923     2.387280     2.379637     2.371994     2.364350     2.356707     2.349064     2.341421     2.333777     2.326134
      2.318491     2.310848     2.303205     2.295561     2.287918     2.280275     2.272632     2.264988     2.257345     2.249702
      2.242059     2.234416     2.226772     2.219129     2.211486     2.203843     2.196199     2.188556     2.180913     2.173270
      2.165627     2.157983     2.150340     2.142697     2.135054     2.127410     2.119767     2.112124     2.104481     2.096838
      2.089194     2.081551     2.073908     2.066265     2.058621     2.050978     2.043335     2.035692     2.028049     2.020405
      2.012762     2.005119     1.997476     1.989833     1.982190     1.974546     1.966903     1.959260     1.951617     1.943974
      1.936331     1.928688     1.921045     1.913402     1.905759     1.898115     1.890472     1.882829     1.875186     1.867543
      1.859900     1.852257     1.844614     1.836971     1.829327     1.821684     1.814041     1.806398     1.798755     1.791112
      1.783469     1.775826     1.768183     1.760540     1.752896     1.745253     1.737610     1.729967     1.722324     1.714681
      1.707038     1.699395     1.691752     1.684108     1.676465     1.668822     1.661179     1.653536     1.645893     1.638250
      1.630607     1.622964     1.615321     1.607677     1.600034     1.592391     1.584748     1.577105     1.569462     1.561819
      1.554176     1.546533     1.538890     1.531246     1.523603     1.515960     1.508317     1.500674     1.493031     1.485388
      1.477745     1.470102     1.462458     1.454815     1.447172     1.439529     1.431886     1.424243     1.416600     1.408957
      1.401314     1.393671     1.386027     1.378384     1.370741     1.363098     1.355455     1.347812     1.340169     1.332526
      1.324883     1.317240     1.309596     1.301953     1.294310     1.286667     1.279024     1.271381     1.263738     1.256095
      1.248452     1.240808     1.233165     1.225522     1.217879     1.210236     1.202593     1.194950     1.187307     1.179664
      1.172021     1.164377     1.156734     1.149091     1.141448     1.133805     1.126162     1.118519     1.110876     1.103233
      1.095590     1.087946     1.080303     1.072660     1.065017     1.057374     1.049731     1.042088     1.034445     1.026802
      1.019158     1.011515     1.003872     0.996229     0.988586     0.980943     0.973300     0.965657     0.958014     0.950371
      0.942727     0.935084     0.927441     0.919798     0.912155     0.904512     0.896869     0.889226     0.881583     0.873940
      0.866296     0.858653     0.851010     0.843367     0.835724     0.828081     0.820438     0.812795     0.805152     0.797508
      0.789865     0.782222     0.774579     0.766936     0.759293     0.751650     0.744007     0.736364     0.728721     0.721077
      0.713434     0.705791     0.698148     0.690505     0.682862     0.675219     0.667576     0.659933     0.652290     0.644646
      0.637003     0.629360     0.621717     0.614074     0.606431     0.598788     0.591145     0.583502     0.575858     0.568215
      0.560572     0.552929     0.545286     0.537643     0.530000     0.522357     0.514714     0.507071     0.499427     0.491784
      0.484141     0.476498     0.468855     0.461212     0.453569     0.445925     0.438282     0.430639     0.422996     0.415353
      0.407710     0.400067     0.392424     0.384780     0.377137     0.369494     0.361851     0.354208     0.346565     0.338922
      0.331278     0.323635     0.315992     0.308349     0.300706     0.293063     0.285420     0.277777     0.270133     0.262490
      0.254847     0.247204     0.239561     0.231918     0.224275     0.216631     0.208988     0.201345
 NY phased data points follow
   4.58378E+00  5.85213E+00  9.00279E-01  2.97880E+00  2.69205E+00  4.03429E+00  5.40707E+00  2.94835E+00  3.99302E+00  4.65041E+00
   4.83672E+00  8.07208E+00  4.96558E+00  2.15629E+00  2.87723E+00  5.27201E+00  1.94047E+00  4.33051E+00  1.29389E+00  1.53458E+00
   1.83256E+00  2.83694E+00  4.00190E+00  3.36896E+00  1.08565E+00  2.16942E+00  3.43795E+00  3.30743E+00  1.74808E+00  4.15832E+00
   5.35870E+00  3.43589E+00  1.55889E+00 -3.10883E-01  1.25936E+00  3.21989E+00  3.29040E+00  3.76417E+00 -9.84844E-01  1.66819E+00
   2.08147E+00  2.91216E+00  6.25699E-01  2.60195E+00  9.31676E-01  3.49931E+00  1.17109E+00  2.19073E+00 -4.73556E-01  5.07892E+00
   4.27327E+00  6.91135E-02  2.57302E+00  2.84250E+00  1.99248E+00  7.91044E-01  2.11182E-01  9.37661E-01  2.29978E+00  2.81256E+00
   4.99175E+00  9.12387E-01  4.40449E+00  6.43615E+00  2.16142E+00  3.41648E-01  1.37499E+00  1.18223E+00  1.45039E+00  1.37742E+00
   8.21472E-01  6.66030E-01  5.29492E+00  3.13053E+00  3.73382E+00  1.92219E+00 -1.43951E+00  3.55630E+00  2.73716E+00 -1.58098E-01
  -1.48922E-01  2.91473E+00 -1.21077E+00  2.79602E-01  1.42401E+00  1.27626E+00  3.09945E+00  1.73976E+00  2.19709E+00 -1.48673E+00
   3.52348E+00  3.29402E+00 -1.39243E+00 -8.46459E-03  1.88222E+00  6.52845E-01 -1.78450E+00 -6.49168E-01  7.67066E-01  9.55027E-02
  -4.04774E-01  1.70554E+00  2.78043E+00  2.90661E+00  3.88249E+00  5.46784E+00  4.89358E+00  2.11559E+00  2.04061E+00  1.35225E+00
   4.01926E-01  2.97356E+00  3.32180E+00 -1.11809E-01  3.15710E+00  3.84061E+00  1.28902E+00  2.03194E+00 -1.01469E+00  2.65310E+00
   1.42626E+00 -2.91661E+00 -3.31708E+00 -8.87596E-01 -1.53131E+00 -2.23515E-01  2.98820E+00  3.60500E+00  1.57726E+00  1.49596E+00
   3.01576E+00  1.53798E+00  2.70950E+00  3.94931E+00  2.94413E+00  6.78373E-01  1.25342E+00  2.23469E+00 -6.98372E-02 -2.34253E+00
   7.93132E-01  3.79751E-01 -3.97941E-01  2.64921E+00  2.02951E+00  2.00020E+00 -1.02984E-01 -4.88685E-01 -1.71977E-01  1.47136E+00
   2.72504E-01  1.86223E+00  2.26161E+00 -4.68706E-01  2.08352E+00 -5.46683E-01  2.19751E+00  4.46083E+00  1.46782E+00  6.17572E-01
   4.71403E+00  2.36913E+00  1.21801E+00 -1.47353E+00  3.07312E+00  8.65599E-01  1.55788E+00  5.22981E+00  6.47023E-02  2.94993E+00
   1.62577E+00 -8.17455E-01  2.12563E+00 -5.92604E-01  3.94276E-01  1.30592E+00 -2.06560E+00 -3.90955E-02  3.14406E-01 -1.77330E+00
  -3.70358E-01 -1.03959E+00  3.56368E+00 -3.05113E-02 -4.95627E-02  1.89636E+00  3.99184E-01  1.91360E+00  1.97239E-01  1.04276E+00
   2.71084E+00  2.10077E+00  7.40236E-01  2.35615E+00 -3.14714E-01  1.69428E+00  1.69749E+00  7.32893E-01  2.95705E-02 -1.88970E-01
   3.11935E+00  5.83494E-01  2.06645E+00  3.29637E+00 -1.59071E+00 -1.60250E-01 -7.66343E-01  2.58353E+00 -1.15326E-01 -1.54139E+00
  -1.98006E+00 -1.05818E-02  7.20283E-01 -1.56512E-01  8.59580E-01  5.41026E+00  2.57964E+00  4.49414E+00 -1.78937E-01 -1.51157E+00
   6.38483E-01  1.19541E+00  1.11540E-01 -5.11656E-01 -1.56439E+00 -8.14567E-01 -1.13150E+00  1.60054E+00  1.59976E+00  3.41187E+00
   3.31913E+00  2.84294E+00  2.64564E+00  1.72371E-01 -1.30901E+00 -1.15456E+00  1.28417E+00  2.87680E+00  9.52508E-03  2.86850E+00
  -6.02509E-01 -1.03090E+00 -6.47714E-01 -1.45004E-01  3.53359E-01  2.52147E+00  3.91865E+00  1.41528E+00  1.85750E+00  5.96872E-01
   2.24770E+00  8.08419E-01 -2.53128E+00  1.30003E+00 -4.98312E-01 -2.54929E+00 -5.05485E+00 -2.23483E+00 -2.41136E+00 -1.21049E+00
   1.02858E+00  7.14064E-01  3.93720E-01  6.16861E+00  3.92838E+00  8.77889E-01  1.39314E+00  2.16991E+00 -8.05903E-02  2.12779E+00
  -5.01079E-02  2.55531E+00  1.05378E+00 -2.29632E+00 -1.70114E-02 -1.53637E+00 -1.57936E+00 -1.24456E+00 -1.38213E+00 -9.58123E-01
  -1.29162E+00 -1.22569E+00  1.92321E+00 -1.45054E+00 -2.64677E-02 -4.09509E+00  1.10138E+00 -5.07780E+00 -2.29373E+00 -1.15141E+00
  -1.34658E+00 -7.60163E-01 -1.25868E+00 -4.84693E-01 -3.50579E+00 -1.55893E+00 -2.51642E+00  5.81416E-01 -2.20340E+00 -3.36985E+00
  -1.65003E+00 -3.24159E+00 -3.78493E+00  9.32541E-01 -9.66477E-01 -7.34916E-01 -3.45630E+00 -4.92711E-01 -4.79284E-01  4.73898E-01
  -7.71271E-01  1.66072E+00  1.75376E+00  2.98111E+00  4.35393E+00  4.56052E+00  5.62916E+00  2.39136E+00  4.14596E+00  4.85617E+00
   1.02578E+01  9.65798E+00  1.01785E+01  1.29259E+01  1.35224E+01  1.12349E+01  1.40920E+01  1.03626E+01  1.26060E+01  9.96399E+00
   1.00473E+01  8.52302E+00  9.08627E+00  8.33378E+00  8.83196E+00  9.24447E+00  4.90592E+00  7.29556E+00  6.70818E+00  5.56008E+00
   5.74654E+00  2.49777E+00  6.03994E+00  4.33545E+00  4.85529E+00  5.82783E+00  6.36565E+00  4.72427E+00  4.67260E+00  5.11521E+00
   2.27510E+00  2.92853E+00  4.37835E+00  2.43239E+00  6.14170E+00  3.89159E+00  5.33004E+00  5.43404E+00  3.21614E+00  4.72311E+00
   3.89625E+00  2.66913E+00  1.35459E+00  8.81537E-01  5.73799E+00  3.68000E+00  3.22703E+00  1.92633E+00  5.05073E+00 -9.09870E-01
   1.40320E+00  3.29498E+00  1.75617E+00  3.78526E-01  3.38267E-01  2.11800E-01  5.66389E-01  2.23594E+00  1.21280E+00 -7.62677E-01
  -3.83682E-01 -2.83354E+00 -7.94462E-01 -3.31695E+00 -2.73607E+00 -3.40792E+00 -1.01607E+00  1.42059E+00 -4.95929E-01 -1.78521E-01
   1.01553E+00  1.56968E-02  3.13457E+00 -3.71486E-01  3.04868E-01  3.33801E-01 -1.01977E+00 -2.03569E-01 -1.38573E+00  3.61345E+00
   1.39616E+00  3.35524E+00  2.38891E+00  6.05414E-01  3.18275E+00  2.60100E+00  2.12965E-01  4.83128E-01  2.40922E+00  2.11039E+00
   1.78779E+00 -5.22936E-01  1.35836E+00  5.59761E-01  8.16758E-01 -1.03325E-01  1.03223E+00  1.47842E+00  1.44631E+00  2.44488E+00
   1.56760E+00  2.01461E+00  1.18866E+00  6.82004E-01  3.22875E+00 -5.72577E-01 -3.36989E-01 -3.15368E-02  4.05523E-01 -2.23607E+00
  -1.48949E+00 -1.61565E+00  2.19955E-02 -4.19049E-01  3.88086E-01  1.14226E-01 -7.15688E-01 -1.01830E+00  1.74199E+00 -1.73116E+00
  -5.44321E-01 -9.15821E-01 -7.25086E-01 -7.19485E-01 -2.36561E+00 -2.64606E+00 -5.31760E-01 -3.01996E+00  1.84722E-01 -1.49234E+00
  -1.72394E+00  1.62891E+00  2.80251E+00 -2.24205E+00 -1.37587E+00  7.24704E-01 -1.65644E+00  6.11652E-01  1.00256E-01 -8.07097E-01
  -2.80073E+00  3.19974E-01 -8.31525E-01 -5.38368E-01 -8.79824E-01 -2.29126E+00 -3.60645E-01  1.65857E+00 -2.63689E+00 -1.44797E+00
  -1.01450E-01 -1.98074E+00  1.39576E+00  4.99638E-01 -2.74972E-02  1.02957E+00 -6.32794E-01 -1.01256E+00  2.73024E+00 -3.07245E-01
  -1.77920E+00 -1.81688E+00 -1.73807E+00  8.32078E-01  1.82872E+00 -1.48956E+00 -2.46384E+00  1.80566E-01  4.73515E-01  2.75192E+00
   5.53567E-01 -1.00329E+00  1.52999E+00  7.22454E-01 -1.91720E-01  2.37940E+00 -4.86006E-01 -2.17243E+00
 NY points of the fit to the data follow
   2.57484E+00  2.41490E+00  2.25041E+00  1.99448E+00  1.64828E+00  1.69542E+00  2.15205E+00  2.78210E+00  3.41874E+00  3.91639E+00
   4.17320E+00  4.10508E+00  3.69434E+00  3.11146E+00  2.58165E+00  2.27113E+00  2.20691E+00  2.19058E+00  2.19275E+00  2.20181E+00
   2.18851E+00  2.20197E+00  2.30739E+00  2.39007E+00  2.18091E+00  1.82901E+00  1.73661E+00  1.83858E+00  2.01827E+00  2.28340E+00
   2.69802E+00  3.15514E+00  3.43353E+00  3.40086E+00  3.09084E+00  2.69567E+00  2.40462E+00  2.17670E+00  1.93556E+00  1.80108E+00
   1.77785E+00  1.74636E+00  1.58562E+00  1.38805E+00  1.40666E+00  1.72106E+00  2.21004E+00  2.69275E+00  3.04712E+00  3.20229E+00
   3.09721E+00  2.71829E+00  2.19602E+00  1.73799E+00  1.44563E+00  1.32863E+00  1.35088E+00  1.45795E+00  1.64331E+00  1.86669E+00
   2.06679E+00  2.19949E+00  2.22065E+00  2.12109E+00  1.92496E+00  1.70446E+00  1.53864E+00  1.43996E+00  1.43756E+00  1.52541E+00
   1.62963E+00  1.71828E+00  1.79307E+00  1.85158E+00  1.89069E+00  1.89545E+00  1.85802E+00  1.78355E+00  1.69689E+00  1.62678E+00
   1.56335E+00  1.50259E+00  1.53032E+00  1.64604E+00  1.76491E+00  1.80628E+00  1.74785E+00  1.61245E+00  1.44280E+00  1.26908E+00
   1.13482E+00  1.07653E+00  1.11541E+00  1.24022E+00  1.35581E+00  1.39954E+00  1.29368E+00  8.04210E-01 -1.09479E-01 -3.60447E-01
   2.98964E-01  1.46247E+00  2.76595E+00  3.90063E+00  4.66026E+00  4.82215E+00  4.21768E+00  3.08121E+00  1.93738E+00  1.22360E+00
   1.10490E+00  1.16463E+00  1.21921E+00  1.26532E+00  1.30968E+00  1.35172E+00  1.37438E+00  1.37186E+00  1.34418E+00  1.27492E+00
   1.11767E+00  6.70140E-01  2.94613E-02 -6.05844E-03  6.23074E-01  1.58380E+00  2.58669E+00  3.39272E+00  3.85679E+00  3.90733E+00
   3.49606E+00  2.77188E+00  2.05826E+00  1.61518E+00  1.44101E+00  1.25632E+00  9.89050E-01  7.49898E-01  6.43089E-01  6.88721E-01
   8.55958E-01  1.05406E+00  1.20084E+00  1.26539E+00  1.23989E+00  1.15489E+00  1.06624E+00  9.93045E-01  9.50432E-01  9.19165E-01
   8.81812E-01  8.32712E-01  7.81312E-01  7.38258E-01  7.08524E-01  6.98858E-01  7.14159E-01  7.26301E-01  7.10143E-01  6.62321E-01
   5.86092E-01  5.18595E-01  4.77586E-01  4.62338E-01  4.71562E-01  4.96637E-01  5.20261E-01  5.23860E-01  4.95971E-01  4.54845E-01
   4.25279E-01  4.19717E-01  4.21427E-01  3.84846E-01  3.26198E-01  2.75513E-01  2.52417E-01  2.43998E-01  2.27738E-01  2.21137E-01
   2.38213E-01  2.55356E-01  2.57766E-01  2.12521E-01  1.08573E-01 -3.21145E-03 -8.36618E-02 -9.70077E-02 -1.63732E-02  1.37853E-01
   3.35972E-01  5.35869E-01  6.87027E-01  7.16386E-01  5.85474E-01  3.77937E-01  1.94805E-01  8.41653E-02  4.35706E-02  4.80162E-02
   1.07085E-01  2.34768E-01  4.19821E-01  5.73211E-01  7.07967E-01  8.31680E-01  8.99624E-01  8.73942E-01  7.37699E-01  4.85395E-01
   1.25729E-01 -1.94824E-01 -1.53108E-01  2.40432E-01  8.24681E-01  1.48058E+00  2.10096E+00  2.56144E+00  2.56902E+00  1.96277E+00
   1.03893E+00  1.91916E-01 -3.43808E-01 -4.77369E-01 -2.81700E-01  2.36799E-01  9.80274E-01  1.64756E+00  1.99607E+00  2.00992E+00
   1.83560E+00  1.62735E+00  1.45442E+00  1.42505E+00  1.62885E+00  2.01241E+00  2.40598E+00  2.69946E+00  2.80794E+00  2.68688E+00
   2.37232E+00  2.02310E+00  1.78913E+00  1.74716E+00  1.93320E+00  2.29105E+00  2.69282E+00  2.98143E+00  3.07107E+00  2.96765E+00
   2.74220E+00  2.49200E+00  2.30446E+00  2.18806E+00  1.99529E+00  1.33959E+00  4.00857E-01  1.66242E-01  6.97300E-01  1.67502E+00
   2.85083E+00  3.93070E+00  4.67271E+00  4.79756E+00  4.13734E+00  2.96183E+00  1.77813E+00  1.01534E+00  7.20899E-01  5.33378E-01
   3.74942E-01  2.49038E-01  1.43715E-01  7.21795E-02  3.84312E-02  3.16677E-02  2.68458E-02  1.67247E-05 -5.55587E-02 -1.30813E-01
  -2.10825E-01 -2.86291E-01 -3.52634E-01 -4.03918E-01 -4.39350E-01 -4.63222E-01 -4.79179E-01 -4.91495E-01 -5.01914E-01 -5.10016E-01
  -5.16263E-01 -5.20394E-01 -5.21260E-01 -5.18203E-01 -5.11226E-01 -5.00277E-01 -4.84407E-01 -4.62838E-01 -4.35367E-01 -4.00703E-01
  -3.57053E-01 -3.02972E-01 -2.36588E-01 -1.55675E-01 -5.76820E-02  6.02120E-02  2.00972E-01  3.67751E-01  5.63796E-01  7.92181E-01
   1.05550E+00  1.35531E+00  1.69207E+00  2.06495E+00  2.47154E+00  2.90763E+00  3.36707E+00  3.84162E+00  4.32079E+00  4.79115E+00
   5.23366E+00  5.61519E+00  5.94460E+00  6.40464E+00  6.96780E+00  7.48188E+00  7.85780E+00  8.05381E+00  8.06646E+00  7.87439E+00
   7.34869E+00  6.63658E+00  6.03492E+00  5.67124E+00  5.54197E+00  5.52416E+00  5.56018E+00  5.62847E+00  5.65164E+00  5.55062E+00
   5.32152E+00  5.01307E+00  4.74398E+00  4.66380E+00  4.74854E+00  4.89015E+00  5.01935E+00  5.09825E+00  5.11164E+00  5.01750E+00
   4.72825E+00  4.36382E+00  4.08584E+00  3.95498E+00  3.96267E+00  4.02200E+00  4.08231E+00  4.11976E+00  4.08083E+00  3.92877E+00
   3.67779E+00  3.37757E+00  3.09965E+00  2.84566E+00  2.60194E+00  2.36594E+00  2.13833E+00  1.92060E+00  1.71433E+00  1.52098E+00
   1.34176E+00  1.17761E+00  1.02926E+00  8.97187E-01  7.81672E-01  6.82824E-01  6.00619E-01  5.34949E-01  4.85645E-01  4.52491E-01
   4.35233E-01  4.33589E-01  4.47272E-01  4.75999E-01  5.19475E-01  5.77382E-01  6.49347E-01  7.34937E-01  8.33634E-01  9.44815E-01
   1.06771E+00  1.20138E+00  1.34463E+00  1.49606E+00  1.65403E+00  1.81661E+00  1.98165E+00  2.14670E+00  2.30913E+00  2.46611E+00
   2.61475E+00  2.75212E+00  2.87534E+00  2.98167E+00  3.06863E+00  3.13408E+00  3.17630E+00  3.19408E+00  3.18673E+00  3.15414E+00
   3.09677E+00  3.01562E+00  2.91225E+00  2.78865E+00  2.64716E+00  2.49040E+00  2.32117E+00  2.14237E+00  1.95687E+00  1.76743E+00
   1.57665E+00  1.38687E+00  1.20016E+00  1.01832E+00  8.42801E-01  6.74757E-01  5.15030E-01  3.64193E-01  2.22576E-01  9.03036E-02
  -3.26857E-02 -1.46601E-01 -2.51769E-01 -3.48590E-01 -4.37516E-01 -5.19033E-01 -5.93648E-01 -6.61876E-01 -7.24219E-01 -7.81154E-01
  -8.33130E-01 -8.80567E-01 -9.23867E-01 -9.63402E-01 -9.99510E-01 -1.03249E+00 -1.06263E+00 -1.09016E+00 -1.11534E+00 -1.13836E+00
  -1.15942E+00 -1.17868E+00 -1.19630E+00 -1.21240E+00 -1.22713E+00 -1.24059E+00 -1.25289E+00 -1.26411E+00 -1.27433E+00 -1.28364E+00
  -1.29210E+00 -1.29979E+00 -1.30676E+00 -1.31305E+00 -1.31872E+00 -1.32380E+00 -1.32836E+00 -1.33241E+00 -1.33599E+00 -1.33913E+00
  -1.34186E+00 -1.34421E+00 -1.34621E+00 -1.34788E+00 -1.34923E+00 -1.35028E+00 -1.35105E+00 -1.35157E+00 -1.35185E+00 -1.35190E+00
  -1.35172E+00 -1.35135E+00 -1.35078E+00 -1.35004E+00 -1.34914E+00 -1.34806E+00 -1.34684E+00 -1.34547E+00 -1.34397E+00 -1.34235E+00
  -1.34061E+00 -1.33875E+00 -1.33678E+00 -1.33472E+00 -1.33256E+00 -1.33032E+00 -1.32799E+00 -1.32558E+00
 NY background values follow
     1.763E+00    1.750E+00    1.737E+00    1.724E+00    1.710E+00    1.697E+00    1.684E+00    1.671E+00    1.658E+00    1.645E+00
     1.631E+00    1.618E+00    1.605E+00    1.592E+00    1.578E+00    1.565E+00    1.551E+00    1.538E+00    1.525E+00    1.511E+00
     1.498E+00    1.484E+00    1.470E+00    1.457E+00    1.443E+00    1.430E+00    1.416E+00    1.402E+00    1.389E+00    1.375E+00
     1.361E+00    1.347E+00    1.334E+00    1.320E+00    1.306E+00    1.292E+00    1.278E+00    1.264E+00    1.250E+00    1.236E+00
     1.222E+00    1.208E+00    1.194E+00    1.180E+00    1.166E+00    1.152E+00    1.138E+00    1.124E+00    1.110E+00    1.096E+00
     1.082E+00    1.068E+00    1.054E+00    1.039E+00    1.025E+00    1.011E+00    9.968E-01    9.826E-01    9.684E-01    9.541E-01
     9.398E-01    9.256E-01    9.113E-01    8.970E-01    8.827E-01    8.684E-01    8.541E-01    8.397E-01    8.254E-01    8.111E-01
     7.967E-01    7.824E-01    7.680E-01    7.537E-01    7.393E-01    7.249E-01    7.105E-01    6.962E-01    6.818E-01    6.674E-01
     6.530E-01    6.386E-01    6.242E-01    6.098E-01    5.954E-01    5.810E-01    5.667E-01    5.523E-01    5.379E-01    5.235E-01
     5.091E-01    4.947E-01    4.804E-01    4.660E-01    4.516E-01    4.373E-01    4.229E-01    4.086E-01    3.942E-01    3.799E-01
     3.655E-01    3.512E-01    3.369E-01    3.226E-01    3.083E-01    2.940E-01    2.797E-01    2.654E-01    2.512E-01    2.369E-01
     2.227E-01    2.084E-01    1.942E-01    1.800E-01    1.658E-01    1.516E-01    1.375E-01    1.233E-01    1.092E-01    9.502E-02
     8.091E-02    6.681E-02    5.272E-02    3.865E-02    2.459E-02    1.055E-02   -3.470E-03   -1.748E-02   -3.146E-02   -4.543E-02
    -5.938E-02   -7.332E-02   -8.723E-02   -1.011E-01   -1.150E-01   -1.289E-01   -1.427E-01   -1.565E-01   -1.703E-01   -1.841E-01
    -1.978E-01   -2.115E-01   -2.252E-01   -2.389E-01   -2.526E-01   -2.662E-01   -2.798E-01   -2.934E-01   -3.069E-01   -3.205E-01
    -3.340E-01   -3.475E-01   -3.609E-01   -3.743E-01   -3.877E-01   -4.011E-01   -4.145E-01   -4.278E-01   -4.411E-01   -4.543E-01
    -4.676E-01   -4.808E-01   -4.940E-01   -5.071E-01   -5.202E-01   -5.333E-01   -5.464E-01   -5.594E-01   -5.724E-01   -5.853E-01
    -5.983E-01   -6.112E-01   -6.240E-01   -6.369E-01   -6.497E-01   -6.624E-01   -6.752E-01   -6.878E-01   -7.005E-01   -7.131E-01
    -7.257E-01   -7.383E-01   -7.508E-01   -7.633E-01   -7.757E-01   -7.881E-01   -8.005E-01   -8.128E-01   -8.251E-01   -8.374E-01
    -8.496E-01   -8.617E-01   -8.738E-01   -8.859E-01   -8.979E-01   -9.099E-01   -9.218E-01   -9.337E-01   -9.455E-01   -9.573E-01
    -9.691E-01   -9.807E-01   -9.924E-01   -1.004E+00   -1.015E+00   -1.027E+00   -1.038E+00   -1.050E+00   -1.061E+00   -1.072E+00
    -1.083E+00   -1.095E+00   -1.106E+00   -1.117E+00   -1.128E+00   -1.139E+00   -1.149E+00   -1.160E+00   -1.171E+00   -1.181E+00
    -1.192E+00   -1.202E+00   -1.213E+00   -1.223E+00   -1.234E+00   -1.244E+00   -1.254E+00   -1.264E+00   -1.274E+00   -1.284E+00
    -1.294E+00   -1.304E+00   -1.313E+00   -1.323E+00   -1.333E+00   -1.342E+00   -1.351E+00   -1.361E+00   -1.370E+00   -1.379E+00
    -1.388E+00   -1.397E+00   -1.406E+00   -1.415E+00   -1.424E+00   -1.433E+00   -1.441E+00   -1.450E+00   -1.458E+00   -1.467E+00
    -1.475E+00   -1.483E+00   -1.491E+00   -1.500E+00   -1.508E+00   -1.515E+00   -1.523E+00   -1.531E+00   -1.539E+00   -1.546E+00
    -1.554E+00   -1.561E+00   -1.568E+00   -1.576E+00   -1.583E+00   -1.590E+00   -1.597E+00   -1.604E+00   -1.611E+00   -1.617E+00
    -1.624E+00   -1.630E+00   -1.637E+00   -1.643E+00   -1.650E+00   -1.656E+00   -1.662E+00   -1.668E+00   -1.674E+00   -1.680E+00
    -1.685E+00   -1.691E+00   -1.697E+00   -1.702E+00   -1.707E+00   -1.713E+00   -1.718E+00   -1.723E+00   -1.728E+00   -1.733E+00
    -1.738E+00   -1.743E+00   -1.748E+00   -1.753E+00   -1.757E+00   -1.762E+00   -1.766E+00   -1.771E+00   -1.775E+00   -1.779E+00
    -1.784E+00   -1.788E+00   -1.792E+00   -1.796E+00   -1.800E+00   -1.804E+00   -1.808E+00   -1.811E+00   -1.815E+00   -1.819E+00
    -1.822E+00   -1.826E+00   -1.829E+00   -1.832E+00   -1.836E+00   -1.839E+00   -1.842E+00   -1.845E+00   -1.848E+00   -1.851E+00
    -1.854E+00   -1.857E+00   -1.860E+00   -1.863E+00   -1.865E+00   -1.868E+00   -1.871E+00   -1.873E+00   -1.876E+00   -1.878E+00
    -1.880E+00   -1.883E+00   -1.885E+00   -1.887E+00   -1.889E+00   -1.891E+00   -1.893E+00   -1.895E+00   -1.897E+00   -1.899E+00
    -1.901E+00   -1.903E+00   -1.904E+00   -1.906E+00   -1.907E+00   -1.909E+00   -1.910E+00   -1.912E+00   -1.913E+00   -1.914E+00
    -1.916E+00   -1.917E+00   -1.918E+00   -1.919E+00   -1.920E+00   -1.921E+00   -1.922E+00   -1.923E+00   -1.923E+00   -1.924E+00
    -1.925E+00   -1.925E+00   -1.926E+00   -1.927E+00   -1.927E+00   -1.927E+00   -1.928E+00   -1.928E+00   -1.928E+00   -1.928E+00
    -1.928E+00   -1.928E+00   -1.928E+00   -1.928E+00   -1.928E+00   -1.928E+00   -1.928E+00   -1.928E+00   -1.927E+00   -1.927E+00
    -1.926E+00   -1.926E+00   -1.925E+00   -1.925E+00   -1.924E+00   -1.923E+00   -1.922E+00   -1.922E+00   -1.921E+00   -1.920E+00
    -1.919E+00   -1.918E+00   -1.916E+00   -1.915E+00   -1.914E+00   -1.913E+00   -1.911E+00   -1.910E+00   -1.908E+00   -1.907E+00
    -1.905E+00   -1.903E+00   -1.902E+00   -1.900E+00   -1.898E+00   -1.896E+00   -1.894E+00   -1.892E+00   -1.890E+00   -1.888E+00
    -1.886E+00   -1.883E+00   -1.881E+00   -1.879E+00   -1.876E+00   -1.874E+00   -1.871E+00   -1.869E+00   -1.866E+00   -1.863E+00
    -1.861E+00   -1.858E+00   -1.855E+00   -1.852E+00   -1.849E+00   -1.846E+00   -1.843E+00   -1.840E+00   -1.837E+00   -1.834E+00
    -1.831E+00   -1.828E+00   -1.824E+00   -1.821E+00   -1.818E+00   -1.814E+00   -1.811E+00   -1.808E+00   -1.804E+00   -1.801E+00
    -1.797E+00   -1.794E+00   -1.790E+00   -1.786E+00   -1.783E+00   -1.779E+00   -1.775E+00   -1.771E+00   -1.768E+00   -1.764E+00
    -1.760E+00   -1.756E+00   -1.752E+00   -1.749E+00   -1.745E+00   -1.741E+00   -1.737E+00   -1.733E+00   -1.729E+00   -1.725E+00
    -1.721E+00   -1.717E+00   -1.713E+00   -1.709E+00   -1.704E+00   -1.700E+00   -1.696E+00   -1.692E+00   -1.688E+00   -1.684E+00
    -1.680E+00   -1.675E+00   -1.671E+00   -1.667E+00   -1.663E+00   -1.659E+00   -1.654E+00   -1.650E+00   -1.646E+00   -1.641E+00
    -1.637E+00   -1.633E+00   -1.629E+00   -1.624E+00   -1.620E+00   -1.616E+00   -1.611E+00   -1.607E+00   -1.603E+00   -1.598E+00
    -1.594E+00   -1.590E+00   -1.585E+00   -1.581E+00   -1.577E+00   -1.572E+00   -1.568E+00   -1.564E+00
 Ala      Conc. = 1.15E+01
