 LCModel (Version 6.3-1L) Copyright: S.W. Provencher.          Ref.: Magn. Reson. Med. 30:672-679 (1993).                
 Slice#1 Row#5 Col#6  PD_05_press_2_raw_act
 36 lines in following concentration table = NCONC+1
    Conc.  %SD /Cr+PCr  Metabolite                                         
  146.861 334% 8.9E-02 Ala                                                 
  234.326 120%   0.142 Asp                                                 
    0.000 999%   0.000 Cr                                                  
 1.65E+03  12%   1.000 PCr                                                 
  140.110 122% 8.5E-02 GABA                                                
  142.882 119% 8.7E-02 Glc                                                 
 1.51E+03  70%   0.916 Gln                                                 
  416.235 281%   0.253 Glu                                                 
  515.293  14%   0.313 GPC                                                 
    0.000 999%   0.000 PCh                                                 
    0.000 999%   0.000 GSH                                                 
 1.21E+03  70%   0.735 Ins                                                 
    0.000 999%   0.000 Lac                                                 
 2.60E+03   9%   1.575 NAA                                                 
    0.000 999%   0.000 NAAG                                                
   79.466  64% 4.8E-02 Scyllo                                              
  261.387 104%   0.159 Tau                                                 
  397.167  67%   0.241 -CrCH2                                              
  515.293  14%   0.313 GPC+PCh                                             
 2.60E+03   9%   1.575 NAA+NAAG                                            
 1.65E+03  12%   1.000 Cr+PCr                                              
 1.93E+03  93%   1.169 Glu+Gln                                             
 4.80E+03  29%   2.912 Lip13a                                              
 1.71E+03  33%   1.035 Lip13b                                              
 1.27E+03  56%   0.772 Lip09                                               
 2.44E+03  29%   1.482 MM09                                                
 1.09E+03  51%   0.659 Lip20                                               
 5.29E+03  19%   3.210 MM20                                                
  860.708  50%   0.522 MM12                                                
    0.000 999%   0.000 MM14                                                
 1.02E+03  54%   0.616 MM17                                                
 6.50E+03  18%   3.947 Lip13a+Lip13b                                       
 7.37E+03  14%   4.469 MM14+Lip13a+Lip13b+MM12                             
 3.71E+03  14%   2.254 MM09+Lip09                                          
 6.38E+03  15%   3.869 MM20+Lip20                                          
   6 lines in following misc. output table
  FWHM = 0.069 ppm    S/N =   3                                            
  Data shift =-0.008 ppm                                                   
  Ph: -45 deg      -3.4 deg/ppm                                            
  alphaB,S = 8.5E+01,   1.0E+02                                            
   14 spline knots.   Ns = 8(1)                                            
   2 inflections.     1 extrema                                            
  498 points on ppm-axis = NY
      4.000000     3.992357     3.984714     3.977070     3.969427     3.961784     3.954141     3.946497     3.938854     3.931211
      3.923568     3.915925     3.908281     3.900638     3.892995     3.885352     3.877708     3.870065     3.862422     3.854779
      3.847136     3.839492     3.831849     3.824206     3.816563     3.808919     3.801276     3.793633     3.785990     3.778347
      3.770703     3.763060     3.755417     3.747774     3.740130     3.732487     3.724844     3.717201     3.709558     3.701914
      3.694271     3.686628     3.678985     3.671341     3.663698     3.656055     3.648412     3.640769     3.633125     3.625482
      3.617839     3.610196     3.602552     3.594909     3.587266     3.579623     3.571980     3.564336     3.556693     3.549050
      3.541407     3.533763     3.526120     3.518477     3.510834     3.503191     3.495547     3.487904     3.480261     3.472618
      3.464974     3.457331     3.449688     3.442045     3.434402     3.426758     3.419115     3.411472     3.403829     3.396185
      3.388542     3.380899     3.373256     3.365613     3.357969     3.350326     3.342683     3.335040     3.327396     3.319753
      3.312110     3.304467     3.296824     3.289180     3.281537     3.273894     3.266251     3.258607     3.250964     3.243321
      3.235678     3.228034     3.220391     3.212748     3.205105     3.197462     3.189818     3.182175     3.174532     3.166889
      3.159245     3.151602     3.143959     3.136316     3.128673     3.121029     3.113386     3.105743     3.098100     3.090456
      3.082813     3.075170     3.067527     3.059884     3.052240     3.044597     3.036954     3.029311     3.021667     3.014024
      3.006381     2.998738     2.991095     2.983451     2.975808     2.968165     2.960522     2.952878     2.945235     2.937592
      2.929949     2.922306     2.914662     2.907019     2.899376     2.891733     2.884089     2.876446     2.868803     2.861160
      2.853517     2.845873     2.838230     2.830587     2.822944     2.815300     2.807657     2.800014     2.792371     2.784728
      2.777084     2.769441     2.761798     2.754155     2.746511     2.738868     2.731225     2.723582     2.715939     2.708295
      2.700652     2.693009     2.685366     2.677722     2.670079     2.662436     2.654793     2.647150     2.639506     2.631863
      2.624220     2.616577     2.608933     2.601290     2.593647     2.586004     2.578361     2.570717     2.563074     2.555431
      2.547788     2.540144     2.532501     2.524858     2.517215     2.509572     2.501928     2.494285     2.486642     2.478999
      2.471355     2.463712     2.456069     2.448426     2.440783     2.433139     2.425496     2.417853     2.410210     2.402566
      2.394923     2.387280     2.379637     2.371994     2.364350     2.356707     2.349064     2.341421     2.333777     2.326134
      2.318491     2.310848     2.303205     2.295561     2.287918     2.280275     2.272632     2.264988     2.257345     2.249702
      2.242059     2.234416     2.226772     2.219129     2.211486     2.203843     2.196199     2.188556     2.180913     2.173270
      2.165627     2.157983     2.150340     2.142697     2.135054     2.127410     2.119767     2.112124     2.104481     2.096838
      2.089194     2.081551     2.073908     2.066265     2.058621     2.050978     2.043335     2.035692     2.028049     2.020405
      2.012762     2.005119     1.997476     1.989833     1.982190     1.974546     1.966903     1.959260     1.951617     1.943974
      1.936331     1.928688     1.921045     1.913402     1.905759     1.898115     1.890472     1.882829     1.875186     1.867543
      1.859900     1.852257     1.844614     1.836971     1.829327     1.821684     1.814041     1.806398     1.798755     1.791112
      1.783469     1.775826     1.768183     1.760540     1.752896     1.745253     1.737610     1.729967     1.722324     1.714681
      1.707038     1.699395     1.691752     1.684108     1.676465     1.668822     1.661179     1.653536     1.645893     1.638250
      1.630607     1.622964     1.615321     1.607677     1.600034     1.592391     1.584748     1.577105     1.569462     1.561819
      1.554176     1.546533     1.538890     1.531246     1.523603     1.515960     1.508317     1.500674     1.493031     1.485388
      1.477745     1.470102     1.462458     1.454815     1.447172     1.439529     1.431886     1.424243     1.416600     1.408957
      1.401314     1.393671     1.386027     1.378384     1.370741     1.363098     1.355455     1.347812     1.340169     1.332526
      1.324883     1.317240     1.309596     1.301953     1.294310     1.286667     1.279024     1.271381     1.263738     1.256095
      1.248452     1.240808     1.233165     1.225522     1.217879     1.210236     1.202593     1.194950     1.187307     1.179664
      1.172021     1.164377     1.156734     1.149091     1.141448     1.133805     1.126162     1.118519     1.110876     1.103233
      1.095590     1.087946     1.080303     1.072660     1.065017     1.057374     1.049731     1.042088     1.034445     1.026802
      1.019158     1.011515     1.003872     0.996229     0.988586     0.980943     0.973300     0.965657     0.958014     0.950371
      0.942727     0.935084     0.927441     0.919798     0.912155     0.904512     0.896869     0.889226     0.881583     0.873940
      0.866296     0.858653     0.851010     0.843367     0.835724     0.828081     0.820438     0.812795     0.805152     0.797508
      0.789865     0.782222     0.774579     0.766936     0.759293     0.751650     0.744007     0.736364     0.728721     0.721077
      0.713434     0.705791     0.698148     0.690505     0.682862     0.675219     0.667576     0.659933     0.652290     0.644646
      0.637003     0.629360     0.621717     0.614074     0.606431     0.598788     0.591145     0.583502     0.575858     0.568215
      0.560572     0.552929     0.545286     0.537643     0.530000     0.522357     0.514714     0.507071     0.499427     0.491784
      0.484141     0.476498     0.468855     0.461212     0.453569     0.445925     0.438282     0.430639     0.422996     0.415353
      0.407710     0.400067     0.392424     0.384780     0.377137     0.369494     0.361851     0.354208     0.346565     0.338922
      0.331278     0.323635     0.315992     0.308349     0.300706     0.293063     0.285420     0.277777     0.270133     0.262490
      0.254847     0.247204     0.239561     0.231918     0.224275     0.216631     0.208988     0.201345
 NY phased data points follow
  -4.39476E+01 -1.82494E+01 -3.41333E+01 -1.44789E+01 -2.70642E+00 -8.15933E+00 -5.60950E+00 -9.41780E+00  8.33092E+00  1.22057E+01
  -5.20338E-02  1.48499E+01 -5.06767E+00 -2.40326E+00 -1.25835E+01  6.05484E+00 -1.67669E+01 -2.90150E+01 -8.32903E+00 -1.30982E+01
  -1.05780E+01  1.84583E+00 -2.84552E+01 -1.02436E+01 -1.56432E+01 -2.30292E+01 -7.47419E+00 -6.86853E+00 -2.58623E+01 -2.59794E+01
  -1.77140E+01 -3.40233E+01 -2.00881E+01 -8.39057E+00 -2.73452E+01 -1.96668E+01 -2.89428E+01 -1.63075E+01 -1.33125E+01 -8.54563E+00
  -1.22989E+01  8.09029E+00 -8.10185E+00 -1.29886E+01 -1.41535E+01  6.19557E+00 -1.21451E+01  3.67006E+00  1.49280E+01 -1.11508E+01
  -2.79199E+01 -1.05993E+01 -1.26479E+00 -3.43191E+00 -4.97223E-01 -1.74791E+01 -3.29981E+00 -1.27672E+01 -2.19390E+01 -3.20718E+00
  -3.65932E+01  7.41031E+00 -1.47945E+00  1.20538E+00 -7.50550E-01 -2.67773E+01 -1.51206E+01 -2.95633E+01 -6.85859E+00 -2.60301E+01
   3.37168E+00 -2.97681E+01 -4.11537E+01 -2.48839E+01 -3.64854E+00 -2.33693E+01 -1.73434E+00  1.56218E+00 -1.20707E+01 -1.63328E+01
  -1.22412E+01 -1.83901E+01 -1.96045E+01 -1.21412E+01 -1.37013E+01 -7.29946E+00 -2.95690E+00 -2.68477E+00 -2.90178E+01 -4.04450E+00
  -2.53076E+01 -3.82536E+00 -1.02376E+01  1.05860E+01 -1.61711E+01 -1.09859E+01 -1.33182E+01 -2.57552E+01  5.65626E+00 -1.29159E+01
  -7.00321E+00  2.00486E+01  1.57554E+01  3.45272E+01  3.10828E+01  2.26278E+01  1.98422E+01  1.69104E+01  1.79107E+01  5.52770E-01
   9.90606E+00  1.27190E+00 -2.53429E+01  5.67175E+00 -1.69050E+01 -2.66578E+01  3.66359E+00 -8.70448E+00 -1.78831E+01 -1.07674E+01
  -1.27195E+01  9.43498E+00  3.02378E+00  1.64334E+01  2.42719E+01  3.04482E+01  2.33654E+01  4.37744E+01  1.96410E+01  3.21673E+01
   3.69533E+01  1.34824E+01  2.25653E+01  2.34477E+01 -1.91435E+01  4.35815E+00 -4.74076E-01  1.95507E+01 -4.31930E+00 -1.16417E+01
  -1.47693E+00 -1.81074E+01 -1.50905E+01 -2.38525E+01  3.07593E+00 -1.30743E+00 -2.23080E+01 -3.04264E+01 -3.21563E+00 -2.61019E+01
  -1.33111E+01 -2.46405E+01 -2.05231E+01 -1.62572E+00 -2.25956E+01 -2.26772E+01 -2.32105E+01  2.30190E+01 -7.80059E+00 -8.82103E+00
  -4.49863E+00 -8.34148E+00 -2.68680E+01 -1.44842E+01 -2.47443E+01  9.92402E+00 -1.61588E+01 -1.99742E+01 -1.48680E+01 -5.04526E+00
  -5.35383E+00 -2.87338E+01 -2.08756E+01 -2.26342E+01 -2.54230E+01 -8.34357E+00 -2.33034E+01 -1.70475E+01 -4.15817E+01 -3.06227E+01
  -3.61464E+01 -8.54542E+00 -2.10142E+01 -3.08697E+01 -2.20849E+01 -2.91625E+01 -3.50773E+01 -1.35050E+01 -1.79703E+01 -4.42199E+00
  -1.91895E+01 -1.57087E+01 -1.41899E+01  1.11092E+01 -2.34247E+01 -2.28247E+01 -1.61081E+01 -1.05034E+01 -1.53104E+01  1.49238E+00
  -2.29678E+01 -1.81829E+01 -3.18972E+00 -1.82444E+01 -9.74961E+00 -5.64807E+00  1.74206E+01  6.75025E+00  9.22793E+00  1.51587E+01
  -1.25943E+01 -2.42215E+01 -1.65578E+01 -4.68897E+00 -1.78888E+00  2.63852E+00 -2.53166E+01 -1.58076E+00 -2.05734E+00  2.29053E+01
   2.65379E+01  4.92317E+00 -1.37722E+01 -1.29624E+00 -1.21619E+01  5.69839E+00  1.26481E+01  9.62586E+00 -2.20171E+01 -4.80988E+00
   1.88619E+01  9.90020E+00 -9.58257E+00  2.55733E+01  6.22467E+00  1.16352E+01  1.31109E+00  1.61377E+01  1.83412E+01  1.71212E+01
   7.57712E+00  2.59186E+01  9.50720E+00  1.73170E+00  1.30226E+01  4.14811E+00  1.79495E+00  1.72635E+01  9.46234E+00  1.39886E+01
  -1.12592E+00 -5.61576E+00  1.72881E+01  1.26982E+01  2.46517E+01  4.52589E+01  2.93613E+01  3.95544E+01  7.93763E+01  8.54535E+01
   8.43492E+01  8.58107E+01  7.30964E+01  4.93374E+01  7.39505E+01  5.72579E+01  3.86214E+01  2.73195E+01  1.96954E+01  5.72256E+00
  -6.20241E+00  1.16192E+01  1.48366E+01  3.13444E+01  3.96392E+00  9.96555E+00  9.00163E+00 -3.43061E+00 -1.30128E+00  2.55583E+01
   6.41769E+00  7.43516E+00  2.17573E+01  7.46931E+00 -3.16711E+00  4.03867E+00 -4.13365E+00 -1.27992E+01 -1.52406E+01 -1.64426E-01
   3.18902E+00 -3.75364E+00  1.27256E+01 -9.73224E+00  1.85779E+01 -3.84034E+00  8.67941E+00  1.13231E+01  1.31489E+01 -1.99664E+01
   2.89609E+01  1.72532E+01  2.17001E+00  4.01854E+00 -2.10339E+00 -8.77729E+00  2.71080E+00  7.92271E+00 -1.12971E+01 -3.73683E-01
   1.11627E+00 -9.04091E+00 -6.34636E+00 -8.11275E+00  2.73971E+00 -1.01488E+00 -2.60042E+01 -3.81398E+00 -1.36066E+01  1.21352E+01
  -4.42937E+00 -1.71734E+01 -2.24732E+01  4.13203E+00 -1.37001E+01 -9.05815E+00 -5.08939E+00 -2.84857E+01 -1.68312E+01 -1.18457E+01
  -2.09437E+00  7.01200E+00 -2.08506E+01 -2.76535E+00 -6.97861E+00 -7.83020E+00  9.78775E+00  1.80276E+01  1.22048E+01  2.30948E+01
  -2.83010E+00 -5.76412E+00  2.93786E+01  2.39208E+01  1.88904E+01  9.79325E+00  2.31133E+00  3.84596E+01  2.95435E+01  3.55106E+01
   3.89173E+01  3.89597E+01  3.72871E+01  3.87726E+01  7.17035E+01  6.20872E+01  2.01664E+01  3.66680E+01  1.32026E+01  3.20839E+01
   3.87368E+01  1.68905E+01 -8.14645E-02  1.08791E+01  1.13975E+01  4.01240E+01  1.55610E+01  2.42557E+01  3.28388E+01  5.77698E+00
   7.38284E+00  1.72045E+01  2.50952E+01  1.75198E+01  2.58884E+01  2.78596E+01  1.29465E+01  9.09339E+00  8.13406E+00  2.90643E+01
   3.19978E+01  1.10015E+01  7.83291E+00  1.53805E+01  2.12563E+01  3.65422E+01  1.52814E+01  1.89245E+00  2.29147E+00  2.45088E+01
   1.58031E+01  1.52905E+01  2.53570E+01 -1.42649E+00 -7.41553E+00 -1.70074E+00 -4.70655E+00  4.34021E+00  3.18415E+01  1.78360E+01
   5.15069E+00  3.01342E+01  1.76065E+01  2.71472E+01  2.42558E+01  2.48516E+01  2.01097E+01  1.66429E+01  3.42477E+01  4.29245E+01
   7.21798E+00  1.80282E+01  2.07256E+01  2.56437E+01  3.86067E+01  4.01142E+01  3.37058E+01  1.45723E+01  2.59441E+01  1.53169E+01
   7.98619E+00  1.82781E+01  2.66104E+01  8.01904E+00  6.86491E+00  8.15574E+00  2.08807E+01 -1.73963E+00 -4.23906E+00 -7.66248E-01
   1.83322E+01 -8.84008E+00  1.20620E+01  9.15508E+00  1.12995E+01 -3.72476E+00  9.17043E+00  1.09609E+01  3.83157E+00 -2.80551E+00
   1.89673E+01  3.57603E-01 -7.88115E+00 -1.34441E+00  9.81436E+00  7.48269E+00  5.56282E+00 -7.03678E+00 -8.64439E+00  1.07774E+01
  -9.64252E-01 -6.93988E+00 -1.40421E+01  7.15197E+00 -2.89118E+00 -8.84766E+00  1.37984E+00  8.78593E+00  1.93640E+01 -7.42879E+00
  -4.80394E-01 -5.87192E+00  1.40869E+01  4.38321E+00  4.43697E+00  1.46032E+01  6.34886E+00  1.69136E+00 -8.85980E+00  1.18411E+01
   1.52243E+01  9.73592E+00 -4.51178E+00  2.06979E+00 -3.95409E+00  1.83657E+01  6.82312E+00 -5.57025E+00 -6.71227E+00 -2.22560E+01
   1.03584E+01  1.15603E+01 -1.47442E+01  1.78229E+01 -9.15242E-01  2.52578E+00  1.20744E+00  6.90133E+00 -3.49839E+01 -1.20265E+01
   8.03056E+00  2.13739E+01  1.35879E+01  1.57269E+00 -1.97364E+00  1.61599E+01  1.25636E+01  5.85023E+00
 NY points of the fit to the data follow
  -1.61324E+01 -1.59740E+01 -1.49499E+01 -1.29702E+01 -1.01778E+01 -6.63254E+00 -2.52696E+00  1.46871E+00  4.53318E+00  6.13161E+00
   6.18393E+00  5.02677E+00  3.07431E+00  5.16514E-01 -2.59553E+00 -6.10056E+00 -9.59873E+00 -1.24954E+01 -1.42884E+01 -1.49571E+01
  -1.51619E+01 -1.53200E+01 -1.55461E+01 -1.59244E+01 -1.64660E+01 -1.70351E+01 -1.74453E+01 -1.75648E+01 -1.73356E+01 -1.67478E+01
  -1.59005E+01 -1.49955E+01 -1.42243E+01 -1.36955E+01 -1.34179E+01 -1.33403E+01 -1.34326E+01 -1.37095E+01 -1.41460E+01 -1.46171E+01
  -1.48827E+01 -1.47033E+01 -1.39636E+01 -1.27496E+01 -1.12971E+01 -9.84407E+00 -8.66688E+00 -8.00039E+00 -7.92900E+00 -8.35289E+00
  -9.10235E+00 -1.00643E+01 -1.11279E+01 -1.21947E+01 -1.31820E+01 -1.39601E+01 -1.43397E+01 -1.42566E+01 -1.38847E+01 -1.34860E+01
  -1.32327E+01 -1.31814E+01 -1.33120E+01 -1.35510E+01 -1.38129E+01 -1.40351E+01 -1.41974E+01 -1.42958E+01 -1.42823E+01 -1.40860E+01
  -1.37171E+01 -1.32646E+01 -1.28270E+01 -1.24986E+01 -1.23305E+01 -1.23303E+01 -1.24751E+01 -1.27148E+01 -1.29623E+01 -1.31180E+01
  -1.31534E+01 -1.30878E+01 -1.29394E+01 -1.27422E+01 -1.25576E+01 -1.24701E+01 -1.25553E+01 -1.28323E+01 -1.32196E+01 -1.36123E+01
  -1.39695E+01 -1.42965E+01 -1.45838E+01 -1.47741E+01 -1.47193E+01 -1.40164E+01 -1.21348E+01 -8.89654E+00 -4.44883E+00  1.12147E+00
   7.78763E+00  1.49034E+01  2.11077E+01  2.51050E+01  2.63080E+01  2.50323E+01  2.20984E+01  1.80632E+01  1.30373E+01  7.11965E+00
   7.88273E-01 -4.99588E+00 -9.16350E+00 -1.11758E+01 -1.17088E+01 -1.18169E+01 -1.17749E+01 -1.16012E+01 -1.10888E+01 -9.67934E+00
  -6.86809E+00 -2.53568E+00  3.16897E+00  1.01961E+01  1.81569E+01  2.57795E+01  3.14992E+01  3.42937E+01  3.40727E+01  3.15680E+01
   2.75749E+01  2.23936E+01  1.60886E+01  9.01178E+00  2.02736E+00 -3.66754E+00 -7.14998E+00 -8.51895E+00 -9.03806E+00 -9.32843E+00
  -9.51459E+00 -9.63894E+00 -9.72447E+00 -9.78649E+00 -9.84384E+00 -9.91482E+00 -1.00058E+01 -1.01143E+01 -1.02247E+01 -1.03210E+01
  -1.04050E+01 -1.04874E+01 -1.05810E+01 -1.07023E+01 -1.08672E+01 -1.10831E+01 -1.13455E+01 -1.16506E+01 -1.19889E+01 -1.23164E+01
  -1.25686E+01 -1.26873E+01 -1.26714E+01 -1.26030E+01 -1.25791E+01 -1.26384E+01 -1.27598E+01 -1.29066E+01 -1.30913E+01 -1.33830E+01
  -1.38307E+01 -1.44021E+01 -1.49841E+01 -1.54902E+01 -1.58578E+01 -1.60454E+01 -1.60860E+01 -1.60295E+01 -1.59436E+01 -1.58746E+01
  -1.57919E+01 -1.56218E+01 -1.53319E+01 -1.49768E+01 -1.46289E+01 -1.42777E+01 -1.38470E+01 -1.32623E+01 -1.25448E+01 -1.18468E+01
  -1.13079E+01 -1.09746E+01 -1.07861E+01 -1.06800E+01 -1.06353E+01 -1.06329E+01 -1.06141E+01 -1.04487E+01 -9.94760E+00 -9.02482E+00
  -7.76395E+00 -6.38529E+00 -5.21495E+00 -4.58044E+00 -4.65859E+00 -5.44598E+00 -6.85431E+00 -8.76479E+00 -1.08816E+01 -1.27533E+01
  -1.39881E+01 -1.43551E+01 -1.38243E+01 -1.25636E+01 -1.08157E+01 -8.81881E+00 -6.79490E+00 -4.97626E+00 -3.55685E+00 -2.67114E+00
  -2.30581E+00 -2.20520E+00 -2.08214E+00 -1.87153E+00 -1.53463E+00 -1.06839E+00 -5.15222E-01  5.31069E-02  5.60329E-01  9.35956E-01
   1.14568E+00  1.21659E+00  1.21300E+00  1.23952E+00  1.46851E+00  2.05269E+00  3.04770E+00  4.40967E+00  5.97743E+00  7.47836E+00
   8.65473E+00  9.41395E+00  9.81165E+00  9.95692E+00  9.95308E+00  9.85177E+00  9.69586E+00  9.65306E+00  9.93839E+00  1.06438E+01
   1.17713E+01  1.33082E+01  1.56088E+01  1.93707E+01  2.50886E+01  3.26937E+01  4.20411E+01  5.30654E+01  6.46609E+01  7.45318E+01
   8.05526E+01  8.18054E+01  7.88406E+01  7.30198E+01  6.52644E+01  5.57360E+01  4.45928E+01  3.26808E+01  2.16640E+01  1.33980E+01
   8.85107E+00  6.86389E+00  5.65644E+00  4.74160E+00  3.99595E+00  3.35595E+00  2.78393E+00  2.26063E+00  1.77103E+00  1.30750E+00
   8.72278E-01  4.76973E-01  1.35970E-01 -1.34718E-01 -3.24421E-01 -4.30930E-01 -4.56960E-01 -4.11579E-01 -3.08930E-01 -1.61656E-01
   1.84608E-02  2.18802E-01  4.29749E-01  6.44059E-01  8.56107E-01  1.06197E+00  1.25613E+00  1.43069E+00  1.57829E+00  1.69346E+00
   1.77112E+00  1.80668E+00  1.79755E+00  1.74330E+00  1.64464E+00  1.50490E+00  1.32912E+00  1.12363E+00  8.95653E-01  6.53006E-01
   4.03531E-01  1.54917E-01 -8.55142E-02 -3.10780E-01 -5.14494E-01 -6.90738E-01 -8.33859E-01 -9.37592E-01 -9.92613E-01 -9.82922E-01
  -9.01223E-01 -7.62080E-01 -5.92678E-01 -4.15728E-01 -2.59386E-01 -1.76075E-01 -2.15463E-01 -3.75295E-01 -5.90256E-01 -7.66982E-01
  -8.34555E-01 -7.56356E-01 -4.96677E-01 -2.23971E-02  6.69575E-01  1.55021E+00  2.56473E+00  3.64925E+00  4.74954E+00  5.86758E+00
   7.04352E+00  8.31785E+00  9.74870E+00  1.14290E+01  1.34818E+01  1.60269E+01  1.91028E+01  2.26447E+01  2.65273E+01  3.05581E+01
   3.44819E+01  3.80074E+01  4.08472E+01  4.27645E+01  4.36133E+01  4.33649E+01  4.21099E+01  4.00393E+01  3.74062E+01  3.44814E+01
   3.15111E+01  2.86869E+01  2.61316E+01  2.39009E+01  2.19957E+01  2.03805E+01  1.90018E+01  1.78032E+01  1.67351E+01  1.57598E+01
   1.48522E+01  1.39978E+01  1.31908E+01  1.24307E+01  1.17207E+01  1.10654E+01  1.04702E+01  9.94024E+00  9.48044E+00  9.09527E+00
   8.78887E+00  8.56515E+00  8.42779E+00  8.38036E+00  8.42637E+00  8.56931E+00  8.81255E+00  9.15916E+00  9.61158E+00  1.01714E+01
   1.08390E+01  1.16130E+01  1.24900E+01  1.34640E+01  1.45258E+01  1.56632E+01  1.68602E+01  1.80976E+01  1.93528E+01  2.06005E+01
   2.18131E+01  2.29618E+01  2.40176E+01  2.49527E+01  2.57411E+01  2.63605E+01  2.67931E+01  2.70264E+01  2.70537E+01  2.68751E+01
   2.64963E+01  2.59293E+01  2.51908E+01  2.43023E+01  2.32880E+01  2.21743E+01  2.09882E+01  1.97562E+01  1.85036E+01  1.72534E+01
   1.60257E+01  1.48376E+01  1.37023E+01  1.26301E+01  1.16280E+01  1.06999E+01  9.84741E+00  9.06995E+00  8.36523E+00  7.72981E+00
   7.15934E+00  6.64904E+00  6.19380E+00  5.78850E+00  5.42811E+00  5.10795E+00  4.82363E+00  4.57118E+00  4.34692E+00  4.14761E+00
   3.97033E+00  3.81259E+00  3.67216E+00  3.54711E+00  3.43571E+00  3.33647E+00  3.24807E+00  3.16942E+00  3.09953E+00  3.03755E+00
   2.98268E+00  2.93426E+00  2.89167E+00  2.85445E+00  2.82211E+00  2.79427E+00  2.77049E+00  2.75047E+00  2.73390E+00  2.72058E+00
   2.71022E+00  2.70263E+00  2.69755E+00  2.69484E+00  2.69434E+00  2.69595E+00  2.69948E+00  2.70481E+00  2.71180E+00  2.72038E+00
   2.73044E+00  2.74194E+00  2.75474E+00  2.76877E+00  2.78393E+00  2.80022E+00  2.81755E+00  2.83590E+00  2.85515E+00  2.87527E+00
   2.89621E+00  2.91796E+00  2.94047E+00  2.96372E+00  2.98760E+00  3.01212E+00  3.03724E+00  3.06297E+00  3.08926E+00  3.11607E+00
   3.14334E+00  3.17109E+00  3.19928E+00  3.22793E+00  3.25698E+00  3.28640E+00  3.31614E+00  3.34624E+00
 NY background values follow
    -2.134E+01   -2.129E+01   -2.124E+01   -2.120E+01   -2.115E+01   -2.110E+01   -2.106E+01   -2.101E+01   -2.096E+01   -2.091E+01
    -2.087E+01   -2.082E+01   -2.077E+01   -2.073E+01   -2.068E+01   -2.063E+01   -2.059E+01   -2.054E+01   -2.049E+01   -2.044E+01
    -2.040E+01   -2.035E+01   -2.030E+01   -2.026E+01   -2.021E+01   -2.016E+01   -2.011E+01   -2.007E+01   -2.002E+01   -1.997E+01
    -1.993E+01   -1.988E+01   -1.983E+01   -1.979E+01   -1.974E+01   -1.969E+01   -1.964E+01   -1.960E+01   -1.955E+01   -1.950E+01
    -1.946E+01   -1.941E+01   -1.936E+01   -1.931E+01   -1.927E+01   -1.922E+01   -1.917E+01   -1.913E+01   -1.908E+01   -1.903E+01
    -1.899E+01   -1.894E+01   -1.889E+01   -1.884E+01   -1.880E+01   -1.875E+01   -1.870E+01   -1.866E+01   -1.861E+01   -1.856E+01
    -1.851E+01   -1.847E+01   -1.842E+01   -1.837E+01   -1.833E+01   -1.828E+01   -1.823E+01   -1.818E+01   -1.814E+01   -1.809E+01
    -1.804E+01   -1.800E+01   -1.795E+01   -1.790E+01   -1.786E+01   -1.781E+01   -1.776E+01   -1.771E+01   -1.767E+01   -1.762E+01
    -1.757E+01   -1.753E+01   -1.748E+01   -1.743E+01   -1.738E+01   -1.734E+01   -1.729E+01   -1.724E+01   -1.720E+01   -1.715E+01
    -1.710E+01   -1.706E+01   -1.701E+01   -1.696E+01   -1.691E+01   -1.687E+01   -1.682E+01   -1.677E+01   -1.673E+01   -1.668E+01
    -1.663E+01   -1.658E+01   -1.654E+01   -1.649E+01   -1.644E+01   -1.640E+01   -1.635E+01   -1.630E+01   -1.625E+01   -1.621E+01
    -1.616E+01   -1.611E+01   -1.607E+01   -1.602E+01   -1.597E+01   -1.593E+01   -1.588E+01   -1.583E+01   -1.578E+01   -1.574E+01
    -1.569E+01   -1.564E+01   -1.560E+01   -1.555E+01   -1.550E+01   -1.545E+01   -1.541E+01   -1.536E+01   -1.531E+01   -1.527E+01
    -1.522E+01   -1.517E+01   -1.512E+01   -1.508E+01   -1.503E+01   -1.498E+01   -1.494E+01   -1.489E+01   -1.484E+01   -1.480E+01
    -1.475E+01   -1.470E+01   -1.465E+01   -1.461E+01   -1.456E+01   -1.451E+01   -1.447E+01   -1.442E+01   -1.437E+01   -1.432E+01
    -1.428E+01   -1.423E+01   -1.418E+01   -1.414E+01   -1.409E+01   -1.404E+01   -1.399E+01   -1.395E+01   -1.390E+01   -1.385E+01
    -1.381E+01   -1.376E+01   -1.371E+01   -1.367E+01   -1.362E+01   -1.357E+01   -1.352E+01   -1.348E+01   -1.343E+01   -1.338E+01
    -1.334E+01   -1.329E+01   -1.324E+01   -1.319E+01   -1.315E+01   -1.310E+01   -1.305E+01   -1.301E+01   -1.296E+01   -1.291E+01
    -1.287E+01   -1.282E+01   -1.277E+01   -1.272E+01   -1.268E+01   -1.263E+01   -1.258E+01   -1.254E+01   -1.249E+01   -1.244E+01
    -1.239E+01   -1.235E+01   -1.230E+01   -1.225E+01   -1.221E+01   -1.216E+01   -1.211E+01   -1.206E+01   -1.202E+01   -1.197E+01
    -1.192E+01   -1.188E+01   -1.183E+01   -1.178E+01   -1.174E+01   -1.169E+01   -1.164E+01   -1.159E+01   -1.155E+01   -1.150E+01
    -1.145E+01   -1.141E+01   -1.136E+01   -1.131E+01   -1.126E+01   -1.122E+01   -1.117E+01   -1.112E+01   -1.108E+01   -1.103E+01
    -1.098E+01   -1.094E+01   -1.089E+01   -1.084E+01   -1.079E+01   -1.075E+01   -1.070E+01   -1.065E+01   -1.061E+01   -1.056E+01
    -1.051E+01   -1.046E+01   -1.042E+01   -1.037E+01   -1.032E+01   -1.028E+01   -1.023E+01   -1.018E+01   -1.014E+01   -1.009E+01
    -1.004E+01   -9.994E+00   -9.947E+00   -9.900E+00   -9.853E+00   -9.806E+00   -9.759E+00   -9.712E+00   -9.665E+00   -9.617E+00
    -9.570E+00   -9.523E+00   -9.476E+00   -9.429E+00   -9.382E+00   -9.335E+00   -9.288E+00   -9.241E+00   -9.194E+00   -9.147E+00
    -9.100E+00   -9.053E+00   -9.006E+00   -8.959E+00   -8.912E+00   -8.865E+00   -8.818E+00   -8.771E+00   -8.724E+00   -8.677E+00
    -8.629E+00   -8.582E+00   -8.535E+00   -8.488E+00   -8.441E+00   -8.394E+00   -8.347E+00   -8.300E+00   -8.253E+00   -8.206E+00
    -8.159E+00   -8.112E+00   -8.065E+00   -8.018E+00   -7.971E+00   -7.924E+00   -7.877E+00   -7.830E+00   -7.783E+00   -7.736E+00
    -7.689E+00   -7.642E+00   -7.595E+00   -7.548E+00   -7.501E+00   -7.454E+00   -7.407E+00   -7.360E+00   -7.313E+00   -7.266E+00
    -7.218E+00   -7.171E+00   -7.124E+00   -7.077E+00   -7.030E+00   -6.983E+00   -6.936E+00   -6.889E+00   -6.842E+00   -6.795E+00
    -6.748E+00   -6.701E+00   -6.654E+00   -6.607E+00   -6.560E+00   -6.513E+00   -6.466E+00   -6.419E+00   -6.372E+00   -6.325E+00
    -6.278E+00   -6.231E+00   -6.184E+00   -6.137E+00   -6.090E+00   -6.043E+00   -5.996E+00   -5.949E+00   -5.902E+00   -5.855E+00
    -5.808E+00   -5.761E+00   -5.714E+00   -5.667E+00   -5.620E+00   -5.573E+00   -5.526E+00   -5.479E+00   -5.432E+00   -5.385E+00
    -5.338E+00   -5.291E+00   -5.244E+00   -5.197E+00   -5.150E+00   -5.103E+00   -5.056E+00   -5.009E+00   -4.962E+00   -4.915E+00
    -4.868E+00   -4.821E+00   -4.774E+00   -4.727E+00   -4.680E+00   -4.633E+00   -4.586E+00   -4.539E+00   -4.492E+00   -4.445E+00
    -4.398E+00   -4.351E+00   -4.304E+00   -4.257E+00   -4.210E+00   -4.163E+00   -4.116E+00   -4.069E+00   -4.023E+00   -3.976E+00
    -3.929E+00   -3.882E+00   -3.835E+00   -3.788E+00   -3.741E+00   -3.694E+00   -3.647E+00   -3.600E+00   -3.553E+00   -3.506E+00
    -3.459E+00   -3.412E+00   -3.365E+00   -3.318E+00   -3.271E+00   -3.224E+00   -3.177E+00   -3.130E+00   -3.083E+00   -3.036E+00
    -2.989E+00   -2.942E+00   -2.895E+00   -2.849E+00   -2.802E+00   -2.755E+00   -2.708E+00   -2.661E+00   -2.614E+00   -2.567E+00
    -2.520E+00   -2.473E+00   -2.426E+00   -2.379E+00   -2.332E+00   -2.285E+00   -2.238E+00   -2.191E+00   -2.144E+00   -2.097E+00
    -2.051E+00   -2.004E+00   -1.957E+00   -1.910E+00   -1.863E+00   -1.816E+00   -1.769E+00   -1.722E+00   -1.675E+00   -1.628E+00
    -1.581E+00   -1.534E+00   -1.487E+00   -1.441E+00   -1.394E+00   -1.347E+00   -1.300E+00   -1.253E+00   -1.206E+00   -1.159E+00
    -1.112E+00   -1.065E+00   -1.018E+00   -9.714E-01   -9.245E-01   -8.776E-01   -8.307E-01   -7.838E-01   -7.369E-01   -6.900E-01
    -6.431E-01   -5.962E-01   -5.493E-01   -5.024E-01   -4.555E-01   -4.086E-01   -3.617E-01   -3.148E-01   -2.679E-01   -2.210E-01
    -1.741E-01   -1.272E-01   -8.035E-02   -3.346E-02    1.342E-02    6.030E-02    1.072E-01    1.541E-01    2.009E-01    2.478E-01
     2.947E-01    3.416E-01    3.884E-01    4.353E-01    4.822E-01    5.291E-01    5.759E-01    6.228E-01    6.697E-01    7.165E-01
     7.634E-01    8.103E-01    8.571E-01    9.040E-01    9.508E-01    9.977E-01    1.045E+00    1.091E+00    1.138E+00    1.185E+00
     1.232E+00    1.279E+00    1.326E+00    1.373E+00    1.419E+00    1.466E+00    1.513E+00    1.560E+00    1.607E+00    1.654E+00
     1.700E+00    1.747E+00    1.794E+00    1.841E+00    1.888E+00    1.935E+00    1.981E+00    2.028E+00
 Ala      Conc. = 1.47E+02
