 LCModel (Version 6.3-1L) Copyright: S.W. Provencher.          Ref.: Magn. Reson. Med. 30:672-679 (1993).                
 Slice#1 Row#1 Col#10  PD_05_press_2_raw_act
 36 lines in following concentration table = NCONC+1
    Conc.  %SD /Cr+PCr  Metabolite                                         
    0.000 999%   0.000 Ala                                                 
    4.341 325%   0.000 Asp                                                 
    0.000 999%   0.000 Cr                                                  
    0.000 999%   0.000 PCr                                                 
    2.513 336%   0.000 GABA                                                
    2.535 334%   0.000 Glc                                                 
    0.000 999%   0.000 Gln                                                 
    0.000 999%   0.000 Glu                                                 
   21.308 194%   0.000 GPC                                                 
    0.000 999%   0.000 PCh                                                 
   32.276 518%   0.000 GSH                                                 
 1.62E+03  30%   0.000 Ins                                                 
  764.133  42%   0.000 Lac                                                 
   18.277 646%   0.000 NAA                                                 
    0.000 999%   0.000 NAAG                                                
    0.894 316%   0.000 Scyllo                                              
    4.279 328%   0.000 Tau                                                 
    0.000 999%   0.000 -CrCH2                                              
   21.308 194%   0.000 GPC+PCh                                             
   18.277 646%   0.000 NAA+NAAG                                            
    0.000 999%   0.000 Cr+PCr                                              
    0.000 999%   0.000 Glu+Gln                                             
    0.000 999%   0.000 Lip13a                                              
 1.31E+03  41%   0.000 Lip13b                                              
  344.244  50%   0.000 Lip09                                               
  185.964  90%   0.000 MM09                                                
  178.635  60%   0.000 Lip20                                               
    0.000 999%   0.000 MM20                                                
   36.839 257%   0.000 MM12                                                
 1.32E+03  24%   0.000 MM14                                                
    0.000 999%   0.000 MM17                                                
 1.31E+03  41%   0.000 Lip13a+Lip13b                                       
 2.67E+03  18%   0.000 MM14+Lip13a+Lip13b+MM12                             
  530.208  38%   0.000 MM09+Lip09                                          
  178.635  60%   0.000 MM20+Lip20                                          
   6 lines in following misc. output table
  FWHM = 0.061 ppm    S/N =   1                                            
  Data shift =-0.076 ppm                                                   
  Ph: 150 deg     -28.2 deg/ppm                                            
  alphaB,S = 8.5E+01,   5.1E+01                                            
   14 spline knots.   Ns = 5(1)                                            
   2 inflections.     1 extrema                                            
  498 points on ppm-axis = NY
      4.000000     3.992357     3.984714     3.977070     3.969427     3.961784     3.954141     3.946497     3.938854     3.931211
      3.923568     3.915925     3.908281     3.900638     3.892995     3.885352     3.877708     3.870065     3.862422     3.854779
      3.847136     3.839492     3.831849     3.824206     3.816563     3.808919     3.801276     3.793633     3.785990     3.778347
      3.770703     3.763060     3.755417     3.747774     3.740130     3.732487     3.724844     3.717201     3.709558     3.701914
      3.694271     3.686628     3.678985     3.671341     3.663698     3.656055     3.648412     3.640769     3.633125     3.625482
      3.617839     3.610196     3.602552     3.594909     3.587266     3.579623     3.571980     3.564336     3.556693     3.549050
      3.541407     3.533763     3.526120     3.518477     3.510834     3.503191     3.495547     3.487904     3.480261     3.472618
      3.464974     3.457331     3.449688     3.442045     3.434402     3.426758     3.419115     3.411472     3.403829     3.396185
      3.388542     3.380899     3.373256     3.365613     3.357969     3.350326     3.342683     3.335040     3.327396     3.319753
      3.312110     3.304467     3.296824     3.289180     3.281537     3.273894     3.266251     3.258607     3.250964     3.243321
      3.235678     3.228034     3.220391     3.212748     3.205105     3.197462     3.189818     3.182175     3.174532     3.166889
      3.159245     3.151602     3.143959     3.136316     3.128673     3.121029     3.113386     3.105743     3.098100     3.090456
      3.082813     3.075170     3.067527     3.059884     3.052240     3.044597     3.036954     3.029311     3.021667     3.014024
      3.006381     2.998738     2.991095     2.983451     2.975808     2.968165     2.960522     2.952878     2.945235     2.937592
      2.929949     2.922306     2.914662     2.907019     2.899376     2.891733     2.884089     2.876446     2.868803     2.861160
      2.853517     2.845873     2.838230     2.830587     2.822944     2.815300     2.807657     2.800014     2.792371     2.784728
      2.777084     2.769441     2.761798     2.754155     2.746511     2.738868     2.731225     2.723582     2.715939     2.708295
      2.700652     2.693009     2.685366     2.677722     2.670079     2.662436     2.654793     2.647150     2.639506     2.631863
      2.624220     2.616577     2.608933     2.601290     2.593647     2.586004     2.578361     2.570717     2.563074     2.555431
      2.547788     2.540144     2.532501     2.524858     2.517215     2.509572     2.501928     2.494285     2.486642     2.478999
      2.471355     2.463712     2.456069     2.448426     2.440783     2.433139     2.425496     2.417853     2.410210     2.402566
      2.394923     2.387280     2.379637     2.371994     2.364350     2.356707     2.349064     2.341421     2.333777     2.326134
      2.318491     2.310848     2.303205     2.295561     2.287918     2.280275     2.272632     2.264988     2.257345     2.249702
      2.242059     2.234416     2.226772     2.219129     2.211486     2.203843     2.196199     2.188556     2.180913     2.173270
      2.165627     2.157983     2.150340     2.142697     2.135054     2.127410     2.119767     2.112124     2.104481     2.096838
      2.089194     2.081551     2.073908     2.066265     2.058621     2.050978     2.043335     2.035692     2.028049     2.020405
      2.012762     2.005119     1.997476     1.989833     1.982190     1.974546     1.966903     1.959260     1.951617     1.943974
      1.936331     1.928688     1.921045     1.913402     1.905759     1.898115     1.890472     1.882829     1.875186     1.867543
      1.859900     1.852257     1.844614     1.836971     1.829327     1.821684     1.814041     1.806398     1.798755     1.791112
      1.783469     1.775826     1.768183     1.760540     1.752896     1.745253     1.737610     1.729967     1.722324     1.714681
      1.707038     1.699395     1.691752     1.684108     1.676465     1.668822     1.661179     1.653536     1.645893     1.638250
      1.630607     1.622964     1.615321     1.607677     1.600034     1.592391     1.584748     1.577105     1.569462     1.561819
      1.554176     1.546533     1.538890     1.531246     1.523603     1.515960     1.508317     1.500674     1.493031     1.485388
      1.477745     1.470102     1.462458     1.454815     1.447172     1.439529     1.431886     1.424243     1.416600     1.408957
      1.401314     1.393671     1.386027     1.378384     1.370741     1.363098     1.355455     1.347812     1.340169     1.332526
      1.324883     1.317240     1.309596     1.301953     1.294310     1.286667     1.279024     1.271381     1.263738     1.256095
      1.248452     1.240808     1.233165     1.225522     1.217879     1.210236     1.202593     1.194950     1.187307     1.179664
      1.172021     1.164377     1.156734     1.149091     1.141448     1.133805     1.126162     1.118519     1.110876     1.103233
      1.095590     1.087946     1.080303     1.072660     1.065017     1.057374     1.049731     1.042088     1.034445     1.026802
      1.019158     1.011515     1.003872     0.996229     0.988586     0.980943     0.973300     0.965657     0.958014     0.950371
      0.942727     0.935084     0.927441     0.919798     0.912155     0.904512     0.896869     0.889226     0.881583     0.873940
      0.866296     0.858653     0.851010     0.843367     0.835724     0.828081     0.820438     0.812795     0.805152     0.797508
      0.789865     0.782222     0.774579     0.766936     0.759293     0.751650     0.744007     0.736364     0.728721     0.721077
      0.713434     0.705791     0.698148     0.690505     0.682862     0.675219     0.667576     0.659933     0.652290     0.644646
      0.637003     0.629360     0.621717     0.614074     0.606431     0.598788     0.591145     0.583502     0.575858     0.568215
      0.560572     0.552929     0.545286     0.537643     0.530000     0.522357     0.514714     0.507071     0.499427     0.491784
      0.484141     0.476498     0.468855     0.461212     0.453569     0.445925     0.438282     0.430639     0.422996     0.415353
      0.407710     0.400067     0.392424     0.384780     0.377137     0.369494     0.361851     0.354208     0.346565     0.338922
      0.331278     0.323635     0.315992     0.308349     0.300706     0.293063     0.285420     0.277777     0.270133     0.262490
      0.254847     0.247204     0.239561     0.231918     0.224275     0.216631     0.208988     0.201345
 NY phased data points follow
   1.54216E+01  5.64494E+00 -1.49783E+01 -2.19122E+01  6.75296E+00  2.70494E+01  1.36274E+01 -9.96768E+00 -3.28719E+01 -1.52081E+00
   1.39664E+01  2.22172E+01 -2.67033E+01 -1.49812E+01 -1.87174E+01  1.16856E+01  2.21403E+01  5.27008E+00 -1.80365E+01 -2.67160E+01
  -1.99221E+01  7.42733E+00  4.31957E+00  2.11674E+00 -1.12080E+01 -1.47581E+01 -1.52806E+01  1.51421E+01  5.00232E+00  9.87395E+00
  -3.99386E-01  1.10319E+01 -9.46268E+00 -1.57635E+01 -5.29769E+00  2.52905E+00  3.75647E+00  6.22388E+00  8.95693E+00 -1.17880E+00
  -1.07323E+00 -2.95841E+00 -4.32142E+00  5.52915E+00  4.16922E+00  1.22418E+01  1.39613E+01 -3.18929E-01  1.53928E+01 -4.04806E-01
   4.72769E+00  1.02688E+00 -5.01139E+00 -9.26314E+00  8.17833E-01  5.11694E+00  8.75562E+00 -1.05086E+01 -2.97257E-01 -2.08598E+00
  -1.88432E+00  5.58808E+00  1.93033E+00 -1.39756E+01  5.02441E+00  5.35914E+00  5.78866E+00 -1.41209E+01  1.25708E+01 -6.39222E+00
   8.37296E+00  8.76053E+00 -4.26563E+00  2.69613E+00 -5.44746E+00  6.63732E+00  3.62056E+00  6.50640E+00  7.99576E+00 -5.05796E+00
   1.75345E+00 -5.74531E+00  2.35794E+00  3.16617E+00  7.71803E+00 -2.65136E+00 -9.12183E+00  1.88588E+00 -1.61757E+00 -1.43122E+01
   9.86289E+00 -6.51365E+00 -6.47899E+00  4.86852E+00  1.86477E+00 -6.47590E+00 -9.73800E-01 -8.80691E+00  1.66369E+00 -6.09100E+00
  -1.86193E+00 -1.02599E-01  1.29318E+00 -3.26520E+00 -2.73953E+00 -9.89349E+00 -9.84564E+00 -1.85845E+00  9.64320E+00  1.28489E+00
   1.62102E+01 -1.00376E+01 -3.85181E+00 -9.04959E+00 -2.90861E+00 -1.37325E+01 -2.25164E+00  7.82091E+00  9.32492E+00  3.53987E+00
   8.95415E-02  4.92069E+00 -1.03371E+01  1.51292E+00  5.60711E+00 -3.14534E+00 -3.69534E+00  8.13316E-01 -6.48871E+00 -8.99531E+00
  -5.19847E+00 -3.54799E+00 -2.58172E+00 -1.53325E+00  1.01354E-01  6.22788E+00 -8.97845E+00 -6.74856E+00 -8.65478E+00 -8.43166E+00
   4.93130E+00 -9.41037E+00  1.29903E+01  1.27506E+00 -1.03674E+00 -4.67429E+00 -1.09292E+01 -1.55271E+01 -1.30723E+01 -4.58153E+00
   1.89346E+01 -1.35200E+01  5.47064E+00 -5.37307E+00 -1.46163E+01 -7.95176E+00 -1.14479E+01 -6.17159E+00 -2.11165E+00  5.83880E+00
  -9.59761E+00  2.19693E+00 -1.77016E+00 -6.20838E+00 -1.75004E+00  4.01705E+00 -9.70442E+00  2.46152E+00 -4.93235E+00 -5.87626E+00
   1.28105E+00 -1.02148E+01  8.80117E+00 -5.05897E+00 -3.97330E+00 -5.15161E+00 -5.68842E+00 -1.44009E+00  3.32108E+00  9.84393E+00
   7.07824E+00 -2.82813E+00 -6.76209E-01  1.28846E+01  1.12379E+01  1.30216E+01  1.49576E+01  7.27622E+00  9.91014E-01 -1.09976E+00
   3.76777E+00 -1.18665E+01 -2.61578E+00  4.38509E+00 -8.10283E+00 -5.19559E+00  7.33515E+00 -6.19809E+00  1.32658E+01  1.22264E+01
  -7.04397E+00  2.99491E-01  5.48936E+00  2.13231E+00 -4.94014E+00 -7.92018E+00  6.97047E+00  9.63299E+00 -8.07065E-01 -4.61629E+00
   1.16893E+01  1.96832E+00 -7.17763E+00 -4.58230E+00 -1.46372E+01 -6.03160E+00 -1.86607E+01 -3.99585E+00 -3.82140E+00 -5.71427E+00
   2.53445E+00 -2.37096E+00 -6.19734E+00 -2.44743E+00  2.27791E+00 -1.73773E+00 -1.51919E+01 -7.09159E+00  5.78542E+00  4.64245E+00
  -5.56218E+00 -6.41217E+00  1.55564E+00  5.18479E+00  2.91208E-01 -1.68530E+01 -3.60071E+00  8.54678E+00 -1.23733E+00 -2.40063E+00
  -5.12444E+00 -6.47498E+00  4.66055E+00  6.41253E-01 -2.82165E+00 -8.89728E+00 -5.54631E+00  1.68756E+00  1.40251E+01 -4.12869E+00
  -2.71338E+00  3.12095E-01 -1.18347E+01  6.66375E+00  4.05427E-01 -3.70023E+00 -4.46046E+00 -8.47613E+00 -2.33261E+01  5.77431E+00
  -1.17720E-01  5.20105E+00  1.30858E+01  3.47439E+00  8.94981E+00  1.46205E+01  4.92597E-01  7.60703E+00  4.72838E+00 -2.14923E+00
  -6.16217E+00 -1.61795E+01 -2.31240E+01 -4.35756E+00 -1.17651E+01  5.05998E+00  2.03899E+01 -1.27997E+01  2.50412E+00 -1.39297E+01
  -8.24759E+00 -2.75815E+00  1.93987E+00 -1.06027E+01 -8.34596E+00 -3.19682E+00 -6.26461E+00  1.10126E+01 -5.22979E+00 -9.53908E-01
   2.84892E+00  4.19449E+00  7.38401E+00 -1.06408E+01  4.72839E+00  7.07748E+00  4.57300E+00 -1.02402E+01 -1.15006E+01 -3.45912E+00
  -1.43221E+01 -7.33543E+00  7.00324E-01  2.60007E+00 -5.05574E-01 -1.47837E+00 -1.13836E+01 -4.44195E+00 -3.77758E+00 -2.88598E+00
  -4.98892E+00  1.01016E+01  3.82403E+00 -2.53922E+00 -5.60002E+00  2.71735E-01  1.01734E+00 -1.36724E+01  4.23826E+00 -1.24890E+00
  -3.93990E+00 -1.16819E+01 -2.97817E+00  8.51369E+00 -4.34207E+00 -5.09605E+00  9.93723E+00  5.95043E+00  1.09597E+01  2.23620E+01
   1.17815E+01  1.59020E+01  1.48997E+01  2.30875E+01  1.21200E+01  1.87163E+01  1.51356E+01  2.56666E+01  3.08440E+01  2.08391E+01
   3.18494E+01  3.36585E+01  2.16879E+01  1.33588E+01  2.89604E+01  1.96148E+01  6.51810E+00  1.23014E+01  9.01997E+00  9.09631E+00
   2.08207E+01  9.28194E+00  1.52702E+01  1.48483E+01  1.85212E+01  2.87391E+01  9.83873E+00  2.61195E+01  1.86477E+01  1.65600E+01
   2.03067E+01  1.48004E+01  1.47804E+01  8.51479E+00  5.31377E+00  1.10819E+00 -3.33805E-01  8.00882E-02  2.62366E+00 -3.86866E+00
   2.47539E-01  4.52144E+00 -2.28479E+00 -3.37723E+00  8.57686E+00 -1.68476E+01  2.14151E+00 -1.40225E+01 -8.20900E-01  6.06361E+00
  -4.51321E+00 -8.85027E+00 -5.09803E+00 -2.70765E+00 -9.18116E+00 -9.78701E+00 -8.78100E+00  4.27316E+00 -1.72344E+00 -7.97447E-02
  -2.55607E+00 -4.46408E+00  4.78111E+00  5.67777E+00 -1.08835E+01  2.72561E+00  4.77790E+00  9.83669E-01  4.04306E+00  1.27628E+01
   1.74235E+01  8.65908E+00  6.53011E+00  1.00025E+01  1.47317E+01  5.94565E+00 -2.77598E+00  7.60734E+00 -7.24425E+00  9.99961E+00
   9.21135E+00  2.74274E+00  1.73107E+01  1.08558E+00  1.94316E+00  4.75346E+00  1.06559E+01 -4.99997E+00 -9.52116E+00 -6.86583E+00
  -1.64219E+00  1.18366E+01  8.78625E+00  8.72586E+00  3.09907E+00  1.22382E+01 -1.93319E+00  7.98460E+00 -4.55349E+00  1.64498E+01
   1.60086E+01 -4.70955E-01  1.55839E+01 -7.68238E+00 -5.16590E+00  7.16411E+00  1.34851E+01  7.80161E+00 -1.28410E-01  1.55095E+00
   1.07185E+01 -5.18721E+00  1.77826E+01 -2.05025E+00  1.06806E+01  9.73760E+00  1.07741E+01  1.01323E+01 -9.57701E-02  9.06719E+00
  -4.55736E+00  9.97169E+00  1.28588E+01  1.48997E+00  7.09533E+00 -4.36209E+00  8.80193E+00  1.99867E+00  2.58521E+00  1.70393E+01
   1.08070E+01  1.60475E+00  3.10770E+00  9.93020E+00  7.34144E+00  8.30952E+00 -3.93372E+00 -3.49328E+00  1.26998E+01 -6.39917E+00
   1.30456E+00  4.52369E+00 -4.47293E-01  9.44252E+00  3.87673E+00  4.43399E+00 -1.45078E+01  9.26490E+00  3.46816E+00 -2.28954E+00
   8.15166E+00 -2.67264E+00  1.57556E+01  9.61035E-02  9.26686E+00  4.15982E-01  4.56961E-01  1.90172E+00  4.74772E+00 -7.53638E+00
   5.15002E+00 -4.29915E-01 -1.44810E+00  1.23549E+01  1.57116E+01 -8.79653E-01  1.81296E-01  1.53287E+01
 NY points of the fit to the data follow
  -1.14185E+00 -1.87504E+00 -2.36315E+00 -2.53411E+00 -2.58331E+00 -2.63135E+00 -2.66340E+00 -2.67835E+00 -2.68131E+00 -2.67939E+00
  -2.67750E+00 -2.67614E+00 -2.67134E+00 -2.66403E+00 -2.65752E+00 -2.64968E+00 -2.63813E+00 -2.62224E+00 -2.60148E+00 -2.58206E+00
  -2.56695E+00 -2.55306E+00 -2.53215E+00 -2.49284E+00 -2.40858E+00 -2.21396E+00 -1.92539E+00 -1.62037E+00 -1.34974E+00 -1.12969E+00
  -9.46814E-01 -7.63216E-01 -4.89724E-01 -6.13815E-02  2.93439E-01  3.03906E-01 -4.62110E-02 -6.08891E-01 -1.24584E+00 -1.85407E+00
  -2.33367E+00 -2.44939E+00 -1.54097E+00  8.51700E-01  4.13300E+00  7.09663E+00  8.79431E+00  8.98914E+00  7.98774E+00  6.23163E+00
   4.06870E+00  1.72603E+00 -6.08484E-01 -2.55558E+00 -3.33934E+00 -2.63708E+00 -1.04916E+00  7.01672E-01  2.09056E+00  2.85852E+00
   2.94230E+00  2.45148E+00  1.66114E+00  8.24555E-01  8.08527E-02 -5.08314E-01 -7.61526E-01 -4.64214E-01  2.49153E-01  1.11527E+00
   1.82789E+00  2.23805E+00  2.32416E+00  2.14343E+00  1.82386E+00  1.44397E+00  1.04235E+00  6.35097E-01  2.81730E-01  7.64299E-02
  -4.90038E-02 -2.26084E-01 -6.84459E-01 -1.52282E+00 -2.66936E+00 -3.87144E+00 -4.86667E+00 -5.49099E+00 -5.67678E+00 -5.41283E+00
  -4.77877E+00 -3.82866E+00 -2.70987E+00 -1.75559E+00 -1.26551E+00 -1.28937E+00 -1.69736E+00 -2.23151E+00 -2.59795E+00 -2.77288E+00
  -2.83535E+00 -2.79493E+00 -2.68775E+00 -2.50249E+00 -2.29929E+00 -2.17918E+00 -2.17056E+00 -2.25564E+00 -2.38504E+00 -2.47329E+00
  -2.44490E+00 -2.38255E+00 -2.33514E+00 -2.29702E+00 -2.28571E+00 -2.30165E+00 -2.33881E+00 -2.38345E+00 -2.42391E+00 -2.44970E+00
  -2.45454E+00 -2.43806E+00 -2.40480E+00 -2.35977E+00 -2.30694E+00 -2.25276E+00 -2.20055E+00 -2.14967E+00 -2.09078E+00 -2.01934E+00
  -1.95636E+00 -1.92246E+00 -1.92234E+00 -1.95142E+00 -1.99161E+00 -2.01970E+00 -2.02374E+00 -1.99722E+00 -1.94936E+00 -1.88804E+00
  -1.81530E+00 -1.73741E+00 -1.67141E+00 -1.62596E+00 -1.60007E+00 -1.59205E+00 -1.59453E+00 -1.59832E+00 -1.59843E+00 -1.59130E+00
  -1.58222E+00 -1.57167E+00 -1.55817E+00 -1.54174E+00 -1.52381E+00 -1.50616E+00 -1.49032E+00 -1.47709E+00 -1.46548E+00 -1.45410E+00
  -1.44187E+00 -1.43051E+00 -1.42125E+00 -1.41282E+00 -1.40433E+00 -1.39588E+00 -1.38788E+00 -1.38106E+00 -1.37570E+00 -1.37131E+00
  -1.36834E+00 -1.36830E+00 -1.37097E+00 -1.37405E+00 -1.37566E+00 -1.37547E+00 -1.37552E+00 -1.37646E+00 -1.37705E+00 -1.37475E+00
  -1.37178E+00 -1.37109E+00 -1.37347E+00 -1.37645E+00 -1.37232E+00 -1.35074E+00 -1.30674E+00 -1.24470E+00 -1.17827E+00 -1.12145E+00
  -1.08173E+00 -1.06261E+00 -1.07063E+00 -1.10952E+00 -1.15969E+00 -1.19941E+00 -1.21728E+00 -1.20966E+00 -1.17839E+00 -1.12935E+00
  -1.07238E+00 -1.01503E+00 -9.61546E-01 -9.16958E-01 -8.86899E-01 -8.71916E-01 -8.60055E-01 -8.46279E-01 -8.33366E-01 -8.22616E-01
  -8.12594E-01 -8.00432E-01 -7.85321E-01 -7.67182E-01 -7.45857E-01 -7.21023E-01 -6.92447E-01 -6.60561E-01 -6.25764E-01 -5.88820E-01
  -5.51660E-01 -5.16072E-01 -4.83186E-01 -4.53158E-01 -4.26326E-01 -4.04544E-01 -3.94684E-01 -4.01267E-01 -4.13710E-01 -4.18424E-01
  -4.06830E-01 -3.74837E-01 -3.19541E-01 -2.44038E-01 -1.71481E-01 -1.22544E-01 -1.03376E-01 -1.11459E-01 -1.42808E-01 -1.89099E-01
  -2.29718E-01 -2.45813E-01 -2.32948E-01 -1.92726E-01 -1.28248E-01 -4.93821E-02  2.45883E-02  8.24297E-02  1.23122E-01  1.47985E-01
   1.59610E-01  1.62654E-01  1.66857E-01  1.80992E-01  2.11276E-01  2.91997E-01  4.42910E-01  6.13075E-01  7.53898E-01  8.38467E-01
   8.62619E-01  8.36563E-01  7.74808E-01  6.87172E-01  5.77513E-01  4.53032E-01  3.35275E-01  2.58699E-01  2.27646E-01  2.10851E-01
   1.98659E-01  1.89704E-01  1.83530E-01  1.79474E-01  1.76968E-01  1.75708E-01  1.75132E-01  1.74826E-01  1.74946E-01  1.75688E-01
   1.77432E-01  1.80688E-01  1.85682E-01  1.92471E-01  2.00954E-01  2.10816E-01  2.21790E-01  2.33686E-01  2.46214E-01  2.59089E-01
   2.72187E-01  2.85521E-01  2.99274E-01  3.13570E-01  3.28345E-01  3.43564E-01  3.59345E-01  3.75831E-01  3.93076E-01  4.11103E-01
   4.29984E-01  4.49880E-01  4.71133E-01  4.94197E-01  5.19576E-01  5.47861E-01  5.79868E-01  6.16767E-01  6.60079E-01  7.11615E-01
   7.73454E-01  8.48051E-01  9.38378E-01  1.04797E+00  1.18080E+00  1.34109E+00  1.53321E+00  1.76161E+00  2.03082E+00  2.34514E+00
   2.70820E+00  3.12256E+00  3.58944E+00  4.10858E+00  4.67811E+00  5.29415E+00  5.95058E+00  6.63895E+00  7.34880E+00  8.06822E+00
   8.78438E+00  9.48405E+00  1.01542E+01  1.07834E+01  1.13630E+01  1.18899E+01  1.23686E+01  1.28146E+01  1.32615E+01  1.37754E+01
   1.44986E+01  1.57882E+01  1.78963E+01  1.95820E+01  1.98768E+01  1.87241E+01  1.65344E+01  1.38217E+01  1.09206E+01  8.43221E+00
   7.67105E+00  8.83173E+00  1.14847E+01  1.51250E+01  1.89691E+01  2.17367E+01  2.30684E+01  2.31428E+01  2.20590E+01  1.98422E+01
   1.66842E+01  1.33064E+01  1.06262E+01  8.57683E+00  6.96331E+00  5.70280E+00  4.73789E+00  4.01565E+00  3.48594E+00  3.10369E+00
   2.83109E+00  2.63834E+00  2.50304E+00  2.40894E+00  2.34455E+00  2.30211E+00  2.27668E+00  2.26532E+00  2.26627E+00  2.27842E+00
   2.30112E+00  2.33414E+00  2.37768E+00  2.43222E+00  2.49829E+00  2.57631E+00  2.66669E+00  2.76987E+00  2.88631E+00  3.01628E+00
   3.15970E+00  3.31602E+00  3.48433E+00  3.66335E+00  3.85138E+00  4.04614E+00  4.24475E+00  4.44376E+00  4.63943E+00  4.82778E+00
   5.00474E+00  5.16616E+00  5.30798E+00  5.42653E+00  5.51875E+00  5.58234E+00  5.61582E+00  5.61850E+00  5.59056E+00  5.53313E+00
   5.44826E+00  5.33876E+00  5.20796E+00  5.05955E+00  4.89746E+00  4.72571E+00  4.54831E+00  4.36902E+00  4.19119E+00  4.01764E+00
   3.85076E+00  3.69247E+00  3.54423E+00  3.40700E+00  3.28125E+00  3.16704E+00  3.06420E+00  2.97235E+00  2.89098E+00  2.81938E+00
   2.75672E+00  2.70217E+00  2.65494E+00  2.61431E+00  2.57959E+00  2.55008E+00  2.52512E+00  2.50413E+00  2.48667E+00  2.47235E+00
   2.46079E+00  2.45163E+00  2.44453E+00  2.43925E+00  2.43563E+00  2.43350E+00  2.43268E+00  2.43300E+00  2.43431E+00  2.43652E+00
   2.43958E+00  2.44343E+00  2.44796E+00  2.45308E+00  2.45871E+00  2.46485E+00  2.47149E+00  2.47859E+00  2.48606E+00  2.49385E+00
   2.50195E+00  2.51037E+00  2.51911E+00  2.52812E+00  2.53734E+00  2.54676E+00  2.55638E+00  2.56623E+00  2.57628E+00  2.58650E+00
   2.59685E+00  2.60732E+00  2.61794E+00  2.62873E+00  2.63966E+00  2.65068E+00  2.66179E+00  2.67298E+00  2.68430E+00  2.69574E+00
   2.70727E+00  2.71886E+00  2.73050E+00  2.74222E+00  2.75404E+00  2.76595E+00  2.77792E+00  2.78992E+00  2.80197E+00  2.81409E+00
   2.82630E+00  2.83857E+00  2.85088E+00  2.86322E+00  2.87560E+00  2.88807E+00  2.90061E+00  2.91320E+00
 NY background values follow
    -3.857E+00   -3.843E+00   -3.830E+00   -3.816E+00   -3.803E+00   -3.789E+00   -3.776E+00   -3.762E+00   -3.749E+00   -3.735E+00
    -3.722E+00   -3.708E+00   -3.695E+00   -3.681E+00   -3.668E+00   -3.654E+00   -3.641E+00   -3.627E+00   -3.614E+00   -3.600E+00
    -3.587E+00   -3.573E+00   -3.560E+00   -3.546E+00   -3.533E+00   -3.519E+00   -3.506E+00   -3.492E+00   -3.479E+00   -3.465E+00
    -3.452E+00   -3.438E+00   -3.425E+00   -3.411E+00   -3.398E+00   -3.384E+00   -3.371E+00   -3.357E+00   -3.344E+00   -3.330E+00
    -3.317E+00   -3.303E+00   -3.290E+00   -3.276E+00   -3.263E+00   -3.249E+00   -3.236E+00   -3.222E+00   -3.208E+00   -3.195E+00
    -3.181E+00   -3.168E+00   -3.154E+00   -3.141E+00   -3.127E+00   -3.114E+00   -3.100E+00   -3.087E+00   -3.073E+00   -3.060E+00
    -3.046E+00   -3.033E+00   -3.019E+00   -3.006E+00   -2.992E+00   -2.979E+00   -2.965E+00   -2.952E+00   -2.938E+00   -2.925E+00
    -2.911E+00   -2.898E+00   -2.884E+00   -2.871E+00   -2.857E+00   -2.844E+00   -2.830E+00   -2.817E+00   -2.803E+00   -2.790E+00
    -2.776E+00   -2.763E+00   -2.749E+00   -2.736E+00   -2.722E+00   -2.709E+00   -2.695E+00   -2.682E+00   -2.668E+00   -2.655E+00
    -2.641E+00   -2.628E+00   -2.614E+00   -2.601E+00   -2.587E+00   -2.574E+00   -2.560E+00   -2.547E+00   -2.533E+00   -2.519E+00
    -2.506E+00   -2.492E+00   -2.479E+00   -2.465E+00   -2.452E+00   -2.438E+00   -2.425E+00   -2.411E+00   -2.398E+00   -2.384E+00
    -2.371E+00   -2.357E+00   -2.344E+00   -2.330E+00   -2.317E+00   -2.303E+00   -2.290E+00   -2.276E+00   -2.263E+00   -2.249E+00
    -2.236E+00   -2.222E+00   -2.209E+00   -2.195E+00   -2.182E+00   -2.168E+00   -2.155E+00   -2.141E+00   -2.128E+00   -2.114E+00
    -2.101E+00   -2.087E+00   -2.074E+00   -2.060E+00   -2.047E+00   -2.033E+00   -2.020E+00   -2.006E+00   -1.993E+00   -1.979E+00
    -1.966E+00   -1.952E+00   -1.939E+00   -1.925E+00   -1.912E+00   -1.898E+00   -1.885E+00   -1.871E+00   -1.858E+00   -1.844E+00
    -1.830E+00   -1.817E+00   -1.803E+00   -1.790E+00   -1.776E+00   -1.763E+00   -1.749E+00   -1.736E+00   -1.722E+00   -1.709E+00
    -1.695E+00   -1.682E+00   -1.668E+00   -1.655E+00   -1.641E+00   -1.628E+00   -1.614E+00   -1.601E+00   -1.587E+00   -1.574E+00
    -1.560E+00   -1.547E+00   -1.533E+00   -1.520E+00   -1.506E+00   -1.493E+00   -1.479E+00   -1.466E+00   -1.452E+00   -1.439E+00
    -1.425E+00   -1.412E+00   -1.398E+00   -1.385E+00   -1.371E+00   -1.358E+00   -1.344E+00   -1.331E+00   -1.317E+00   -1.304E+00
    -1.290E+00   -1.277E+00   -1.263E+00   -1.250E+00   -1.236E+00   -1.223E+00   -1.209E+00   -1.196E+00   -1.182E+00   -1.168E+00
    -1.155E+00   -1.141E+00   -1.128E+00   -1.114E+00   -1.101E+00   -1.087E+00   -1.074E+00   -1.060E+00   -1.047E+00   -1.033E+00
    -1.020E+00   -1.006E+00   -9.928E-01   -9.793E-01   -9.658E-01   -9.523E-01   -9.388E-01   -9.253E-01   -9.118E-01   -8.983E-01
    -8.848E-01   -8.712E-01   -8.577E-01   -8.442E-01   -8.307E-01   -8.172E-01   -8.037E-01   -7.902E-01   -7.767E-01   -7.632E-01
    -7.496E-01   -7.361E-01   -7.226E-01   -7.091E-01   -6.956E-01   -6.821E-01   -6.686E-01   -6.551E-01   -6.416E-01   -6.280E-01
    -6.145E-01   -6.010E-01   -5.875E-01   -5.740E-01   -5.605E-01   -5.470E-01   -5.335E-01   -5.199E-01   -5.064E-01   -4.929E-01
    -4.794E-01   -4.659E-01   -4.524E-01   -4.389E-01   -4.254E-01   -4.119E-01   -3.983E-01   -3.848E-01   -3.713E-01   -3.578E-01
    -3.443E-01   -3.308E-01   -3.173E-01   -3.038E-01   -2.903E-01   -2.767E-01   -2.632E-01   -2.497E-01   -2.362E-01   -2.227E-01
    -2.092E-01   -1.957E-01   -1.822E-01   -1.686E-01   -1.551E-01   -1.416E-01   -1.281E-01   -1.146E-01   -1.011E-01   -8.757E-02
    -7.406E-02   -6.055E-02   -4.704E-02   -3.352E-02   -2.001E-02   -6.501E-03    7.012E-03    2.052E-02    3.404E-02    4.755E-02
     6.106E-02    7.457E-02    8.809E-02    1.016E-01    1.151E-01    1.286E-01    1.421E-01    1.556E-01    1.692E-01    1.827E-01
     1.962E-01    2.097E-01    2.232E-01    2.367E-01    2.502E-01    2.637E-01    2.773E-01    2.908E-01    3.043E-01    3.178E-01
     3.313E-01    3.448E-01    3.583E-01    3.718E-01    3.854E-01    3.989E-01    4.124E-01    4.259E-01    4.394E-01    4.529E-01
     4.664E-01    4.799E-01    4.935E-01    5.070E-01    5.205E-01    5.340E-01    5.475E-01    5.610E-01    5.745E-01    5.881E-01
     6.016E-01    6.151E-01    6.286E-01    6.421E-01    6.556E-01    6.691E-01    6.826E-01    6.962E-01    7.097E-01    7.232E-01
     7.367E-01    7.502E-01    7.637E-01    7.772E-01    7.907E-01    8.043E-01    8.178E-01    8.313E-01    8.448E-01    8.583E-01
     8.718E-01    8.853E-01    8.989E-01    9.124E-01    9.259E-01    9.394E-01    9.529E-01    9.664E-01    9.799E-01    9.934E-01
     1.007E+00    1.020E+00    1.034E+00    1.047E+00    1.061E+00    1.075E+00    1.088E+00    1.102E+00    1.115E+00    1.129E+00
     1.142E+00    1.156E+00    1.169E+00    1.183E+00    1.196E+00    1.210E+00    1.223E+00    1.237E+00    1.250E+00    1.264E+00
     1.277E+00    1.291E+00    1.304E+00    1.318E+00    1.331E+00    1.345E+00    1.358E+00    1.372E+00    1.385E+00    1.399E+00
     1.412E+00    1.426E+00    1.439E+00    1.453E+00    1.466E+00    1.480E+00    1.493E+00    1.507E+00    1.520E+00    1.534E+00
     1.548E+00    1.561E+00    1.575E+00    1.588E+00    1.602E+00    1.615E+00    1.629E+00    1.642E+00    1.656E+00    1.669E+00
     1.683E+00    1.696E+00    1.710E+00    1.723E+00    1.737E+00    1.750E+00    1.764E+00    1.777E+00    1.791E+00    1.804E+00
     1.818E+00    1.831E+00    1.845E+00    1.858E+00    1.872E+00    1.885E+00    1.899E+00    1.912E+00    1.926E+00    1.939E+00
     1.953E+00    1.966E+00    1.980E+00    1.993E+00    2.007E+00    2.020E+00    2.034E+00    2.048E+00    2.061E+00    2.075E+00
     2.088E+00    2.102E+00    2.115E+00    2.129E+00    2.142E+00    2.156E+00    2.169E+00    2.183E+00    2.196E+00    2.210E+00
     2.223E+00    2.237E+00    2.250E+00    2.264E+00    2.277E+00    2.291E+00    2.304E+00    2.318E+00    2.331E+00    2.345E+00
     2.358E+00    2.372E+00    2.385E+00    2.399E+00    2.412E+00    2.426E+00    2.439E+00    2.453E+00    2.466E+00    2.480E+00
     2.493E+00    2.507E+00    2.521E+00    2.534E+00    2.548E+00    2.561E+00    2.575E+00    2.588E+00    2.602E+00    2.615E+00
     2.629E+00    2.642E+00    2.656E+00    2.669E+00    2.683E+00    2.696E+00    2.710E+00    2.723E+00    2.737E+00    2.750E+00
     2.764E+00    2.777E+00    2.791E+00    2.804E+00    2.818E+00    2.831E+00    2.845E+00    2.858E+00
 Asp      Conc. = 4.34E+00
