 LCModel (Version 6.3-1L) Copyright: S.W. Provencher.          Ref.: Magn. Reson. Med. 30:672-679 (1993).                
 Slice#3 Row#10 Col#11  PD_05_press_2_raw_act
 36 lines in following concentration table = NCONC+1
    Conc.  %SD /Cr+PCr  Metabolite                                         
    0.000 999%   0.000 Ala                                                 
    6.996 156%   0.138 Asp                                                 
    5.747 677%   0.113 Cr                                                  
   44.996  94%   0.887 PCr                                                 
    3.328 196% 6.6E-02 GABA                                                
    4.510 146% 8.9E-02 Glc                                                 
    0.000 999%   0.000 Gln                                                 
   93.023  63%   1.833 Glu                                                 
   16.842  43%   0.332 GPC                                                 
    0.000 999%   0.000 PCh                                                 
    0.000 999%   0.000 GSH                                                 
   61.779 110%   1.217 Ins                                                 
    0.000 999%   0.000 Lac                                                 
   51.919  44%   1.023 NAA                                                 
    3.350 634% 6.6E-02 NAAG                                                
    0.854 251% 1.7E-02 Scyllo                                              
    7.806 139%   0.154 Tau                                                 
    6.491 351%   0.128 -CrCH2                                              
   16.842  43%   0.332 GPC+PCh                                             
   55.269  60%   1.089 NAA+NAAG                                            
   50.743  40%   1.000 Cr+PCr                                              
   93.023  63%   1.833 Glu+Gln                                             
 2.68E+03  12%  52.818 Lip13a                                              
    0.000 999%   0.000 Lip13b                                              
  792.416  27%  15.616 Lip09                                               
  315.653  49%   6.221 MM09                                                
  532.273  34%  10.490 Lip20                                               
  493.570  46%   9.727 MM20                                                
  224.731  66%   4.429 MM12                                                
    0.000 999%   0.000 MM14                                                
 1.45E+03  10%  28.491 MM17                                                
 2.68E+03  12%  52.818 Lip13a+Lip13b                                       
 2.90E+03   9%  57.247 MM14+Lip13a+Lip13b+MM12                             
 1.11E+03  12%  21.837 MM09+Lip09                                          
 1.03E+03  20%  20.217 MM20+Lip20                                          
   6 lines in following misc. output table
  FWHM = 0.038 ppm    S/N =   2                                            
  Data shift =-0.015 ppm                                                   
  Ph:   6 deg       1.5 deg/ppm                                            
  alphaB,S = 1.3E+00,   9.3E+00                                            
   14 spline knots.   Ns = 5(1)                                            
  ( 9) 3 infls.   ( 9) 2 extrs.                                            
  498 points on ppm-axis = NY
      4.000000     3.992357     3.984714     3.977070     3.969427     3.961784     3.954141     3.946497     3.938854     3.931211
      3.923568     3.915925     3.908281     3.900638     3.892995     3.885352     3.877708     3.870065     3.862422     3.854779
      3.847136     3.839492     3.831849     3.824206     3.816563     3.808919     3.801276     3.793633     3.785990     3.778347
      3.770703     3.763060     3.755417     3.747774     3.740130     3.732487     3.724844     3.717201     3.709558     3.701914
      3.694271     3.686628     3.678985     3.671341     3.663698     3.656055     3.648412     3.640769     3.633125     3.625482
      3.617839     3.610196     3.602552     3.594909     3.587266     3.579623     3.571980     3.564336     3.556693     3.549050
      3.541407     3.533763     3.526120     3.518477     3.510834     3.503191     3.495547     3.487904     3.480261     3.472618
      3.464974     3.457331     3.449688     3.442045     3.434402     3.426758     3.419115     3.411472     3.403829     3.396185
      3.388542     3.380899     3.373256     3.365613     3.357969     3.350326     3.342683     3.335040     3.327396     3.319753
      3.312110     3.304467     3.296824     3.289180     3.281537     3.273894     3.266251     3.258607     3.250964     3.243321
      3.235678     3.228034     3.220391     3.212748     3.205105     3.197462     3.189818     3.182175     3.174532     3.166889
      3.159245     3.151602     3.143959     3.136316     3.128673     3.121029     3.113386     3.105743     3.098100     3.090456
      3.082813     3.075170     3.067527     3.059884     3.052240     3.044597     3.036954     3.029311     3.021667     3.014024
      3.006381     2.998738     2.991095     2.983451     2.975808     2.968165     2.960522     2.952878     2.945235     2.937592
      2.929949     2.922306     2.914662     2.907019     2.899376     2.891733     2.884089     2.876446     2.868803     2.861160
      2.853517     2.845873     2.838230     2.830587     2.822944     2.815300     2.807657     2.800014     2.792371     2.784728
      2.777084     2.769441     2.761798     2.754155     2.746511     2.738868     2.731225     2.723582     2.715939     2.708295
      2.700652     2.693009     2.685366     2.677722     2.670079     2.662436     2.654793     2.647150     2.639506     2.631863
      2.624220     2.616577     2.608933     2.601290     2.593647     2.586004     2.578361     2.570717     2.563074     2.555431
      2.547788     2.540144     2.532501     2.524858     2.517215     2.509572     2.501928     2.494285     2.486642     2.478999
      2.471355     2.463712     2.456069     2.448426     2.440783     2.433139     2.425496     2.417853     2.410210     2.402566
      2.394923     2.387280     2.379637     2.371994     2.364350     2.356707     2.349064     2.341421     2.333777     2.326134
      2.318491     2.310848     2.303205     2.295561     2.287918     2.280275     2.272632     2.264988     2.257345     2.249702
      2.242059     2.234416     2.226772     2.219129     2.211486     2.203843     2.196199     2.188556     2.180913     2.173270
      2.165627     2.157983     2.150340     2.142697     2.135054     2.127410     2.119767     2.112124     2.104481     2.096838
      2.089194     2.081551     2.073908     2.066265     2.058621     2.050978     2.043335     2.035692     2.028049     2.020405
      2.012762     2.005119     1.997476     1.989833     1.982190     1.974546     1.966903     1.959260     1.951617     1.943974
      1.936331     1.928688     1.921045     1.913402     1.905759     1.898115     1.890472     1.882829     1.875186     1.867543
      1.859900     1.852257     1.844614     1.836971     1.829327     1.821684     1.814041     1.806398     1.798755     1.791112
      1.783469     1.775826     1.768183     1.760540     1.752896     1.745253     1.737610     1.729967     1.722324     1.714681
      1.707038     1.699395     1.691752     1.684108     1.676465     1.668822     1.661179     1.653536     1.645893     1.638250
      1.630607     1.622964     1.615321     1.607677     1.600034     1.592391     1.584748     1.577105     1.569462     1.561819
      1.554176     1.546533     1.538890     1.531246     1.523603     1.515960     1.508317     1.500674     1.493031     1.485388
      1.477745     1.470102     1.462458     1.454815     1.447172     1.439529     1.431886     1.424243     1.416600     1.408957
      1.401314     1.393671     1.386027     1.378384     1.370741     1.363098     1.355455     1.347812     1.340169     1.332526
      1.324883     1.317240     1.309596     1.301953     1.294310     1.286667     1.279024     1.271381     1.263738     1.256095
      1.248452     1.240808     1.233165     1.225522     1.217879     1.210236     1.202593     1.194950     1.187307     1.179664
      1.172021     1.164377     1.156734     1.149091     1.141448     1.133805     1.126162     1.118519     1.110876     1.103233
      1.095590     1.087946     1.080303     1.072660     1.065017     1.057374     1.049731     1.042088     1.034445     1.026802
      1.019158     1.011515     1.003872     0.996229     0.988586     0.980943     0.973300     0.965657     0.958014     0.950371
      0.942727     0.935084     0.927441     0.919798     0.912155     0.904512     0.896869     0.889226     0.881583     0.873940
      0.866296     0.858653     0.851010     0.843367     0.835724     0.828081     0.820438     0.812795     0.805152     0.797508
      0.789865     0.782222     0.774579     0.766936     0.759293     0.751650     0.744007     0.736364     0.728721     0.721077
      0.713434     0.705791     0.698148     0.690505     0.682862     0.675219     0.667576     0.659933     0.652290     0.644646
      0.637003     0.629360     0.621717     0.614074     0.606431     0.598788     0.591145     0.583502     0.575858     0.568215
      0.560572     0.552929     0.545286     0.537643     0.530000     0.522357     0.514714     0.507071     0.499427     0.491784
      0.484141     0.476498     0.468855     0.461212     0.453569     0.445925     0.438282     0.430639     0.422996     0.415353
      0.407710     0.400067     0.392424     0.384780     0.377137     0.369494     0.361851     0.354208     0.346565     0.338922
      0.331278     0.323635     0.315992     0.308349     0.300706     0.293063     0.285420     0.277777     0.270133     0.262490
      0.254847     0.247204     0.239561     0.231918     0.224275     0.216631     0.208988     0.201345
 NY phased data points follow
  -4.86808E+00 -5.83416E+00 -3.14085E+00 -5.35732E+00 -3.04707E+00 -2.68756E+00 -2.99788E+00 -5.75709E+00  1.60411E+00 -8.61281E-01
  -1.65630E+00 -4.46133E+00 -2.46468E+00 -9.59461E+00 -4.69391E+00 -2.21140E+00 -3.49080E+00 -2.73975E-01 -3.43726E+00 -4.37687E+00
  -5.68133E+00  1.24054E-01 -5.47012E+00 -4.68987E+00 -3.64128E+00 -4.48841E+00 -7.00507E+00 -4.89328E+00 -1.22412E+00 -3.09101E+00
  -2.19011E+00 -4.29244E+00 -2.17458E+00 -6.42617E+00 -3.75185E+00 -3.29953E+00 -5.92084E+00 -3.37616E+00 -2.54294E+00 -4.76093E-01
  -2.82564E-01 -7.11120E+00 -5.30259E+00 -3.49276E-01 -5.95245E+00 -1.44599E+00 -1.97781E+00 -6.22178E-01 -6.31296E-01 -3.64813E-01
  -1.22180E+00 -4.04673E+00 -3.16638E+00 -3.08115E+00 -4.08353E-01 -1.71518E+00 -2.45800E+00 -1.56831E+00 -3.14390E+00 -4.64064E+00
  -3.08423E+00 -3.86218E+00 -1.98064E+00 -5.78366E+00 -3.69913E+00 -5.84669E+00 -3.04992E+00  7.43970E-02  6.01045E-01 -2.72233E+00
  -3.23929E+00  9.48263E-01 -9.12134E-01 -1.38808E+00 -8.64737E-01 -1.85056E+00 -1.23275E+00 -4.75988E+00 -3.50626E+00 -1.66841E+00
  -2.92443E+00 -3.49234E+00 -1.97611E+00 -1.83527E+00 -5.29815E+00 -5.89868E+00 -2.27095E+00 -2.52613E+00 -4.41041E-01 -3.21491E+00
   3.64267E-01 -1.39915E+00  4.20688E+00 -6.63480E+00 -1.16716E+00 -3.65367E+00 -5.08054E-01 -1.55410E+00 -3.92733E+00 -4.81552E-01
   5.55506E+00 -9.20246E-01  3.75544E+00 -7.43389E-01 -6.20938E+00 -1.10714E+00 -3.75369E+00 -1.41940E-01 -1.06183E+00 -1.03673E+00
  -2.81958E+00  1.60022E+00 -1.73740E+00 -2.70930E+00 -7.79939E-01 -3.75002E+00 -1.43506E+00 -8.10288E-01 -4.73937E-02  9.14382E-02
   1.68213E+00  2.98037E+00  2.65721E+00 -2.19241E+00  4.24677E-01  1.65899E+00  4.45785E+00  5.27890E-02 -8.66450E-01  6.77209E-01
  -5.40818E+00 -1.33165E+00 -4.52402E+00 -3.23429E+00  2.32618E+00  2.58911E+00 -1.03050E+00 -3.38883E+00  1.81174E+00 -1.13533E+00
  -2.32978E+00  3.62177E-01 -3.16625E+00  2.67409E-01  2.54651E-01 -2.41108E+00  1.76548E+00 -8.84135E-01 -1.32991E+00 -3.27500E+00
  -1.23918E+00  4.96731E-01 -3.04928E+00  1.20526E+00  2.97534E+00  6.28118E-01  3.29949E+00  1.28279E-01  1.31898E+00  4.73108E-01
  -2.70757E+00  2.72868E-01 -1.43939E+00  2.19936E+00 -3.33215E-02 -1.12856E+00 -1.89640E+00 -3.82931E+00  1.39715E-01  2.51028E+00
   1.37069E+00  8.05248E-01  1.84924E+00 -3.08531E+00  1.25731E+00 -2.92338E+00  6.65242E-01 -6.33554E-01 -6.37528E-01  2.13525E+00
   1.57475E+00 -4.68136E+00 -1.59805E+00 -1.10229E+00  4.99930E-01 -3.14773E+00  1.12469E-01  5.28545E-01 -3.53419E+00  4.06707E+00
  -1.78119E+00 -3.46536E+00  3.27694E-01 -1.18392E-01  8.61368E-01  4.58576E-01  1.60717E+00  4.77719E+00 -9.85485E-01 -1.28887E+00
  -1.13031E+00 -1.09948E+00 -2.73599E-02 -4.25443E-01  1.86445E-01  6.95123E-01 -3.89047E-01 -1.59438E+00  2.13541E+00  1.50971E+00
   3.00574E+00  5.49535E-01  2.37232E+00  5.24567E-01  2.06584E+00 -7.33995E-01  2.99555E+00 -9.97629E-01  4.48378E-01 -1.64786E+00
  -1.58431E-01  1.16967E+00 -1.48593E+00 -6.51286E-01  5.12099E+00  1.61628E+00  2.67704E+00  6.82311E+00  1.91389E+00  9.42017E-01
   2.24147E-01  2.50917E-01  1.30055E+00  2.64302E+00  3.13906E+00  1.83598E-01  7.96096E-01  2.71930E+00 -3.07233E+00  2.66722E+00
  -2.37173E-01  2.83363E+00  5.66514E-01  2.14182E+00  7.58687E-01 -2.03714E+00  1.21969E+00  5.39300E+00  3.80073E+00  2.89050E+00
   1.61896E+00 -4.02278E-01  2.64775E+00  4.53304E+00  2.02191E+00  6.02717E+00  6.48488E+00  7.61104E+00  8.31254E+00  3.96271E+00
   6.53411E+00  3.57364E+00  6.53698E+00  3.80491E+00 -4.11374E-01  1.54438E+00  2.10171E+00  9.54210E+00  4.95475E+00  3.61283E+00
   2.71804E+00  3.04592E+00  5.29804E+00  4.24338E+00  2.08043E+00  1.75853E+00  8.05682E+00  3.97850E+00  1.59522E+00  1.92291E+00
   5.10676E+00  3.56482E+00  6.92841E+00  5.71756E+00 -1.27650E+00  4.45975E+00  7.49663E+00  4.08156E+00  4.38956E+00  4.41579E+00
   5.32619E+00  5.67101E+00  6.43648E+00  3.95944E+00  7.76458E+00  4.27355E+00  7.83006E+00  6.58639E+00  4.77026E+00  5.45865E+00
   7.28882E+00  6.50108E+00  7.90818E+00  9.83700E+00  3.30351E+00  7.39834E+00  7.33182E+00  7.66980E+00  5.15600E+00  5.83643E+00
   8.00788E+00  1.23117E+01  8.88431E+00  3.17301E+00  6.60813E+00  9.00161E+00  7.40432E+00  4.16174E+00  6.91740E+00  5.83195E+00
   6.53740E+00  7.21147E+00  3.79003E+00  5.12959E+00  1.33730E+00  3.25427E+00  3.01546E+00  1.10206E+01  7.93664E+00 -2.47133E-01
   3.60750E+00  5.84618E+00  4.68009E+00  2.29284E+00  2.86181E+00  6.67253E+00  5.55378E+00  3.30064E+00  3.40078E+00  7.37975E-01
   2.73275E+00  3.57654E+00  7.10064E+00  6.40869E+00  6.45897E+00  7.21937E+00  6.37912E+00  5.04896E+00  8.46953E+00  7.20329E+00
   5.86412E+00  8.29113E+00  3.34049E+00  7.04681E+00  2.00018E+00  8.90413E+00  6.14396E+00  1.34236E+00  6.80868E+00  6.54230E+00
   8.02912E+00  1.31369E+01  7.06126E+00  7.34477E+00  1.22564E+01  1.13616E+01  7.82476E+00  8.97512E+00  1.08927E+01  1.14932E+01
   9.47461E+00  9.31990E+00  1.22991E+01  8.84331E+00  9.17498E+00  7.46326E+00  1.10311E+01  1.02580E+01  9.13348E+00  5.70021E+00
   6.44521E+00  4.85953E+00  9.80837E+00  6.91271E+00  6.86717E+00  7.30669E+00  7.64590E+00  1.04859E+01  5.67777E+00  1.15012E+01
   6.84273E+00  4.25249E+00  7.40145E+00  7.38283E+00  8.78341E+00  5.78683E+00  9.05475E+00  7.27599E+00  4.29997E+00  8.14411E+00
   6.74514E+00  6.91448E+00  6.80145E+00  8.31772E+00  6.49972E+00  5.95196E+00  3.77284E+00  7.78829E+00  2.39114E-02  5.24937E+00
   9.85755E+00  4.02212E+00 -1.16030E+00  6.04994E+00  5.21408E+00  5.92279E+00  6.03790E+00  8.53365E+00  6.42336E+00  6.43479E+00
   4.86574E+00  3.83326E+00  7.35080E+00  8.57077E+00  4.65059E+00  4.63198E+00  5.51822E+00  4.71471E+00  3.74577E+00  3.83805E+00
   3.64002E+00  5.86464E+00  1.35674E+00  5.75714E-02  4.49152E+00  2.49791E+00  6.50721E+00  4.06242E+00  4.34859E+00  1.69566E+00
   1.45392E+00 -5.30853E-01  2.30199E+00  1.62377E-01  2.05624E+00  1.86135E+00  6.58996E-01  2.15922E-02  3.33690E+00  2.16970E+00
  -9.61324E-02  3.51891E+00  6.46180E+00  1.23812E+00 -3.44341E-01  2.47172E-01  4.57129E-01  1.91295E+00 -7.17464E-01 -7.99589E-01
   4.62980E-01  3.41700E+00 -2.19876E+00 -3.04077E-01  1.19057E+00 -1.66087E+00 -9.98469E-01  1.65606E-01 -2.74934E+00  2.31342E+00
  -8.23809E-02 -1.78936E+00  7.43915E-01 -8.53641E-03 -1.08624E+00 -5.85428E-01 -1.74836E+00 -2.34899E+00 -2.05564E+00 -1.20652E+00
   2.53554E+00 -3.86632E+00 -3.17220E-01  2.71691E+00 -2.92739E+00 -1.53739E+00 -1.45599E+00 -1.36423E+00 -1.75346E+00 -1.52312E+00
   1.39720E+00 -2.05475E+00 -1.74350E+00 -1.04572E+00 -1.05067E+00 -4.59949E-01 -2.36489E+00 -1.16933E+00
 NY points of the fit to the data follow
  -3.63211E+00 -3.56621E+00 -3.47195E+00 -3.34116E+00 -3.01494E+00 -2.47246E+00 -1.91588E+00 -1.53112E+00 -1.46642E+00 -1.77183E+00
  -2.35260E+00 -2.99125E+00 -3.48435E+00 -3.69422E+00 -3.61928E+00 -3.43239E+00 -3.30548E+00 -3.25297E+00 -3.22455E+00 -3.19517E+00
  -3.13992E+00 -3.04996E+00 -2.96948E+00 -2.97878E+00 -3.08362E+00 -3.24076E+00 -3.38214E+00 -3.41572E+00 -3.27505E+00 -2.97058E+00
  -2.61425E+00 -2.35417E+00 -2.30353E+00 -2.47637E+00 -2.77536E+00 -3.05168E+00 -3.21380E+00 -3.21755E+00 -3.08228E+00 -2.90473E+00
  -2.77306E+00 -2.68845E+00 -2.57646E+00 -2.37198E+00 -2.10520E+00 -1.88220E+00 -1.81557E+00 -1.95062E+00 -2.25821E+00 -2.64351E+00
  -2.96949E+00 -3.12076E+00 -3.07281E+00 -2.90679E+00 -2.72096E+00 -2.56028E+00 -2.42435E+00 -2.30442E+00 -2.22533E+00 -2.21727E+00
  -2.28972E+00 -2.41986E+00 -2.55947E+00 -2.65455E+00 -2.66074E+00 -2.58342E+00 -2.47031E+00 -2.35248E+00 -2.25589E+00 -2.19861E+00
  -2.17101E+00 -2.15506E+00 -2.15237E+00 -2.16783E+00 -2.19994E+00 -2.24530E+00 -2.29032E+00 -2.31351E+00 -2.31062E+00 -2.28891E+00
  -2.24717E+00 -2.18938E+00 -2.15485E+00 -2.17631E+00 -2.25415E+00 -2.35629E+00 -2.43937E+00 -2.46295E+00 -2.41323E+00 -2.30519E+00
  -2.17192E+00 -2.05126E+00 -1.97543E+00 -1.95712E+00 -1.96844E+00 -1.98358E+00 -1.96048E+00 -1.68966E+00 -8.68728E-01  1.79931E-01
   1.01699E+00  1.32452E+00  9.64777E-01  1.25159E-02 -1.18274E+00 -2.19864E+00 -2.73454E+00 -2.66659E+00 -2.23939E+00 -1.87298E+00
  -1.73223E+00 -1.67917E+00 -1.64164E+00 -1.60959E+00 -1.58093E+00 -1.55607E+00 -1.53076E+00 -1.50072E+00 -1.46435E+00 -1.41756E+00
  -1.34316E+00 -1.12938E+00 -4.21915E-01  6.77116E-01  1.69564E+00  2.24767E+00  2.12990E+00  1.33704E+00  1.37318E-01 -1.02784E+00
  -1.79526E+00 -1.95049E+00 -1.60118E+00 -1.15835E+00 -9.25963E-01 -8.42103E-01 -7.88775E-01 -7.47430E-01 -7.16054E-01 -6.90337E-01
  -6.64501E-01 -6.32600E-01 -5.94965E-01 -5.56574E-01 -5.21128E-01 -4.91842E-01 -4.70588E-01 -4.54795E-01 -4.38177E-01 -4.16453E-01
  -3.89952E-01 -3.61633E-01 -3.35212E-01 -3.12141E-01 -2.91540E-01 -2.78466E-01 -2.86408E-01 -3.13424E-01 -3.43911E-01 -3.60097E-01
  -3.43919E-01 -3.02136E-01 -2.55532E-01 -2.25482E-01 -2.27030E-01 -2.65246E-01 -3.25730E-01 -3.81979E-01 -4.17765E-01 -4.34140E-01
  -4.45035E-01 -4.72164E-01 -5.18009E-01 -5.53935E-01 -5.65905E-01 -5.56711E-01 -5.44571E-01 -5.42178E-01 -5.52597E-01 -5.70331E-01
  -5.85894E-01 -5.95651E-01 -6.00938E-01 -5.95493E-01 -5.76991E-01 -5.55123E-01 -5.29376E-01 -4.94920E-01 -4.58092E-01 -4.32948E-01
  -4.26609E-01 -4.32715E-01 -4.30158E-01 -4.09694E-01 -3.80270E-01 -3.61339E-01 -3.62816E-01 -3.79277E-01 -3.88332E-01 -3.58420E-01
  -2.83927E-01 -1.79861E-01 -9.66793E-02 -6.44329E-02 -9.83538E-02 -2.02698E-01 -3.39599E-01 -4.55410E-01 -5.00227E-01 -4.17359E-01
  -1.60107E-01  3.03273E-01  8.12543E-01  1.18243E+00  1.28094E+00  1.06482E+00  5.73585E-01 -9.12966E-02 -7.24621E-01 -1.05623E+00
  -9.27215E-01 -4.14936E-01  2.91177E-01  9.94414E-01  1.55740E+00  1.86961E+00  1.88830E+00  1.69379E+00  1.46526E+00  1.34526E+00
   1.34807E+00  1.42938E+00  1.55949E+00  1.70922E+00  1.84380E+00  1.92540E+00  1.94654E+00  1.93265E+00  1.91141E+00  1.93733E+00
   2.05351E+00  2.25843E+00  2.51101E+00  2.77426E+00  2.99215E+00  3.10780E+00  3.11270E+00  3.05678E+00  3.01978E+00  3.06447E+00
   3.21356E+00  3.44828E+00  3.70832E+00  3.90664E+00  4.05548E+00  4.46782E+00  5.34074E+00  6.29728E+00  6.94722E+00  7.01424E+00
   6.38274E+00  5.18531E+00  3.81980E+00  2.70331E+00  2.14755E+00  2.20703E+00  2.53013E+00  2.70803E+00  2.69570E+00  2.65426E+00
   2.62444E+00  2.60971E+00  2.60887E+00  2.60535E+00  2.58367E+00  2.54358E+00  2.49505E+00  2.45709E+00  2.44813E+00  2.47540E+00
   2.53516E+00  2.62313E+00  2.73628E+00  2.87050E+00  3.02271E+00  3.19213E+00  3.38036E+00  3.59038E+00  3.82341E+00  4.07783E+00
   4.35153E+00  4.64159E+00  4.94370E+00  5.25291E+00  5.56455E+00  5.87377E+00  6.17499E+00  6.46254E+00  6.73084E+00  6.97402E+00
   7.18648E+00  7.36327E+00  7.50023E+00  7.59421E+00  7.64352E+00  7.64796E+00  7.60863E+00  7.52769E+00  7.40825E+00  7.25425E+00
   7.07033E+00  6.86182E+00  6.63446E+00  6.39413E+00  6.14663E+00  5.89747E+00  5.65174E+00  5.41399E+00  5.18815E+00  4.97752E+00
   4.78473E+00  4.61178E+00  4.46009E+00  4.33056E+00  4.22362E+00  4.13936E+00  4.07757E+00  4.03785E+00  4.01961E+00  4.02222E+00
   4.04499E+00  4.08719E+00  4.14814E+00  4.22712E+00  4.32348E+00  4.43655E+00  4.56570E+00  4.71025E+00  4.86949E+00  5.04265E+00
   5.22887E+00  5.42720E+00  5.63655E+00  5.85566E+00  6.08313E+00  6.31737E+00  6.55661E+00  6.79889E+00  7.04207E+00  7.28387E+00
   7.52183E+00  7.75341E+00  7.97598E+00  8.18689E+00  8.38352E+00  8.56329E+00  8.72380E+00  8.86281E+00  8.97838E+00  9.06885E+00
   9.13294E+00  9.16978E+00  9.17897E+00  9.16058E+00  9.11515E+00  9.04374E+00  8.94786E+00  8.82946E+00  8.69091E+00  8.53490E+00
   8.36444E+00  8.18273E+00  7.99313E+00  7.79906E+00  7.60398E+00  7.41124E+00  7.22412E+00  7.04572E+00  6.87889E+00  6.72626E+00
   6.59016E+00  6.47260E+00  6.37524E+00  6.29937E+00  6.24587E+00  6.21521E+00  6.20740E+00  6.22199E+00  6.25802E+00  6.31405E+00
   6.38813E+00  6.47783E+00  6.58027E+00  6.69216E+00  6.80989E+00  6.92961E+00  7.04731E+00  7.15899E+00  7.26074E+00  7.34885E+00
   7.41999E+00  7.47126E+00  7.50030E+00  7.50533E+00  7.48522E+00  7.43947E+00  7.36820E+00  7.27211E+00  7.15244E+00  7.01084E+00
   6.84936E+00  6.67029E+00  6.47611E+00  6.26940E+00  6.05276E+00  5.82874E+00  5.59978E+00  5.36819E+00  5.13608E+00  4.90536E+00
   4.67771E+00  4.45460E+00  4.23726E+00  4.02669E+00  3.82371E+00  3.62891E+00  3.44271E+00  3.26538E+00  3.09702E+00  2.93762E+00
   2.78707E+00  2.64516E+00  2.51162E+00  2.38612E+00  2.26829E+00  2.15774E+00  2.05406E+00  1.95684E+00  1.86567E+00  1.78014E+00
   1.69986E+00  1.62446E+00  1.55359E+00  1.48691E+00  1.42412E+00  1.36491E+00  1.30901E+00  1.25618E+00  1.20620E+00  1.15883E+00
   1.11390E+00  1.07121E+00  1.03062E+00  9.91958E-01  9.55100E-01  9.19913E-01  8.86284E-01  8.54101E-01  8.23274E-01  7.93709E-01
   7.65327E-01  7.38049E-01  7.11809E-01  6.86538E-01  6.62182E-01  6.38683E-01  6.15992E-01  5.94059E-01  5.72845E-01  5.52305E-01
   5.32409E-01  5.13117E-01  4.94400E-01  4.76223E-01  4.58564E-01  4.41390E-01  4.24684E-01  4.08417E-01  3.92571E-01  3.77123E-01
   3.62059E-01  3.47358E-01  3.33007E-01  3.18986E-01  3.05285E-01  2.91885E-01  2.78780E-01  2.65952E-01  2.53395E-01  2.41091E-01
   2.29037E-01  2.17218E-01  2.05631E-01  1.94262E-01  1.83108E-01  1.72155E-01  1.61403E-01  1.50840E-01
 NY background values follow
    -3.518E+00   -3.502E+00   -3.486E+00   -3.471E+00   -3.455E+00   -3.439E+00   -3.423E+00   -3.407E+00   -3.391E+00   -3.375E+00
    -3.359E+00   -3.343E+00   -3.328E+00   -3.312E+00   -3.296E+00   -3.280E+00   -3.264E+00   -3.248E+00   -3.232E+00   -3.216E+00
    -3.200E+00   -3.185E+00   -3.169E+00   -3.153E+00   -3.137E+00   -3.121E+00   -3.105E+00   -3.089E+00   -3.073E+00   -3.058E+00
    -3.042E+00   -3.026E+00   -3.010E+00   -2.994E+00   -2.978E+00   -2.963E+00   -2.947E+00   -2.931E+00   -2.915E+00   -2.899E+00
    -2.884E+00   -2.868E+00   -2.852E+00   -2.836E+00   -2.820E+00   -2.805E+00   -2.789E+00   -2.773E+00   -2.758E+00   -2.742E+00
    -2.726E+00   -2.710E+00   -2.695E+00   -2.679E+00   -2.663E+00   -2.648E+00   -2.632E+00   -2.617E+00   -2.601E+00   -2.585E+00
    -2.570E+00   -2.554E+00   -2.539E+00   -2.523E+00   -2.508E+00   -2.492E+00   -2.477E+00   -2.461E+00   -2.446E+00   -2.430E+00
    -2.415E+00   -2.400E+00   -2.384E+00   -2.369E+00   -2.354E+00   -2.338E+00   -2.323E+00   -2.308E+00   -2.292E+00   -2.277E+00
    -2.262E+00   -2.247E+00   -2.232E+00   -2.217E+00   -2.202E+00   -2.187E+00   -2.171E+00   -2.156E+00   -2.141E+00   -2.127E+00
    -2.112E+00   -2.097E+00   -2.082E+00   -2.067E+00   -2.052E+00   -2.037E+00   -2.023E+00   -2.008E+00   -1.993E+00   -1.979E+00
    -1.964E+00   -1.949E+00   -1.935E+00   -1.920E+00   -1.906E+00   -1.891E+00   -1.877E+00   -1.862E+00   -1.848E+00   -1.834E+00
    -1.819E+00   -1.805E+00   -1.791E+00   -1.777E+00   -1.762E+00   -1.748E+00   -1.734E+00   -1.720E+00   -1.706E+00   -1.692E+00
    -1.678E+00   -1.664E+00   -1.651E+00   -1.637E+00   -1.623E+00   -1.609E+00   -1.596E+00   -1.582E+00   -1.568E+00   -1.555E+00
    -1.541E+00   -1.528E+00   -1.514E+00   -1.501E+00   -1.488E+00   -1.474E+00   -1.461E+00   -1.448E+00   -1.435E+00   -1.421E+00
    -1.408E+00   -1.395E+00   -1.382E+00   -1.369E+00   -1.356E+00   -1.344E+00   -1.331E+00   -1.318E+00   -1.305E+00   -1.293E+00
    -1.280E+00   -1.267E+00   -1.255E+00   -1.243E+00   -1.230E+00   -1.218E+00   -1.205E+00   -1.193E+00   -1.181E+00   -1.169E+00
    -1.157E+00   -1.145E+00   -1.133E+00   -1.121E+00   -1.109E+00   -1.097E+00   -1.085E+00   -1.073E+00   -1.062E+00   -1.050E+00
    -1.038E+00   -1.027E+00   -1.015E+00   -1.004E+00   -9.926E-01   -9.812E-01   -9.700E-01   -9.588E-01   -9.476E-01   -9.366E-01
    -9.255E-01   -9.145E-01   -9.036E-01   -8.928E-01   -8.820E-01   -8.712E-01   -8.605E-01   -8.499E-01   -8.394E-01   -8.288E-01
    -8.184E-01   -8.080E-01   -7.977E-01   -7.874E-01   -7.772E-01   -7.670E-01   -7.569E-01   -7.469E-01   -7.369E-01   -7.270E-01
    -7.171E-01   -7.073E-01   -6.975E-01   -6.879E-01   -6.782E-01   -6.687E-01   -6.592E-01   -6.497E-01   -6.403E-01   -6.310E-01
    -6.217E-01   -6.125E-01   -6.034E-01   -5.943E-01   -5.853E-01   -5.763E-01   -5.674E-01   -5.585E-01   -5.498E-01   -5.410E-01
    -5.324E-01   -5.238E-01   -5.152E-01   -5.068E-01   -4.983E-01   -4.900E-01   -4.817E-01   -4.735E-01   -4.653E-01   -4.572E-01
    -4.491E-01   -4.412E-01   -4.332E-01   -4.254E-01   -4.176E-01   -4.098E-01   -4.022E-01   -3.946E-01   -3.870E-01   -3.795E-01
    -3.721E-01   -3.648E-01   -3.575E-01   -3.502E-01   -3.431E-01   -3.360E-01   -3.289E-01   -3.220E-01   -3.151E-01   -3.082E-01
    -3.014E-01   -2.947E-01   -2.881E-01   -2.815E-01   -2.750E-01   -2.685E-01   -2.621E-01   -2.558E-01   -2.496E-01   -2.434E-01
    -2.372E-01   -2.312E-01   -2.252E-01   -2.193E-01   -2.134E-01   -2.076E-01   -2.019E-01   -1.962E-01   -1.906E-01   -1.851E-01
    -1.796E-01   -1.742E-01   -1.689E-01   -1.637E-01   -1.585E-01   -1.533E-01   -1.483E-01   -1.433E-01   -1.384E-01   -1.335E-01
    -1.287E-01   -1.240E-01   -1.193E-01   -1.147E-01   -1.102E-01   -1.058E-01   -1.014E-01   -9.702E-02   -9.275E-02   -8.854E-02
    -8.440E-02   -8.033E-02   -7.632E-02   -7.237E-02   -6.849E-02   -6.467E-02   -6.091E-02   -5.722E-02   -5.359E-02   -5.002E-02
    -4.652E-02   -4.308E-02   -3.970E-02   -3.638E-02   -3.313E-02   -2.994E-02   -2.681E-02   -2.374E-02   -2.073E-02   -1.779E-02
    -1.490E-02   -1.208E-02   -9.320E-03   -6.619E-03   -3.978E-03   -1.399E-03    1.121E-03    3.580E-03    5.980E-03    8.320E-03
     1.060E-02    1.282E-02    1.498E-02    1.709E-02    1.913E-02    2.112E-02    2.305E-02    2.492E-02    2.674E-02    2.849E-02
     3.019E-02    3.184E-02    3.343E-02    3.496E-02    3.643E-02    3.785E-02    3.922E-02    4.053E-02    4.178E-02    4.299E-02
     4.413E-02    4.522E-02    4.626E-02    4.725E-02    4.818E-02    4.906E-02    4.988E-02    5.066E-02    5.138E-02    5.205E-02
     5.267E-02    5.323E-02    5.375E-02    5.421E-02    5.463E-02    5.499E-02    5.530E-02    5.557E-02    5.578E-02    5.594E-02
     5.606E-02    5.613E-02    5.614E-02    5.611E-02    5.603E-02    5.591E-02    5.573E-02    5.551E-02    5.524E-02    5.492E-02
     5.456E-02    5.415E-02    5.369E-02    5.318E-02    5.263E-02    5.204E-02    5.140E-02    5.071E-02    4.998E-02    4.920E-02
     4.837E-02    4.751E-02    4.659E-02    4.564E-02    4.463E-02    4.359E-02    4.250E-02    4.136E-02    4.019E-02    3.897E-02
     3.771E-02    3.640E-02    3.505E-02    3.366E-02    3.223E-02    3.075E-02    2.923E-02    2.767E-02    2.607E-02    2.443E-02
     2.275E-02    2.103E-02    1.926E-02    1.746E-02    1.561E-02    1.373E-02    1.180E-02    9.836E-03    7.831E-03    5.788E-03
     3.706E-03    1.586E-03   -5.713E-04   -2.766E-03   -4.997E-03   -7.264E-03   -9.567E-03   -1.190E-02   -1.428E-02   -1.668E-02
    -1.912E-02   -2.160E-02   -2.410E-02   -2.664E-02   -2.921E-02   -3.182E-02   -3.445E-02   -3.711E-02   -3.981E-02   -4.253E-02
    -4.528E-02   -4.806E-02   -5.087E-02   -5.371E-02   -5.657E-02   -5.946E-02   -6.238E-02   -6.532E-02   -6.829E-02   -7.128E-02
    -7.429E-02   -7.733E-02   -8.040E-02   -8.348E-02   -8.659E-02   -8.972E-02   -9.287E-02   -9.605E-02   -9.924E-02   -1.025E-01
    -1.057E-01   -1.089E-01   -1.122E-01   -1.155E-01   -1.188E-01   -1.221E-01   -1.255E-01   -1.288E-01   -1.322E-01   -1.356E-01
    -1.390E-01   -1.424E-01   -1.458E-01   -1.493E-01   -1.527E-01   -1.562E-01   -1.597E-01   -1.632E-01   -1.667E-01   -1.702E-01
    -1.737E-01   -1.772E-01   -1.808E-01   -1.843E-01   -1.879E-01   -1.914E-01   -1.950E-01   -1.986E-01   -2.022E-01   -2.058E-01
    -2.094E-01   -2.130E-01   -2.166E-01   -2.202E-01   -2.238E-01   -2.274E-01   -2.310E-01   -2.346E-01   -2.382E-01   -2.418E-01
    -2.454E-01   -2.491E-01   -2.527E-01   -2.563E-01   -2.599E-01   -2.635E-01   -2.671E-01   -2.707E-01
 Asp      Conc. = 7.00E+00
