 LCModel (Version 6.3-1L) Copyright: S.W. Provencher.          Ref.: Magn. Reson. Med. 30:672-679 (1993).                
 Slice#3 Row#11 Col#8  PD_05_press_2_raw_act
 36 lines in following concentration table = NCONC+1
    Conc.  %SD /Cr+PCr  Metabolite                                         
  245.404  33%  19.115 Ala                                                 
    4.276 168%   0.333 Asp                                                 
    0.000 999%   0.000 Cr                                                  
   12.838 232%   1.000 PCr                                                 
    2.444 176%   0.190 GABA                                                
    2.364 182%   0.184 Glc                                                 
  232.714  64%  18.127 Gln                                                 
    0.000 999%   0.000 Glu                                                 
   14.617  86%   1.139 GPC                                                 
    0.000 999%   0.000 PCh                                                 
   42.399 116%   3.303 GSH                                                 
    0.000 999%   0.000 Ins                                                 
    0.000 999%   0.000 Lac                                                 
   26.983 138%   2.102 NAA                                                 
    0.000 999%   0.000 NAAG                                                
    0.693 207% 5.4E-02 Scyllo                                              
    3.199 223%   0.249 Tau                                                 
    0.000 999%   0.000 -CrCH2                                              
   14.617  86%   1.139 GPC+PCh                                             
   26.983 138%   2.102 NAA+NAAG                                            
   12.838 232%   1.000 Cr+PCr                                              
  232.714  64%  18.127 Glu+Gln                                             
    0.000 999%   0.000 Lip13a                                              
  599.341  13%  46.685 Lip13b                                              
  107.206  82%   8.351 Lip09                                               
    0.000 999%   0.000 MM09                                                
   48.302 158%   3.762 Lip20                                               
    0.000 999%   0.000 MM20                                                
    0.762 999% 5.9E-02 MM12                                                
    0.000 999%   0.000 MM14                                                
   11.749 253%   0.915 MM17                                                
  599.341  13%  46.685 Lip13a+Lip13b                                       
  600.102  13%  46.744 MM14+Lip13a+Lip13b+MM12                             
  107.206  82%   8.351 MM09+Lip09                                          
   48.302 158%   3.762 MM20+Lip20                                          
   6 lines in following misc. output table
  FWHM = 0.046 ppm    S/N =   1                                            
  Data shift = 0.008 ppm                                                   
  Ph:  91 deg     -14.1 deg/ppm                                            
  alphaB,S = 7.8E-01,   2.3E+01                                            
   14 spline knots.   Ns = 5(1)                                            
  ( 3) 2 infls.   ( 3) 1 extrs.                                            
  498 points on ppm-axis = NY
      4.000000     3.992357     3.984714     3.977070     3.969427     3.961784     3.954141     3.946497     3.938854     3.931211
      3.923568     3.915925     3.908281     3.900638     3.892995     3.885352     3.877708     3.870065     3.862422     3.854779
      3.847136     3.839492     3.831849     3.824206     3.816563     3.808919     3.801276     3.793633     3.785990     3.778347
      3.770703     3.763060     3.755417     3.747774     3.740130     3.732487     3.724844     3.717201     3.709558     3.701914
      3.694271     3.686628     3.678985     3.671341     3.663698     3.656055     3.648412     3.640769     3.633125     3.625482
      3.617839     3.610196     3.602552     3.594909     3.587266     3.579623     3.571980     3.564336     3.556693     3.549050
      3.541407     3.533763     3.526120     3.518477     3.510834     3.503191     3.495547     3.487904     3.480261     3.472618
      3.464974     3.457331     3.449688     3.442045     3.434402     3.426758     3.419115     3.411472     3.403829     3.396185
      3.388542     3.380899     3.373256     3.365613     3.357969     3.350326     3.342683     3.335040     3.327396     3.319753
      3.312110     3.304467     3.296824     3.289180     3.281537     3.273894     3.266251     3.258607     3.250964     3.243321
      3.235678     3.228034     3.220391     3.212748     3.205105     3.197462     3.189818     3.182175     3.174532     3.166889
      3.159245     3.151602     3.143959     3.136316     3.128673     3.121029     3.113386     3.105743     3.098100     3.090456
      3.082813     3.075170     3.067527     3.059884     3.052240     3.044597     3.036954     3.029311     3.021667     3.014024
      3.006381     2.998738     2.991095     2.983451     2.975808     2.968165     2.960522     2.952878     2.945235     2.937592
      2.929949     2.922306     2.914662     2.907019     2.899376     2.891733     2.884089     2.876446     2.868803     2.861160
      2.853517     2.845873     2.838230     2.830587     2.822944     2.815300     2.807657     2.800014     2.792371     2.784728
      2.777084     2.769441     2.761798     2.754155     2.746511     2.738868     2.731225     2.723582     2.715939     2.708295
      2.700652     2.693009     2.685366     2.677722     2.670079     2.662436     2.654793     2.647150     2.639506     2.631863
      2.624220     2.616577     2.608933     2.601290     2.593647     2.586004     2.578361     2.570717     2.563074     2.555431
      2.547788     2.540144     2.532501     2.524858     2.517215     2.509572     2.501928     2.494285     2.486642     2.478999
      2.471355     2.463712     2.456069     2.448426     2.440783     2.433139     2.425496     2.417853     2.410210     2.402566
      2.394923     2.387280     2.379637     2.371994     2.364350     2.356707     2.349064     2.341421     2.333777     2.326134
      2.318491     2.310848     2.303205     2.295561     2.287918     2.280275     2.272632     2.264988     2.257345     2.249702
      2.242059     2.234416     2.226772     2.219129     2.211486     2.203843     2.196199     2.188556     2.180913     2.173270
      2.165627     2.157983     2.150340     2.142697     2.135054     2.127410     2.119767     2.112124     2.104481     2.096838
      2.089194     2.081551     2.073908     2.066265     2.058621     2.050978     2.043335     2.035692     2.028049     2.020405
      2.012762     2.005119     1.997476     1.989833     1.982190     1.974546     1.966903     1.959260     1.951617     1.943974
      1.936331     1.928688     1.921045     1.913402     1.905759     1.898115     1.890472     1.882829     1.875186     1.867543
      1.859900     1.852257     1.844614     1.836971     1.829327     1.821684     1.814041     1.806398     1.798755     1.791112
      1.783469     1.775826     1.768183     1.760540     1.752896     1.745253     1.737610     1.729967     1.722324     1.714681
      1.707038     1.699395     1.691752     1.684108     1.676465     1.668822     1.661179     1.653536     1.645893     1.638250
      1.630607     1.622964     1.615321     1.607677     1.600034     1.592391     1.584748     1.577105     1.569462     1.561819
      1.554176     1.546533     1.538890     1.531246     1.523603     1.515960     1.508317     1.500674     1.493031     1.485388
      1.477745     1.470102     1.462458     1.454815     1.447172     1.439529     1.431886     1.424243     1.416600     1.408957
      1.401314     1.393671     1.386027     1.378384     1.370741     1.363098     1.355455     1.347812     1.340169     1.332526
      1.324883     1.317240     1.309596     1.301953     1.294310     1.286667     1.279024     1.271381     1.263738     1.256095
      1.248452     1.240808     1.233165     1.225522     1.217879     1.210236     1.202593     1.194950     1.187307     1.179664
      1.172021     1.164377     1.156734     1.149091     1.141448     1.133805     1.126162     1.118519     1.110876     1.103233
      1.095590     1.087946     1.080303     1.072660     1.065017     1.057374     1.049731     1.042088     1.034445     1.026802
      1.019158     1.011515     1.003872     0.996229     0.988586     0.980943     0.973300     0.965657     0.958014     0.950371
      0.942727     0.935084     0.927441     0.919798     0.912155     0.904512     0.896869     0.889226     0.881583     0.873940
      0.866296     0.858653     0.851010     0.843367     0.835724     0.828081     0.820438     0.812795     0.805152     0.797508
      0.789865     0.782222     0.774579     0.766936     0.759293     0.751650     0.744007     0.736364     0.728721     0.721077
      0.713434     0.705791     0.698148     0.690505     0.682862     0.675219     0.667576     0.659933     0.652290     0.644646
      0.637003     0.629360     0.621717     0.614074     0.606431     0.598788     0.591145     0.583502     0.575858     0.568215
      0.560572     0.552929     0.545286     0.537643     0.530000     0.522357     0.514714     0.507071     0.499427     0.491784
      0.484141     0.476498     0.468855     0.461212     0.453569     0.445925     0.438282     0.430639     0.422996     0.415353
      0.407710     0.400067     0.392424     0.384780     0.377137     0.369494     0.361851     0.354208     0.346565     0.338922
      0.331278     0.323635     0.315992     0.308349     0.300706     0.293063     0.285420     0.277777     0.270133     0.262490
      0.254847     0.247204     0.239561     0.231918     0.224275     0.216631     0.208988     0.201345
 NY phased data points follow
   4.60848E+01  4.32844E+01  4.58892E+01  4.46960E+01  4.35541E+01  4.13415E+01  4.04664E+01  3.63816E+01  3.75262E+01  3.68120E+01
   3.70726E+01  4.26530E+01  3.90514E+01  3.52263E+01  3.95354E+01  3.41519E+01  3.77851E+01  3.49817E+01  3.79720E+01  3.69745E+01
   3.70569E+01  3.75229E+01  3.60767E+01  3.46426E+01  3.31769E+01  3.23191E+01  3.32786E+01  2.93005E+01  3.44993E+01  3.03389E+01
   3.27377E+01  3.74295E+01  3.13400E+01  2.82095E+01  2.99395E+01  2.85333E+01  2.93406E+01  2.99408E+01  2.95220E+01  2.68758E+01
   3.07497E+01  2.76741E+01  2.95770E+01  2.93316E+01  3.10799E+01  2.87497E+01  2.33633E+01  3.21219E+01  3.07205E+01  2.85378E+01
   2.81405E+01  3.01949E+01  2.65240E+01  2.97966E+01  2.55128E+01  2.68823E+01  2.52173E+01  2.62762E+01  2.69106E+01  2.41268E+01
   2.72843E+01  2.28415E+01  2.41767E+01  2.75679E+01  2.39148E+01  2.37350E+01  2.63835E+01  2.03965E+01  2.81834E+01  2.34915E+01
   2.49633E+01  2.48375E+01  2.56034E+01  2.18799E+01  2.05611E+01  2.58449E+01  2.36424E+01  2.16861E+01  2.24306E+01  2.43995E+01
   2.38410E+01  2.21512E+01  2.41211E+01  2.24838E+01  2.20377E+01  2.45019E+01  1.97104E+01  2.01435E+01  2.05907E+01  2.44399E+01
   2.22091E+01  1.71432E+01  2.11391E+01  1.94762E+01  2.33028E+01  2.21043E+01  2.02038E+01  1.91026E+01  2.22575E+01  1.95415E+01
   2.34588E+01  2.06558E+01  2.11371E+01  2.16503E+01  2.76456E+01  2.11168E+01  2.22113E+01  2.00422E+01  1.89023E+01  2.38593E+01
   1.99633E+01  1.99384E+01  1.71409E+01  1.50470E+01  1.95597E+01  1.80909E+01  2.03796E+01  2.10747E+01  1.96296E+01  1.80488E+01
   2.39247E+01  1.67618E+01  2.06031E+01  1.24757E+01  1.73653E+01  1.68469E+01  1.50608E+01  2.02822E+01  1.89688E+01  1.55025E+01
   1.98126E+01  1.61616E+01  2.04095E+01  1.64166E+01  1.79787E+01  1.69522E+01  1.65153E+01  1.80292E+01  1.78224E+01  1.41883E+01
   1.48551E+01  1.62016E+01  2.26038E+01  1.68198E+01  1.69162E+01  2.00597E+01  1.83665E+01  1.51910E+01  1.76846E+01  1.20254E+01
   1.59512E+01  1.41988E+01  1.89912E+01  1.21871E+01  1.82589E+01  1.54226E+01  1.52909E+01  1.60827E+01  2.05912E+01  1.40993E+01
   1.55919E+01  1.50678E+01  1.77303E+01  1.57420E+01  1.61649E+01  1.27952E+01  1.69088E+01  1.05090E+01  1.83876E+01  2.06718E+01
   1.21857E+01  1.20969E+01  1.76742E+01  1.53935E+01  1.64492E+01  1.55118E+01  1.51571E+01  1.20332E+01  1.12330E+01  1.53089E+01
   1.41353E+01  1.53003E+01  1.58486E+01  1.61242E+01  1.67773E+01  1.35091E+01  1.27037E+01  1.71968E+01  1.32289E+01  1.57771E+01
   1.12630E+01  1.35852E+01  1.61561E+01  1.38008E+01  1.00348E+01  1.37895E+01  1.73512E+01  1.73447E+01  1.03797E+01  1.09829E+01
   1.21634E+01  1.23850E+01  1.23556E+01  1.49079E+01  1.40633E+01  1.49320E+01  1.31049E+01  1.59545E+01  1.21432E+01  1.54086E+01
   1.53142E+01  1.31312E+01  1.15444E+01  1.17840E+01  1.84362E+01  1.19224E+01  1.36611E+01  1.19379E+01  1.68669E+01  1.52551E+01
   1.33886E+01  1.59462E+01  1.79266E+01  1.53636E+01  1.63172E+01  1.66096E+01  1.46354E+01  1.12172E+01  1.57746E+01  1.56805E+01
   1.32575E+01  9.33011E+00  1.18870E+01  1.30362E+01  1.48150E+01  1.12111E+01  1.10680E+01  9.07296E+00  1.42362E+01  1.08403E+01
   1.28637E+01  8.66707E+00  9.91290E+00  1.33974E+01  1.13803E+01  5.34598E+00  4.84772E+00  8.16796E+00  1.05431E+01  7.00186E+00
   5.05642E+00  7.56731E+00  5.45901E+00  1.01836E+01  8.21679E+00  1.31622E+01  6.97931E+00  9.20050E+00  1.07686E+01  1.46468E+01
   1.44908E+01  9.49525E+00  1.53702E+01  9.34439E+00  8.77275E+00  7.22799E+00  5.51591E+00  1.20496E+01  1.17630E+01  1.02110E+01
   1.08733E+01  1.35329E+01  7.27754E+00  1.20982E+01  1.09456E+01  9.41218E+00  6.38551E+00  6.36387E+00  4.45116E+00  1.08952E+01
   5.77491E+00  4.56009E+00  1.13477E+01  7.70582E+00  9.85432E+00  5.66058E+00  8.34020E+00  8.73309E+00  5.18551E+00  7.50095E+00
   8.83207E+00  1.26463E+01  9.64313E+00  1.06380E+01  1.04398E+01  1.15526E+01  1.42589E+01  1.18588E+01  1.27263E+01  8.11598E+00
   1.10811E+01  8.86443E+00  1.01542E+01  9.93873E+00  6.88106E+00  1.23272E+01  1.31727E+01  9.11652E+00  1.22738E+01  9.61241E+00
   1.35911E+01  1.17888E+01  9.90635E+00  6.39513E+00  7.69762E+00  1.36870E+01  7.07837E+00  1.32786E+01  1.40572E+01  1.20755E+01
   1.20199E+01  9.51668E+00  1.27558E+01  8.95215E+00  1.07759E+01  1.05281E+01  5.00482E+00  1.23031E+01  5.41619E+00  5.16824E+00
   4.31672E+00  3.00401E+00  6.45949E+00  6.01014E+00  5.82635E+00  1.07817E+01  8.11782E+00  1.38321E+01  1.10773E+01  7.37629E+00
   5.86216E+00  1.04129E+01  7.88753E+00  7.66147E+00  1.27711E+01  8.98234E+00  1.62217E+01  1.32860E+01  1.86089E+01  1.88954E+01
   1.87594E+01  1.82824E+01  1.86247E+01  1.56863E+01  1.55985E+01  1.12130E+01  1.27967E+01  8.49212E+00  1.12937E+01  9.30675E+00
   9.51024E+00  1.16777E+01  1.00608E+01  1.36181E+01  9.31371E+00  8.76489E+00  8.04670E+00  5.64674E+00  8.63840E+00  6.07428E+00
   8.59729E+00  7.66685E+00  2.85427E+00  1.04790E+01  6.29070E+00  8.58967E+00  7.81048E+00  1.22702E+01  1.36405E+01  1.26778E+01
   8.02804E+00  5.74317E+00  1.05667E+01  9.61626E+00  1.05963E+01  1.14017E+01  1.17622E+01  1.04680E+01  8.79303E+00  6.39065E+00
   1.00157E+01  1.12708E+01  7.81201E+00  1.10054E+01  7.77292E+00  7.93876E+00  3.55570E+00  6.72910E+00  3.99676E+00  3.61610E+00
   2.40029E+00  4.59818E+00  1.08487E+01  6.31213E+00  5.93178E+00  1.90731E+00  6.57552E+00  6.55296E+00  6.70350E+00  4.24115E+00
   6.63958E+00  7.15738E+00  1.10682E+01  7.49281E+00  8.83429E+00  6.42579E+00  7.45372E+00  8.38534E+00  4.03017E+00  7.74747E+00
   3.80266E+00  6.36185E+00  8.25428E+00  3.93781E+00  5.73365E+00  9.33484E+00  5.25858E+00  9.12717E+00  8.45000E+00  1.65177E+00
   8.27997E+00  7.00541E+00  9.81992E+00  5.90283E+00  6.36746E+00  3.96892E+00  4.06099E+00  2.51502E+00  1.10366E-01  3.76496E+00
   3.32929E+00  2.97058E+00  9.38038E+00  7.29000E+00  4.57627E+00  3.96708E+00  7.04513E+00  5.96221E+00  1.03251E+01  8.10327E+00
   2.05485E+00  8.29946E+00  8.22321E+00  7.89238E+00  3.53449E+00  6.81724E+00  6.91712E+00  9.88840E+00  3.30576E+00  8.77684E+00
   6.81234E+00  3.74294E+00  6.30801E+00  4.98250E+00  5.59827E+00  2.48942E+00  5.27594E+00  7.05192E-01  4.54593E+00  9.00882E-01
   3.35796E+00 -2.85679E+00  6.49095E+00  6.47165E+00  3.76980E+00  4.13905E+00  4.23494E+00  1.44511E+00  2.78055E+00  2.78879E+00
   3.88905E+00  6.15886E+00  2.26995E+00  5.38824E+00  8.66701E+00  7.26830E+00  6.61036E+00  2.81766E+00  5.30428E+00  4.70062E+00
   4.42848E+00  4.25697E+00  4.31928E+00  4.67823E+00  3.23645E+00  4.07691E+00  5.53224E+00  6.51902E+00
 NY points of the fit to the data follow
   3.74525E+01  3.72898E+01  3.71332E+01  3.69901E+01  3.68779E+01  3.67811E+01  3.66753E+01  3.65511E+01  3.64077E+01  3.62439E+01
   3.60498E+01  3.58156E+01  3.55393E+01  3.52371E+01  3.49614E+01  3.47363E+01  3.45666E+01  3.44451E+01  3.43758E+01  3.43873E+01
   3.44803E+01  3.44964E+01  3.43088E+01  3.39408E+01  3.34998E+01  3.31118E+01  3.27393E+01  3.24148E+01  3.23317E+01  3.25222E+01
   3.28592E+01  3.31181E+01  3.31626E+01  3.29717E+01  3.26062E+01  3.21007E+01  3.15061E+01  3.09691E+01  3.05835E+01  3.03529E+01
   3.02314E+01  3.01401E+01  3.00375E+01  2.99165E+01  2.97810E+01  2.96277E+01  2.94630E+01  2.92923E+01  2.91165E+01  2.89406E+01
   2.87693E+01  2.86023E+01  2.84334E+01  2.82588E+01  2.80806E+01  2.79030E+01  2.77285E+01  2.75575E+01  2.73891E+01  2.72234E+01
   2.70609E+01  2.69016E+01  2.67448E+01  2.65891E+01  2.64344E+01  2.62803E+01  2.61266E+01  2.59737E+01  2.58219E+01  2.56714E+01
   2.55236E+01  2.53794E+01  2.52373E+01  2.50954E+01  2.49527E+01  2.48082E+01  2.46624E+01  2.45157E+01  2.43685E+01  2.42225E+01
   2.40806E+01  2.39470E+01  2.38206E+01  2.36961E+01  2.35696E+01  2.34400E+01  2.33086E+01  2.31751E+01  2.30374E+01  2.28954E+01
   2.27532E+01  2.26157E+01  2.24846E+01  2.23607E+01  2.22446E+01  2.21369E+01  2.20456E+01  2.20141E+01  2.21438E+01  2.23686E+01
   2.25649E+01  2.26744E+01  2.26984E+01  2.26463E+01  2.24627E+01  2.20928E+01  2.15877E+01  2.10914E+01  2.07149E+01  2.04626E+01
   2.03020E+01  2.01808E+01  2.00691E+01  1.99617E+01  1.98564E+01  1.97498E+01  1.96423E+01  1.95353E+01  1.94301E+01  1.93289E+01
   1.92371E+01  1.91708E+01  1.91579E+01  1.91718E+01  1.91777E+01  1.91605E+01  1.91213E+01  1.90625E+01  1.89771E+01  1.88531E+01
   1.86812E+01  1.84841E+01  1.82899E+01  1.81035E+01  1.79288E+01  1.77592E+01  1.76032E+01  1.74909E+01  1.74345E+01  1.74259E+01
   1.74395E+01  1.74458E+01  1.74175E+01  1.73431E+01  1.72323E+01  1.71035E+01  1.69766E+01  1.68618E+01  1.67578E+01  1.66615E+01
   1.65671E+01  1.64748E+01  1.63866E+01  1.63036E+01  1.62253E+01  1.61495E+01  1.60739E+01  1.59981E+01  1.59219E+01  1.58449E+01
   1.57682E+01  1.56912E+01  1.56154E+01  1.55432E+01  1.54745E+01  1.54062E+01  1.53346E+01  1.52594E+01  1.51839E+01  1.51104E+01
   1.50376E+01  1.49620E+01  1.48837E+01  1.48065E+01  1.47310E+01  1.46554E+01  1.45776E+01  1.45007E+01  1.44299E+01  1.43662E+01
   1.43006E+01  1.42277E+01  1.41509E+01  1.40794E+01  1.40217E+01  1.39833E+01  1.39664E+01  1.39686E+01  1.39758E+01  1.39578E+01
   1.38962E+01  1.37778E+01  1.35795E+01  1.33184E+01  1.30493E+01  1.28308E+01  1.27213E+01  1.27683E+01  1.29672E+01  1.32613E+01
   1.35986E+01  1.39113E+01  1.41101E+01  1.41254E+01  1.39014E+01  1.33966E+01  1.27235E+01  1.21215E+01  1.16949E+01  1.14540E+01
   1.13926E+01  1.15351E+01  1.19062E+01  1.24126E+01  1.28583E+01  1.31036E+01  1.31590E+01  1.31020E+01  1.30004E+01  1.29035E+01
   1.28158E+01  1.27326E+01  1.26546E+01  1.25816E+01  1.25110E+01  1.24375E+01  1.23483E+01  1.22372E+01  1.21191E+01  1.20124E+01
   1.19072E+01  1.17454E+01  1.15501E+01  1.14186E+01  1.13800E+01  1.14194E+01  1.15220E+01  1.16845E+01  1.18355E+01  1.19237E+01
   1.18984E+01  1.17298E+01  1.14340E+01  1.10448E+01  1.06416E+01  1.03444E+01  1.02421E+01  1.03240E+01  1.05137E+01  1.07442E+01
   1.09583E+01  1.11313E+01  1.12389E+01  1.12690E+01  1.12253E+01  1.11911E+01  1.12289E+01  1.12903E+01  1.13435E+01  1.13797E+01
   1.14039E+01  1.13923E+01  1.12892E+01  1.10802E+01  1.08233E+01  1.06054E+01  1.04583E+01  1.03704E+01  1.03180E+01  1.02741E+01
   1.02321E+01  1.01919E+01  1.01542E+01  1.01184E+01  1.00835E+01  1.00491E+01  1.00153E+01  9.98194E+00  9.94889E+00  9.91590E+00
   9.88340E+00  9.85220E+00  9.82266E+00  9.79472E+00  9.76842E+00  9.74383E+00  9.72061E+00  9.69823E+00  9.67632E+00  9.65464E+00
   9.63320E+00  9.61203E+00  9.59114E+00  9.57066E+00  9.55077E+00  9.53155E+00  9.51302E+00  9.49523E+00  9.47817E+00  9.46173E+00
   9.44582E+00  9.43044E+00  9.41560E+00  9.40136E+00  9.38780E+00  9.37507E+00  9.36336E+00  9.35291E+00  9.34399E+00  9.33697E+00
   9.33241E+00  9.33107E+00  9.33391E+00  9.34217E+00  9.35756E+00  9.38249E+00  9.42057E+00  9.47733E+00  9.56200E+00  9.69170E+00
   9.90416E+00  1.02953E+01  1.08783E+01  1.12169E+01  1.11036E+01  1.05959E+01  9.81871E+00  8.79294E+00  7.41557E+00  5.85238E+00
   4.87675E+00  4.92385E+00  5.77748E+00  6.98759E+00  8.29082E+00  9.57650E+00  1.06911E+01  1.13446E+01  1.13832E+01  1.10095E+01
   1.05946E+01  1.03579E+01  1.04049E+01  1.07134E+01  1.12306E+01  1.19279E+01  1.27713E+01  1.37075E+01  1.46621E+01  1.55438E+01
   1.62557E+01  1.67102E+01  1.68441E+01  1.66310E+01  1.60863E+01  1.52648E+01  1.42501E+01  1.31396E+01  1.20281E+01  1.09945E+01
   1.00932E+01  9.35235E+00  8.77578E+00  8.34979E+00  8.05016E+00  7.84890E+00  7.71919E+00  7.63826E+00  7.58854E+00  7.55755E+00
   7.53702E+00  7.52190E+00  7.50929E+00  7.49769E+00  7.48641E+00  7.47519E+00  7.46399E+00  7.45291E+00  7.44207E+00  7.43161E+00
   7.42168E+00  7.41240E+00  7.40390E+00  7.39632E+00  7.38979E+00  7.38440E+00  7.38023E+00  7.37734E+00  7.37578E+00  7.37554E+00
   7.37657E+00  7.37878E+00  7.38201E+00  7.38603E+00  7.39058E+00  7.39532E+00  7.39983E+00  7.40367E+00  7.40632E+00  7.40726E+00
   7.40595E+00  7.40186E+00  7.39450E+00  7.38341E+00  7.36820E+00  7.34860E+00  7.32442E+00  7.29560E+00  7.26219E+00  7.22434E+00
   7.18234E+00  7.13656E+00  7.08746E+00  7.03555E+00  6.98139E+00  6.92555E+00  6.86858E+00  6.81103E+00  6.75341E+00  6.69617E+00
   6.63968E+00  6.58426E+00  6.53016E+00  6.47758E+00  6.42663E+00  6.37737E+00  6.32981E+00  6.28395E+00  6.23971E+00  6.19703E+00
   6.15582E+00  6.11596E+00  6.07733E+00  6.03984E+00  6.00338E+00  5.96785E+00  5.93314E+00  5.89916E+00  5.86584E+00  5.83309E+00
   5.80087E+00  5.76911E+00  5.73775E+00  5.70675E+00  5.67607E+00  5.64569E+00  5.61556E+00  5.58566E+00  5.55597E+00  5.52646E+00
   5.49712E+00  5.46794E+00  5.43891E+00  5.41000E+00  5.38121E+00  5.35253E+00  5.32395E+00  5.29547E+00  5.26707E+00  5.23874E+00
   5.21049E+00  5.18230E+00  5.15418E+00  5.12612E+00  5.09812E+00  5.07016E+00  5.04225E+00  5.01439E+00  4.98658E+00  4.95881E+00
   4.93107E+00  4.90337E+00  4.87570E+00  4.84807E+00  4.82048E+00  4.79291E+00  4.76538E+00  4.73787E+00  4.71039E+00  4.68294E+00
   4.65552E+00  4.62813E+00  4.60075E+00  4.57341E+00  4.54609E+00  4.51880E+00  4.49153E+00  4.46429E+00  4.43706E+00  4.40987E+00
   4.38270E+00  4.35556E+00  4.32845E+00  4.30136E+00  4.27429E+00  4.24726E+00  4.22026E+00  4.19329E+00
 NY background values follow
     3.734E+01    3.716E+01    3.698E+01    3.680E+01    3.662E+01    3.644E+01    3.626E+01    3.608E+01    3.590E+01    3.573E+01
     3.555E+01    3.537E+01    3.519E+01    3.501E+01    3.483E+01    3.465E+01    3.447E+01    3.429E+01    3.411E+01    3.394E+01
     3.376E+01    3.358E+01    3.340E+01    3.323E+01    3.305E+01    3.287E+01    3.270E+01    3.252E+01    3.235E+01    3.217E+01
     3.200E+01    3.182E+01    3.165E+01    3.147E+01    3.130E+01    3.113E+01    3.096E+01    3.078E+01    3.061E+01    3.044E+01
     3.027E+01    3.010E+01    2.993E+01    2.977E+01    2.960E+01    2.943E+01    2.926E+01    2.910E+01    2.893E+01    2.877E+01
     2.860E+01    2.844E+01    2.828E+01    2.812E+01    2.796E+01    2.779E+01    2.763E+01    2.748E+01    2.732E+01    2.716E+01
     2.700E+01    2.685E+01    2.669E+01    2.654E+01    2.638E+01    2.623E+01    2.608E+01    2.593E+01    2.578E+01    2.563E+01
     2.548E+01    2.533E+01    2.518E+01    2.503E+01    2.489E+01    2.474E+01    2.460E+01    2.446E+01    2.432E+01    2.417E+01
     2.403E+01    2.389E+01    2.376E+01    2.362E+01    2.348E+01    2.335E+01    2.321E+01    2.308E+01    2.294E+01    2.281E+01
     2.268E+01    2.255E+01    2.242E+01    2.229E+01    2.217E+01    2.204E+01    2.191E+01    2.179E+01    2.167E+01    2.154E+01
     2.142E+01    2.130E+01    2.118E+01    2.107E+01    2.095E+01    2.083E+01    2.072E+01    2.060E+01    2.049E+01    2.037E+01
     2.026E+01    2.015E+01    2.004E+01    1.993E+01    1.982E+01    1.971E+01    1.961E+01    1.950E+01    1.940E+01    1.929E+01
     1.919E+01    1.909E+01    1.899E+01    1.889E+01    1.879E+01    1.869E+01    1.859E+01    1.849E+01    1.839E+01    1.830E+01
     1.820E+01    1.811E+01    1.802E+01    1.793E+01    1.783E+01    1.774E+01    1.765E+01    1.756E+01    1.748E+01    1.739E+01
     1.730E+01    1.722E+01    1.713E+01    1.705E+01    1.696E+01    1.688E+01    1.680E+01    1.672E+01    1.664E+01    1.656E+01
     1.648E+01    1.640E+01    1.632E+01    1.624E+01    1.616E+01    1.609E+01    1.601E+01    1.594E+01    1.586E+01    1.579E+01
     1.572E+01    1.564E+01    1.557E+01    1.550E+01    1.543E+01    1.536E+01    1.529E+01    1.522E+01    1.515E+01    1.509E+01
     1.502E+01    1.495E+01    1.488E+01    1.482E+01    1.475E+01    1.469E+01    1.462E+01    1.456E+01    1.449E+01    1.443E+01
     1.437E+01    1.431E+01    1.424E+01    1.418E+01    1.412E+01    1.406E+01    1.400E+01    1.394E+01    1.388E+01    1.382E+01
     1.376E+01    1.370E+01    1.364E+01    1.359E+01    1.353E+01    1.347E+01    1.341E+01    1.336E+01    1.330E+01    1.325E+01
     1.319E+01    1.314E+01    1.308E+01    1.303E+01    1.297E+01    1.292E+01    1.287E+01    1.281E+01    1.276E+01    1.271E+01
     1.265E+01    1.260E+01    1.255E+01    1.250E+01    1.245E+01    1.240E+01    1.235E+01    1.230E+01    1.225E+01    1.220E+01
     1.215E+01    1.210E+01    1.205E+01    1.200E+01    1.196E+01    1.191E+01    1.186E+01    1.181E+01    1.177E+01    1.172E+01
     1.167E+01    1.163E+01    1.158E+01    1.153E+01    1.149E+01    1.144E+01    1.140E+01    1.135E+01    1.131E+01    1.126E+01
     1.122E+01    1.118E+01    1.113E+01    1.109E+01    1.105E+01    1.101E+01    1.096E+01    1.092E+01    1.088E+01    1.084E+01
     1.080E+01    1.076E+01    1.072E+01    1.068E+01    1.064E+01    1.060E+01    1.056E+01    1.052E+01    1.048E+01    1.045E+01
     1.041E+01    1.037E+01    1.034E+01    1.030E+01    1.026E+01    1.023E+01    1.019E+01    1.016E+01    1.012E+01    1.009E+01
     1.005E+01    1.002E+01    9.988E+00    9.955E+00    9.923E+00    9.891E+00    9.859E+00    9.828E+00    9.797E+00    9.767E+00
     9.736E+00    9.706E+00    9.677E+00    9.647E+00    9.618E+00    9.589E+00    9.561E+00    9.533E+00    9.505E+00    9.477E+00
     9.450E+00    9.423E+00    9.396E+00    9.369E+00    9.343E+00    9.316E+00    9.290E+00    9.265E+00    9.239E+00    9.214E+00
     9.189E+00    9.164E+00    9.139E+00    9.114E+00    9.090E+00    9.065E+00    9.041E+00    9.017E+00    8.993E+00    8.970E+00
     8.946E+00    8.922E+00    8.899E+00    8.876E+00    8.853E+00    8.830E+00    8.807E+00    8.784E+00    8.761E+00    8.738E+00
     8.715E+00    8.693E+00    8.670E+00    8.648E+00    8.625E+00    8.603E+00    8.580E+00    8.558E+00    8.536E+00    8.514E+00
     8.491E+00    8.469E+00    8.447E+00    8.425E+00    8.403E+00    8.381E+00    8.359E+00    8.337E+00    8.315E+00    8.293E+00
     8.271E+00    8.249E+00    8.226E+00    8.204E+00    8.182E+00    8.160E+00    8.138E+00    8.116E+00    8.094E+00    8.072E+00
     8.049E+00    8.027E+00    8.005E+00    7.982E+00    7.960E+00    7.937E+00    7.915E+00    7.892E+00    7.870E+00    7.847E+00
     7.824E+00    7.801E+00    7.778E+00    7.755E+00    7.732E+00    7.709E+00    7.686E+00    7.662E+00    7.639E+00    7.616E+00
     7.592E+00    7.568E+00    7.545E+00    7.521E+00    7.497E+00    7.473E+00    7.449E+00    7.425E+00    7.401E+00    7.376E+00
     7.352E+00    7.328E+00    7.303E+00    7.279E+00    7.254E+00    7.229E+00    7.204E+00    7.180E+00    7.155E+00    7.130E+00
     7.105E+00    7.080E+00    7.054E+00    7.029E+00    7.004E+00    6.978E+00    6.953E+00    6.927E+00    6.902E+00    6.876E+00
     6.850E+00    6.824E+00    6.798E+00    6.772E+00    6.746E+00    6.720E+00    6.694E+00    6.668E+00    6.641E+00    6.615E+00
     6.589E+00    6.562E+00    6.536E+00    6.509E+00    6.482E+00    6.455E+00    6.429E+00    6.402E+00    6.375E+00    6.348E+00
     6.321E+00    6.294E+00    6.267E+00    6.240E+00    6.213E+00    6.185E+00    6.158E+00    6.131E+00    6.104E+00    6.076E+00
     6.049E+00    6.021E+00    5.994E+00    5.967E+00    5.939E+00    5.912E+00    5.884E+00    5.857E+00    5.829E+00    5.801E+00
     5.774E+00    5.746E+00    5.719E+00    5.691E+00    5.663E+00    5.636E+00    5.608E+00    5.580E+00    5.553E+00    5.525E+00
     5.498E+00    5.470E+00    5.442E+00    5.415E+00    5.387E+00    5.360E+00    5.332E+00    5.304E+00    5.277E+00    5.249E+00
     5.222E+00    5.194E+00    5.167E+00    5.139E+00    5.112E+00    5.084E+00    5.057E+00    5.029E+00    5.002E+00    4.974E+00
     4.947E+00    4.919E+00    4.892E+00    4.865E+00    4.837E+00    4.810E+00    4.782E+00    4.755E+00    4.728E+00    4.700E+00
     4.673E+00    4.646E+00    4.618E+00    4.591E+00    4.564E+00    4.536E+00    4.509E+00    4.482E+00    4.455E+00    4.427E+00
     4.400E+00    4.373E+00    4.346E+00    4.319E+00    4.291E+00    4.264E+00    4.237E+00    4.210E+00
 Ala      Conc. = 2.45E+02
