 LCModel (Version 6.3-1L) Copyright: S.W. Provencher.          Ref.: Magn. Reson. Med. 30:672-679 (1993).                
 Slice#3 Row#1 Col#9  PD_05_press_2_raw_act
 36 lines in following concentration table = NCONC+1
    Conc.  %SD /Cr+PCr  Metabolite                                         
  173.768 128%   0.400 Ala                                                 
   56.950  28%   0.131 Asp                                                 
  434.838  23%   1.000 Cr                                                  
    0.000 999%   0.000 PCr                                                 
   34.119  28% 7.8E-02 GABA                                                
   34.260  28% 7.9E-02 Glc                                                 
  554.074  81%   1.274 Gln                                                 
  437.792 113%   1.007 Glu                                                 
   71.411  54%   0.164 GPC                                                 
    0.000 999%   0.000 PCh                                                 
  326.119  47%   0.750 GSH                                                 
 2.39E+03  19%   5.487 Ins                                                 
    0.000 999%   0.000 Lac                                                 
  105.164 144%   0.242 NAA                                                 
  386.403  38%   0.889 NAAG                                                
   11.473  28% 2.6E-02 Scyllo                                              
   57.321  28%   0.132 Tau                                                 
   21.851 201% 5.0E-02 -CrCH2                                              
   71.411  54%   0.164 GPC+PCh                                             
  491.566  27%   1.130 NAA+NAAG                                            
  434.838  23%   1.000 Cr+PCr                                              
  991.866  67%   2.281 Glu+Gln                                             
 1.59E+03  52%   3.651 Lip13a                                              
    0.000 999%   0.000 Lip13b                                              
    0.000 999%   0.000 Lip09                                               
   64.285 277%   0.148 MM09                                                
  114.016 247%   0.262 Lip20                                               
  119.909 247%   0.276 MM20                                                
   24.202 278% 5.6E-02 MM12                                                
    0.000 999%   0.000 MM14                                                
  130.753 102%   0.301 MM17                                                
 1.59E+03  32%   3.651 Lip13a+Lip13b                                       
 1.61E+03  31%   3.706 MM14+Lip13a+Lip13b+MM12                             
   64.285 277%   0.148 MM09+Lip09                                          
  233.925 162%   0.538 MM20+Lip20                                          
   6 lines in following misc. output table
  FWHM = 0.061 ppm    S/N =   1                                            
  Data shift = 0.023 ppm                                                   
  Ph: 118 deg      48.5 deg/ppm                                            
  alphaB,S = 8.5E+01,   5.1E+01                                            
   14 spline knots.   Ns = 5(1)                                            
   2 inflections.     1 extrema                                            
  498 points on ppm-axis = NY
      4.000000     3.992357     3.984714     3.977070     3.969427     3.961784     3.954141     3.946497     3.938854     3.931211
      3.923568     3.915925     3.908281     3.900638     3.892995     3.885352     3.877708     3.870065     3.862422     3.854779
      3.847136     3.839492     3.831849     3.824206     3.816563     3.808919     3.801276     3.793633     3.785990     3.778347
      3.770703     3.763060     3.755417     3.747774     3.740130     3.732487     3.724844     3.717201     3.709558     3.701914
      3.694271     3.686628     3.678985     3.671341     3.663698     3.656055     3.648412     3.640769     3.633125     3.625482
      3.617839     3.610196     3.602552     3.594909     3.587266     3.579623     3.571980     3.564336     3.556693     3.549050
      3.541407     3.533763     3.526120     3.518477     3.510834     3.503191     3.495547     3.487904     3.480261     3.472618
      3.464974     3.457331     3.449688     3.442045     3.434402     3.426758     3.419115     3.411472     3.403829     3.396185
      3.388542     3.380899     3.373256     3.365613     3.357969     3.350326     3.342683     3.335040     3.327396     3.319753
      3.312110     3.304467     3.296824     3.289180     3.281537     3.273894     3.266251     3.258607     3.250964     3.243321
      3.235678     3.228034     3.220391     3.212748     3.205105     3.197462     3.189818     3.182175     3.174532     3.166889
      3.159245     3.151602     3.143959     3.136316     3.128673     3.121029     3.113386     3.105743     3.098100     3.090456
      3.082813     3.075170     3.067527     3.059884     3.052240     3.044597     3.036954     3.029311     3.021667     3.014024
      3.006381     2.998738     2.991095     2.983451     2.975808     2.968165     2.960522     2.952878     2.945235     2.937592
      2.929949     2.922306     2.914662     2.907019     2.899376     2.891733     2.884089     2.876446     2.868803     2.861160
      2.853517     2.845873     2.838230     2.830587     2.822944     2.815300     2.807657     2.800014     2.792371     2.784728
      2.777084     2.769441     2.761798     2.754155     2.746511     2.738868     2.731225     2.723582     2.715939     2.708295
      2.700652     2.693009     2.685366     2.677722     2.670079     2.662436     2.654793     2.647150     2.639506     2.631863
      2.624220     2.616577     2.608933     2.601290     2.593647     2.586004     2.578361     2.570717     2.563074     2.555431
      2.547788     2.540144     2.532501     2.524858     2.517215     2.509572     2.501928     2.494285     2.486642     2.478999
      2.471355     2.463712     2.456069     2.448426     2.440783     2.433139     2.425496     2.417853     2.410210     2.402566
      2.394923     2.387280     2.379637     2.371994     2.364350     2.356707     2.349064     2.341421     2.333777     2.326134
      2.318491     2.310848     2.303205     2.295561     2.287918     2.280275     2.272632     2.264988     2.257345     2.249702
      2.242059     2.234416     2.226772     2.219129     2.211486     2.203843     2.196199     2.188556     2.180913     2.173270
      2.165627     2.157983     2.150340     2.142697     2.135054     2.127410     2.119767     2.112124     2.104481     2.096838
      2.089194     2.081551     2.073908     2.066265     2.058621     2.050978     2.043335     2.035692     2.028049     2.020405
      2.012762     2.005119     1.997476     1.989833     1.982190     1.974546     1.966903     1.959260     1.951617     1.943974
      1.936331     1.928688     1.921045     1.913402     1.905759     1.898115     1.890472     1.882829     1.875186     1.867543
      1.859900     1.852257     1.844614     1.836971     1.829327     1.821684     1.814041     1.806398     1.798755     1.791112
      1.783469     1.775826     1.768183     1.760540     1.752896     1.745253     1.737610     1.729967     1.722324     1.714681
      1.707038     1.699395     1.691752     1.684108     1.676465     1.668822     1.661179     1.653536     1.645893     1.638250
      1.630607     1.622964     1.615321     1.607677     1.600034     1.592391     1.584748     1.577105     1.569462     1.561819
      1.554176     1.546533     1.538890     1.531246     1.523603     1.515960     1.508317     1.500674     1.493031     1.485388
      1.477745     1.470102     1.462458     1.454815     1.447172     1.439529     1.431886     1.424243     1.416600     1.408957
      1.401314     1.393671     1.386027     1.378384     1.370741     1.363098     1.355455     1.347812     1.340169     1.332526
      1.324883     1.317240     1.309596     1.301953     1.294310     1.286667     1.279024     1.271381     1.263738     1.256095
      1.248452     1.240808     1.233165     1.225522     1.217879     1.210236     1.202593     1.194950     1.187307     1.179664
      1.172021     1.164377     1.156734     1.149091     1.141448     1.133805     1.126162     1.118519     1.110876     1.103233
      1.095590     1.087946     1.080303     1.072660     1.065017     1.057374     1.049731     1.042088     1.034445     1.026802
      1.019158     1.011515     1.003872     0.996229     0.988586     0.980943     0.973300     0.965657     0.958014     0.950371
      0.942727     0.935084     0.927441     0.919798     0.912155     0.904512     0.896869     0.889226     0.881583     0.873940
      0.866296     0.858653     0.851010     0.843367     0.835724     0.828081     0.820438     0.812795     0.805152     0.797508
      0.789865     0.782222     0.774579     0.766936     0.759293     0.751650     0.744007     0.736364     0.728721     0.721077
      0.713434     0.705791     0.698148     0.690505     0.682862     0.675219     0.667576     0.659933     0.652290     0.644646
      0.637003     0.629360     0.621717     0.614074     0.606431     0.598788     0.591145     0.583502     0.575858     0.568215
      0.560572     0.552929     0.545286     0.537643     0.530000     0.522357     0.514714     0.507071     0.499427     0.491784
      0.484141     0.476498     0.468855     0.461212     0.453569     0.445925     0.438282     0.430639     0.422996     0.415353
      0.407710     0.400067     0.392424     0.384780     0.377137     0.369494     0.361851     0.354208     0.346565     0.338922
      0.331278     0.323635     0.315992     0.308349     0.300706     0.293063     0.285420     0.277777     0.270133     0.262490
      0.254847     0.247204     0.239561     0.231918     0.224275     0.216631     0.208988     0.201345
 NY phased data points follow
   3.54850E+01  2.28061E+01  3.42615E+00 -9.30588E+00  2.38425E+01  2.81219E+01  2.44788E+01  2.15098E+01  1.81823E+01  4.45699E+00
   2.22249E+01  3.10663E+01  4.63847E+01  3.75053E+01  1.66073E+01  1.39803E+01  1.83500E+01  1.85595E+01  3.29586E+01  2.01246E+01
   2.50806E+01  2.14655E+01  1.58673E+01  2.29238E+01  1.65521E+01  7.89257E+00  2.92480E+01  3.01044E+01  1.92981E+01  1.22194E+01
   2.22539E+01  3.15357E+01  8.34546E+00  1.46221E+01  1.43770E+00  1.93440E+01  2.25741E+01  2.33092E+01  1.08397E+01  1.65474E+01
   1.85152E+00  2.89677E+01  1.12316E+01  1.47190E+01  1.77167E+01  2.87480E+01  2.09746E+01  2.48039E+01  2.27832E+01  3.40751E+01
   1.49257E+01  3.05214E+00  8.23904E+00  1.19303E+01  2.74398E+01  1.39342E+01  1.39216E+01  1.64951E+01  1.36850E+01  1.10463E+01
   2.20295E+01  2.10013E+01  1.89444E+01  1.07153E+01  1.08558E+01  2.06637E+01  1.44522E+01  1.79730E+00  3.88983E+00  6.64702E+00
   6.11119E+00  1.47392E+01  1.66756E+01  1.86125E+01  1.94389E+01  1.15935E+01  1.71717E+01  5.60030E+00  9.23195E+00  1.58602E+01
   1.82148E+01  8.63508E+00  1.67225E+00  6.87852E+00  2.21973E+00  2.06931E+01 -1.63552E+00 -8.03182E+00  2.27879E+01  4.71088E+00
   8.11242E+00  2.08659E+01  2.36556E+01  1.70484E+01  3.92140E+00  1.16047E+01  1.31472E+01  7.47587E+00  4.59741E+00  1.05123E+01
   1.98306E+01  1.84234E+00  8.15102E+00 -2.99764E-01  1.29539E+01  4.12548E+00  1.91714E+01  3.62276E+00  7.27485E+00  1.49994E+01
   1.21510E+01  1.22489E+01  1.19979E+01  1.21736E+01  1.18715E+01  6.40591E+00  1.58562E+01 -6.24644E+00  1.30358E+01  4.66123E+00
   2.64680E+00 -2.44061E+00  1.96458E-01  9.71116E+00  2.53650E+01  1.05417E+01  2.46454E+01  1.85718E+01  1.22231E+01  1.87211E+01
  -1.85850E+00  6.63880E+00  4.34897E+00  8.85038E+00 -9.55941E+00  1.78407E+01  1.72781E-01  1.12218E+01  4.41948E+00  1.00696E+01
   2.21602E+00  4.48716E+00  7.38499E+00  1.28459E+01  1.22910E+01  3.76403E-01  1.54947E+01 -7.47700E+00 -1.18400E+00 -2.58332E+00
   1.27540E+01  1.40010E+00 -1.33811E+00 -8.37123E+00 -5.16900E-01 -1.10663E+01 -1.19125E+00  8.95628E+00  5.56574E+00  1.06377E+01
  -8.94315E+00  8.72733E+00 -2.94829E+00  7.16491E+00  3.26231E-01 -2.35304E+00  1.13992E+00  9.65215E+00 -3.07973E+00 -1.91532E+01
  -3.17957E+00 -3.95839E+00  4.00616E+00 -1.31641E+01  1.90162E+00  3.18191E+00  2.63849E+00 -1.24680E+00 -8.82695E+00  1.58319E+01
  -8.70224E+00  1.58179E+00 -1.30620E+01 -5.56938E+00 -5.84071E+00 -6.33684E+00  3.95059E+00 -3.65229E+00  4.33561E+00  1.59381E+00
   4.81015E+00  7.10331E+00 -1.61049E+00 -3.34072E-01  8.42067E+00  2.17061E+00 -3.39553E+00  1.39564E+01 -1.10430E+01  9.04983E+00
  -1.25503E+00 -3.92319E+00  9.06332E+00  1.07828E+01  9.06098E+00  1.34905E+01 -1.70870E+01  1.45382E+00 -8.42932E+00  1.05789E+01
   8.48046E-01 -6.24336E+00 -5.90583E+00  5.26746E+00  1.58141E+01 -1.52959E+01  3.06412E+00  1.39992E+01  8.69994E+00  4.22044E+00
  -1.02624E+01  3.60791E+00  1.03477E+01  9.87344E+00 -4.12781E+00 -1.05775E+00  8.19017E+00  9.95122E+00  1.31313E+01  3.50311E+00
   1.35582E+00  1.24521E+01  2.75958E+01 -1.65845E-01 -1.12408E-02  1.80586E-01 -3.47171E+00  1.16781E+01  8.04120E-01  8.03342E+00
   1.20304E+01  2.06969E+00 -2.45256E+00  7.20763E+00  1.24032E+00  4.03650E+00  5.73288E+00  1.34695E+01  1.92540E+01  3.24111E+00
   4.26110E-01  1.76760E+01  1.05156E+01  2.04082E+00  2.13510E+01  1.40258E+01  8.31475E+00  2.12063E+01  1.22956E+01  1.55205E+01
   1.51387E+01  4.89338E+00  6.61594E+00  6.57908E+00 -2.68071E+00  5.72955E+00  2.93797E+00  7.92869E+00 -5.28177E+00  6.47759E+00
   7.74205E+00 -1.30532E+01  8.32626E+00  4.85904E+00  3.57277E+00  8.74839E+00 -5.51638E+00 -3.43149E+00 -1.63798E+01 -1.51775E-01
  -1.94956E+00 -3.53552E+00  7.44769E+00 -5.11167E+00 -8.66278E+00 -3.41280E+00 -8.38793E+00  2.45715E+00  7.07095E+00 -4.08074E+00
   1.46595E+00  6.36839E+00  1.15390E+01 -8.90742E-02  1.10512E+01  8.34237E+00  1.21222E-01 -7.57635E+00  1.66969E+01  3.33889E+00
   2.38654E+00 -1.83938E+00  4.24248E-01 -1.69779E+00  5.00875E+00  8.25165E+00  1.10794E+00  8.90591E+00  1.45894E+01  1.66994E+01
   9.10182E+00  1.00899E+01  5.77848E+00  9.51340E+00  3.56916E+00  7.48573E-01  1.10646E+01  3.81386E+00  1.26502E+01  1.15215E+01
   5.88094E+00  5.44134E+00 -1.61707E+00  7.18358E+00  5.66859E+00 -3.63976E+00  3.76101E+00 -5.13252E+00  5.10135E-01  9.91934E+00
  -8.27122E+00 -1.39637E+01 -4.25140E+00  9.33834E-01 -2.07089E+01  1.10375E+00 -4.78387E+00 -7.36606E+00 -1.79117E+00 -2.60986E+00
  -1.48203E+01 -4.87335E+00 -6.34871E+00  5.17344E+00 -1.15102E+01 -5.36183E+00  9.20566E+00 -2.66967E+00 -6.79655E-01  4.40843E-01
   8.91467E+00  6.01601E+00 -2.77605E+00  1.39493E+01  3.80795E+00  4.96717E+00  9.76687E+00  7.17208E+00  3.37591E+00  1.64223E+01
   2.14188E+00  6.42410E+00  7.36094E+00  1.60441E+01  9.80731E+00  1.59325E+01 -4.62120E+00  9.26803E+00  1.13639E+01  1.57782E+01
   1.15274E+01  1.36744E+01  1.34127E+01  6.01792E-01 -3.21644E-01  1.98008E+00 -5.53870E-01  1.71890E+01  3.17999E+00  7.41822E-01
   7.47388E+00  7.06373E+00 -2.04207E+00 -1.04044E+01 -8.31945E+00 -3.57481E+00 -3.74225E+00 -3.01425E+00 -4.23873E+00 -1.40364E+01
   1.31153E+00 -2.17828E+00 -6.82200E+00  5.25373E+00 -1.64042E+00 -1.18953E+01 -5.16655E+00 -2.61482E+00 -1.41090E+01 -3.37158E+00
   2.04189E+00 -1.18605E+01  2.93902E-01  9.24337E+00  6.08442E+00 -1.60416E+01 -6.86794E+00 -3.43328E+00 -7.49397E+00  6.23698E+00
  -1.21810E+01 -1.00277E+01 -6.30802E+00 -5.88505E+00  1.80358E+00 -2.51798E+00 -3.88426E+00 -4.27288E+00 -8.16916E-01  1.96845E+00
  -6.31963E+00  2.21901E+00 -5.19170E+00 -6.65528E+00 -1.87014E+01 -1.47520E+00 -3.26431E+00 -1.43391E+01 -1.57929E+01 -8.25122E-01
  -2.39507E+00 -5.89846E+00 -4.04780E+00 -4.23009E+00 -4.28122E+00 -6.17420E-02 -5.24694E-01 -1.21163E+01 -9.06400E+00  8.10098E+00
   4.23705E+00 -1.25734E+01 -1.40379E+01  1.88360E-01 -5.87557E+00  7.13319E+00 -1.05599E+01  8.79662E+00 -1.39735E+00  5.00627E+00
   7.56741E+00 -7.38845E+00 -1.19933E+01 -1.17099E+01 -7.73996E+00 -5.49312E+00 -1.39755E+01 -1.95277E+01 -5.56200E+00 -1.90956E+01
   9.15314E+00 -3.99919E+00 -3.24575E+00  6.76112E+00 -7.09520E+00  1.37506E+00 -1.07976E+00 -5.89273E+00 -1.22736E+01  1.56323E+01
   1.78828E+00 -1.04452E+01 -1.48289E-01  8.95364E+00 -3.83526E+00 -2.09924E+00  4.45181E+00 -1.11222E+01 -1.23461E+00 -4.13037E+00
  -6.03615E+00 -8.88643E+00 -1.36408E+00  3.34494E-01 -2.77956E+00  9.16606E-03 -2.46421E+00 -2.37640E+00  4.41360E+00 -4.12411E+00
   7.38694E+00 -3.15044E+00 -8.11690E+00 -7.21479E+00  4.14609E+00  3.78457E+00 -1.31225E+01 -4.03291E-01
 NY points of the fit to the data follow
   1.47284E+01  1.35442E+01  1.27253E+01  1.23171E+01  1.21396E+01  1.22896E+01  1.34569E+01  1.55680E+01  1.77890E+01  1.95465E+01
   2.06467E+01  2.10678E+01  2.07375E+01  1.95583E+01  1.77166E+01  1.56815E+01  1.38802E+01  1.26142E+01  1.21218E+01  1.21040E+01
   1.22461E+01  1.23829E+01  1.23387E+01  1.20870E+01  1.20690E+01  1.29709E+01  1.44728E+01  1.61976E+01  1.79547E+01  1.95592E+01
   2.07136E+01  2.10829E+01  2.06746E+01  1.96924E+01  1.82171E+01  1.63531E+01  1.44687E+01  1.29754E+01  1.17713E+01  1.08511E+01
   1.02649E+01  1.03660E+01  1.20935E+01  1.58501E+01  2.05733E+01  2.46304E+01  2.70391E+01  2.76182E+01  2.64362E+01  2.35911E+01
   1.94953E+01  1.50653E+01  1.12496E+01  8.69428E+00  8.04556E+00  9.30536E+00  1.15988E+01  1.40256E+01  1.59357E+01  1.70246E+01
   1.71991E+01  1.64975E+01  1.51868E+01  1.36414E+01  1.22417E+01  1.12325E+01  1.09143E+01  1.14898E+01  1.26511E+01  1.39282E+01
   1.49150E+01  1.54815E+01  1.56203E+01  1.53634E+01  1.48111E+01  1.40776E+01  1.33245E+01  1.26360E+01  1.20731E+01  1.17057E+01
   1.14478E+01  1.11616E+01  1.05518E+01  9.43762E+00  7.88001E+00  6.18869E+00  4.68171E+00  3.57796E+00  3.04411E+00  3.22647E+00
   4.08536E+00  5.48855E+00  7.08058E+00  8.36751E+00  8.99881E+00  8.92910E+00  8.34587E+00  7.68745E+00  7.64519E+00  8.18967E+00
   8.96171E+00  9.76925E+00  1.04508E+01  1.09182E+01  1.09685E+01  1.04459E+01  9.49162E+00  8.41278E+00  7.44961E+00  6.77428E+00
   6.54126E+00  6.51773E+00  6.52307E+00  6.53034E+00  6.49951E+00  6.41390E+00  6.28746E+00  6.15695E+00  6.05481E+00  6.03045E+00
   6.17859E+00  6.89045E+00  9.20841E+00  1.27586E+01  1.62911E+01  1.90312E+01  2.07267E+01  2.13483E+01  2.08812E+01  1.92459E+01
   1.65795E+01  1.34506E+01  1.04124E+01  7.87889E+00  6.35063E+00  5.49969E+00  5.01743E+00  4.92053E+00  5.14819E+00  5.59934E+00
   6.17276E+00  6.70592E+00  7.01256E+00  7.05009E+00  6.86967E+00  6.55034E+00  6.20950E+00  5.90172E+00  5.65551E+00  5.43123E+00
   5.17478E+00  4.92874E+00  4.73850E+00  4.63211E+00  4.61433E+00  4.63559E+00  4.65720E+00  4.66090E+00  4.63597E+00  4.57085E+00
   4.46356E+00  4.30960E+00  4.14037E+00  4.00355E+00  3.89590E+00  3.78698E+00  3.69805E+00  3.66055E+00  3.68110E+00  3.73951E+00
   3.77915E+00  3.75735E+00  3.69821E+00  3.62480E+00  3.53615E+00  3.42258E+00  3.27779E+00  3.10238E+00  2.93313E+00  2.84429E+00
   2.81446E+00  2.81271E+00  2.81965E+00  2.85413E+00  2.99178E+00  3.30106E+00  3.79256E+00  4.41900E+00  5.01668E+00  5.38251E+00
   5.43479E+00  5.12841E+00  4.37452E+00  3.27119E+00  2.16308E+00  1.36734E+00  1.08973E+00  1.42190E+00  2.29588E+00  3.51150E+00
   4.84507E+00  6.02273E+00  6.77476E+00  6.91157E+00  6.29798E+00  4.85456E+00  3.00661E+00  1.34925E+00  1.93129E-01 -3.25876E-01
  -1.44970E-01  8.27660E-01  2.41143E+00  4.14104E+00  5.55686E+00  6.40962E+00  6.57103E+00  5.91335E+00  4.67012E+00  3.34908E+00
   2.33249E+00  1.76707E+00  1.69473E+00  2.09872E+00  2.81653E+00  3.62155E+00  4.20023E+00  4.37960E+00  4.24437E+00  3.93433E+00
   3.58284E+00  3.24754E+00  3.11993E+00  3.31003E+00  3.69484E+00  4.08974E+00  4.41750E+00  4.56080E+00  4.25045E+00  3.55986E+00
   2.77443E+00  2.09841E+00  1.58814E+00  1.24198E+00  1.13617E+00  1.28941E+00  1.61273E+00  2.02403E+00  2.51100E+00  3.06887E+00
   3.97021E+00  6.18357E+00  9.38358E+00  1.24605E+01  1.47450E+01  1.62819E+01  1.71985E+01  1.71689E+01  1.59614E+01  1.38492E+01
   1.14233E+01  9.10419E+00  7.15309E+00  5.83970E+00  4.84724E+00  3.92605E+00  3.11725E+00  2.55790E+00  2.27283E+00  2.12778E+00
   2.07616E+00  2.09171E+00  2.11826E+00  2.11981E+00  2.09423E+00  2.03130E+00  1.92187E+00  1.77551E+00  1.62887E+00  1.51639E+00
   1.44582E+00  1.41786E+00  1.42111E+00  1.43522E+00  1.43880E+00  1.42087E+00  1.38027E+00  1.33579E+00  1.30171E+00  1.28413E+00
   1.28655E+00  1.30725E+00  1.33848E+00  1.37312E+00  1.39335E+00  1.39223E+00  1.37596E+00  1.35133E+00  1.32487E+00  1.30696E+00
   1.30051E+00  1.30393E+00  1.31351E+00  1.32368E+00  1.32955E+00  1.32706E+00  1.31236E+00  1.28805E+00  1.25740E+00  1.22179E+00
   1.18284E+00  1.14187E+00  1.10031E+00  1.05992E+00  1.02280E+00  9.91436E-01  9.68987E-01  9.59553E-01  9.69077E-01  1.00732E+00
   1.09322E+00  1.27323E+00  1.63412E+00  2.02681E+00  2.16252E+00  1.97032E+00  1.50582E+00  8.39231E-01  4.62803E-03 -9.62015E-01
  -1.78565E+00 -2.06632E+00 -1.77008E+00 -1.05472E+00 -7.77309E-02  9.54757E-01  1.86372E+00  2.56663E+00  2.99620E+00  3.17141E+00
   3.17952E+00  3.10738E+00  3.08756E+00  3.22022E+00  3.44913E+00  3.73368E+00  4.05439E+00  4.39822E+00  4.75423E+00  5.11211E+00
   5.46172E+00  5.79293E+00  6.09590E+00  6.36126E+00  6.58040E+00  6.74578E+00  6.85127E+00  6.89246E+00  6.86684E+00  6.77390E+00
   6.61516E+00  6.39400E+00  6.11558E+00  5.78651E+00  5.41458E+00  5.00831E+00  4.57662E+00  4.12840E+00  3.67221E+00  3.21601E+00
   2.76691E+00  2.33095E+00  1.91308E+00  1.51710E+00  1.14570E+00  8.00572E-01  4.82517E-01  1.91518E-01 -7.30502E-02 -3.12308E-01
  -5.27675E-01 -7.20798E-01 -8.93418E-01 -1.04734E+00 -1.18431E+00 -1.30600E+00 -1.41395E+00 -1.50959E+00 -1.59422E+00 -1.66909E+00
  -1.73532E+00 -1.79397E+00 -1.84602E+00 -1.89247E+00 -1.93427E+00 -1.97240E+00 -2.00782E+00 -2.04148E+00 -2.07429E+00 -2.10716E+00
  -2.14093E+00 -2.17640E+00 -2.21419E+00 -2.25485E+00 -2.29875E+00 -2.34614E+00 -2.39710E+00 -2.45157E+00 -2.50929E+00 -2.56993E+00
  -2.63301E+00 -2.69802E+00 -2.76440E+00 -2.83158E+00 -2.89895E+00 -2.96600E+00 -3.03225E+00 -3.09732E+00 -3.16089E+00 -3.22271E+00
  -3.28262E+00 -3.34054E+00 -3.39643E+00 -3.45036E+00 -3.50239E+00 -3.55261E+00 -3.60115E+00 -3.64816E+00 -3.69378E+00 -3.73815E+00
  -3.78141E+00 -3.82367E+00 -3.86505E+00 -3.90566E+00 -3.94560E+00 -3.98495E+00 -4.02376E+00 -4.06211E+00 -4.10004E+00 -4.13762E+00
  -4.17487E+00 -4.21184E+00 -4.24854E+00 -4.28500E+00 -4.32125E+00 -4.35731E+00 -4.39319E+00 -4.42892E+00 -4.46449E+00 -4.49992E+00
  -4.53523E+00 -4.57044E+00 -4.60553E+00 -4.64051E+00 -4.67539E+00 -4.71018E+00 -4.74488E+00 -4.77952E+00 -4.81407E+00 -4.84856E+00
  -4.88297E+00 -4.91732E+00 -4.95161E+00 -4.98585E+00 -5.02003E+00 -5.05415E+00 -5.08821E+00 -5.12225E+00 -5.15623E+00 -5.19018E+00
  -5.22407E+00 -5.25793E+00 -5.29174E+00 -5.32553E+00 -5.35927E+00 -5.39298E+00 -5.42665E+00 -5.46029E+00 -5.49389E+00 -5.52748E+00
  -5.56102E+00 -5.59453E+00 -5.62801E+00 -5.66147E+00 -5.69490E+00 -5.72830E+00 -5.76166E+00 -5.79499E+00 -5.82829E+00 -5.86157E+00
  -5.89481E+00 -5.92802E+00 -5.96118E+00 -5.99431E+00 -6.02741E+00 -6.06047E+00 -6.09348E+00 -6.12642E+00
 NY background values follow
     9.902E+00    9.870E+00    9.837E+00    9.805E+00    9.773E+00    9.740E+00    9.708E+00    9.675E+00    9.643E+00    9.611E+00
     9.578E+00    9.546E+00    9.513E+00    9.481E+00    9.449E+00    9.416E+00    9.384E+00    9.351E+00    9.319E+00    9.286E+00
     9.254E+00    9.222E+00    9.189E+00    9.157E+00    9.124E+00    9.092E+00    9.060E+00    9.027E+00    8.995E+00    8.962E+00
     8.930E+00    8.898E+00    8.865E+00    8.833E+00    8.800E+00    8.768E+00    8.736E+00    8.703E+00    8.671E+00    8.638E+00
     8.606E+00    8.573E+00    8.541E+00    8.509E+00    8.476E+00    8.444E+00    8.411E+00    8.379E+00    8.347E+00    8.314E+00
     8.282E+00    8.249E+00    8.217E+00    8.185E+00    8.152E+00    8.120E+00    8.087E+00    8.055E+00    8.023E+00    7.990E+00
     7.958E+00    7.925E+00    7.893E+00    7.860E+00    7.828E+00    7.796E+00    7.763E+00    7.731E+00    7.698E+00    7.666E+00
     7.634E+00    7.601E+00    7.569E+00    7.536E+00    7.504E+00    7.472E+00    7.439E+00    7.407E+00    7.374E+00    7.342E+00
     7.310E+00    7.277E+00    7.245E+00    7.212E+00    7.180E+00    7.147E+00    7.115E+00    7.083E+00    7.050E+00    7.018E+00
     6.985E+00    6.953E+00    6.921E+00    6.888E+00    6.856E+00    6.823E+00    6.791E+00    6.759E+00    6.726E+00    6.694E+00
     6.661E+00    6.629E+00    6.597E+00    6.564E+00    6.532E+00    6.499E+00    6.467E+00    6.435E+00    6.402E+00    6.370E+00
     6.337E+00    6.305E+00    6.272E+00    6.240E+00    6.208E+00    6.175E+00    6.143E+00    6.110E+00    6.078E+00    6.046E+00
     6.013E+00    5.981E+00    5.948E+00    5.916E+00    5.884E+00    5.851E+00    5.819E+00    5.786E+00    5.754E+00    5.722E+00
     5.689E+00    5.657E+00    5.624E+00    5.592E+00    5.559E+00    5.527E+00    5.495E+00    5.462E+00    5.430E+00    5.397E+00
     5.365E+00    5.333E+00    5.300E+00    5.268E+00    5.235E+00    5.203E+00    5.171E+00    5.138E+00    5.106E+00    5.073E+00
     5.041E+00    5.009E+00    4.976E+00    4.944E+00    4.911E+00    4.879E+00    4.847E+00    4.814E+00    4.782E+00    4.749E+00
     4.717E+00    4.684E+00    4.652E+00    4.620E+00    4.587E+00    4.555E+00    4.522E+00    4.490E+00    4.458E+00    4.425E+00
     4.393E+00    4.360E+00    4.328E+00    4.296E+00    4.263E+00    4.231E+00    4.198E+00    4.166E+00    4.134E+00    4.101E+00
     4.069E+00    4.036E+00    4.004E+00    3.972E+00    3.939E+00    3.907E+00    3.874E+00    3.842E+00    3.810E+00    3.777E+00
     3.745E+00    3.712E+00    3.680E+00    3.647E+00    3.615E+00    3.583E+00    3.550E+00    3.518E+00    3.485E+00    3.453E+00
     3.421E+00    3.388E+00    3.356E+00    3.323E+00    3.291E+00    3.259E+00    3.226E+00    3.194E+00    3.161E+00    3.129E+00
     3.097E+00    3.064E+00    3.032E+00    2.999E+00    2.967E+00    2.935E+00    2.902E+00    2.870E+00    2.837E+00    2.805E+00
     2.773E+00    2.740E+00    2.708E+00    2.675E+00    2.643E+00    2.611E+00    2.578E+00    2.546E+00    2.513E+00    2.481E+00
     2.448E+00    2.416E+00    2.384E+00    2.351E+00    2.319E+00    2.286E+00    2.254E+00    2.222E+00    2.189E+00    2.157E+00
     2.124E+00    2.092E+00    2.060E+00    2.027E+00    1.995E+00    1.962E+00    1.930E+00    1.898E+00    1.865E+00    1.833E+00
     1.800E+00    1.768E+00    1.736E+00    1.703E+00    1.671E+00    1.638E+00    1.606E+00    1.574E+00    1.541E+00    1.509E+00
     1.476E+00    1.444E+00    1.412E+00    1.379E+00    1.347E+00    1.314E+00    1.282E+00    1.250E+00    1.217E+00    1.185E+00
     1.152E+00    1.120E+00    1.088E+00    1.055E+00    1.023E+00    9.903E-01    9.579E-01    9.255E-01    8.931E-01    8.607E-01
     8.283E-01    7.959E-01    7.635E-01    7.311E-01    6.987E-01    6.663E-01    6.339E-01    6.015E-01    5.690E-01    5.366E-01
     5.042E-01    4.718E-01    4.394E-01    4.070E-01    3.746E-01    3.422E-01    3.098E-01    2.774E-01    2.450E-01    2.126E-01
     1.802E-01    1.478E-01    1.154E-01    8.300E-02    5.060E-02    1.819E-02   -1.421E-02   -4.661E-02   -7.902E-02   -1.114E-01
    -1.438E-01   -1.762E-01   -2.086E-01   -2.410E-01   -2.734E-01   -3.058E-01   -3.382E-01   -3.706E-01   -4.030E-01   -4.354E-01
    -4.679E-01   -5.003E-01   -5.327E-01   -5.651E-01   -5.975E-01   -6.299E-01   -6.623E-01   -6.947E-01   -7.271E-01   -7.595E-01
    -7.919E-01   -8.243E-01   -8.567E-01   -8.891E-01   -9.215E-01   -9.539E-01   -9.863E-01   -1.019E+00   -1.051E+00   -1.083E+00
    -1.116E+00   -1.148E+00   -1.181E+00   -1.213E+00   -1.246E+00   -1.278E+00   -1.310E+00   -1.343E+00   -1.375E+00   -1.408E+00
    -1.440E+00   -1.472E+00   -1.505E+00   -1.537E+00   -1.570E+00   -1.602E+00   -1.634E+00   -1.667E+00   -1.699E+00   -1.732E+00
    -1.764E+00   -1.796E+00   -1.829E+00   -1.861E+00   -1.894E+00   -1.926E+00   -1.958E+00   -1.991E+00   -2.023E+00   -2.056E+00
    -2.088E+00   -2.120E+00   -2.153E+00   -2.185E+00   -2.218E+00   -2.250E+00   -2.282E+00   -2.315E+00   -2.347E+00   -2.380E+00
    -2.412E+00   -2.444E+00   -2.477E+00   -2.509E+00   -2.542E+00   -2.574E+00   -2.606E+00   -2.639E+00   -2.671E+00   -2.704E+00
    -2.736E+00   -2.768E+00   -2.801E+00   -2.833E+00   -2.866E+00   -2.898E+00   -2.930E+00   -2.963E+00   -2.995E+00   -3.028E+00
    -3.060E+00   -3.092E+00   -3.125E+00   -3.157E+00   -3.190E+00   -3.222E+00   -3.254E+00   -3.287E+00   -3.319E+00   -3.352E+00
    -3.384E+00   -3.416E+00   -3.449E+00   -3.481E+00   -3.514E+00   -3.546E+00   -3.578E+00   -3.611E+00   -3.643E+00   -3.676E+00
    -3.708E+00   -3.740E+00   -3.773E+00   -3.805E+00   -3.838E+00   -3.870E+00   -3.902E+00   -3.935E+00   -3.967E+00   -4.000E+00
    -4.032E+00   -4.064E+00   -4.097E+00   -4.129E+00   -4.162E+00   -4.194E+00   -4.226E+00   -4.259E+00   -4.291E+00   -4.324E+00
    -4.356E+00   -4.388E+00   -4.421E+00   -4.453E+00   -4.486E+00   -4.518E+00   -4.550E+00   -4.583E+00   -4.615E+00   -4.648E+00
    -4.680E+00   -4.712E+00   -4.745E+00   -4.777E+00   -4.810E+00   -4.842E+00   -4.874E+00   -4.907E+00   -4.939E+00   -4.972E+00
    -5.004E+00   -5.036E+00   -5.069E+00   -5.101E+00   -5.134E+00   -5.166E+00   -5.198E+00   -5.231E+00   -5.263E+00   -5.296E+00
    -5.328E+00   -5.360E+00   -5.393E+00   -5.425E+00   -5.458E+00   -5.490E+00   -5.522E+00   -5.555E+00   -5.587E+00   -5.620E+00
    -5.652E+00   -5.684E+00   -5.717E+00   -5.749E+00   -5.782E+00   -5.814E+00   -5.846E+00   -5.879E+00   -5.911E+00   -5.944E+00
    -5.976E+00   -6.009E+00   -6.041E+00   -6.073E+00   -6.106E+00   -6.138E+00   -6.171E+00   -6.203E+00
 Ala      Conc. = 1.74E+02
