 LCModel (Version 6.3-1L) Copyright: S.W. Provencher.          Ref.: Magn. Reson. Med. 30:672-679 (1993).                
 Slice#2 Row#10 Col#4  PD_05_press_2_raw_act
 36 lines in following concentration table = NCONC+1
    Conc.  %SD /Cr+PCr  Metabolite                                         
   61.862 274% 4.4E-02 Ala                                                 
  697.906  40%   0.494 Asp                                                 
  582.014  57%   0.412 Cr                                                  
  829.474  42%   0.588 PCr                                                 
   29.737 619% 2.1E-02 GABA                                                
    0.000 999%   0.000 Glc                                                 
  673.046  52%   0.477 Gln                                                 
 1.92E+03  22%   1.357 Glu                                                 
  467.981   7%   0.332 GPC                                                 
    0.000 999%   0.000 PCh                                                 
  941.456  13%   0.667 GSH                                                 
 2.72E+03  17%   1.926 Ins                                                 
    0.000 999%   0.000 Lac                                                 
 2.76E+03   4%   1.959 NAA                                                 
    0.000 999%   0.000 NAAG                                                
  150.770  27%   0.107 Scyllo                                              
    0.000 999%   0.000 Tau                                                 
  487.484  36%   0.345 -CrCH2                                              
  467.981   7%   0.332 GPC+PCh                                             
 2.76E+03   4%   1.959 NAA+NAAG                                            
 1.41E+03   6%   1.000 Cr+PCr                                              
 2.59E+03  22%   1.834 Glu+Gln                                             
    0.000 999%   0.000 Lip13a                                              
  284.075  56%   0.201 Lip13b                                              
   44.699 313% 3.2E-02 Lip09                                               
 1.49E+03  20%   1.058 MM09                                                
   17.597 551% 1.2E-02 Lip20                                               
 1.40E+03  40%   0.990 MM20                                                
  487.570  45%   0.345 MM12                                                
 3.82E+03   8%   2.706 MM14                                                
 1.65E+03  23%   1.167 MM17                                                
  284.075  56%   0.201 Lip13a+Lip13b                                       
 4.59E+03   9%   3.252 MM14+Lip13a+Lip13b+MM12                             
 1.54E+03  19%   1.089 MM09+Lip09                                          
 1.42E+03  39%   1.003 MM20+Lip20                                          
   6 lines in following misc. output table
  FWHM = 0.054 ppm    S/N =   9                                            
  Data shift = 0.023 ppm                                                   
  Ph: -31 deg     -15.2 deg/ppm                                            
  alphaB,S = 8.4E-01,   5.1E+01                                            
   14 spline knots.   Ns = 7(1)                                            
  (14) 3 infls.   ( 7) 1 extrs.                                            
  498 points on ppm-axis = NY
      4.000000     3.992357     3.984714     3.977070     3.969427     3.961784     3.954141     3.946497     3.938854     3.931211
      3.923568     3.915925     3.908281     3.900638     3.892995     3.885352     3.877708     3.870065     3.862422     3.854779
      3.847136     3.839492     3.831849     3.824206     3.816563     3.808919     3.801276     3.793633     3.785990     3.778347
      3.770703     3.763060     3.755417     3.747774     3.740130     3.732487     3.724844     3.717201     3.709558     3.701914
      3.694271     3.686628     3.678985     3.671341     3.663698     3.656055     3.648412     3.640769     3.633125     3.625482
      3.617839     3.610196     3.602552     3.594909     3.587266     3.579623     3.571980     3.564336     3.556693     3.549050
      3.541407     3.533763     3.526120     3.518477     3.510834     3.503191     3.495547     3.487904     3.480261     3.472618
      3.464974     3.457331     3.449688     3.442045     3.434402     3.426758     3.419115     3.411472     3.403829     3.396185
      3.388542     3.380899     3.373256     3.365613     3.357969     3.350326     3.342683     3.335040     3.327396     3.319753
      3.312110     3.304467     3.296824     3.289180     3.281537     3.273894     3.266251     3.258607     3.250964     3.243321
      3.235678     3.228034     3.220391     3.212748     3.205105     3.197462     3.189818     3.182175     3.174532     3.166889
      3.159245     3.151602     3.143959     3.136316     3.128673     3.121029     3.113386     3.105743     3.098100     3.090456
      3.082813     3.075170     3.067527     3.059884     3.052240     3.044597     3.036954     3.029311     3.021667     3.014024
      3.006381     2.998738     2.991095     2.983451     2.975808     2.968165     2.960522     2.952878     2.945235     2.937592
      2.929949     2.922306     2.914662     2.907019     2.899376     2.891733     2.884089     2.876446     2.868803     2.861160
      2.853517     2.845873     2.838230     2.830587     2.822944     2.815300     2.807657     2.800014     2.792371     2.784728
      2.777084     2.769441     2.761798     2.754155     2.746511     2.738868     2.731225     2.723582     2.715939     2.708295
      2.700652     2.693009     2.685366     2.677722     2.670079     2.662436     2.654793     2.647150     2.639506     2.631863
      2.624220     2.616577     2.608933     2.601290     2.593647     2.586004     2.578361     2.570717     2.563074     2.555431
      2.547788     2.540144     2.532501     2.524858     2.517215     2.509572     2.501928     2.494285     2.486642     2.478999
      2.471355     2.463712     2.456069     2.448426     2.440783     2.433139     2.425496     2.417853     2.410210     2.402566
      2.394923     2.387280     2.379637     2.371994     2.364350     2.356707     2.349064     2.341421     2.333777     2.326134
      2.318491     2.310848     2.303205     2.295561     2.287918     2.280275     2.272632     2.264988     2.257345     2.249702
      2.242059     2.234416     2.226772     2.219129     2.211486     2.203843     2.196199     2.188556     2.180913     2.173270
      2.165627     2.157983     2.150340     2.142697     2.135054     2.127410     2.119767     2.112124     2.104481     2.096838
      2.089194     2.081551     2.073908     2.066265     2.058621     2.050978     2.043335     2.035692     2.028049     2.020405
      2.012762     2.005119     1.997476     1.989833     1.982190     1.974546     1.966903     1.959260     1.951617     1.943974
      1.936331     1.928688     1.921045     1.913402     1.905759     1.898115     1.890472     1.882829     1.875186     1.867543
      1.859900     1.852257     1.844614     1.836971     1.829327     1.821684     1.814041     1.806398     1.798755     1.791112
      1.783469     1.775826     1.768183     1.760540     1.752896     1.745253     1.737610     1.729967     1.722324     1.714681
      1.707038     1.699395     1.691752     1.684108     1.676465     1.668822     1.661179     1.653536     1.645893     1.638250
      1.630607     1.622964     1.615321     1.607677     1.600034     1.592391     1.584748     1.577105     1.569462     1.561819
      1.554176     1.546533     1.538890     1.531246     1.523603     1.515960     1.508317     1.500674     1.493031     1.485388
      1.477745     1.470102     1.462458     1.454815     1.447172     1.439529     1.431886     1.424243     1.416600     1.408957
      1.401314     1.393671     1.386027     1.378384     1.370741     1.363098     1.355455     1.347812     1.340169     1.332526
      1.324883     1.317240     1.309596     1.301953     1.294310     1.286667     1.279024     1.271381     1.263738     1.256095
      1.248452     1.240808     1.233165     1.225522     1.217879     1.210236     1.202593     1.194950     1.187307     1.179664
      1.172021     1.164377     1.156734     1.149091     1.141448     1.133805     1.126162     1.118519     1.110876     1.103233
      1.095590     1.087946     1.080303     1.072660     1.065017     1.057374     1.049731     1.042088     1.034445     1.026802
      1.019158     1.011515     1.003872     0.996229     0.988586     0.980943     0.973300     0.965657     0.958014     0.950371
      0.942727     0.935084     0.927441     0.919798     0.912155     0.904512     0.896869     0.889226     0.881583     0.873940
      0.866296     0.858653     0.851010     0.843367     0.835724     0.828081     0.820438     0.812795     0.805152     0.797508
      0.789865     0.782222     0.774579     0.766936     0.759293     0.751650     0.744007     0.736364     0.728721     0.721077
      0.713434     0.705791     0.698148     0.690505     0.682862     0.675219     0.667576     0.659933     0.652290     0.644646
      0.637003     0.629360     0.621717     0.614074     0.606431     0.598788     0.591145     0.583502     0.575858     0.568215
      0.560572     0.552929     0.545286     0.537643     0.530000     0.522357     0.514714     0.507071     0.499427     0.491784
      0.484141     0.476498     0.468855     0.461212     0.453569     0.445925     0.438282     0.430639     0.422996     0.415353
      0.407710     0.400067     0.392424     0.384780     0.377137     0.369494     0.361851     0.354208     0.346565     0.338922
      0.331278     0.323635     0.315992     0.308349     0.300706     0.293063     0.285420     0.277777     0.270133     0.262490
      0.254847     0.247204     0.239561     0.231918     0.224275     0.216631     0.208988     0.201345
 NY phased data points follow
  -3.12440E+02 -2.94620E+02 -3.00446E+02 -2.85304E+02 -2.82668E+02 -2.74640E+02 -2.69165E+02 -2.53225E+02 -2.49611E+02 -2.39891E+02
  -2.46580E+02 -2.36122E+02 -2.39818E+02 -2.38372E+02 -2.37616E+02 -2.37102E+02 -2.47406E+02 -2.42398E+02 -2.44540E+02 -2.41988E+02
  -2.37109E+02 -2.26284E+02 -2.27351E+02 -2.19124E+02 -2.16554E+02 -2.10634E+02 -2.15063E+02 -1.98321E+02 -1.98404E+02 -1.90295E+02
  -1.85960E+02 -1.84942E+02 -1.86809E+02 -1.82867E+02 -1.82649E+02 -1.75638E+02 -1.77907E+02 -1.75287E+02 -1.76199E+02 -1.68316E+02
  -1.66632E+02 -1.65315E+02 -1.66562E+02 -1.54095E+02 -1.57669E+02 -1.44092E+02 -1.49371E+02 -1.44742E+02 -1.49587E+02 -1.48123E+02
  -1.46974E+02 -1.49294E+02 -1.53588E+02 -1.44974E+02 -1.47019E+02 -1.38482E+02 -1.44326E+02 -1.39837E+02 -1.40445E+02 -1.35837E+02
  -1.37791E+02 -1.35561E+02 -1.37412E+02 -1.34528E+02 -1.46421E+02 -1.34217E+02 -1.30730E+02 -1.32560E+02 -1.36037E+02 -1.35793E+02
  -1.38010E+02 -1.29605E+02 -1.31563E+02 -1.24310E+02 -1.21229E+02 -1.14683E+02 -1.15699E+02 -1.21846E+02 -1.16520E+02 -1.12952E+02
  -1.17212E+02 -1.10525E+02 -1.11101E+02 -1.08375E+02 -1.02793E+02 -9.87135E+01 -9.92180E+01 -1.02489E+02 -9.72906E+01 -9.49445E+01
  -9.04368E+01 -9.47352E+01 -9.10550E+01 -9.05557E+01 -8.82571E+01 -8.60385E+01 -8.96725E+01 -8.47232E+01 -7.25626E+01 -6.07222E+01
  -5.90811E+01 -4.88675E+01 -5.05986E+01 -5.20217E+01 -5.39519E+01 -5.61300E+01 -6.22473E+01 -6.21286E+01 -6.99432E+01 -6.63194E+01
  -6.87238E+01 -7.04846E+01 -7.16679E+01 -5.97241E+01 -6.96475E+01 -6.92692E+01 -6.27335E+01 -6.39705E+01 -6.56913E+01 -6.36730E+01
  -6.58369E+01 -5.61049E+01 -4.87288E+01 -4.01137E+01 -2.84567E+01 -2.28254E+01 -1.82378E+01 -1.73776E+01 -1.53647E+01 -2.36200E+01
  -3.72788E+01 -3.69222E+01 -4.16429E+01 -4.06985E+01 -5.06209E+01 -4.89692E+01 -5.40792E+01 -5.49104E+01 -5.16932E+01 -5.27505E+01
  -4.79786E+01 -4.96990E+01 -4.62503E+01 -4.80683E+01 -4.93137E+01 -4.97407E+01 -4.50498E+01 -4.18541E+01 -5.10597E+01 -4.91229E+01
  -4.65363E+01 -3.84713E+01 -4.85972E+01 -4.97457E+01 -4.60432E+01 -4.72519E+01 -4.68606E+01 -5.21385E+01 -5.01420E+01 -4.99798E+01
  -5.08700E+01 -4.34386E+01 -4.46158E+01 -4.83178E+01 -4.12714E+01 -3.72216E+01 -4.02284E+01 -4.04488E+01 -3.42655E+01 -3.08588E+01
  -4.03562E+01 -3.83984E+01 -3.68258E+01 -3.67650E+01 -3.73871E+01 -3.64933E+01 -4.19057E+01 -3.98934E+01 -3.93598E+01 -3.88940E+01
  -3.98059E+01 -4.25382E+01 -3.67823E+01 -3.11019E+01 -3.92433E+01 -3.20224E+01 -3.17248E+01 -3.28616E+01 -2.65076E+01 -2.68642E+01
  -1.64509E+01 -2.47685E+01 -2.14228E+01 -1.90962E+01 -2.21933E+01 -1.35569E+01 -2.10458E+01 -2.32534E+01 -2.44892E+01 -2.04702E+01
  -2.42343E+01 -2.16703E+01 -2.13161E+01 -1.49379E+01 -1.88679E+01 -1.93517E+01 -1.76579E+01 -2.11559E+01 -2.45513E+01 -2.57625E+01
  -2.07402E+01 -1.65734E+01 -1.60931E+01 -1.12168E+01 -4.29178E+00  8.71744E-01 -2.10633E+00 -1.91931E+00 -7.99768E+00 -1.29698E+01
  -1.71607E+01 -1.53896E+01 -1.34535E+01 -1.23738E+01 -1.17621E+01 -9.79523E+00 -8.31505E+00 -8.30840E+00 -8.52386E+00 -7.35519E+00
  -4.99580E+00 -8.52438E+00 -8.43927E+00 -3.34545E+00 -9.61958E-01 -1.03125E+01 -6.88867E+00 -4.47351E+00 -8.53971E+00 -1.23031E+01
  -1.34906E+01 -5.98362E+00 -1.03688E+01 -1.03248E+01 -1.98135E+00 -1.32300E+00 -3.36594E+00  6.31453E+00  4.56196E+00  1.23588E+00
   3.81065E+00  9.60387E+00  6.63886E+00  7.60177E+00  1.32705E+01  2.72340E+01  4.17120E+01  5.98334E+01  7.89848E+01  8.79912E+01
   8.77657E+01  8.64069E+01  7.00448E+01  5.96189E+01  4.22327E+01  3.44864E+01  1.81049E+01  1.03380E+01  1.00710E+01  1.04202E+01
   4.24320E+00  8.05251E+00  8.89615E+00  8.87619E+00  3.78141E+00  2.36073E+00 -9.28618E-01  6.21253E+00 -9.29701E-01  9.89481E+00
   6.31224E+00  6.72972E-01  2.38331E+00  2.95565E+00  5.99285E+00  4.68483E+00  7.70777E+00  5.56056E+00  3.17174E+00  1.39743E+01
   6.70643E+00  5.71215E+00  7.48281E+00  6.96746E+00  5.32568E+00  1.28264E+01  3.35324E+00  8.18080E+00  1.25922E+01  1.75318E+01
   1.50676E+01  1.05488E+01  1.51631E+01  1.58970E+01  1.96042E+01  2.37707E+01  1.99005E+01  2.86247E+01  2.83981E+01  3.55854E+01
   2.96354E+01  3.01208E+01  3.24558E+01  4.01429E+01  3.55418E+01  4.07385E+01  4.12082E+01  4.37765E+01  3.75776E+01  4.13558E+01
   4.06295E+01  4.59766E+01  4.42258E+01  4.29161E+01  4.59617E+01  4.21260E+01  4.09654E+01  3.92130E+01  3.83820E+01  3.07144E+01
   3.03025E+01  2.94166E+01  2.65892E+01  2.05940E+01  2.23576E+01  2.22623E+01  2.14766E+01  1.44460E+01  1.01353E+01  1.10906E+01
   1.29746E+01  1.17068E+01  1.34221E+01  1.22136E+01  7.97569E+00  9.31033E+00  9.79411E+00  9.13853E+00  1.37201E+01  1.17266E+01
   1.32693E+01  1.11037E+01  2.21980E+01  1.71834E+01  1.49937E+01  1.20687E+01  1.94897E+01  1.07541E+01  1.58637E+01  1.80228E+01
   1.59482E+01  1.23936E+01  1.12561E+01  1.49980E+01  1.80792E+01  1.40473E+01  1.50396E+01  1.56301E+01  8.28428E+00  1.28522E+01
   1.58178E+01  1.42180E+01  1.13807E+01  1.56582E+01  1.43598E+01  1.52956E+01  2.49813E+01  1.52681E+01  9.24986E+00  1.49447E+01
   1.51848E+01  1.54012E+01  1.62758E+01  8.50372E+00  1.36428E+01  1.76193E+01  1.26497E+01  1.76887E+01  2.30058E+01  1.65743E+01
   1.16694E+01  2.01180E+01  1.22319E+01  1.56616E+01  2.38760E+01  1.60885E+01  1.77717E+01  2.00839E+01  1.89965E+01  2.00619E+01
   2.42080E+01  2.02770E+01  2.44900E+01  2.72946E+01  2.28167E+01  2.68012E+01  2.96258E+01  2.66602E+01  2.57752E+01  2.78942E+01
   2.50462E+01  2.70268E+01  2.03326E+01  2.05335E+01  2.00831E+01  2.65181E+01  2.76280E+01  1.78296E+01  2.94558E+01  3.02368E+01
   2.34359E+01  2.27726E+01  2.21168E+01  2.60428E+01  1.82639E+01  2.27903E+01  1.70146E+01  1.66852E+01  1.87809E+01  1.92433E+01
   1.51997E+01  1.52664E+01  2.31794E+01  1.01939E+01  1.70594E+01  2.00966E+01  1.34886E+01  2.19140E+01  1.35033E+01  1.74996E+01
   1.92619E+01  1.89114E+01  1.67526E+01  2.05999E+01  2.23203E+01  2.35550E+01  1.94891E+01  2.00726E+01  2.48810E+01  1.58953E+01
   1.95840E+01  1.91374E+01  1.72586E+01  2.36452E+01  2.17079E+01  2.51419E+01  1.90084E+01  1.81124E+01  1.60599E+01  1.96844E+01
   2.23897E+01  2.58758E+01  2.30693E+01  1.84313E+01  2.04888E+01  2.10489E+01  2.23478E+01  2.02197E+01  2.60859E+01  1.49001E+01
   2.22840E+01  2.61476E+01  1.66688E+01  2.10817E+01  1.80355E+01  2.41464E+01  2.50477E+01  2.39469E+01  1.71235E+01  2.05906E+01
   2.17008E+01  2.63502E+01  1.72936E+01  1.53436E+01  1.63308E+01  2.24558E+01  2.58384E+01  2.31009E+01  2.25464E+01  2.16256E+01
   1.72014E+01  2.32769E+01  2.11302E+01  2.58517E+01  1.94365E+01  2.52859E+01  2.35212E+01  1.87094E+01
 NY points of the fit to the data follow
  -2.89018E+02 -2.87029E+02 -2.84690E+02 -2.81615E+02 -2.77441E+02 -2.72073E+02 -2.65483E+02 -2.58126E+02 -2.51117E+02 -2.45437E+02
  -2.41564E+02 -2.39511E+02 -2.38815E+02 -2.38736E+02 -2.38802E+02 -2.38808E+02 -2.38235E+02 -2.37410E+02 -2.36418E+02 -2.34819E+02
  -2.32614E+02 -2.30133E+02 -2.27716E+02 -2.24855E+02 -2.21027E+02 -2.16144E+02 -2.10021E+02 -2.02797E+02 -1.95416E+02 -1.89122E+02
  -1.84489E+02 -1.81725E+02 -1.80841E+02 -1.81360E+02 -1.82592E+02 -1.84185E+02 -1.85560E+02 -1.86050E+02 -1.85850E+02 -1.84251E+02
  -1.80500E+02 -1.75301E+02 -1.69271E+02 -1.63000E+02 -1.57420E+02 -1.53598E+02 -1.51832E+02 -1.51816E+02 -1.52968E+02 -1.54497E+02
  -1.55661E+02 -1.56071E+02 -1.55469E+02 -1.53893E+02 -1.51688E+02 -1.48951E+02 -1.45724E+02 -1.42586E+02 -1.40179E+02 -1.38621E+02
  -1.37768E+02 -1.37247E+02 -1.36681E+02 -1.35816E+02 -1.34401E+02 -1.32455E+02 -1.30259E+02 -1.27908E+02 -1.25524E+02 -1.23338E+02
  -1.21417E+02 -1.19831E+02 -1.18535E+02 -1.17429E+02 -1.16425E+02 -1.15415E+02 -1.14397E+02 -1.13299E+02 -1.12184E+02 -1.11124E+02
  -1.09815E+02 -1.08358E+02 -1.06853E+02 -1.05267E+02 -1.03696E+02 -1.02328E+02 -1.01197E+02 -1.00171E+02 -9.91400E+01 -9.80182E+01
  -9.68016E+01 -9.55700E+01 -9.45544E+01 -9.37064E+01 -9.29308E+01 -9.15882E+01 -8.79435E+01 -8.21112E+01 -7.43471E+01 -6.50831E+01
  -5.61548E+01 -4.98212E+01 -4.71064E+01 -4.78436E+01 -5.12698E+01 -5.60080E+01 -6.07422E+01 -6.48616E+01 -6.83576E+01 -7.07062E+01
  -7.24794E+01 -7.41204E+01 -7.42428E+01 -7.35856E+01 -7.27599E+01 -7.18889E+01 -7.09929E+01 -7.00463E+01 -6.89198E+01 -6.70824E+01
  -6.31846E+01 -5.69418E+01 -4.87637E+01 -3.89853E+01 -2.90895E+01 -2.14583E+01 -1.76000E+01 -1.74156E+01 -2.02422E+01 -2.49756E+01
  -3.02287E+01 -3.52665E+01 -4.02935E+01 -4.48154E+01 -4.86387E+01 -5.22668E+01 -5.41540E+01 -5.40567E+01 -5.30233E+01 -5.15400E+01
  -4.99325E+01 -4.84966E+01 -4.74090E+01 -4.65633E+01 -4.59501E+01 -4.56632E+01 -4.55687E+01 -4.56123E+01 -4.57760E+01 -4.58848E+01
  -4.59299E+01 -4.58522E+01 -4.56538E+01 -4.53861E+01 -4.51596E+01 -4.50109E+01 -4.49637E+01 -4.50400E+01 -4.50983E+01 -4.49677E+01
  -4.45508E+01 -4.38178E+01 -4.28613E+01 -4.18455E+01 -4.09458E+01 -4.02465E+01 -3.97291E+01 -3.93432E+01 -3.90571E+01 -3.88564E+01
  -3.88214E+01 -3.89026E+01 -3.89986E+01 -3.91133E+01 -3.91013E+01 -3.88913E+01 -3.85384E+01 -3.81082E+01 -3.76485E+01 -3.71940E+01
  -3.67425E+01 -3.62715E+01 -3.57198E+01 -3.50788E+01 -3.41481E+01 -3.27752E+01 -3.10443E+01 -2.89847E+01 -2.68564E+01 -2.49872E+01
  -2.36867E+01 -2.31949E+01 -2.33935E+01 -2.39289E+01 -2.45145E+01 -2.48675E+01 -2.47387E+01 -2.39551E+01 -2.24681E+01 -2.05059E+01
  -1.83256E+01 -1.62959E+01 -1.48401E+01 -1.42682E+01 -1.46191E+01 -1.57829E+01 -1.74203E+01 -1.92041E+01 -2.06089E+01 -2.11025E+01
  -2.03158E+01 -1.83417E+01 -1.55366E+01 -1.23404E+01 -9.54059E+00 -7.93942E+00 -8.03124E+00 -9.76490E+00 -1.24657E+01 -1.55449E+01
  -1.82182E+01 -1.95440E+01 -1.93324E+01 -1.77601E+01 -1.53467E+01 -1.28348E+01 -1.04259E+01 -8.61463E+00 -7.53581E+00 -7.03911E+00
  -6.66886E+00 -5.94837E+00 -4.95977E+00 -3.85594E+00 -2.58267E+00 -1.45130E+00 -9.95988E-01 -1.36499E+00 -2.45615E+00 -3.89250E+00
  -5.15944E+00 -5.90838E+00 -5.86230E+00 -4.95565E+00 -3.45430E+00 -1.86263E+00 -4.74118E-01  6.89323E-01  1.58379E+00  2.27259E+00
   2.95495E+00  3.83605E+00  5.22080E+00  8.77504E+00  1.68874E+01  2.88514E+01  4.41680E+01  6.16738E+01  7.73730E+01  8.67064E+01
   8.80367E+01  8.22726E+01  7.11452E+01  5.76913E+01  4.47963E+01  3.34971E+01  2.36974E+01  1.65884E+01  1.05824E+01  5.06482E+00
   3.18363E+00  2.90258E+00  2.99165E+00  3.19721E+00  3.48148E+00  3.72722E+00  3.88344E+00  3.98117E+00  4.03684E+00  4.06920E+00
   4.11334E+00  4.18785E+00  4.28254E+00  4.40766E+00  4.57557E+00  4.77783E+00  5.00954E+00  5.26793E+00  5.55337E+00  5.87821E+00
   6.24296E+00  6.65086E+00  7.11462E+00  7.64325E+00  8.24501E+00  8.92843E+00  9.70095E+00  1.05711E+01  1.15435E+01  1.26228E+01
   1.38124E+01  1.51127E+01  1.65208E+01  1.80315E+01  1.96368E+01  2.13264E+01  2.30869E+01  2.49030E+01  2.67560E+01  2.86253E+01
   3.04877E+01  3.23183E+01  3.40899E+01  3.57754E+01  3.73459E+01  3.87729E+01  4.00279E+01  4.10848E+01  4.19211E+01  4.25219E+01
   4.28824E+01  4.29752E+01  4.27639E+01  4.22321E+01  4.13559E+01  4.01191E+01  3.85477E+01  3.67069E+01  3.46912E+01  3.26073E+01
   3.05323E+01  2.85291E+01  2.66346E+01  2.48563E+01  2.31693E+01  2.15434E+01  2.00030E+01  1.85555E+01  1.71983E+01  1.59685E+01
   1.48864E+01  1.39625E+01  1.32156E+01  1.26279E+01  1.21969E+01  1.19541E+01  1.18870E+01  1.19835E+01  1.22308E+01  1.26110E+01
   1.30960E+01  1.36480E+01  1.42197E+01  1.47588E+01  1.52141E+01  1.55430E+01  1.57184E+01  1.57330E+01  1.55995E+01  1.53485E+01
   1.50210E+01  1.46618E+01  1.43114E+01  1.40012E+01  1.37500E+01  1.35653E+01  1.34444E+01  1.33787E+01  1.33562E+01  1.33651E+01
   1.33949E+01  1.34381E+01  1.34897E+01  1.35474E+01  1.36103E+01  1.36797E+01  1.37569E+01  1.38444E+01  1.39443E+01  1.40594E+01
   1.41921E+01  1.43452E+01  1.45211E+01  1.47225E+01  1.49518E+01  1.52116E+01  1.55041E+01  1.58318E+01  1.61964E+01  1.65999E+01
   1.70430E+01  1.75263E+01  1.80491E+01  1.86097E+01  1.92049E+01  1.98302E+01  2.04792E+01  2.11441E+01  2.18151E+01  2.24812E+01
   2.31301E+01  2.37486E+01  2.43233E+01  2.48411E+01  2.52894E+01  2.56575E+01  2.59362E+01  2.61194E+01  2.62035E+01  2.61881E+01
   2.60759E+01  2.58728E+01  2.55871E+01  2.52297E+01  2.48129E+01  2.43505E+01  2.38561E+01  2.33439E+01  2.28267E+01  2.23166E+01
   2.18237E+01  2.13567E+01  2.09222E+01  2.05250E+01  2.01680E+01  1.98529E+01  1.95794E+01  1.93466E+01  1.91525E+01  1.89946E+01
   1.88698E+01  1.87751E+01  1.87071E+01  1.86627E+01  1.86389E+01  1.86330E+01  1.86424E+01  1.86648E+01  1.86982E+01  1.87410E+01
   1.87913E+01  1.88482E+01  1.89103E+01  1.89768E+01  1.90466E+01  1.91193E+01  1.91939E+01  1.92703E+01  1.93476E+01  1.94258E+01
   1.95042E+01  1.95827E+01  1.96609E+01  1.97387E+01  1.98158E+01  1.98923E+01  1.99680E+01  2.00429E+01  2.01169E+01  2.01900E+01
   2.02621E+01  2.03333E+01  2.04035E+01  2.04727E+01  2.05409E+01  2.06082E+01  2.06744E+01  2.07397E+01  2.08040E+01  2.08675E+01
   2.09300E+01  2.09917E+01  2.10525E+01  2.11125E+01  2.11716E+01  2.12301E+01  2.12878E+01  2.13449E+01  2.14013E+01  2.14571E+01
   2.15123E+01  2.15670E+01  2.16212E+01  2.16750E+01  2.17283E+01  2.17814E+01  2.18341E+01  2.18866E+01  2.19389E+01  2.19911E+01
   2.20432E+01  2.20954E+01  2.21475E+01  2.21998E+01  2.22522E+01  2.23050E+01  2.23581E+01  2.24117E+01
 NY background values follow
    -2.940E+02   -2.912E+02   -2.884E+02   -2.855E+02   -2.827E+02   -2.799E+02   -2.771E+02   -2.743E+02   -2.714E+02   -2.686E+02
    -2.658E+02   -2.631E+02   -2.603E+02   -2.575E+02   -2.547E+02   -2.520E+02   -2.492E+02   -2.465E+02   -2.438E+02   -2.411E+02
    -2.384E+02   -2.357E+02   -2.330E+02   -2.303E+02   -2.277E+02   -2.251E+02   -2.224E+02   -2.198E+02   -2.173E+02   -2.147E+02
    -2.121E+02   -2.096E+02   -2.071E+02   -2.046E+02   -2.021E+02   -1.997E+02   -1.973E+02   -1.949E+02   -1.925E+02   -1.901E+02
    -1.878E+02   -1.855E+02   -1.832E+02   -1.809E+02   -1.787E+02   -1.765E+02   -1.743E+02   -1.722E+02   -1.700E+02   -1.679E+02
    -1.659E+02   -1.638E+02   -1.618E+02   -1.598E+02   -1.578E+02   -1.559E+02   -1.540E+02   -1.521E+02   -1.502E+02   -1.484E+02
    -1.465E+02   -1.447E+02   -1.430E+02   -1.412E+02   -1.395E+02   -1.378E+02   -1.361E+02   -1.344E+02   -1.327E+02   -1.311E+02
    -1.295E+02   -1.279E+02   -1.263E+02   -1.248E+02   -1.233E+02   -1.217E+02   -1.202E+02   -1.188E+02   -1.173E+02   -1.159E+02
    -1.144E+02   -1.130E+02   -1.116E+02   -1.102E+02   -1.089E+02   -1.075E+02   -1.062E+02   -1.049E+02   -1.036E+02   -1.023E+02
    -1.010E+02   -9.974E+01   -9.849E+01   -9.725E+01   -9.603E+01   -9.481E+01   -9.361E+01   -9.243E+01   -9.125E+01   -9.009E+01
    -8.894E+01   -8.781E+01   -8.669E+01   -8.557E+01   -8.448E+01   -8.339E+01   -8.232E+01   -8.126E+01   -8.021E+01   -7.917E+01
    -7.815E+01   -7.714E+01   -7.614E+01   -7.515E+01   -7.418E+01   -7.322E+01   -7.227E+01   -7.133E+01   -7.040E+01   -6.949E+01
    -6.858E+01   -6.769E+01   -6.681E+01   -6.594E+01   -6.509E+01   -6.424E+01   -6.341E+01   -6.259E+01   -6.178E+01   -6.098E+01
    -6.019E+01   -5.941E+01   -5.865E+01   -5.790E+01   -5.715E+01   -5.642E+01   -5.570E+01   -5.499E+01   -5.429E+01   -5.360E+01
    -5.293E+01   -5.226E+01   -5.160E+01   -5.095E+01   -5.031E+01   -4.968E+01   -4.906E+01   -4.845E+01   -4.785E+01   -4.725E+01
    -4.667E+01   -4.609E+01   -4.551E+01   -4.495E+01   -4.439E+01   -4.384E+01   -4.330E+01   -4.276E+01   -4.223E+01   -4.171E+01
    -4.119E+01   -4.067E+01   -4.016E+01   -3.966E+01   -3.916E+01   -3.867E+01   -3.818E+01   -3.770E+01   -3.722E+01   -3.674E+01
    -3.627E+01   -3.579E+01   -3.533E+01   -3.486E+01   -3.440E+01   -3.394E+01   -3.349E+01   -3.303E+01   -3.258E+01   -3.213E+01
    -3.168E+01   -3.123E+01   -3.078E+01   -3.033E+01   -2.989E+01   -2.944E+01   -2.900E+01   -2.856E+01   -2.811E+01   -2.767E+01
    -2.724E+01   -2.680E+01   -2.636E+01   -2.593E+01   -2.550E+01   -2.507E+01   -2.464E+01   -2.421E+01   -2.379E+01   -2.336E+01
    -2.294E+01   -2.252E+01   -2.211E+01   -2.169E+01   -2.128E+01   -2.087E+01   -2.046E+01   -2.005E+01   -1.965E+01   -1.925E+01
    -1.885E+01   -1.845E+01   -1.806E+01   -1.767E+01   -1.728E+01   -1.690E+01   -1.652E+01   -1.614E+01   -1.576E+01   -1.539E+01
    -1.502E+01   -1.465E+01   -1.429E+01   -1.393E+01   -1.358E+01   -1.322E+01   -1.287E+01   -1.253E+01   -1.218E+01   -1.185E+01
    -1.151E+01   -1.118E+01   -1.085E+01   -1.052E+01   -1.020E+01   -9.883E+00   -9.567E+00   -9.255E+00   -8.946E+00   -8.640E+00
    -8.338E+00   -8.038E+00   -7.742E+00   -7.449E+00   -7.159E+00   -6.871E+00   -6.587E+00   -6.306E+00   -6.028E+00   -5.753E+00
    -5.480E+00   -5.211E+00   -4.944E+00   -4.680E+00   -4.419E+00   -4.161E+00   -3.905E+00   -3.653E+00   -3.403E+00   -3.155E+00
    -2.910E+00   -2.668E+00   -2.428E+00   -2.191E+00   -1.956E+00   -1.724E+00   -1.495E+00   -1.267E+00   -1.043E+00   -8.202E-01
    -6.001E-01   -3.824E-01   -1.669E-01    4.621E-02    2.570E-01    4.656E-01    6.718E-01    8.757E-01    1.077E+00    1.276E+00
     1.473E+00    1.668E+00    1.860E+00    2.050E+00    2.238E+00    2.423E+00    2.606E+00    2.786E+00    2.964E+00    3.140E+00
     3.313E+00    3.485E+00    3.653E+00    3.819E+00    3.983E+00    4.145E+00    4.304E+00    4.461E+00    4.615E+00    4.767E+00
     4.916E+00    5.063E+00    5.208E+00    5.350E+00    5.490E+00    5.627E+00    5.762E+00    5.895E+00    6.025E+00    6.152E+00
     6.278E+00    6.400E+00    6.521E+00    6.638E+00    6.754E+00    6.867E+00    6.977E+00    7.085E+00    7.190E+00    7.294E+00
     7.394E+00    7.493E+00    7.590E+00    7.684E+00    7.777E+00    7.868E+00    7.956E+00    8.044E+00    8.129E+00    8.213E+00
     8.295E+00    8.376E+00    8.456E+00    8.534E+00    8.612E+00    8.688E+00    8.763E+00    8.837E+00    8.910E+00    8.982E+00
     9.054E+00    9.125E+00    9.195E+00    9.265E+00    9.334E+00    9.403E+00    9.472E+00    9.540E+00    9.609E+00    9.677E+00
     9.745E+00    9.814E+00    9.882E+00    9.951E+00    1.002E+01    1.009E+01    1.016E+01    1.023E+01    1.030E+01    1.037E+01
     1.045E+01    1.052E+01    1.059E+01    1.067E+01    1.075E+01    1.082E+01    1.090E+01    1.098E+01    1.106E+01    1.114E+01
     1.123E+01    1.131E+01    1.139E+01    1.148E+01    1.156E+01    1.165E+01    1.174E+01    1.183E+01    1.192E+01    1.201E+01
     1.210E+01    1.219E+01    1.229E+01    1.238E+01    1.248E+01    1.257E+01    1.267E+01    1.277E+01    1.287E+01    1.297E+01
     1.307E+01    1.317E+01    1.328E+01    1.338E+01    1.349E+01    1.359E+01    1.370E+01    1.381E+01    1.392E+01    1.403E+01
     1.414E+01    1.425E+01    1.436E+01    1.447E+01    1.459E+01    1.470E+01    1.482E+01    1.494E+01    1.506E+01    1.517E+01
     1.529E+01    1.542E+01    1.554E+01    1.566E+01    1.578E+01    1.590E+01    1.603E+01    1.615E+01    1.627E+01    1.640E+01
     1.652E+01    1.665E+01    1.677E+01    1.689E+01    1.702E+01    1.714E+01    1.726E+01    1.739E+01    1.751E+01    1.763E+01
     1.775E+01    1.788E+01    1.800E+01    1.812E+01    1.823E+01    1.835E+01    1.847E+01    1.859E+01    1.870E+01    1.881E+01
     1.893E+01    1.904E+01    1.915E+01    1.926E+01    1.937E+01    1.947E+01    1.958E+01    1.968E+01    1.978E+01    1.988E+01
     1.998E+01    2.007E+01    2.017E+01    2.026E+01    2.035E+01    2.043E+01    2.052E+01    2.060E+01    2.069E+01    2.077E+01
     2.085E+01    2.092E+01    2.100E+01    2.107E+01    2.115E+01    2.122E+01    2.129E+01    2.136E+01    2.142E+01    2.149E+01
     2.155E+01    2.162E+01    2.168E+01    2.174E+01    2.180E+01    2.186E+01    2.192E+01    2.197E+01    2.203E+01    2.208E+01
     2.214E+01    2.219E+01    2.225E+01    2.230E+01    2.235E+01    2.240E+01    2.245E+01    2.250E+01    2.255E+01    2.260E+01
     2.265E+01    2.270E+01    2.275E+01    2.280E+01    2.285E+01    2.289E+01    2.294E+01    2.299E+01
 Ala      Conc. = 6.19E+01
