 LCModel (Version 6.3-1L) Copyright: S.W. Provencher.          Ref.: Magn. Reson. Med. 30:672-679 (1993).                
 Slice#1 Row#6 Col#9  PD_05_press_2_raw_act
 36 lines in following concentration table = NCONC+1
    Conc.  %SD /Cr+PCr  Metabolite                                         
    0.000 999%   0.000 Ala                                                 
   73.513 348% 7.4E-02 Asp                                                 
  768.353  38%   0.773 Cr                                                  
  226.261 134%   0.227 PCr                                                 
  142.742 108%   0.144 GABA                                                
  249.251  64%   0.251 Glc                                                 
 1.06E+03  35%   1.063 Gln                                                 
 1.82E+03  23%   1.828 Glu                                                 
  467.131   9%   0.470 GPC                                                 
    0.000 999%   0.000 PCh                                                 
  452.085  29%   0.455 GSH                                                 
 1.45E+03  29%   1.456 Ins                                                 
  339.139  57%   0.341 Lac                                                 
 2.28E+03   8%   2.295 NAA                                                 
  303.889  67%   0.306 NAAG                                                
  104.075  38%   0.105 Scyllo                                              
  219.793 108%   0.221 Tau                                                 
  245.720  70%   0.247 -CrCH2                                              
  467.131   9%   0.470 GPC+PCh                                             
 2.59E+03   6%   2.600 NAA+NAAG                                            
  994.614  11%   1.000 Cr+PCr                                              
 2.88E+03  20%   2.891 Glu+Gln                                             
    0.000 999%   0.000 Lip13a                                              
    0.000 999%   0.000 Lip13b                                              
 6.30E-03 999% 6.3E-06 Lip09                                               
 2.75E+03  13%   2.761 MM09                                                
 2.29E-03 999% 2.3E-06 Lip20                                               
 3.17E+03  22%   3.191 MM20                                                
  601.037  48%   0.604 MM12                                                
 4.35E+03   7%   4.370 MM14                                                
  522.876  76%   0.526 MM17                                                
    0.000 999%   0.000 Lip13a+Lip13b                                       
 4.95E+03   9%   4.974 MM14+Lip13a+Lip13b+MM12                             
 2.75E+03  13%   2.761 MM09+Lip09                                          
 3.17E+03  22%   3.191 MM20+Lip20                                          
   6 lines in following misc. output table
  FWHM = 0.046 ppm    S/N =   6                                            
  Data shift = 0.000 ppm                                                   
  Ph:  -5 deg      12.5 deg/ppm                                            
  alphaB,S = 8.5E+01,   1.3E+01                                            
   14 spline knots.   Ns = 5(1)                                            
   2 inflections.     1 extrema                                            
  498 points on ppm-axis = NY
      4.000000     3.992357     3.984714     3.977070     3.969427     3.961784     3.954141     3.946497     3.938854     3.931211
      3.923568     3.915925     3.908281     3.900638     3.892995     3.885352     3.877708     3.870065     3.862422     3.854779
      3.847136     3.839492     3.831849     3.824206     3.816563     3.808919     3.801276     3.793633     3.785990     3.778347
      3.770703     3.763060     3.755417     3.747774     3.740130     3.732487     3.724844     3.717201     3.709558     3.701914
      3.694271     3.686628     3.678985     3.671341     3.663698     3.656055     3.648412     3.640769     3.633125     3.625482
      3.617839     3.610196     3.602552     3.594909     3.587266     3.579623     3.571980     3.564336     3.556693     3.549050
      3.541407     3.533763     3.526120     3.518477     3.510834     3.503191     3.495547     3.487904     3.480261     3.472618
      3.464974     3.457331     3.449688     3.442045     3.434402     3.426758     3.419115     3.411472     3.403829     3.396185
      3.388542     3.380899     3.373256     3.365613     3.357969     3.350326     3.342683     3.335040     3.327396     3.319753
      3.312110     3.304467     3.296824     3.289180     3.281537     3.273894     3.266251     3.258607     3.250964     3.243321
      3.235678     3.228034     3.220391     3.212748     3.205105     3.197462     3.189818     3.182175     3.174532     3.166889
      3.159245     3.151602     3.143959     3.136316     3.128673     3.121029     3.113386     3.105743     3.098100     3.090456
      3.082813     3.075170     3.067527     3.059884     3.052240     3.044597     3.036954     3.029311     3.021667     3.014024
      3.006381     2.998738     2.991095     2.983451     2.975808     2.968165     2.960522     2.952878     2.945235     2.937592
      2.929949     2.922306     2.914662     2.907019     2.899376     2.891733     2.884089     2.876446     2.868803     2.861160
      2.853517     2.845873     2.838230     2.830587     2.822944     2.815300     2.807657     2.800014     2.792371     2.784728
      2.777084     2.769441     2.761798     2.754155     2.746511     2.738868     2.731225     2.723582     2.715939     2.708295
      2.700652     2.693009     2.685366     2.677722     2.670079     2.662436     2.654793     2.647150     2.639506     2.631863
      2.624220     2.616577     2.608933     2.601290     2.593647     2.586004     2.578361     2.570717     2.563074     2.555431
      2.547788     2.540144     2.532501     2.524858     2.517215     2.509572     2.501928     2.494285     2.486642     2.478999
      2.471355     2.463712     2.456069     2.448426     2.440783     2.433139     2.425496     2.417853     2.410210     2.402566
      2.394923     2.387280     2.379637     2.371994     2.364350     2.356707     2.349064     2.341421     2.333777     2.326134
      2.318491     2.310848     2.303205     2.295561     2.287918     2.280275     2.272632     2.264988     2.257345     2.249702
      2.242059     2.234416     2.226772     2.219129     2.211486     2.203843     2.196199     2.188556     2.180913     2.173270
      2.165627     2.157983     2.150340     2.142697     2.135054     2.127410     2.119767     2.112124     2.104481     2.096838
      2.089194     2.081551     2.073908     2.066265     2.058621     2.050978     2.043335     2.035692     2.028049     2.020405
      2.012762     2.005119     1.997476     1.989833     1.982190     1.974546     1.966903     1.959260     1.951617     1.943974
      1.936331     1.928688     1.921045     1.913402     1.905759     1.898115     1.890472     1.882829     1.875186     1.867543
      1.859900     1.852257     1.844614     1.836971     1.829327     1.821684     1.814041     1.806398     1.798755     1.791112
      1.783469     1.775826     1.768183     1.760540     1.752896     1.745253     1.737610     1.729967     1.722324     1.714681
      1.707038     1.699395     1.691752     1.684108     1.676465     1.668822     1.661179     1.653536     1.645893     1.638250
      1.630607     1.622964     1.615321     1.607677     1.600034     1.592391     1.584748     1.577105     1.569462     1.561819
      1.554176     1.546533     1.538890     1.531246     1.523603     1.515960     1.508317     1.500674     1.493031     1.485388
      1.477745     1.470102     1.462458     1.454815     1.447172     1.439529     1.431886     1.424243     1.416600     1.408957
      1.401314     1.393671     1.386027     1.378384     1.370741     1.363098     1.355455     1.347812     1.340169     1.332526
      1.324883     1.317240     1.309596     1.301953     1.294310     1.286667     1.279024     1.271381     1.263738     1.256095
      1.248452     1.240808     1.233165     1.225522     1.217879     1.210236     1.202593     1.194950     1.187307     1.179664
      1.172021     1.164377     1.156734     1.149091     1.141448     1.133805     1.126162     1.118519     1.110876     1.103233
      1.095590     1.087946     1.080303     1.072660     1.065017     1.057374     1.049731     1.042088     1.034445     1.026802
      1.019158     1.011515     1.003872     0.996229     0.988586     0.980943     0.973300     0.965657     0.958014     0.950371
      0.942727     0.935084     0.927441     0.919798     0.912155     0.904512     0.896869     0.889226     0.881583     0.873940
      0.866296     0.858653     0.851010     0.843367     0.835724     0.828081     0.820438     0.812795     0.805152     0.797508
      0.789865     0.782222     0.774579     0.766936     0.759293     0.751650     0.744007     0.736364     0.728721     0.721077
      0.713434     0.705791     0.698148     0.690505     0.682862     0.675219     0.667576     0.659933     0.652290     0.644646
      0.637003     0.629360     0.621717     0.614074     0.606431     0.598788     0.591145     0.583502     0.575858     0.568215
      0.560572     0.552929     0.545286     0.537643     0.530000     0.522357     0.514714     0.507071     0.499427     0.491784
      0.484141     0.476498     0.468855     0.461212     0.453569     0.445925     0.438282     0.430639     0.422996     0.415353
      0.407710     0.400067     0.392424     0.384780     0.377137     0.369494     0.361851     0.354208     0.346565     0.338922
      0.331278     0.323635     0.315992     0.308349     0.300706     0.293063     0.285420     0.277777     0.270133     0.262490
      0.254847     0.247204     0.239561     0.231918     0.224275     0.216631     0.208988     0.201345
 NY phased data points follow
   1.05713E+00  2.48545E+01  2.62113E+01  2.29645E+01  6.24953E+00  1.34467E+01  2.11759E+01  2.89648E+01  2.17945E+01  1.05226E+01
   2.22009E+01  4.71721E+01  3.54181E+01  2.59344E+01  2.49652E+01  1.42343E+01  2.89709E+01  1.23456E+01  1.22547E+01  1.01154E-01
   5.51209E+00  2.20679E+00  2.27305E+01  2.61814E+01  1.73253E+01  1.00635E+01  5.96241E+00  2.88192E+01  2.04183E+01  1.67144E+01
   1.93895E+01  2.93639E+01  3.63489E+01  1.60806E+01  3.22183E+01  2.82243E+01  1.50377E+01  9.16389E+00  2.40145E+01  1.83123E+01
   1.87048E+01  1.25723E+01  1.29953E+01  1.52770E+01  1.66465E+01  1.95901E+01  2.04532E+01  2.52023E+01  2.49053E+01  2.42683E+01
   1.61507E+01  7.29934E+00  2.70940E+01  1.91404E+01  1.90412E+01  1.40068E+01  1.79761E+01  2.00870E+01  2.47017E+01  1.71974E+01
   2.08769E+00  5.83773E+00  9.59346E+00  1.73319E-01  2.59330E+01 -4.64568E+00 -4.09041E-01  3.40524E+00  8.06616E+00  2.36479E+01
   1.04190E+01  1.03098E+01  1.98743E+01  2.94204E+00  1.32664E+01  2.39463E+01  1.08875E+01  1.14987E+01  1.98500E+00  8.72195E+00
   2.28020E+01  5.44399E+00  1.77959E+01  3.23093E+00  1.11659E+01  2.32616E+01  1.28842E+01  1.10701E+01  1.77521E+01  1.59065E+01
   1.68822E+01  1.82021E+00  1.05176E+01 -1.64717E+00  7.02763E+00  1.26899E+01  2.18430E+01 -3.20670E+00  9.01126E+00  1.38287E+01
   2.79670E+01  3.50833E+01  4.74752E+01  5.78928E+01  6.93903E+01  5.52776E+01  4.40508E+01  3.40985E+01  1.99129E+01  9.69406E+00
   1.44125E+01  4.23962E+00 -6.04879E+00  1.66908E+01  6.79026E+00  1.60972E+00 -1.49739E+00  1.26599E+01 -1.28587E+00  7.35766E+00
   9.86480E+00  3.33108E+00  1.40762E+01  1.43387E+01  3.04539E+01  2.82155E+01  4.95233E+01  4.95539E+01  4.75315E+01  5.15463E+01
   3.49512E+01  1.27390E+01  1.31221E+00 -3.50367E+00  4.29715E+00  3.35842E+00 -1.04192E+01  1.28010E+01  1.33262E+01  1.13489E+01
   1.67079E+01  6.50825E-01  3.47683E+00  1.96296E+00  9.03216E+00  8.51622E+00  8.81187E+00 -3.45474E+00  2.64161E+01 -2.67672E+00
   1.30359E+01  1.90462E+01  3.77218E+00  2.56331E+00  5.48072E+00  6.39192E+00 -3.19722E+00  9.33647E+00  1.17610E+01 -2.76127E+00
   1.01812E+01  1.83245E+01  1.54173E+01  8.69434E+00  1.18809E+01  1.16391E+01  2.46987E+00  3.90549E+00  6.65294E+00 -7.97534E+00
  -6.33970E+00  2.44301E+00 -2.20782E+00 -1.13043E+01 -1.35106E+01  9.71910E-01 -7.39026E+00 -9.53324E+00 -9.51059E+00 -9.24315E+00
   4.60840E+00 -6.38593E+00 -7.41240E+00 -6.19716E+00 -4.63811E-01 -5.88475E+00  7.06416E+00  7.47647E+00 -6.52217E+00  1.02166E+01
   3.66171E+00  1.68396E+01  1.36895E+01 -3.26101E+00 -6.23943E+00 -8.49690E+00  5.56506E+00 -2.69101E+01 -5.43805E+00 -1.26542E+01
   3.30062E-01  1.84412E+00 -4.28333E+00  1.76765E+01  1.73078E+01 -6.65750E+00  1.01541E+01 -6.21935E+00 -4.15817E-01 -1.93765E+00
  -2.23992E+00 -8.30395E+00  2.15883E+00  5.23644E+00  2.11759E+01  2.61261E+01  1.08231E+01  1.96839E+01  9.35481E+00  4.54332E+00
  -3.29436E+00 -5.51855E+00 -7.71885E+00 -7.38028E-01  2.78246E+00  1.28594E+01  1.65411E+01  2.54439E+01  1.01918E+01  1.74876E+01
   2.21188E+01  2.19843E+01  5.38074E+00  1.44849E+01  6.03098E+00  1.83657E+01  2.22985E+01  9.80956E+00  2.21903E+01  1.89427E+01
   4.24157E+00  1.77732E+01 -2.83252E+00 -8.66070E-01  2.27006E+00  1.17226E+01  1.32860E+01  2.13654E+00  1.41336E+01  1.27050E+01
   1.47673E+01  2.34592E+01  2.72898E+01  1.52913E+01  2.39505E+01  3.96013E+01  4.40172E+01  6.89089E+01  9.30261E+01  9.68476E+01
   1.01610E+02  1.21418E+02  9.72802E+01  6.85792E+01  3.81487E+01  1.64214E+01  4.21726E+00  1.54408E+01  1.03956E+01  1.40988E+01
   1.41005E+01  5.10932E+00  5.23325E+00  1.26352E+01  8.75734E+00  1.82697E+01  7.21028E+00  2.30550E+00  8.31115E+00  2.70448E+00
  -5.41545E+00  3.31719E+00 -1.77850E+00 -4.75338E-01  1.80694E+00  1.24772E+01 -4.12979E+00  1.56112E+01  4.49393E+00  1.14949E+01
   1.48666E+00  2.35744E+00  6.15124E+00  2.09362E+00  8.47163E+00 -3.73832E+00  4.15972E+00  3.71811E+00  9.76324E+00  1.64926E-01
   2.09933E+00  1.12279E+01  1.73339E+01  1.21546E+01  5.12477E+00  1.02769E+01  8.11794E+00  4.47012E+00  1.82731E+00  1.57639E+01
   1.82016E+01  2.26968E+01  1.80937E+00 -9.89404E+00 -1.00569E+01 -1.75687E+01  2.98487E+00 -9.01036E+00  8.78220E+00  6.31076E+00
   1.58906E+01  1.32037E+01  1.82122E+01  3.62235E+01  3.23829E+01  2.44355E+01  1.93514E+01  3.50135E+01  3.07516E+01  3.04491E+01
   3.39250E+01  4.09500E+01  3.65468E+01  3.87119E+01  3.92801E+01  3.75081E+01  5.39980E+01  2.79723E+01  1.64814E+01  2.17170E+01
   2.38388E+01  3.01253E+01  2.41208E+01  4.07940E+01  2.98542E+01  1.95446E+01  2.34420E+01  1.20386E+01 -4.61566E+00  1.63549E+01
   8.44743E+00 -3.84077E+00 -1.37633E+01  1.51003E+01 -1.44698E+00 -4.78213E+00  1.26806E+01 -1.29210E+00  7.23374E+00  9.54120E-01
  -2.70382E+00  2.18216E+00  2.16736E+00  7.81493E+00  1.07722E+01  1.76002E+01 -2.31527E+00  4.43217E+00 -3.40681E+00  1.32260E+01
   7.61898E+00  4.77962E+00  1.54715E+01  8.09611E+00  8.88519E+00  6.83068E+00 -3.24043E+00 -6.37300E+00  2.46723E+00 -3.68928E-01
  -9.53526E+00  4.95344E+00 -4.22138E+00  1.96998E+00  9.87760E+00  5.55730E+00  3.60682E+00  3.50578E+01  2.60331E+00  2.49313E+00
   1.12961E+01  3.85584E+00  1.91164E+01  8.11674E+00  3.76899E+01  1.55292E+01  2.25883E+01  2.65313E+01  1.99940E+01  1.58475E+01
   1.80599E+01  6.92408E+00  7.23115E+00  2.86041E+01  2.58486E+01  2.32094E+01  2.69994E+01  1.51412E+01  2.53603E+01  6.21086E+00
   2.74909E+01  2.56712E+01  2.13476E+01  6.99156E+00  1.17494E+01  2.28081E+01  1.77716E+01  7.01453E+00  1.00292E+00 -9.55998E-01
  -4.64275E+00  1.87901E+01  5.60783E+00  5.62507E+00  1.84690E+01  7.98994E+00  8.85251E+00  1.01741E+01  1.47163E+01  1.11361E+01
   1.00034E+01  2.67130E+00  7.59076E+00 -7.14354E+00 -1.36993E+00  8.79067E-01 -1.29018E+00 -3.12782E+00  7.23175E+00 -1.05688E+01
  -3.16525E+00  1.10694E+01  8.63487E-01  4.68128E+00  4.14949E+00  4.93833E+00  2.92885E+00  6.56011E+00  1.88904E+01 -4.05109E+00
  -7.68205E+00  1.14506E+01  5.07024E+00 -5.75704E+00  9.95156E-01 -6.84799E+00  1.63673E+00  2.85549E-01 -6.26066E+00 -7.36929E+00
  -3.69782E+00  1.76113E+00  5.47738E+00  1.81193E+00 -6.38605E-01 -2.08404E+00  4.55365E+00  1.52396E+00 -9.13349E+00  5.55660E+00
   1.24678E+01 -1.89471E-01  5.24409E+00  2.17638E+00  1.04031E+01  2.03950E+00  7.65841E+00  1.33039E+00  9.57850E+00 -2.23411E+00
  -1.17398E+00  1.04351E+01 -9.11963E-01 -1.01436E+00  2.66154E+00  7.92288E-01  2.87686E+00  5.28367E+00 -1.00233E+00 -5.89322E+00
  -7.79172E+00 -4.43292E+00  7.66739E+00 -7.44300E+00  1.17852E+00 -6.32304E+00  6.06227E+00 -1.31584E+01
 NY points of the fit to the data follow
   1.13512E+01  1.12081E+01  1.16426E+01  1.22377E+01  1.29049E+01  1.38273E+01  1.56068E+01  1.87929E+01  2.30972E+01  2.73731E+01
   3.06256E+01  3.31727E+01  3.40101E+01  3.09707E+01  2.45659E+01  1.78715E+01  1.35757E+01  1.25584E+01  1.31103E+01  1.33622E+01
   1.34663E+01  1.36181E+01  1.38083E+01  1.36268E+01  1.29598E+01  1.25735E+01  1.32806E+01  1.52849E+01  1.79940E+01  2.17635E+01
   2.65792E+01  3.00947E+01  3.01115E+01  2.65742E+01  2.07719E+01  1.48853E+01  1.04587E+01  7.80772E+00  7.30218E+00  8.51248E+00
   1.06925E+01  1.28300E+01  1.43786E+01  1.60718E+01  1.84081E+01  2.07936E+01  2.26193E+01  2.37375E+01  2.37174E+01  2.14696E+01
   1.70201E+01  1.21581E+01  8.97147E+00  8.14467E+00  8.68636E+00  9.55131E+00  1.06657E+01  1.19767E+01  1.30368E+01  1.37877E+01
   1.41457E+01  1.38546E+01  1.27922E+01  1.11012E+01  9.45070E+00  8.55054E+00  8.58653E+00  9.34376E+00  1.04180E+01  1.14306E+01
   1.21422E+01  1.25956E+01  1.30731E+01  1.34455E+01  1.33649E+01  1.29657E+01  1.23811E+01  1.16601E+01  1.08835E+01  1.01436E+01
   9.70887E+00  9.95918E+00  1.09556E+01  1.22702E+01  1.32388E+01  1.34561E+01  1.32600E+01  1.25911E+01  1.08679E+01  8.50908E+00
   6.74233E+00  6.37345E+00  7.29447E+00  8.43309E+00  8.97230E+00  9.14358E+00  9.36098E+00  9.92714E+00  1.20123E+01  1.78143E+01
   2.76966E+01  3.98566E+01  5.02413E+01  5.84707E+01  6.40065E+01  6.07214E+01  4.64013E+01  2.78128E+01  1.30168E+01  6.54930E+00
   6.55755E+00  6.97910E+00  7.05635E+00  7.14297E+00  7.26033E+00  7.32552E+00  7.34071E+00  7.34307E+00  7.39109E+00  7.52572E+00
   7.84263E+00  8.86163E+00  1.21121E+01  1.85144E+01  2.75635E+01  3.65458E+01  4.35703E+01  4.92325E+01  5.07974E+01  4.42921E+01
   3.18217E+01  1.92645E+01  1.11400E+01  8.63660E+00  7.96370E+00  6.44253E+00  4.85185E+00  4.00051E+00  4.23158E+00  5.52206E+00
   7.24324E+00  8.59768E+00  9.26948E+00  9.11818E+00  8.32763E+00  7.41504E+00  6.69665E+00  6.22545E+00  5.93218E+00  5.64765E+00
   5.33563E+00  4.99180E+00  4.67539E+00  4.46000E+00  4.36363E+00  4.33721E+00  4.25634E+00  4.00794E+00  3.53706E+00  3.02871E+00
   2.56821E+00  2.14720E+00  2.10455E+00  2.54543E+00  3.26494E+00  3.80409E+00  3.47350E+00  2.27209E+00  1.06517E+00  3.49300E-01
   1.22116E-01  4.18155E-02 -2.90556E-01 -7.60790E-01 -1.11465E+00 -1.31987E+00 -1.55699E+00 -1.53662E+00 -9.87661E-01 -2.16025E-01
   1.38716E-01 -2.46732E-01 -9.81547E-01 -1.20069E+00 -6.95935E-01  2.05391E-01  1.17431E+00  2.23220E+00  3.94557E+00  6.20696E+00
   8.15160E+00  8.97524E+00  8.47225E+00  6.78239E+00  4.55788E+00  2.48734E+00  1.30911E+00  1.26282E+00  2.20620E+00  4.17162E+00
   7.09283E+00  1.04143E+01  1.31855E+01  1.45739E+01  1.40104E+01  1.14628E+01  7.17609E+00  1.82246E+00 -3.08385E+00 -6.33559E+00
  -7.60531E+00 -5.56169E+00  1.16510E-01  7.39247E+00  1.37223E+01  1.76604E+01  1.87036E+01  1.64063E+01  1.04460E+01  2.64061E+00
  -3.72565E+00 -6.79936E+00 -6.69944E+00 -4.46999E+00  1.87774E-01  6.44639E+00  1.17462E+01  1.42114E+01  1.37647E+01  1.19529E+01
   1.03119E+01  8.95446E+00  7.95062E+00  8.04299E+00  9.41486E+00  1.12871E+01  1.26542E+01  1.34562E+01  1.40100E+01  1.39552E+01
   1.28074E+01  1.11910E+01  9.67149E+00  8.62356E+00  8.55202E+00  9.70228E+00  1.14761E+01  1.30497E+01  1.39585E+01  1.42266E+01
   1.47056E+01  1.61639E+01  1.89470E+01  2.28744E+01  2.75438E+01  3.54754E+01  4.95219E+01  6.85592E+01  8.58674E+01  9.79895E+01
   1.08596E+02  1.12798E+02  9.97330E+01  7.12641E+01  4.06963E+01  2.00615E+01  1.34869E+01  1.28056E+01  1.15165E+01  1.03658E+01
   9.57975E+00  9.07197E+00  8.83689E+00  8.90629E+00  9.10363E+00  9.18565E+00  8.96254E+00  8.41823E+00  7.67189E+00  6.94677E+00
   6.36431E+00  5.91888E+00  5.61787E+00  5.46104E+00  5.39671E+00  5.36239E+00  5.31746E+00  5.24732E+00  5.16752E+00  5.10212E+00
   5.06601E+00  5.06044E+00  5.09699E+00  5.16013E+00  5.21542E+00  5.24846E+00  5.26137E+00  5.26733E+00  5.28416E+00  5.30610E+00
   5.33154E+00  5.36966E+00  5.41568E+00  5.45897E+00  5.48989E+00  5.50631E+00  5.52242E+00  5.55269E+00  5.61045E+00  5.71229E+00
   5.87404E+00  6.11280E+00  6.44734E+00  6.89584E+00  7.47566E+00  8.20341E+00  9.09379E+00  1.01578E+01  1.14007E+01  1.28212E+01
   1.44108E+01  1.61546E+01  1.80298E+01  2.00058E+01  2.20437E+01  2.40983E+01  2.61193E+01  2.80541E+01  2.98490E+01  3.14517E+01
   3.28133E+01  3.38917E+01  3.46538E+01  3.50778E+01  3.51535E+01  3.48832E+01  3.42821E+01  3.33788E+01  3.22159E+01  3.08506E+01
   2.93605E+01  2.78699E+01  2.65819E+01  2.54988E+01  2.43600E+01  2.27139E+01  2.04363E+01  1.77447E+01  1.42807E+01  9.85339E+00
   5.63373E+00  3.02655E+00  2.62374E+00  3.77356E+00  5.28811E+00  7.06205E+00  8.95168E+00  9.93785E+00  9.57283E+00  8.27335E+00
   6.87471E+00  6.10436E+00  5.76224E+00  5.52146E+00  5.34131E+00  5.20269E+00  5.09126E+00  4.99776E+00  4.91636E+00  4.84357E+00
   4.77758E+00  4.71827E+00  4.66699E+00  4.62628E+00  4.59934E+00  4.58992E+00  4.60228E+00  4.64149E+00  4.71320E+00  4.82354E+00
   4.97865E+00  5.18485E+00  5.44859E+00  5.77650E+00  6.17492E+00  6.64949E+00  7.20460E+00  7.84331E+00  8.56693E+00  9.37464E+00
   1.02628E+01  1.12243E+01  1.22486E+01  1.33216E+01  1.44257E+01  1.55403E+01  1.66415E+01  1.77035E+01  1.86993E+01  1.96022E+01
   2.03866E+01  2.10297E+01  2.15119E+01  2.18185E+01  2.19401E+01  2.18735E+01  2.16215E+01  2.11929E+01  2.06014E+01  1.98653E+01
   1.90065E+01  1.80493E+01  1.70190E+01  1.59408E+01  1.48385E+01  1.37341E+01  1.26470E+01  1.15937E+01  1.05871E+01  9.63690E+00
   8.74935E+00  7.92814E+00  7.17459E+00  6.48805E+00  5.86610E+00  5.30507E+00  4.80052E+00  4.34776E+00  3.94198E+00  3.57842E+00
   3.25232E+00  2.95917E+00  2.69493E+00  2.45611E+00  2.23963E+00  2.04271E+00  1.86272E+00  1.69743E+00  1.54500E+00  1.40403E+00
   1.27321E+00  1.15135E+00  1.03724E+00  9.30004E-01  8.28949E-01  7.33594E-01  6.43356E-01  5.57658E-01  4.75909E-01  3.97774E-01
   3.23019E-01  2.51483E-01  1.82828E-01  1.16716E-01  5.28342E-02 -8.88890E-03 -6.85168E-02 -1.26132E-01 -1.82014E-01 -2.36394E-01
  -2.89423E-01 -3.41044E-01 -3.91262E-01 -4.40158E-01 -4.87982E-01 -5.34859E-01 -5.80828E-01 -6.25783E-01 -6.69763E-01 -7.12887E-01
  -7.55369E-01 -7.97232E-01 -8.38427E-01 -8.78846E-01 -9.18576E-01 -9.57750E-01 -9.96533E-01 -1.03487E+00 -1.07270E+00 -1.10994E+00
  -1.14673E+00 -1.18321E+00 -1.21947E+00 -1.25538E+00 -1.29087E+00 -1.32594E+00 -1.36077E+00 -1.39545E+00 -1.43000E+00 -1.46428E+00
  -1.49825E+00 -1.53198E+00 -1.56566E+00 -1.59933E+00 -1.63296E+00 -1.66638E+00 -1.69965E+00 -1.73289E+00
 NY background values follow
     7.097E+00    7.077E+00    7.057E+00    7.037E+00    7.017E+00    6.997E+00    6.977E+00    6.958E+00    6.938E+00    6.918E+00
     6.898E+00    6.878E+00    6.858E+00    6.838E+00    6.818E+00    6.798E+00    6.778E+00    6.758E+00    6.738E+00    6.718E+00
     6.698E+00    6.678E+00    6.658E+00    6.638E+00    6.618E+00    6.598E+00    6.578E+00    6.558E+00    6.538E+00    6.518E+00
     6.498E+00    6.478E+00    6.458E+00    6.438E+00    6.418E+00    6.398E+00    6.378E+00    6.358E+00    6.338E+00    6.318E+00
     6.298E+00    6.277E+00    6.257E+00    6.237E+00    6.217E+00    6.197E+00    6.177E+00    6.157E+00    6.137E+00    6.117E+00
     6.096E+00    6.076E+00    6.056E+00    6.036E+00    6.016E+00    5.996E+00    5.976E+00    5.955E+00    5.935E+00    5.915E+00
     5.895E+00    5.875E+00    5.855E+00    5.834E+00    5.814E+00    5.794E+00    5.774E+00    5.754E+00    5.733E+00    5.713E+00
     5.693E+00    5.673E+00    5.652E+00    5.632E+00    5.612E+00    5.592E+00    5.572E+00    5.551E+00    5.531E+00    5.511E+00
     5.490E+00    5.470E+00    5.450E+00    5.430E+00    5.409E+00    5.389E+00    5.369E+00    5.349E+00    5.328E+00    5.308E+00
     5.288E+00    5.267E+00    5.247E+00    5.227E+00    5.206E+00    5.186E+00    5.166E+00    5.146E+00    5.125E+00    5.105E+00
     5.085E+00    5.064E+00    5.044E+00    5.024E+00    5.003E+00    4.983E+00    4.962E+00    4.942E+00    4.922E+00    4.901E+00
     4.881E+00    4.861E+00    4.840E+00    4.820E+00    4.800E+00    4.779E+00    4.759E+00    4.738E+00    4.718E+00    4.698E+00
     4.677E+00    4.657E+00    4.636E+00    4.616E+00    4.596E+00    4.575E+00    4.555E+00    4.534E+00    4.514E+00    4.494E+00
     4.473E+00    4.453E+00    4.432E+00    4.412E+00    4.391E+00    4.371E+00    4.350E+00    4.330E+00    4.310E+00    4.289E+00
     4.269E+00    4.248E+00    4.228E+00    4.207E+00    4.187E+00    4.166E+00    4.146E+00    4.125E+00    4.105E+00    4.084E+00
     4.064E+00    4.044E+00    4.023E+00    4.003E+00    3.982E+00    3.962E+00    3.941E+00    3.921E+00    3.900E+00    3.880E+00
     3.859E+00    3.839E+00    3.818E+00    3.798E+00    3.777E+00    3.757E+00    3.736E+00    3.716E+00    3.695E+00    3.674E+00
     3.654E+00    3.633E+00    3.613E+00    3.592E+00    3.572E+00    3.551E+00    3.531E+00    3.510E+00    3.490E+00    3.469E+00
     3.449E+00    3.428E+00    3.408E+00    3.387E+00    3.366E+00    3.346E+00    3.325E+00    3.305E+00    3.284E+00    3.264E+00
     3.243E+00    3.223E+00    3.202E+00    3.181E+00    3.161E+00    3.140E+00    3.120E+00    3.099E+00    3.079E+00    3.058E+00
     3.038E+00    3.017E+00    2.996E+00    2.976E+00    2.955E+00    2.935E+00    2.914E+00    2.894E+00    2.873E+00    2.852E+00
     2.832E+00    2.811E+00    2.791E+00    2.770E+00    2.749E+00    2.729E+00    2.708E+00    2.688E+00    2.667E+00    2.647E+00
     2.626E+00    2.605E+00    2.585E+00    2.564E+00    2.544E+00    2.523E+00    2.502E+00    2.482E+00    2.461E+00    2.441E+00
     2.420E+00    2.399E+00    2.379E+00    2.358E+00    2.338E+00    2.317E+00    2.296E+00    2.276E+00    2.255E+00    2.235E+00
     2.214E+00    2.193E+00    2.173E+00    2.152E+00    2.132E+00    2.111E+00    2.090E+00    2.070E+00    2.049E+00    2.029E+00
     2.008E+00    1.987E+00    1.967E+00    1.946E+00    1.926E+00    1.905E+00    1.884E+00    1.864E+00    1.843E+00    1.823E+00
     1.802E+00    1.781E+00    1.761E+00    1.740E+00    1.720E+00    1.699E+00    1.678E+00    1.658E+00    1.637E+00    1.617E+00
     1.596E+00    1.575E+00    1.555E+00    1.534E+00    1.514E+00    1.493E+00    1.472E+00    1.452E+00    1.431E+00    1.411E+00
     1.390E+00    1.369E+00    1.349E+00    1.328E+00    1.308E+00    1.287E+00    1.266E+00    1.246E+00    1.225E+00    1.205E+00
     1.184E+00    1.163E+00    1.143E+00    1.122E+00    1.102E+00    1.081E+00    1.061E+00    1.040E+00    1.019E+00    9.988E-01
     9.782E-01    9.576E-01    9.370E-01    9.165E-01    8.959E-01    8.753E-01    8.547E-01    8.342E-01    8.136E-01    7.930E-01
     7.725E-01    7.519E-01    7.313E-01    7.107E-01    6.902E-01    6.696E-01    6.491E-01    6.285E-01    6.079E-01    5.874E-01
     5.668E-01    5.463E-01    5.257E-01    5.052E-01    4.846E-01    4.641E-01    4.435E-01    4.230E-01    4.024E-01    3.819E-01
     3.613E-01    3.408E-01    3.202E-01    2.997E-01    2.792E-01    2.586E-01    2.381E-01    2.176E-01    1.970E-01    1.765E-01
     1.560E-01    1.355E-01    1.150E-01    9.444E-02    7.392E-02    5.340E-02    3.289E-02    1.238E-02   -8.130E-03   -2.864E-02
    -4.914E-02   -6.964E-02   -9.015E-02   -1.106E-01   -1.311E-01   -1.516E-01   -1.721E-01   -1.926E-01   -2.131E-01   -2.336E-01
    -2.541E-01   -2.746E-01   -2.950E-01   -3.155E-01   -3.360E-01   -3.565E-01   -3.769E-01   -3.974E-01   -4.179E-01   -4.383E-01
    -4.588E-01   -4.792E-01   -4.997E-01   -5.201E-01   -5.406E-01   -5.610E-01   -5.815E-01   -6.019E-01   -6.224E-01   -6.428E-01
    -6.632E-01   -6.837E-01   -7.041E-01   -7.245E-01   -7.449E-01   -7.653E-01   -7.858E-01   -8.062E-01   -8.266E-01   -8.470E-01
    -8.674E-01   -8.878E-01   -9.082E-01   -9.286E-01   -9.490E-01   -9.694E-01   -9.898E-01   -1.010E+00   -1.031E+00   -1.051E+00
    -1.071E+00   -1.092E+00   -1.112E+00   -1.132E+00   -1.153E+00   -1.173E+00   -1.193E+00   -1.214E+00   -1.234E+00   -1.255E+00
    -1.275E+00   -1.295E+00   -1.316E+00   -1.336E+00   -1.356E+00   -1.377E+00   -1.397E+00   -1.417E+00   -1.437E+00   -1.458E+00
    -1.478E+00   -1.498E+00   -1.519E+00   -1.539E+00   -1.559E+00   -1.580E+00   -1.600E+00   -1.620E+00   -1.640E+00   -1.661E+00
    -1.681E+00   -1.701E+00   -1.721E+00   -1.742E+00   -1.762E+00   -1.782E+00   -1.802E+00   -1.823E+00   -1.843E+00   -1.863E+00
    -1.883E+00   -1.904E+00   -1.924E+00   -1.944E+00   -1.964E+00   -1.985E+00   -2.005E+00   -2.025E+00   -2.045E+00   -2.065E+00
    -2.085E+00   -2.106E+00   -2.126E+00   -2.146E+00   -2.166E+00   -2.186E+00   -2.207E+00   -2.227E+00   -2.247E+00   -2.267E+00
    -2.287E+00   -2.307E+00   -2.327E+00   -2.348E+00   -2.368E+00   -2.388E+00   -2.408E+00   -2.428E+00   -2.448E+00   -2.468E+00
    -2.488E+00   -2.508E+00   -2.529E+00   -2.549E+00   -2.569E+00   -2.589E+00   -2.609E+00   -2.629E+00   -2.649E+00   -2.669E+00
    -2.689E+00   -2.709E+00   -2.729E+00   -2.749E+00   -2.769E+00   -2.789E+00   -2.809E+00   -2.829E+00   -2.849E+00   -2.869E+00
    -2.889E+00   -2.909E+00   -2.929E+00   -2.949E+00   -2.969E+00   -2.989E+00   -3.009E+00   -3.029E+00
 Asp      Conc. = 7.35E+01
