 LCModel (Version 6.3-1L) Copyright: S.W. Provencher.          Ref.: Magn. Reson. Med. 30:672-679 (1993).                
 Slice#1 Row#3 Col#4  PD_05_press_2_raw_act
 36 lines in following concentration table = NCONC+1
    Conc.  %SD /Cr+PCr  Metabolite                                         
  235.904 138%   0.189 Ala                                                 
  425.234  75%   0.340 Asp                                                 
    0.000 999%   0.000 Cr                                                  
 1.25E+03  11%   1.000 PCr                                                 
   96.464 204% 7.7E-02 GABA                                                
  172.666 113%   0.138 Glc                                                 
 1.44E+03  45%   1.148 Gln                                                 
 1.16E+03  63%   0.930 Glu                                                 
    0.000 999%   0.000 GPC                                                 
  577.597   9%   0.462 PCh                                                 
  292.006  68%   0.234 GSH                                                 
 1.54E+03  43%   1.232 Ins                                                 
    0.000 999%   0.000 Lac                                                 
 3.04E+03   6%   2.429 NAA                                                 
    0.000 999%   0.000 NAAG                                                
  135.784  38%   0.109 Scyllo                                              
  465.318  66%   0.372 Tau                                                 
  455.940  49%   0.365 -CrCH2                                              
  577.597   9%   0.462 GPC+PCh                                             
 3.04E+03   6%   2.429 NAA+NAAG                                            
 1.25E+03  11%   1.000 Cr+PCr                                              
 2.60E+03  41%   2.078 Glu+Gln                                             
  578.144 207%   0.462 Lip13a                                              
  261.342 214%   0.209 Lip13b                                              
    0.000 999%   0.000 Lip09                                               
 2.37E+03  18%   1.895 MM09                                                
  295.488  96%   0.236 Lip20                                               
 5.05E+03  17%   4.038 MM20                                                
  752.922  42%   0.602 MM12                                                
 3.95E+03  22%   3.161 MM14                                                
 2.88E+03  23%   2.303 MM17                                                
  839.486  98%   0.671 Lip13a+Lip13b                                       
 5.55E+03  17%   4.434 MM14+Lip13a+Lip13b+MM12                             
 2.37E+03  18%   1.895 MM09+Lip09                                          
 5.34E+03  16%   4.274 MM20+Lip20                                          
   6 lines in following misc. output table
  FWHM = 0.054 ppm    S/N =   6                                            
  Data shift = 0.031 ppm                                                   
  Ph: -74 deg     -28.6 deg/ppm                                            
  alphaB,S = 1.4E+00,   1.2E+02                                            
   14 spline knots.   Ns = 7(1)                                            
  (12) 4 infls.   (10) 1 extrs.                                            
  498 points on ppm-axis = NY
      4.000000     3.992357     3.984714     3.977070     3.969427     3.961784     3.954141     3.946497     3.938854     3.931211
      3.923568     3.915925     3.908281     3.900638     3.892995     3.885352     3.877708     3.870065     3.862422     3.854779
      3.847136     3.839492     3.831849     3.824206     3.816563     3.808919     3.801276     3.793633     3.785990     3.778347
      3.770703     3.763060     3.755417     3.747774     3.740130     3.732487     3.724844     3.717201     3.709558     3.701914
      3.694271     3.686628     3.678985     3.671341     3.663698     3.656055     3.648412     3.640769     3.633125     3.625482
      3.617839     3.610196     3.602552     3.594909     3.587266     3.579623     3.571980     3.564336     3.556693     3.549050
      3.541407     3.533763     3.526120     3.518477     3.510834     3.503191     3.495547     3.487904     3.480261     3.472618
      3.464974     3.457331     3.449688     3.442045     3.434402     3.426758     3.419115     3.411472     3.403829     3.396185
      3.388542     3.380899     3.373256     3.365613     3.357969     3.350326     3.342683     3.335040     3.327396     3.319753
      3.312110     3.304467     3.296824     3.289180     3.281537     3.273894     3.266251     3.258607     3.250964     3.243321
      3.235678     3.228034     3.220391     3.212748     3.205105     3.197462     3.189818     3.182175     3.174532     3.166889
      3.159245     3.151602     3.143959     3.136316     3.128673     3.121029     3.113386     3.105743     3.098100     3.090456
      3.082813     3.075170     3.067527     3.059884     3.052240     3.044597     3.036954     3.029311     3.021667     3.014024
      3.006381     2.998738     2.991095     2.983451     2.975808     2.968165     2.960522     2.952878     2.945235     2.937592
      2.929949     2.922306     2.914662     2.907019     2.899376     2.891733     2.884089     2.876446     2.868803     2.861160
      2.853517     2.845873     2.838230     2.830587     2.822944     2.815300     2.807657     2.800014     2.792371     2.784728
      2.777084     2.769441     2.761798     2.754155     2.746511     2.738868     2.731225     2.723582     2.715939     2.708295
      2.700652     2.693009     2.685366     2.677722     2.670079     2.662436     2.654793     2.647150     2.639506     2.631863
      2.624220     2.616577     2.608933     2.601290     2.593647     2.586004     2.578361     2.570717     2.563074     2.555431
      2.547788     2.540144     2.532501     2.524858     2.517215     2.509572     2.501928     2.494285     2.486642     2.478999
      2.471355     2.463712     2.456069     2.448426     2.440783     2.433139     2.425496     2.417853     2.410210     2.402566
      2.394923     2.387280     2.379637     2.371994     2.364350     2.356707     2.349064     2.341421     2.333777     2.326134
      2.318491     2.310848     2.303205     2.295561     2.287918     2.280275     2.272632     2.264988     2.257345     2.249702
      2.242059     2.234416     2.226772     2.219129     2.211486     2.203843     2.196199     2.188556     2.180913     2.173270
      2.165627     2.157983     2.150340     2.142697     2.135054     2.127410     2.119767     2.112124     2.104481     2.096838
      2.089194     2.081551     2.073908     2.066265     2.058621     2.050978     2.043335     2.035692     2.028049     2.020405
      2.012762     2.005119     1.997476     1.989833     1.982190     1.974546     1.966903     1.959260     1.951617     1.943974
      1.936331     1.928688     1.921045     1.913402     1.905759     1.898115     1.890472     1.882829     1.875186     1.867543
      1.859900     1.852257     1.844614     1.836971     1.829327     1.821684     1.814041     1.806398     1.798755     1.791112
      1.783469     1.775826     1.768183     1.760540     1.752896     1.745253     1.737610     1.729967     1.722324     1.714681
      1.707038     1.699395     1.691752     1.684108     1.676465     1.668822     1.661179     1.653536     1.645893     1.638250
      1.630607     1.622964     1.615321     1.607677     1.600034     1.592391     1.584748     1.577105     1.569462     1.561819
      1.554176     1.546533     1.538890     1.531246     1.523603     1.515960     1.508317     1.500674     1.493031     1.485388
      1.477745     1.470102     1.462458     1.454815     1.447172     1.439529     1.431886     1.424243     1.416600     1.408957
      1.401314     1.393671     1.386027     1.378384     1.370741     1.363098     1.355455     1.347812     1.340169     1.332526
      1.324883     1.317240     1.309596     1.301953     1.294310     1.286667     1.279024     1.271381     1.263738     1.256095
      1.248452     1.240808     1.233165     1.225522     1.217879     1.210236     1.202593     1.194950     1.187307     1.179664
      1.172021     1.164377     1.156734     1.149091     1.141448     1.133805     1.126162     1.118519     1.110876     1.103233
      1.095590     1.087946     1.080303     1.072660     1.065017     1.057374     1.049731     1.042088     1.034445     1.026802
      1.019158     1.011515     1.003872     0.996229     0.988586     0.980943     0.973300     0.965657     0.958014     0.950371
      0.942727     0.935084     0.927441     0.919798     0.912155     0.904512     0.896869     0.889226     0.881583     0.873940
      0.866296     0.858653     0.851010     0.843367     0.835724     0.828081     0.820438     0.812795     0.805152     0.797508
      0.789865     0.782222     0.774579     0.766936     0.759293     0.751650     0.744007     0.736364     0.728721     0.721077
      0.713434     0.705791     0.698148     0.690505     0.682862     0.675219     0.667576     0.659933     0.652290     0.644646
      0.637003     0.629360     0.621717     0.614074     0.606431     0.598788     0.591145     0.583502     0.575858     0.568215
      0.560572     0.552929     0.545286     0.537643     0.530000     0.522357     0.514714     0.507071     0.499427     0.491784
      0.484141     0.476498     0.468855     0.461212     0.453569     0.445925     0.438282     0.430639     0.422996     0.415353
      0.407710     0.400067     0.392424     0.384780     0.377137     0.369494     0.361851     0.354208     0.346565     0.338922
      0.331278     0.323635     0.315992     0.308349     0.300706     0.293063     0.285420     0.277777     0.270133     0.262490
      0.254847     0.247204     0.239561     0.231918     0.224275     0.216631     0.208988     0.201345
 NY phased data points follow
  -7.40930E+01 -5.90067E+01 -5.81309E+01 -4.74139E+01 -6.37497E+01 -6.19994E+01 -5.11527E+01 -3.98317E+01 -4.49958E+01 -3.88632E+01
  -1.64852E+01 -3.11371E+01 -4.72564E+01 -4.96786E+01 -6.52490E+01 -5.19816E+01 -6.39569E+01 -5.11066E+01 -6.06176E+01 -5.65458E+01
  -7.38371E+01 -5.98703E+01 -6.58495E+01 -6.23034E+01 -5.14508E+01 -4.41872E+01 -4.58460E+01 -3.65780E+01 -4.89038E+01 -3.93878E+01
  -2.47771E+01 -3.39751E+01 -3.80862E+01 -4.65412E+01 -5.72683E+01 -4.27980E+01 -4.68633E+01 -3.64210E+01 -5.28691E+01 -3.08879E+01
  -5.14314E+01 -4.06955E+01 -4.93852E+01 -3.66630E+01 -2.77056E+01 -1.71975E+01 -3.16600E+01 -2.56176E+01 -3.49046E+01 -1.97286E+01
  -3.89331E+01 -3.13436E+01 -5.04227E+01 -2.93723E+01 -2.22228E+01 -3.41855E+01 -3.58918E+01 -2.61936E+01 -3.42195E+01 -3.68913E+01
  -4.17940E+01 -3.28083E+01 -2.45765E+01 -3.77783E+01 -4.58193E+01 -4.12598E+01 -3.79205E+01 -3.19608E+01 -3.94361E+01 -2.79819E+01
  -3.22808E+01 -2.29042E+01 -3.33639E+01 -4.31564E+01 -1.83478E+01 -3.17849E+01 -2.82668E+01 -2.22259E+01 -2.41137E+01 -2.83730E+01
  -2.93842E+01 -2.56915E+01 -3.53545E+01 -3.63167E+01 -2.39747E+01 -2.68985E+01 -2.55313E+01 -1.72509E+01 -1.58822E+01 -9.12731E+00
  -2.66697E+01 -1.80770E+01 -3.49003E+01 -1.71091E+01 -1.94254E+01 -2.06932E+01 -1.92918E+01 -7.80254E+00  6.84231E+00  4.78568E+00
   7.87256E+00  2.51204E+01  2.28481E+01  1.64286E+01  1.52187E+01  1.76072E+01  8.41821E+00 -7.40968E-03 -1.79789E+00 -5.64712E-01
  -2.16555E+01 -1.29779E+01 -3.10752E+01 -1.54385E+01 -3.38748E+01 -1.62023E+01 -1.78214E+01 -2.41220E+01 -1.98821E+01 -2.86742E+01
  -3.55710E+01 -8.44469E+00 -1.16716E+01 -8.46226E+00 -1.30207E+01  7.19692E+00  3.22385E+01  4.37658E+01  2.10094E+01  2.52691E+01
   1.94024E+00  4.11684E-01 -4.08586E+00  5.34055E+00 -5.26926E+00 -1.51378E+01 -1.75020E+01 -8.54939E+00 -2.14223E+01 -1.47859E+01
  -1.70703E+01 -1.44316E+01 -1.22694E+01 -1.23114E+01 -2.00896E+01 -1.35830E+01 -1.90961E+01 -1.32269E+01 -3.06578E+01 -2.49397E+01
  -1.94196E+01 -9.01108E+00 -1.98367E+01  2.64372E+00 -1.97130E+01 -9.48010E+00 -1.11349E+01 -2.12564E+01 -1.90945E+01 -5.68733E+00
  -1.74453E+01 -2.92539E+00 -2.89827E+01 -1.03920E+01 -2.43886E+00  3.59385E+00 -8.70420E+00  1.65248E-01 -1.29985E+01 -1.49256E+00
  -1.80302E+01  2.98779E+00 -3.48145E+00 -2.05223E+00 -1.69721E+01 -1.45981E+01 -1.72957E+01 -2.33556E+01 -2.05058E+01 -8.37809E+00
  -1.14270E+01 -7.89295E+00 -1.49242E+01 -2.00540E+01  1.92794E+00 -8.86233E+00 -1.52369E+01 -5.35222E+00  5.25896E+00  1.56015E+00
  -5.98148E+00  1.63485E+01 -1.60812E+01 -4.32830E+00  1.30844E+00 -2.45692E+01 -6.79912E+00  2.95418E-01  1.33266E+00 -6.70857E+00
   4.16378E+00  1.03994E+01  5.33192E+00 -2.74585E+00  5.22861E+00  9.68441E+00  1.07581E+01 -9.23519E+00 -1.25859E+01  3.53671E+00
   6.43099E+00  1.64315E+00  4.15384E+00 -6.36426E-01  1.08360E+01  2.56475E+01  2.14265E+01  1.64438E+01  2.34223E+01  1.09100E+01
   1.22849E+01  7.96625E+00  6.42854E+00  1.38243E+01  1.59675E+01  1.31831E+01  1.85674E+01  2.72475E+01  1.52805E+01  1.93381E+01
   1.56592E+01  2.31770E+01  1.40736E+01  2.87942E+01  2.47957E+01  1.61691E+00  1.82414E+01  2.92973E+01  1.58649E+01  1.24821E+01
   2.46317E+01  7.49572E+00  2.20477E+01  1.63126E+01  7.89453E+00  2.17435E+01  2.62856E+01  2.06110E+01  3.12383E+01  2.50719E+01
   1.41756E+01  7.36639E+00 -1.03766E+01  3.10638E+01  4.46679E+01  4.95506E+01  4.71442E+01  5.41953E+01  8.52974E+01  9.79176E+01
   1.18618E+02  1.16221E+02  1.22810E+02  1.06830E+02  7.99662E+01  7.60969E+01  5.01725E+01  5.97645E+01  4.33456E+01  4.48787E+01
   3.07396E+01  3.87972E+01  3.33341E+01  3.15729E+01  2.89471E+01  3.12140E+01  2.88818E+01  2.77129E+01  1.88275E+01  1.42620E+01
   2.15340E+01  2.98971E+01  2.72716E+01  2.37362E+01  1.19184E+01  1.43738E+01  9.19693E+00  3.83818E+01  1.89588E+01  1.57772E+01
   7.49859E+00  2.92035E+01  1.75151E+01  6.43766E+00  2.58630E+01  2.69338E+01  3.19998E+01  2.88344E+01  3.42477E+01  1.92325E+01
   2.89152E+01  8.22016E+00  3.38309E+00  9.86179E+00  3.34220E+01  3.53665E+01  1.81717E+01  2.30810E+01  3.84949E+01  2.48850E+01
   3.74193E+01  4.35855E+01  4.26735E+01  5.04709E+01  5.32658E+01  4.94383E+01  4.29559E+01  4.44647E+01  4.14560E+01  5.13485E+01
   5.80961E+01  5.68269E+01  4.19740E+01  5.05497E+01  5.50333E+01  4.63640E+01  5.49743E+01  4.38977E+01  4.90343E+01  4.58027E+01
   3.25523E+01  4.27330E+01  3.37208E+01  4.86400E+01  4.35598E+01  3.55887E+01  4.95803E+01  3.40518E+01  4.52369E+01  5.31949E+01
   2.73589E+01  3.62204E+01  3.04782E+01  3.34438E+01  2.70233E+01  3.24320E+01  4.10671E+01  3.52639E+01  1.87812E+01  2.62825E+01
   3.51162E+01  4.84428E+01  3.68020E+01  4.22523E+01  3.51979E+01  3.34360E+01  3.71949E+01  3.06228E+01  2.71539E+01  1.34725E+01
   3.37725E+01  3.09851E+01  2.70232E+01  4.24305E+01  2.67274E+01  3.63521E+01  3.06463E+01  3.08543E+01  1.99514E+01  2.85696E+01
   2.10340E+01  3.19952E+01  1.75402E+01  2.92061E+01  2.89943E+01  2.30703E+01  4.09575E+01  3.35522E+01  3.45147E+01  2.38860E+01
   3.02949E+01  2.70368E+01  4.23026E+01  3.53810E+01  3.83860E+01  3.29812E+01  3.62284E+01  2.88207E+01  2.94935E+01  3.60781E+01
   3.22566E+01  3.17991E+01  3.52405E+01  2.88688E+01  3.98694E+01  3.39031E+01  3.62566E+01  2.47875E+01  4.90723E+01  3.85980E+01
   2.32273E+01  2.87711E+01  4.24578E+01  3.82885E+01  3.70646E+01  3.37515E+01  3.63046E+01  3.38978E+01  3.04843E+01  3.41179E+01
   3.37928E+01  3.57016E+01  3.75836E+01  2.88273E+01  2.22744E+01  4.02336E+01  2.52392E+01  2.21790E+01  2.53338E+01  2.88342E+01
   2.31141E+01  3.77705E+01  2.28686E+01  2.86893E+01  4.09316E+01  2.32947E+01  2.99942E+01  2.93657E+01  1.73774E+01  2.61089E+01
   2.65118E+01  3.03409E+01  2.39881E+01  2.66393E+01  1.25153E+01  2.90026E+01  1.85750E+01  1.67677E+01  2.59749E+01  2.23549E+01
   1.92627E+01  1.58083E+01  3.14133E+01  2.05502E+01  2.06273E+01  2.69067E+01  1.74211E+01  2.17682E+01  2.75644E+01  3.24420E+01
   1.41594E+01  2.86248E+01  1.94668E+01  2.18996E+01  2.32958E+01  2.34144E+01  2.34708E+01  1.81115E+01  2.51738E+01  1.25509E+01
   2.76865E+01  2.86837E+01  2.35460E+01  2.40322E+01  2.02576E+01  2.45782E+01  3.49217E+01  1.16297E+01  3.43897E+01  1.44115E+01
   3.31159E+01  3.10751E+01  1.62692E+01  1.81329E+01  2.82208E+01  2.36799E+01  2.25906E+01  3.11153E+01  1.06912E+01  3.88034E+01
   3.92462E+01  2.58460E+01  1.01969E+01  1.09243E+01  3.63320E+01  2.81284E+01  3.18905E+01  1.68927E+01  2.50793E+01  1.69686E+01
   4.23059E+00  2.75400E+01  2.02366E+01  1.29644E+01  1.99107E+01  1.98997E+01  1.11189E+01  2.17083E+01
 NY points of the fit to the data follow
  -5.42681E+01 -5.46574E+01 -5.43853E+01 -5.33101E+01 -5.16198E+01 -4.93124E+01 -4.63971E+01 -4.31273E+01 -4.01328E+01 -3.81598E+01
  -3.76842E+01 -3.87096E+01 -4.07779E+01 -4.31733E+01 -4.52924E+01 -4.69807E+01 -4.84547E+01 -4.97563E+01 -5.02715E+01 -4.98872E+01
  -4.92207E+01 -4.85225E+01 -4.79276E+01 -4.74387E+01 -4.70826E+01 -4.66447E+01 -4.58321E+01 -4.44252E+01 -4.24020E+01 -4.00432E+01
  -3.78099E+01 -3.62383E+01 -3.57240E+01 -3.62519E+01 -3.74837E+01 -3.91051E+01 -4.07799E+01 -4.22744E+01 -4.33481E+01 -4.38069E+01
  -4.36510E+01 -4.27795E+01 -4.13234E+01 -3.94386E+01 -3.72324E+01 -3.49593E+01 -3.30928E+01 -3.21504E+01 -3.23579E+01 -3.34987E+01
  -3.51223E+01 -3.67321E+01 -3.78946E+01 -3.85194E+01 -3.87555E+01 -3.86177E+01 -3.79488E+01 -3.67847E+01 -3.54792E+01 -3.44220E+01
  -3.37680E+01 -3.35399E+01 -3.36496E+01 -3.39263E+01 -3.41456E+01 -3.41161E+01 -3.38583E+01 -3.34752E+01 -3.29291E+01 -3.21872E+01
  -3.13231E+01 -3.04408E+01 -2.96431E+01 -2.90101E+01 -2.86271E+01 -2.85200E+01 -2.86592E+01 -2.89933E+01 -2.93519E+01 -2.95021E+01
  -2.92080E+01 -2.85114E+01 -2.75929E+01 -2.65699E+01 -2.55177E+01 -2.46415E+01 -2.42490E+01 -2.44421E+01 -2.50854E+01 -2.59041E+01
  -2.66182E+01 -2.70500E+01 -2.72142E+01 -2.72520E+01 -2.70237E+01 -2.54550E+01 -2.14709E+01 -1.57284E+01 -8.55589E+00  1.78980E-01
   9.92521E+00  1.89192E+01  2.48324E+01  2.60918E+01  2.26632E+01  1.59306E+01  8.00765E+00  7.15976E-01 -5.38684E+00 -1.08760E+01
  -1.59578E+01 -1.93659E+01 -2.04070E+01 -2.06145E+01 -2.06065E+01 -2.05044E+01 -2.03544E+01 -2.01301E+01 -1.97966E+01 -1.90968E+01
  -1.70665E+01 -1.34149E+01 -8.51287E+00 -2.31920E+00  5.14457E+00  1.29873E+01  1.94924E+01  2.29736E+01  2.26557E+01  1.89880E+01
   1.33734E+01  7.44036E+00  2.14688E+00 -2.55906E+00 -7.10739E+00 -1.10940E+01 -1.31799E+01 -1.37094E+01 -1.36914E+01 -1.34062E+01
  -1.30296E+01 -1.26771E+01 -1.23553E+01 -1.20686E+01 -1.18667E+01 -1.17630E+01 -1.17733E+01 -1.19007E+01 -1.20843E+01 -1.22518E+01
  -1.23486E+01 -1.23778E+01 -1.23736E+01 -1.23486E+01 -1.23339E+01 -1.23771E+01 -1.24991E+01 -1.27189E+01 -1.30044E+01 -1.32925E+01
  -1.35093E+01 -1.35241E+01 -1.32409E+01 -1.26975E+01 -1.20620E+01 -1.15381E+01 -1.12581E+01 -1.12205E+01 -1.13263E+01 -1.15018E+01
  -1.17907E+01 -1.21852E+01 -1.25952E+01 -1.29938E+01 -1.33096E+01 -1.34822E+01 -1.34540E+01 -1.31830E+01 -1.27601E+01 -1.23324E+01
  -1.20025E+01 -1.17605E+01 -1.14312E+01 -1.08994E+01 -1.01897E+01 -9.41898E+00 -8.63293E+00 -7.65125E+00 -6.39128E+00 -5.05560E+00
  -3.96939E+00 -3.37916E+00 -3.25090E+00 -3.37566E+00 -3.47073E+00 -3.35410E+00 -3.01222E+00 -2.36945E+00 -1.20018E+00  4.59792E-01
   2.39538E+00  4.31536E+00  5.79660E+00  6.34065E+00  5.82104E+00  4.29000E+00  1.90876E+00 -9.54390E-01 -3.58639E+00 -5.13531E+00
  -5.17403E+00 -3.81971E+00 -1.45517E+00  1.48677E+00  4.45190E+00  6.78502E+00  8.13138E+00  8.48682E+00  7.87140E+00  6.44049E+00
   5.00997E+00  4.22363E+00  4.21919E+00  4.95097E+00  6.34212E+00  8.17089E+00  9.96551E+00  1.13798E+01  1.23182E+01  1.28134E+01
   1.30461E+01  1.31146E+01  1.31257E+01  1.33288E+01  1.39508E+01  1.49817E+01  1.62807E+01  1.77219E+01  1.91059E+01  2.00980E+01
   2.04037E+01  2.00945E+01  1.95544E+01  1.91438E+01  1.90003E+01  1.91444E+01  1.97079E+01  2.06274E+01  2.17553E+01  2.30629E+01
   2.45604E+01  2.60462E+01  2.74201E+01  2.96704E+01  3.50466E+01  4.35298E+01  5.45667E+01  6.85772E+01  8.52137E+01  1.01840E+02
   1.14230E+02  1.18793E+02  1.14471E+02  1.02962E+02  8.78932E+01  7.29912E+01  6.00459E+01  4.85573E+01  3.77000E+01  2.90059E+01
   2.48851E+01  2.32561E+01  2.23266E+01  2.17236E+01  2.12745E+01  2.08695E+01  2.04737E+01  2.00644E+01  1.96398E+01  1.92134E+01
   1.88032E+01  1.84204E+01  1.80893E+01  1.78310E+01  1.76433E+01  1.75177E+01  1.74466E+01  1.74195E+01  1.74306E+01  1.74770E+01
   1.75580E+01  1.76804E+01  1.78507E+01  1.80756E+01  1.83670E+01  1.87381E+01  1.91991E+01  1.97575E+01  2.04223E+01  2.12025E+01
   2.21038E+01  2.31305E+01  2.42846E+01  2.55624E+01  2.69567E+01  2.84563E+01  3.00450E+01  3.17021E+01  3.34023E+01  3.51163E+01
   3.68126E+01  3.84590E+01  4.00245E+01  4.14799E+01  4.28003E+01  4.39665E+01  4.49669E+01  4.57989E+01  4.64723E+01  4.70170E+01
   4.74884E+01  4.78645E+01  4.80876E+01  4.81506E+01  4.80260E+01  4.76225E+01  4.68357E+01  4.56375E+01  4.41822E+01  4.27319E+01
   4.14792E+01  4.05609E+01  4.00485E+01  3.99145E+01  4.00482E+01  4.03221E+01  4.06004E+01  4.06476E+01  4.03330E+01  3.97403E+01
   3.90030E+01  3.82060E+01  3.73506E+01  3.64301E+01  3.55677E+01  3.48752E+01  3.43254E+01  3.39029E+01  3.36033E+01  3.34204E+01
   3.33400E+01  3.33381E+01  3.33815E+01  3.34305E+01  3.34443E+01  3.33866E+01  3.32323E+01  3.29701E+01  3.26045E+01  3.21534E+01
   3.16449E+01  3.11109E+01  3.05823E+01  3.00837E+01  2.96321E+01  2.92354E+01  2.88950E+01  2.86068E+01  2.83644E+01  2.81608E+01
   2.79899E+01  2.78476E+01  2.77320E+01  2.76431E+01  2.75829E+01  2.75542E+01  2.75606E+01  2.76065E+01  2.76963E+01  2.78346E+01
   2.80254E+01  2.82723E+01  2.85783E+01  2.89453E+01  2.93746E+01  2.98657E+01  3.04166E+01  3.10234E+01  3.16804E+01  3.23799E+01
   3.31119E+01  3.38645E+01  3.46238E+01  3.53742E+01  3.60994E+01  3.67820E+01  3.74054E+01  3.79529E+01  3.84098E+01  3.87632E+01
   3.90032E+01  3.91230E+01  3.91194E+01  3.89927E+01  3.87469E+01  3.83892E+01  3.79302E+01  3.73826E+01  3.67609E+01  3.60808E+01
   3.53583E+01  3.46090E+01  3.38482E+01  3.30894E+01  3.23446E+01  3.16237E+01  3.09349E+01  3.02843E+01  2.96762E+01  2.91129E+01
   2.85956E+01  2.81237E+01  2.76962E+01  2.73109E+01  2.69655E+01  2.66570E+01  2.63822E+01  2.61381E+01  2.59217E+01  2.57301E+01
   2.55607E+01  2.54110E+01  2.52788E+01  2.51618E+01  2.50587E+01  2.49676E+01  2.48873E+01  2.48164E+01  2.47539E+01  2.46989E+01
   2.46507E+01  2.46084E+01  2.45716E+01  2.45395E+01  2.45118E+01  2.44880E+01  2.44678E+01  2.44509E+01  2.44369E+01  2.44255E+01
   2.44166E+01  2.44100E+01  2.44055E+01  2.44030E+01  2.44022E+01  2.44029E+01  2.44052E+01  2.44090E+01  2.44141E+01  2.44203E+01
   2.44277E+01  2.44361E+01  2.44455E+01  2.44558E+01  2.44671E+01  2.44791E+01  2.44919E+01  2.45053E+01  2.45195E+01  2.45343E+01
   2.45497E+01  2.45657E+01  2.45821E+01  2.45991E+01  2.46166E+01  2.46345E+01  2.46529E+01  2.46716E+01  2.46908E+01  2.47103E+01
   2.47302E+01  2.47505E+01  2.47710E+01  2.47918E+01  2.48129E+01  2.48344E+01  2.48561E+01  2.48781E+01  2.49003E+01  2.49227E+01
   2.49454E+01  2.49683E+01  2.49915E+01  2.50148E+01  2.50383E+01  2.50620E+01  2.50860E+01  2.51101E+01
 NY background values follow
    -5.842E+01   -5.811E+01   -5.781E+01   -5.750E+01   -5.720E+01   -5.689E+01   -5.658E+01   -5.628E+01   -5.597E+01   -5.566E+01
    -5.536E+01   -5.505E+01   -5.475E+01   -5.444E+01   -5.413E+01   -5.383E+01   -5.352E+01   -5.322E+01   -5.291E+01   -5.261E+01
    -5.230E+01   -5.199E+01   -5.169E+01   -5.138E+01   -5.108E+01   -5.077E+01   -5.047E+01   -5.016E+01   -4.986E+01   -4.955E+01
    -4.925E+01   -4.894E+01   -4.864E+01   -4.833E+01   -4.803E+01   -4.772E+01   -4.742E+01   -4.712E+01   -4.681E+01   -4.651E+01
    -4.620E+01   -4.590E+01   -4.560E+01   -4.530E+01   -4.499E+01   -4.469E+01   -4.439E+01   -4.409E+01   -4.378E+01   -4.348E+01
    -4.318E+01   -4.288E+01   -4.258E+01   -4.228E+01   -4.198E+01   -4.167E+01   -4.137E+01   -4.107E+01   -4.077E+01   -4.048E+01
    -4.018E+01   -3.988E+01   -3.958E+01   -3.928E+01   -3.898E+01   -3.868E+01   -3.839E+01   -3.809E+01   -3.779E+01   -3.750E+01
    -3.720E+01   -3.690E+01   -3.661E+01   -3.631E+01   -3.602E+01   -3.572E+01   -3.543E+01   -3.514E+01   -3.484E+01   -3.455E+01
    -3.426E+01   -3.397E+01   -3.367E+01   -3.338E+01   -3.309E+01   -3.280E+01   -3.251E+01   -3.222E+01   -3.193E+01   -3.164E+01
    -3.135E+01   -3.107E+01   -3.078E+01   -3.049E+01   -3.020E+01   -2.992E+01   -2.963E+01   -2.935E+01   -2.906E+01   -2.878E+01
    -2.849E+01   -2.821E+01   -2.793E+01   -2.764E+01   -2.736E+01   -2.708E+01   -2.680E+01   -2.652E+01   -2.624E+01   -2.596E+01
    -2.568E+01   -2.540E+01   -2.512E+01   -2.485E+01   -2.457E+01   -2.429E+01   -2.402E+01   -2.374E+01   -2.347E+01   -2.319E+01
    -2.292E+01   -2.265E+01   -2.237E+01   -2.210E+01   -2.183E+01   -2.156E+01   -2.129E+01   -2.102E+01   -2.075E+01   -2.048E+01
    -2.021E+01   -1.994E+01   -1.968E+01   -1.941E+01   -1.915E+01   -1.888E+01   -1.862E+01   -1.835E+01   -1.809E+01   -1.782E+01
    -1.756E+01   -1.730E+01   -1.704E+01   -1.678E+01   -1.652E+01   -1.626E+01   -1.600E+01   -1.574E+01   -1.549E+01   -1.523E+01
    -1.497E+01   -1.472E+01   -1.446E+01   -1.421E+01   -1.396E+01   -1.370E+01   -1.345E+01   -1.320E+01   -1.295E+01   -1.270E+01
    -1.245E+01   -1.220E+01   -1.196E+01   -1.171E+01   -1.147E+01   -1.122E+01   -1.098E+01   -1.073E+01   -1.049E+01   -1.025E+01
    -1.001E+01   -9.767E+00   -9.527E+00   -9.289E+00   -9.051E+00   -8.814E+00   -8.578E+00   -8.342E+00   -8.108E+00   -7.875E+00
    -7.642E+00   -7.410E+00   -7.179E+00   -6.949E+00   -6.720E+00   -6.492E+00   -6.264E+00   -6.038E+00   -5.812E+00   -5.587E+00
    -5.364E+00   -5.141E+00   -4.919E+00   -4.698E+00   -4.478E+00   -4.259E+00   -4.040E+00   -3.823E+00   -3.607E+00   -3.391E+00
    -3.177E+00   -2.964E+00   -2.751E+00   -2.540E+00   -2.329E+00   -2.119E+00   -1.911E+00   -1.703E+00   -1.496E+00   -1.291E+00
    -1.086E+00   -8.823E-01   -6.796E-01   -4.779E-01   -2.772E-01   -7.751E-02    1.211E-01    3.188E-01    5.154E-01    7.110E-01
     9.056E-01    1.099E+00    1.292E+00    1.483E+00    1.673E+00    1.863E+00    2.051E+00    2.238E+00    2.424E+00    2.610E+00
     2.794E+00    2.977E+00    3.158E+00    3.339E+00    3.519E+00    3.698E+00    3.876E+00    4.052E+00    4.228E+00    4.403E+00
     4.576E+00    4.749E+00    4.920E+00    5.090E+00    5.260E+00    5.428E+00    5.595E+00    5.762E+00    5.927E+00    6.091E+00
     6.254E+00    6.416E+00    6.577E+00    6.737E+00    6.896E+00    7.054E+00    7.211E+00    7.367E+00    7.521E+00    7.675E+00
     7.828E+00    7.980E+00    8.130E+00    8.280E+00    8.429E+00    8.576E+00    8.723E+00    8.868E+00    9.013E+00    9.156E+00
     9.299E+00    9.440E+00    9.581E+00    9.720E+00    9.858E+00    9.996E+00    1.013E+01    1.027E+01    1.040E+01    1.054E+01
     1.067E+01    1.080E+01    1.093E+01    1.106E+01    1.119E+01    1.131E+01    1.144E+01    1.157E+01    1.169E+01    1.182E+01
     1.194E+01    1.206E+01    1.218E+01    1.230E+01    1.242E+01    1.254E+01    1.265E+01    1.277E+01    1.289E+01    1.300E+01
     1.311E+01    1.323E+01    1.334E+01    1.345E+01    1.356E+01    1.367E+01    1.377E+01    1.388E+01    1.399E+01    1.409E+01
     1.420E+01    1.430E+01    1.440E+01    1.450E+01    1.461E+01    1.471E+01    1.480E+01    1.490E+01    1.500E+01    1.510E+01
     1.519E+01    1.529E+01    1.538E+01    1.548E+01    1.557E+01    1.566E+01    1.575E+01    1.584E+01    1.593E+01    1.602E+01
     1.611E+01    1.619E+01    1.628E+01    1.637E+01    1.645E+01    1.653E+01    1.662E+01    1.670E+01    1.678E+01    1.686E+01
     1.694E+01    1.702E+01    1.710E+01    1.718E+01    1.726E+01    1.733E+01    1.741E+01    1.748E+01    1.756E+01    1.763E+01
     1.771E+01    1.778E+01    1.785E+01    1.792E+01    1.799E+01    1.806E+01    1.813E+01    1.820E+01    1.827E+01    1.834E+01
     1.840E+01    1.847E+01    1.854E+01    1.860E+01    1.867E+01    1.873E+01    1.879E+01    1.886E+01    1.892E+01    1.898E+01
     1.904E+01    1.910E+01    1.916E+01    1.922E+01    1.928E+01    1.934E+01    1.940E+01    1.946E+01    1.951E+01    1.957E+01
     1.963E+01    1.968E+01    1.974E+01    1.979E+01    1.985E+01    1.990E+01    1.995E+01    2.001E+01    2.006E+01    2.011E+01
     2.016E+01    2.021E+01    2.026E+01    2.031E+01    2.036E+01    2.041E+01    2.046E+01    2.051E+01    2.056E+01    2.061E+01
     2.066E+01    2.070E+01    2.075E+01    2.080E+01    2.084E+01    2.089E+01    2.093E+01    2.098E+01    2.102E+01    2.107E+01
     2.111E+01    2.116E+01    2.120E+01    2.125E+01    2.129E+01    2.133E+01    2.137E+01    2.142E+01    2.146E+01    2.150E+01
     2.154E+01    2.158E+01    2.163E+01    2.167E+01    2.171E+01    2.175E+01    2.179E+01    2.183E+01    2.187E+01    2.191E+01
     2.195E+01    2.199E+01    2.202E+01    2.206E+01    2.210E+01    2.214E+01    2.218E+01    2.222E+01    2.225E+01    2.229E+01
     2.233E+01    2.237E+01    2.240E+01    2.244E+01    2.248E+01    2.252E+01    2.255E+01    2.259E+01    2.263E+01    2.266E+01
     2.270E+01    2.273E+01    2.277E+01    2.281E+01    2.284E+01    2.288E+01    2.291E+01    2.295E+01    2.298E+01    2.302E+01
     2.305E+01    2.309E+01    2.312E+01    2.316E+01    2.319E+01    2.323E+01    2.326E+01    2.330E+01    2.333E+01    2.337E+01
     2.340E+01    2.344E+01    2.347E+01    2.351E+01    2.354E+01    2.357E+01    2.361E+01    2.364E+01    2.368E+01    2.371E+01
     2.374E+01    2.378E+01    2.381E+01    2.385E+01    2.388E+01    2.391E+01    2.395E+01    2.398E+01    2.402E+01    2.405E+01
     2.408E+01    2.412E+01    2.415E+01    2.418E+01    2.422E+01    2.425E+01    2.429E+01    2.432E+01
 Ala      Conc. = 2.36E+02
