 LCModel (Version 6.3-1L) Copyright: S.W. Provencher.          Ref.: Magn. Reson. Med. 30:672-679 (1993).                
 Slice#2 Row#10 Col#7  PD_05_press_2_raw_act
 36 lines in following concentration table = NCONC+1
    Conc.  %SD /Cr+PCr  Metabolite                                         
  205.038 117%   0.106 Ala                                                 
    0.000 999%   0.000 Asp                                                 
 1.00E+03  39%   0.519 Cr                                                  
  928.651  43%   0.481 PCr                                                 
   61.591 343% 3.2E-02 GABA                                                
    0.000 999%   0.000 Glc                                                 
 1.63E+03  29%   0.844 Gln                                                 
 1.36E+03  40%   0.703 Glu                                                 
  392.950   9%   0.204 GPC                                                 
    0.000 999%   0.000 PCh                                                 
  885.881  14%   0.459 GSH                                                 
 1.48E+03  31%   0.768 Ins                                                 
  143.084 174% 7.4E-02 Lac                                                 
 3.29E+03   4%   1.701 NAA                                                 
    0.000 999%   0.000 NAAG                                                
   29.196 140% 1.5E-02 Scyllo                                              
    0.000 999%   0.000 Tau                                                 
    0.000 999%   0.000 -CrCH2                                              
  392.950   9%   0.204 GPC+PCh                                             
 3.29E+03   4%   1.701 NAA+NAAG                                            
 1.93E+03   5%   1.000 Cr+PCr                                              
 2.99E+03  28%   1.546 Glu+Gln                                             
 1.80E+03  31%   0.933 Lip13a                                              
    0.000 999%   0.000 Lip13b                                              
    0.000 999%   0.000 Lip09                                               
 2.63E+03  15%   1.361 MM09                                                
  396.650  49%   0.205 Lip20                                               
 6.85E+03  10%   3.547 MM20                                                
  915.510  28%   0.474 MM12                                                
 5.40E+03   6%   2.798 MM14                                                
 1.12E+03  36%   0.579 MM17                                                
 1.80E+03  31%   0.933 Lip13a+Lip13b                                       
 8.12E+03   8%   4.206 MM14+Lip13a+Lip13b+MM12                             
 2.63E+03  15%   1.361 MM09+Lip09                                          
 7.25E+03   9%   3.753 MM20+Lip20                                          
   6 lines in following misc. output table
  FWHM = 0.069 ppm    S/N =  11                                            
  Data shift =-0.015 ppm                                                   
  Ph: -17 deg      -1.0 deg/ppm                                            
  alphaB,S = 8.4E-01,   1.4E+02                                            
   14 spline knots.   Ns = 9(1)                                            
  (12) 4 infls.   (13) 1 extrs.                                            
  498 points on ppm-axis = NY
      4.000000     3.992357     3.984714     3.977070     3.969427     3.961784     3.954141     3.946497     3.938854     3.931211
      3.923568     3.915925     3.908281     3.900638     3.892995     3.885352     3.877708     3.870065     3.862422     3.854779
      3.847136     3.839492     3.831849     3.824206     3.816563     3.808919     3.801276     3.793633     3.785990     3.778347
      3.770703     3.763060     3.755417     3.747774     3.740130     3.732487     3.724844     3.717201     3.709558     3.701914
      3.694271     3.686628     3.678985     3.671341     3.663698     3.656055     3.648412     3.640769     3.633125     3.625482
      3.617839     3.610196     3.602552     3.594909     3.587266     3.579623     3.571980     3.564336     3.556693     3.549050
      3.541407     3.533763     3.526120     3.518477     3.510834     3.503191     3.495547     3.487904     3.480261     3.472618
      3.464974     3.457331     3.449688     3.442045     3.434402     3.426758     3.419115     3.411472     3.403829     3.396185
      3.388542     3.380899     3.373256     3.365613     3.357969     3.350326     3.342683     3.335040     3.327396     3.319753
      3.312110     3.304467     3.296824     3.289180     3.281537     3.273894     3.266251     3.258607     3.250964     3.243321
      3.235678     3.228034     3.220391     3.212748     3.205105     3.197462     3.189818     3.182175     3.174532     3.166889
      3.159245     3.151602     3.143959     3.136316     3.128673     3.121029     3.113386     3.105743     3.098100     3.090456
      3.082813     3.075170     3.067527     3.059884     3.052240     3.044597     3.036954     3.029311     3.021667     3.014024
      3.006381     2.998738     2.991095     2.983451     2.975808     2.968165     2.960522     2.952878     2.945235     2.937592
      2.929949     2.922306     2.914662     2.907019     2.899376     2.891733     2.884089     2.876446     2.868803     2.861160
      2.853517     2.845873     2.838230     2.830587     2.822944     2.815300     2.807657     2.800014     2.792371     2.784728
      2.777084     2.769441     2.761798     2.754155     2.746511     2.738868     2.731225     2.723582     2.715939     2.708295
      2.700652     2.693009     2.685366     2.677722     2.670079     2.662436     2.654793     2.647150     2.639506     2.631863
      2.624220     2.616577     2.608933     2.601290     2.593647     2.586004     2.578361     2.570717     2.563074     2.555431
      2.547788     2.540144     2.532501     2.524858     2.517215     2.509572     2.501928     2.494285     2.486642     2.478999
      2.471355     2.463712     2.456069     2.448426     2.440783     2.433139     2.425496     2.417853     2.410210     2.402566
      2.394923     2.387280     2.379637     2.371994     2.364350     2.356707     2.349064     2.341421     2.333777     2.326134
      2.318491     2.310848     2.303205     2.295561     2.287918     2.280275     2.272632     2.264988     2.257345     2.249702
      2.242059     2.234416     2.226772     2.219129     2.211486     2.203843     2.196199     2.188556     2.180913     2.173270
      2.165627     2.157983     2.150340     2.142697     2.135054     2.127410     2.119767     2.112124     2.104481     2.096838
      2.089194     2.081551     2.073908     2.066265     2.058621     2.050978     2.043335     2.035692     2.028049     2.020405
      2.012762     2.005119     1.997476     1.989833     1.982190     1.974546     1.966903     1.959260     1.951617     1.943974
      1.936331     1.928688     1.921045     1.913402     1.905759     1.898115     1.890472     1.882829     1.875186     1.867543
      1.859900     1.852257     1.844614     1.836971     1.829327     1.821684     1.814041     1.806398     1.798755     1.791112
      1.783469     1.775826     1.768183     1.760540     1.752896     1.745253     1.737610     1.729967     1.722324     1.714681
      1.707038     1.699395     1.691752     1.684108     1.676465     1.668822     1.661179     1.653536     1.645893     1.638250
      1.630607     1.622964     1.615321     1.607677     1.600034     1.592391     1.584748     1.577105     1.569462     1.561819
      1.554176     1.546533     1.538890     1.531246     1.523603     1.515960     1.508317     1.500674     1.493031     1.485388
      1.477745     1.470102     1.462458     1.454815     1.447172     1.439529     1.431886     1.424243     1.416600     1.408957
      1.401314     1.393671     1.386027     1.378384     1.370741     1.363098     1.355455     1.347812     1.340169     1.332526
      1.324883     1.317240     1.309596     1.301953     1.294310     1.286667     1.279024     1.271381     1.263738     1.256095
      1.248452     1.240808     1.233165     1.225522     1.217879     1.210236     1.202593     1.194950     1.187307     1.179664
      1.172021     1.164377     1.156734     1.149091     1.141448     1.133805     1.126162     1.118519     1.110876     1.103233
      1.095590     1.087946     1.080303     1.072660     1.065017     1.057374     1.049731     1.042088     1.034445     1.026802
      1.019158     1.011515     1.003872     0.996229     0.988586     0.980943     0.973300     0.965657     0.958014     0.950371
      0.942727     0.935084     0.927441     0.919798     0.912155     0.904512     0.896869     0.889226     0.881583     0.873940
      0.866296     0.858653     0.851010     0.843367     0.835724     0.828081     0.820438     0.812795     0.805152     0.797508
      0.789865     0.782222     0.774579     0.766936     0.759293     0.751650     0.744007     0.736364     0.728721     0.721077
      0.713434     0.705791     0.698148     0.690505     0.682862     0.675219     0.667576     0.659933     0.652290     0.644646
      0.637003     0.629360     0.621717     0.614074     0.606431     0.598788     0.591145     0.583502     0.575858     0.568215
      0.560572     0.552929     0.545286     0.537643     0.530000     0.522357     0.514714     0.507071     0.499427     0.491784
      0.484141     0.476498     0.468855     0.461212     0.453569     0.445925     0.438282     0.430639     0.422996     0.415353
      0.407710     0.400067     0.392424     0.384780     0.377137     0.369494     0.361851     0.354208     0.346565     0.338922
      0.331278     0.323635     0.315992     0.308349     0.300706     0.293063     0.285420     0.277777     0.270133     0.262490
      0.254847     0.247204     0.239561     0.231918     0.224275     0.216631     0.208988     0.201345
 NY phased data points follow
   4.48309E+01  3.56438E+01  3.76145E+01  3.19872E+01  4.30534E+01  4.29545E+01  4.81812E+01  4.69530E+01  5.59806E+01  5.74309E+01
   6.84662E+01  6.55146E+01  6.97122E+01  6.48205E+01  6.09030E+01  5.73600E+01  5.69019E+01  4.12288E+01  5.42075E+01  4.52112E+01
   4.34131E+01  3.81814E+01  4.14205E+01  3.55439E+01  4.39043E+01  4.04703E+01  4.71239E+01  4.16465E+01  4.63727E+01  4.29851E+01
   4.36149E+01  4.47869E+01  3.91611E+01  3.90441E+01  3.92425E+01  4.04336E+01  3.58388E+01  3.39709E+01  3.69408E+01  3.63084E+01
   3.27710E+01  3.33943E+01  3.04100E+01  2.81330E+01  3.27818E+01  3.73384E+01  3.24884E+01  3.49785E+01  3.91180E+01  4.25731E+01
   4.44271E+01  3.22295E+01  3.03516E+01  2.45800E+01  2.73107E+01  2.82348E+01  2.94881E+01  3.10851E+01  2.55231E+01  2.76945E+01
   2.82713E+01  2.63393E+01  2.78557E+01  2.38257E+01  2.05501E+01  1.95548E+01  2.09625E+01  1.83697E+01  1.96362E+01  2.22608E+01
   1.52568E+01  1.93324E+01  2.12826E+01  1.54904E+01  2.13390E+01  1.38961E+01  1.51093E+01  1.90084E+01  1.97829E+01  1.64112E+01
   8.97597E+00  1.61774E+01  1.41767E+01  1.15245E+01  2.18707E+01  1.75858E+01  1.78443E+01  1.81439E+01  1.49376E+01  6.60619E+00
   9.94059E+00  1.79723E+01  2.05846E+01  1.93002E+01  2.07638E+01  1.94837E+01  1.65861E+01  2.04484E+01  2.33495E+01  1.81035E+01
   2.64595E+01  2.91049E+01  3.19239E+01  3.55953E+01  4.17827E+01  4.09492E+01  4.78112E+01  3.65091E+01  3.87932E+01  3.94493E+01
   2.51976E+01  2.45640E+01  1.90060E+01  2.38832E+01  1.69701E+01  1.95728E+01  2.07732E+01  1.61808E+01  2.19275E+01  1.81330E+01
   2.15098E+01  1.79140E+01  2.44487E+01  2.76556E+01  3.86836E+01  4.59382E+01  6.06235E+01  6.06900E+01  6.54108E+01  6.52498E+01
   6.75979E+01  6.82402E+01  5.37439E+01  4.92801E+01  3.69969E+01  3.29788E+01  2.07737E+01  2.28854E+01  2.90629E+01  2.04136E+01
   1.98595E+01  1.90627E+01  1.49545E+01  1.16700E+01  1.94487E+01  1.86020E+01  1.38590E+01  1.50970E+01  1.18916E+01  1.96127E+01
   8.80725E+00  6.11655E+00  1.44106E+01  1.02893E+01  7.36739E+00  1.29839E+01  9.86864E+00  7.37706E+00  6.72664E+00  9.93598E+00
   1.81279E+00  1.25514E+01  1.23928E+01  2.22152E+00  1.17285E+01  9.86274E+00  1.24980E+01  6.21891E+00  7.62800E+00  8.52705E+00
   3.13922E+00  1.81578E+00 -1.37976E+00 -4.54931E+00 -5.74130E+00 -8.00287E+00 -3.59066E+00 -7.96538E+00 -7.53965E+00 -1.13102E+01
  -8.22407E+00 -7.51506E+00 -9.46020E+00 -8.94590E+00 -2.93533E+00 -8.10524E+00 -3.88363E-01 -1.15122E+01  3.76320E+00  4.25071E+00
   2.39438E+00  7.59117E+00  5.10762E+00  1.15627E+01  1.06604E+00  1.22108E+01  8.55579E+00  1.18471E+01  7.95755E+00  2.49840E-01
   5.30566E+00  1.56275E+01  4.32775E+00  9.09149E+00  1.31671E+01  1.35916E+01  1.53666E+01  6.61617E+00  8.27793E+00  9.83578E+00
   7.87350E+00  8.81246E+00  1.25875E+01  1.80561E+01  1.42113E+01  2.23666E+01  2.25599E+01  1.94292E+01  2.33762E+01  1.52703E+01
   2.10667E+01  2.12409E+01  1.73896E+01  1.40644E+01  1.48409E+01  2.34653E+01  2.20459E+01  2.10135E+01  2.20388E+01  1.93285E+01
   2.31036E+01  2.46171E+01  2.32030E+01  2.78771E+01  2.34821E+01  2.05478E+01  2.48331E+01  2.55353E+01  2.75380E+01  2.87712E+01
   2.93079E+01  2.44688E+01  2.18818E+01  2.52414E+01  3.24887E+01  2.72009E+01  2.75123E+01  2.75441E+01  2.88813E+01  3.10475E+01
   2.83315E+01  3.27715E+01  3.18177E+01  3.88196E+01  4.01835E+01  5.08283E+01  5.35279E+01  6.28574E+01  8.63074E+01  9.30693E+01
   1.13599E+02  1.15417E+02  1.15900E+02  1.04336E+02  8.85872E+01  8.19911E+01  6.83971E+01  5.85008E+01  4.68292E+01  3.81583E+01
   2.80990E+01  2.60376E+01  3.20014E+01  2.18005E+01  2.15309E+01  2.02481E+01  1.08415E+01  1.82582E+01  1.37430E+01  1.25392E+01
   1.38790E+01  1.79656E+01  1.06578E+01  1.23131E+01  9.79268E+00  1.40897E+00  9.86077E+00 -2.14574E+00  3.06153E+00  1.64268E+00
   5.72632E+00  6.09704E+00  5.61118E+00  6.11063E+00  1.00328E+01  2.83255E+00  1.60704E+00  1.05316E+01  1.11676E+01  2.64533E+00
   9.69178E+00  4.07498E+00  8.98721E+00  4.77050E+00  1.03434E+01  9.57372E+00  1.38779E+01  1.70383E+01  1.13720E+01  9.32848E+00
   1.61928E+01  1.44022E+01  1.51280E+01  1.47519E+01  1.35272E+01  7.03438E+00  1.29026E+01  1.82052E+01  2.58865E+01  2.34340E+01
   2.29093E+01  2.91562E+01  2.56764E+01  2.11433E+01  2.26634E+01  2.28855E+01  2.81942E+01  2.86942E+01  3.23022E+01  3.84302E+01
   3.79465E+01  3.92539E+01  4.04666E+01  4.14175E+01  5.01965E+01  4.98127E+01  5.10426E+01  5.20928E+01  5.53555E+01  4.89728E+01
   5.21327E+01  4.32140E+01  4.16869E+01  3.87202E+01  4.05212E+01  3.97299E+01  3.82790E+01  3.36632E+01  3.07050E+01  2.65993E+01
   2.82673E+01  2.42015E+01  2.04855E+01  2.34707E+01  1.85887E+01  2.34874E+01  1.92581E+01  1.22361E+01  1.81766E+01  1.85795E+01
   1.45058E+01  1.86770E+01  1.63411E+01  1.13978E+01  1.25041E+01  1.69418E+01  1.29546E+01  1.07973E+01  1.77162E+01  7.87875E+00
   2.31625E+01  1.28512E+01  7.79385E+00  1.34236E+01  8.31581E+00  1.60926E+01  1.38263E+01  6.54550E+00  8.44003E+00  1.15299E+01
   1.14345E+01  8.21791E+00  6.96302E+00  2.90396E+00  8.67030E+00  3.03754E+00  7.86717E+00  7.56446E+00  1.26539E+01  8.57546E+00
   1.55155E+01  5.88453E+00  1.23663E+01  9.82439E+00  1.19344E+01  1.35142E+01  1.11801E+01  5.95269E+00  1.30457E+01  7.35748E+00
   1.09154E+01  9.69330E+00  9.95260E+00  1.79397E+01  9.92220E+00  2.15690E+01  7.88713E+00  4.52054E+00  1.36491E+01  1.22798E+01
   1.32846E+01  1.23609E+01  1.27841E+01  1.10484E+01  1.39229E+01  1.40644E+01  1.47370E+01  1.51986E+01  9.46970E+00  6.13178E+00
   1.93929E+01  1.15854E+01  1.09796E+01  1.05335E+01  1.24448E+01  8.04309E+00  7.03543E+00  9.77589E+00  4.28051E+00  6.25885E+00
   2.97547E+00  3.33924E+00  2.16479E+00  5.37817E+00  3.96874E+00  1.71872E+00  7.10428E-01  1.39830E+00  8.33313E+00  4.06511E-01
   5.75571E+00  4.17078E+00 -4.85399E+00  3.16194E+00  1.02853E+01  1.66617E+00  8.84547E-01  8.45390E+00  5.72164E-01  9.80316E-01
   2.35133E+00  5.71356E+00  2.55324E-01 -4.16442E+00  2.00067E+00  3.54782E+00  9.91968E+00  7.16920E+00  3.54817E+00 -2.60885E+00
   1.17595E+00  3.77780E+00  4.90228E+00 -7.12462E-02  2.86492E+00  4.09494E+00  5.19814E+00  1.21360E+01  4.25196E+00  1.36148E+00
   7.34516E-01  2.29519E+00  5.71122E+00 -8.62873E-01  7.75101E+00  2.03686E-02  5.23566E+00  2.87900E+00  7.57512E+00 -3.03734E+00
  -1.73565E+00  5.52676E+00  3.47661E+00  5.54259E-01 -2.57691E+00  1.77352E+00  7.93074E+00 -6.08825E-01  7.38094E+00  1.06756E+00
  -6.45553E+00  8.88305E-01  4.57146E+00 -2.26239E+00 -1.52273E+00 -1.07663E+00  5.36859E+00 -1.80027E+00
 NY points of the fit to the data follow
   3.84486E+01  3.79749E+01  3.78050E+01  3.82022E+01  3.94339E+01  4.15720E+01  4.48047E+01  4.91559E+01  5.42503E+01  5.94012E+01
   6.36803E+01  6.63096E+01  6.69216E+01  6.56258E+01  6.28519E+01  5.91661E+01  5.51553E+01  5.11608E+01  4.72673E+01  4.35495E+01
   4.05916E+01  3.85179E+01  3.68700E+01  3.61397E+01  3.62772E+01  3.71837E+01  3.89001E+01  4.12052E+01  4.37309E+01  4.60093E+01
   4.75180E+01  4.79028E+01  4.71214E+01  4.53996E+01  4.29911E+01  4.02577E+01  3.75910E+01  3.51411E+01  3.29566E+01  3.11646E+01
   3.02898E+01  3.00324E+01  3.00631E+01  3.06523E+01  3.18245E+01  3.33080E+01  3.46589E+01  3.55044E+01  3.55965E+01  3.48578E+01
   3.34905E+01  3.18671E+01  3.02813E+01  2.88454E+01  2.76175E+01  2.66632E+01  2.59483E+01  2.54366E+01  2.52732E+01  2.54551E+01
   2.56496E+01  2.55605E+01  2.51632E+01  2.45624E+01  2.38900E+01  2.32600E+01  2.27568E+01  2.24325E+01  2.22657E+01  2.21813E+01
   2.21605E+01  2.21837E+01  2.21874E+01  2.21345E+01  2.19697E+01  2.16943E+01  2.13418E+01  2.09478E+01  2.05349E+01  2.01043E+01
   1.96717E+01  1.92446E+01  1.88265E+01  1.84312E+01  1.79774E+01  1.74043E+01  1.67170E+01  1.59911E+01  1.53324E+01  1.48329E+01
   1.45598E+01  1.45154E+01  1.46427E+01  1.48692E+01  1.52274E+01  1.59296E+01  1.68311E+01  1.78716E+01  1.92979E+01  2.15743E+01
   2.51881E+01  3.00731E+01  3.53808E+01  4.00001E+01  4.29550E+01  4.37094E+01  4.23217E+01  3.94390E+01  3.59263E+01  3.23250E+01
   2.88404E+01  2.55465E+01  2.24495E+01  1.94635E+01  1.69488E+01  1.58627E+01  1.56319E+01  1.56974E+01  1.62782E+01  1.76577E+01
   1.95537E+01  2.19787E+01  2.54719E+01  3.08268E+01  3.84988E+01  4.77679E+01  5.69611E+01  6.43230E+01  6.84894E+01  6.88847E+01
   6.58294E+01  6.03716E+01  5.37339E+01  4.66478E+01  3.95209E+01  3.27365E+01  2.65304E+01  2.10870E+01  1.74508E+01  1.63289E+01
   1.62205E+01  1.62074E+01  1.60659E+01  1.58454E+01  1.56350E+01  1.53363E+01  1.48913E+01  1.43197E+01  1.36123E+01  1.28315E+01
   1.20737E+01  1.13951E+01  1.08614E+01  1.04237E+01  1.00696E+01  9.77760E+00  9.50743E+00  9.16861E+00  8.69300E+00  8.14038E+00
   7.62321E+00  7.25170E+00  7.07361E+00  7.03068E+00  6.99720E+00  6.83620E+00  6.48487E+00  5.95942E+00  5.33014E+00  4.71800E+00
   4.16802E+00  3.62820E+00  2.94258E+00  2.09840E+00  1.28265E+00  6.49255E-01  3.17949E-01  2.16038E-01  1.58589E-01  1.00027E-01
   6.08364E-02  4.12196E-02  7.30247E-02  2.03943E-01  4.99404E-01  1.06874E+00  2.01472E+00  3.26983E+00  4.67828E+00  6.14678E+00
   7.39338E+00  8.13657E+00  8.22462E+00  7.77510E+00  7.15148E+00  6.64774E+00  6.50022E+00  6.82375E+00  7.55449E+00  8.66206E+00
   1.01320E+01  1.17284E+01  1.32538E+01  1.44132E+01  1.48056E+01  1.41970E+01  1.26404E+01  1.04006E+01  8.00715E+00  6.05590E+00
   4.94634E+00  4.90734E+00  5.98418E+00  7.86574E+00  1.00284E+01  1.21306E+01  1.38906E+01  1.49731E+01  1.52329E+01  1.48597E+01
   1.41212E+01  1.31771E+01  1.25836E+01  1.26748E+01  1.33042E+01  1.42482E+01  1.53234E+01  1.64343E+01  1.74352E+01  1.82675E+01
   1.90225E+01  1.98179E+01  2.06985E+01  2.15423E+01  2.22660E+01  2.30045E+01  2.38553E+01  2.47224E+01  2.54947E+01  2.60455E+01
   2.63406E+01  2.64363E+01  2.64045E+01  2.64251E+01  2.66844E+01  2.72434E+01  2.79532E+01  2.86513E+01  2.94674E+01  3.03673E+01
   3.14004E+01  3.31786E+01  3.63029E+01  3.99276E+01  4.37886E+01  4.89660E+01  5.70054E+01  6.88176E+01  8.33009E+01  9.76117E+01
   1.08648E+02  1.13965E+02  1.12601E+02  1.05389E+02  9.45938E+01  8.26353E+01  7.07909E+01  5.94597E+01  4.87846E+01  3.86317E+01
   2.89211E+01  2.16306E+01  1.85920E+01  1.71603E+01  1.61431E+01  1.53211E+01  1.45850E+01  1.38697E+01  1.31821E+01  1.25220E+01
   1.18911E+01  1.12957E+01  1.07421E+01  1.02277E+01  9.76260E+00  9.35936E+00  9.01474E+00  8.72322E+00  8.48135E+00  8.28466E+00
   8.13069E+00  8.01562E+00  7.93505E+00  7.89291E+00  7.89252E+00  7.93527E+00  8.02343E+00  8.15978E+00  8.34454E+00  8.57532E+00
   8.84999E+00  9.16615E+00  9.51833E+00  9.90020E+00  1.03059E+01  1.07275E+01  1.11578E+01  1.15905E+01  1.20206E+01  1.24455E+01
   1.28656E+01  1.32845E+01  1.37100E+01  1.41547E+01  1.46358E+01  1.51755E+01  1.58006E+01  1.65453E+01  1.74466E+01  1.85058E+01
   1.97341E+01  2.11676E+01  2.28305E+01  2.47093E+01  2.67263E+01  2.87649E+01  3.07581E+01  3.26702E+01  3.44781E+01  3.62055E+01
   3.79127E+01  3.96700E+01  4.15014E+01  4.33484E+01  4.50975E+01  4.66106E+01  4.77507E+01  4.84452E+01  4.86979E+01  4.84353E+01
   4.76545E+01  4.64505E+01  4.49138E+01  4.31137E+01  4.10647E+01  3.87489E+01  3.62825E+01  3.37645E+01  3.12139E+01  2.87056E+01
   2.63537E+01  2.42812E+01  2.25686E+01  2.12184E+01  2.01797E+01  1.93744E+01  1.87135E+01  1.81350E+01  1.76317E+01  1.71607E+01
   1.66682E+01  1.61622E+01  1.56474E+01  1.51214E+01  1.45684E+01  1.39770E+01  1.34119E+01  1.28995E+01  1.24130E+01  1.19415E+01
   1.14829E+01  1.10380E+01  1.06098E+01  1.02016E+01  9.81769E+00  9.46194E+00  9.13831E+00  8.85045E+00  8.60156E+00  8.39445E+00
   8.23147E+00  8.11453E+00  8.04515E+00  8.02444E+00  8.05309E+00  8.13144E+00  8.25946E+00  8.43672E+00  8.66232E+00  8.93487E+00
   9.25236E+00  9.61211E+00  1.00107E+01  1.04438E+01  1.09063E+01  1.13920E+01  1.18938E+01  1.24036E+01  1.29126E+01  1.34114E+01
   1.38899E+01  1.43379E+01  1.47455E+01  1.51027E+01  1.54009E+01  1.56320E+01  1.57897E+01  1.58691E+01  1.58671E+01  1.57828E+01
   1.56171E+01  1.53728E+01  1.50547E+01  1.46690E+01  1.42233E+01  1.37264E+01  1.31875E+01  1.26163E+01  1.20225E+01  1.14153E+01
   1.08036E+01  1.01952E+01  9.59734E+00  9.01586E+00  8.45571E+00  7.92072E+00  7.41371E+00  6.93656E+00  6.49027E+00  6.07513E+00
   5.69082E+00  5.33652E+00  5.01109E+00  4.71305E+00  4.44080E+00  4.19260E+00  3.96666E+00  3.76125E+00  3.57467E+00  3.40529E+00
   3.25156E+00  3.11205E+00  2.98543E+00  2.87051E+00  2.76617E+00  2.67142E+00  2.58534E+00  2.50709E+00  2.43594E+00  2.37123E+00
   2.31237E+00  2.25881E+00  2.21005E+00  2.16567E+00  2.12528E+00  2.08857E+00  2.05522E+00  2.02496E+00  1.99751E+00  1.97267E+00
   1.95024E+00  1.93003E+00  1.91187E+00  1.89561E+00  1.88110E+00  1.86822E+00  1.85686E+00  1.84691E+00  1.83826E+00  1.83082E+00
   1.82451E+00  1.81925E+00  1.81499E+00  1.81166E+00  1.80917E+00  1.80750E+00  1.80657E+00  1.80636E+00  1.80681E+00  1.80788E+00
   1.80954E+00  1.81173E+00  1.81444E+00  1.81765E+00  1.82131E+00  1.82541E+00  1.82991E+00  1.83479E+00  1.84005E+00  1.84567E+00
   1.85162E+00  1.85789E+00  1.86447E+00  1.87135E+00  1.87854E+00  1.88603E+00  1.89380E+00  1.90187E+00
 NY background values follow
     3.334E+01    3.312E+01    3.290E+01    3.268E+01    3.246E+01    3.224E+01    3.202E+01    3.180E+01    3.158E+01    3.136E+01
     3.114E+01    3.092E+01    3.070E+01    3.048E+01    3.026E+01    3.004E+01    2.982E+01    2.960E+01    2.938E+01    2.916E+01
     2.894E+01    2.872E+01    2.850E+01    2.828E+01    2.806E+01    2.784E+01    2.762E+01    2.741E+01    2.719E+01    2.697E+01
     2.675E+01    2.653E+01    2.632E+01    2.610E+01    2.589E+01    2.567E+01    2.545E+01    2.524E+01    2.503E+01    2.481E+01
     2.460E+01    2.438E+01    2.417E+01    2.396E+01    2.375E+01    2.354E+01    2.333E+01    2.312E+01    2.291E+01    2.270E+01
     2.249E+01    2.228E+01    2.208E+01    2.187E+01    2.166E+01    2.146E+01    2.126E+01    2.105E+01    2.085E+01    2.065E+01
     2.045E+01    2.025E+01    2.005E+01    1.985E+01    1.966E+01    1.946E+01    1.926E+01    1.907E+01    1.888E+01    1.868E+01
     1.849E+01    1.830E+01    1.811E+01    1.793E+01    1.774E+01    1.755E+01    1.737E+01    1.719E+01    1.700E+01    1.682E+01
     1.664E+01    1.647E+01    1.629E+01    1.611E+01    1.594E+01    1.577E+01    1.560E+01    1.542E+01    1.526E+01    1.509E+01
     1.492E+01    1.476E+01    1.460E+01    1.443E+01    1.427E+01    1.412E+01    1.396E+01    1.380E+01    1.365E+01    1.350E+01
     1.335E+01    1.320E+01    1.305E+01    1.290E+01    1.276E+01    1.261E+01    1.247E+01    1.233E+01    1.219E+01    1.205E+01
     1.191E+01    1.177E+01    1.164E+01    1.150E+01    1.137E+01    1.124E+01    1.111E+01    1.098E+01    1.086E+01    1.073E+01
     1.060E+01    1.048E+01    1.036E+01    1.024E+01    1.012E+01    9.999E+00    9.881E+00    9.765E+00    9.649E+00    9.535E+00
     9.422E+00    9.310E+00    9.200E+00    9.090E+00    8.981E+00    8.874E+00    8.768E+00    8.662E+00    8.558E+00    8.455E+00
     8.353E+00    8.253E+00    8.153E+00    8.055E+00    7.958E+00    7.862E+00    7.768E+00    7.675E+00    7.583E+00    7.493E+00
     7.404E+00    7.316E+00    7.230E+00    7.145E+00    7.062E+00    6.981E+00    6.901E+00    6.822E+00    6.745E+00    6.670E+00
     6.596E+00    6.524E+00    6.454E+00    6.385E+00    6.318E+00    6.253E+00    6.190E+00    6.128E+00    6.068E+00    6.010E+00
     5.954E+00    5.900E+00    5.848E+00    5.797E+00    5.749E+00    5.702E+00    5.658E+00    5.616E+00    5.575E+00    5.537E+00
     5.501E+00    5.467E+00    5.435E+00    5.405E+00    5.377E+00    5.351E+00    5.327E+00    5.305E+00    5.284E+00    5.265E+00
     5.247E+00    5.231E+00    5.217E+00    5.203E+00    5.191E+00    5.181E+00    5.171E+00    5.162E+00    5.155E+00    5.148E+00
     5.142E+00    5.137E+00    5.133E+00    5.129E+00    5.126E+00    5.123E+00    5.121E+00    5.119E+00    5.117E+00    5.116E+00
     5.114E+00    5.113E+00    5.112E+00    5.110E+00    5.109E+00    5.107E+00    5.105E+00    5.103E+00    5.100E+00    5.097E+00
     5.093E+00    5.089E+00    5.083E+00    5.077E+00    5.071E+00    5.063E+00    5.054E+00    5.044E+00    5.033E+00    5.022E+00
     5.009E+00    4.995E+00    4.980E+00    4.964E+00    4.948E+00    4.930E+00    4.912E+00    4.892E+00    4.872E+00    4.852E+00
     4.830E+00    4.807E+00    4.784E+00    4.760E+00    4.736E+00    4.711E+00    4.685E+00    4.658E+00    4.631E+00    4.603E+00
     4.575E+00    4.546E+00    4.517E+00    4.487E+00    4.457E+00    4.426E+00    4.395E+00    4.363E+00    4.331E+00    4.298E+00
     4.266E+00    4.233E+00    4.199E+00    4.165E+00    4.131E+00    4.097E+00    4.063E+00    4.028E+00    3.993E+00    3.958E+00
     3.923E+00    3.888E+00    3.853E+00    3.817E+00    3.782E+00    3.746E+00    3.710E+00    3.675E+00    3.639E+00    3.603E+00
     3.567E+00    3.531E+00    3.495E+00    3.459E+00    3.423E+00    3.387E+00    3.351E+00    3.315E+00    3.280E+00    3.244E+00
     3.208E+00    3.172E+00    3.136E+00    3.100E+00    3.064E+00    3.029E+00    2.993E+00    2.957E+00    2.922E+00    2.886E+00
     2.851E+00    2.816E+00    2.781E+00    2.746E+00    2.711E+00    2.676E+00    2.641E+00    2.607E+00    2.572E+00    2.538E+00
     2.504E+00    2.470E+00    2.436E+00    2.402E+00    2.369E+00    2.336E+00    2.303E+00    2.270E+00    2.237E+00    2.205E+00
     2.172E+00    2.140E+00    2.108E+00    2.077E+00    2.045E+00    2.014E+00    1.983E+00    1.952E+00    1.921E+00    1.890E+00
     1.860E+00    1.830E+00    1.800E+00    1.770E+00    1.740E+00    1.710E+00    1.681E+00    1.652E+00    1.623E+00    1.594E+00
     1.565E+00    1.536E+00    1.508E+00    1.480E+00    1.452E+00    1.424E+00    1.396E+00    1.368E+00    1.341E+00    1.313E+00
     1.286E+00    1.259E+00    1.232E+00    1.205E+00    1.178E+00    1.152E+00    1.126E+00    1.099E+00    1.073E+00    1.047E+00
     1.021E+00    9.954E-01    9.698E-01    9.443E-01    9.189E-01    8.937E-01    8.687E-01    8.439E-01    8.193E-01    7.950E-01
     7.709E-01    7.472E-01    7.237E-01    7.005E-01    6.777E-01    6.553E-01    6.332E-01    6.115E-01    5.902E-01    5.694E-01
     5.490E-01    5.291E-01    5.097E-01    4.908E-01    4.724E-01    4.545E-01    4.373E-01    4.206E-01    4.045E-01    3.890E-01
     3.742E-01    3.600E-01    3.465E-01    3.337E-01    3.217E-01    3.103E-01    2.997E-01    2.899E-01    2.809E-01    2.727E-01
     2.653E-01    2.588E-01    2.531E-01    2.483E-01    2.444E-01    2.415E-01    2.395E-01    2.384E-01    2.383E-01    2.392E-01
     2.410E-01    2.436E-01    2.472E-01    2.515E-01    2.568E-01    2.628E-01    2.696E-01    2.771E-01    2.854E-01    2.945E-01
     3.042E-01    3.145E-01    3.256E-01    3.372E-01    3.494E-01    3.622E-01    3.756E-01    3.895E-01    4.039E-01    4.188E-01
     4.342E-01    4.500E-01    4.662E-01    4.828E-01    4.998E-01    5.171E-01    5.348E-01    5.527E-01    5.710E-01    5.895E-01
     6.082E-01    6.272E-01    6.463E-01    6.656E-01    6.851E-01    7.046E-01    7.243E-01    7.441E-01    7.639E-01    7.837E-01
     8.035E-01    8.233E-01    8.431E-01    8.628E-01    8.825E-01    9.021E-01    9.217E-01    9.412E-01    9.606E-01    9.799E-01
     9.992E-01    1.018E+00    1.038E+00    1.057E+00    1.076E+00    1.095E+00    1.113E+00    1.132E+00    1.151E+00    1.169E+00
     1.188E+00    1.206E+00    1.225E+00    1.243E+00    1.261E+00    1.279E+00    1.297E+00    1.315E+00    1.333E+00    1.350E+00
     1.368E+00    1.385E+00    1.403E+00    1.420E+00    1.437E+00    1.454E+00    1.471E+00    1.488E+00    1.504E+00    1.521E+00
     1.537E+00    1.553E+00    1.570E+00    1.586E+00    1.602E+00    1.617E+00    1.633E+00    1.649E+00
 Ala      Conc. = 2.05E+02
