 LCModel (Version 6.3-1L) Copyright: S.W. Provencher.          Ref.: Magn. Reson. Med. 30:672-679 (1993).                
 Slice#3 Row#1 Col#7  PD_05_press_2_raw_act
 36 lines in following concentration table = NCONC+1
    Conc.  %SD /Cr+PCr  Metabolite                                         
    0.000 999%   0.000 Ala                                                 
   50.738 113%   0.168 Asp                                                 
  302.313  46%   1.000 Cr                                                  
    0.000 999%   0.000 PCr                                                 
   32.411 106%   0.107 GABA                                                
   30.761 112%   0.102 Glc                                                 
    0.000 999%   0.000 Gln                                                 
 1.21E+03  74%   4.018 Glu                                                 
  249.298  22%   0.825 GPC                                                 
    0.000 999%   0.000 PCh                                                 
  176.224 121%   0.583 GSH                                                 
  972.473  65%   3.217 Ins                                                 
   77.637 577%   0.257 Lac                                                 
    0.000 999%   0.000 NAA                                                 
    0.000 999%   0.000 NAAG                                                
   12.750  90% 4.2E-02 Scyllo                                              
   57.648  99%   0.191 Tau                                                 
   54.619 188%   0.181 -CrCH2                                              
  249.298  22%   0.825 GPC+PCh                                             
    0.000 999%   0.000 NAA+NAAG                                            
  302.313  46%   1.000 Cr+PCr                                              
 1.21E+03  74%   4.018 Glu+Gln                                             
 3.17E+03  30%  10.494 Lip13a                                              
  551.250  83%   1.823 Lip13b                                              
    0.000 999%   0.000 Lip09                                               
    0.000 999%   0.000 MM09                                                
  842.025  38%   2.785 Lip20                                               
 6.37E-02 999% 2.1E-04 MM20                                                
 3.69E-03 999% 1.2E-05 MM12                                                
 3.57E-02 999% 1.2E-04 MM14                                                
 2.97E-02 999% 9.8E-05 MM17                                                
 3.72E+03  20%  12.318 Lip13a+Lip13b                                       
 3.72E+03  20%  12.318 MM14+Lip13a+Lip13b+MM12                             
    0.000 999%   0.000 MM09+Lip09                                          
  842.089  38%   2.785 MM20+Lip20                                          
   6 lines in following misc. output table
  FWHM = 0.076 ppm    S/N =   1                                            
  Data shift =-0.069 ppm                                                   
  Ph:-127 deg      18.5 deg/ppm                                            
  alphaB,S = 8.5E+01,   5.1E+01                                            
   14 spline knots.   Ns = 7(1)                                            
   2 inflections.     1 extrema                                            
  498 points on ppm-axis = NY
      4.000000     3.992357     3.984714     3.977070     3.969427     3.961784     3.954141     3.946497     3.938854     3.931211
      3.923568     3.915925     3.908281     3.900638     3.892995     3.885352     3.877708     3.870065     3.862422     3.854779
      3.847136     3.839492     3.831849     3.824206     3.816563     3.808919     3.801276     3.793633     3.785990     3.778347
      3.770703     3.763060     3.755417     3.747774     3.740130     3.732487     3.724844     3.717201     3.709558     3.701914
      3.694271     3.686628     3.678985     3.671341     3.663698     3.656055     3.648412     3.640769     3.633125     3.625482
      3.617839     3.610196     3.602552     3.594909     3.587266     3.579623     3.571980     3.564336     3.556693     3.549050
      3.541407     3.533763     3.526120     3.518477     3.510834     3.503191     3.495547     3.487904     3.480261     3.472618
      3.464974     3.457331     3.449688     3.442045     3.434402     3.426758     3.419115     3.411472     3.403829     3.396185
      3.388542     3.380899     3.373256     3.365613     3.357969     3.350326     3.342683     3.335040     3.327396     3.319753
      3.312110     3.304467     3.296824     3.289180     3.281537     3.273894     3.266251     3.258607     3.250964     3.243321
      3.235678     3.228034     3.220391     3.212748     3.205105     3.197462     3.189818     3.182175     3.174532     3.166889
      3.159245     3.151602     3.143959     3.136316     3.128673     3.121029     3.113386     3.105743     3.098100     3.090456
      3.082813     3.075170     3.067527     3.059884     3.052240     3.044597     3.036954     3.029311     3.021667     3.014024
      3.006381     2.998738     2.991095     2.983451     2.975808     2.968165     2.960522     2.952878     2.945235     2.937592
      2.929949     2.922306     2.914662     2.907019     2.899376     2.891733     2.884089     2.876446     2.868803     2.861160
      2.853517     2.845873     2.838230     2.830587     2.822944     2.815300     2.807657     2.800014     2.792371     2.784728
      2.777084     2.769441     2.761798     2.754155     2.746511     2.738868     2.731225     2.723582     2.715939     2.708295
      2.700652     2.693009     2.685366     2.677722     2.670079     2.662436     2.654793     2.647150     2.639506     2.631863
      2.624220     2.616577     2.608933     2.601290     2.593647     2.586004     2.578361     2.570717     2.563074     2.555431
      2.547788     2.540144     2.532501     2.524858     2.517215     2.509572     2.501928     2.494285     2.486642     2.478999
      2.471355     2.463712     2.456069     2.448426     2.440783     2.433139     2.425496     2.417853     2.410210     2.402566
      2.394923     2.387280     2.379637     2.371994     2.364350     2.356707     2.349064     2.341421     2.333777     2.326134
      2.318491     2.310848     2.303205     2.295561     2.287918     2.280275     2.272632     2.264988     2.257345     2.249702
      2.242059     2.234416     2.226772     2.219129     2.211486     2.203843     2.196199     2.188556     2.180913     2.173270
      2.165627     2.157983     2.150340     2.142697     2.135054     2.127410     2.119767     2.112124     2.104481     2.096838
      2.089194     2.081551     2.073908     2.066265     2.058621     2.050978     2.043335     2.035692     2.028049     2.020405
      2.012762     2.005119     1.997476     1.989833     1.982190     1.974546     1.966903     1.959260     1.951617     1.943974
      1.936331     1.928688     1.921045     1.913402     1.905759     1.898115     1.890472     1.882829     1.875186     1.867543
      1.859900     1.852257     1.844614     1.836971     1.829327     1.821684     1.814041     1.806398     1.798755     1.791112
      1.783469     1.775826     1.768183     1.760540     1.752896     1.745253     1.737610     1.729967     1.722324     1.714681
      1.707038     1.699395     1.691752     1.684108     1.676465     1.668822     1.661179     1.653536     1.645893     1.638250
      1.630607     1.622964     1.615321     1.607677     1.600034     1.592391     1.584748     1.577105     1.569462     1.561819
      1.554176     1.546533     1.538890     1.531246     1.523603     1.515960     1.508317     1.500674     1.493031     1.485388
      1.477745     1.470102     1.462458     1.454815     1.447172     1.439529     1.431886     1.424243     1.416600     1.408957
      1.401314     1.393671     1.386027     1.378384     1.370741     1.363098     1.355455     1.347812     1.340169     1.332526
      1.324883     1.317240     1.309596     1.301953     1.294310     1.286667     1.279024     1.271381     1.263738     1.256095
      1.248452     1.240808     1.233165     1.225522     1.217879     1.210236     1.202593     1.194950     1.187307     1.179664
      1.172021     1.164377     1.156734     1.149091     1.141448     1.133805     1.126162     1.118519     1.110876     1.103233
      1.095590     1.087946     1.080303     1.072660     1.065017     1.057374     1.049731     1.042088     1.034445     1.026802
      1.019158     1.011515     1.003872     0.996229     0.988586     0.980943     0.973300     0.965657     0.958014     0.950371
      0.942727     0.935084     0.927441     0.919798     0.912155     0.904512     0.896869     0.889226     0.881583     0.873940
      0.866296     0.858653     0.851010     0.843367     0.835724     0.828081     0.820438     0.812795     0.805152     0.797508
      0.789865     0.782222     0.774579     0.766936     0.759293     0.751650     0.744007     0.736364     0.728721     0.721077
      0.713434     0.705791     0.698148     0.690505     0.682862     0.675219     0.667576     0.659933     0.652290     0.644646
      0.637003     0.629360     0.621717     0.614074     0.606431     0.598788     0.591145     0.583502     0.575858     0.568215
      0.560572     0.552929     0.545286     0.537643     0.530000     0.522357     0.514714     0.507071     0.499427     0.491784
      0.484141     0.476498     0.468855     0.461212     0.453569     0.445925     0.438282     0.430639     0.422996     0.415353
      0.407710     0.400067     0.392424     0.384780     0.377137     0.369494     0.361851     0.354208     0.346565     0.338922
      0.331278     0.323635     0.315992     0.308349     0.300706     0.293063     0.285420     0.277777     0.270133     0.262490
      0.254847     0.247204     0.239561     0.231918     0.224275     0.216631     0.208988     0.201345
 NY phased data points follow
   1.20181E+01  9.31019E+00  1.13849E+01 -7.64894E+00  2.72274E+00  9.22154E+00  2.08057E+01  2.65093E+01  1.39132E+01 -3.03288E+00
  -4.97616E+00  2.33960E+01  3.03174E+01  2.22269E+01  1.90996E+01 -5.53130E+00  2.18804E+01  4.18456E+01  2.76568E+01  5.20157E+00
   2.04200E+01 -2.81469E+00  1.45458E+01  2.53177E+00  6.70661E+00  1.61259E+01  3.81864E+00  2.10234E+01  1.09196E+01 -5.94910E-01
   1.32336E+01  2.22535E+01  2.00593E+01  1.57133E+01  2.43637E+01  4.05932E+00  6.55923E+00  4.98020E+00  1.01365E+01  1.06868E+00
   2.05917E+01  1.74920E+01  3.71518E+01  1.85013E+00  3.29682E+01  1.45320E+01  1.82365E+01  7.52201E+00  1.49324E+01  9.75269E+00
   7.79263E+00  2.35427E+01  3.36472E+00  1.21752E+01  2.44639E+01  1.44424E+01  4.72837E+00  1.64831E+01  1.03688E+01  6.06365E+00
   1.84212E+01  5.68756E-01  7.63135E+00  1.51032E+01  1.39878E+01  4.81684E+00 -2.82660E+00  6.26681E+00  5.49040E+00  8.37356E+00
   1.03492E+01  8.83004E+00  2.09779E+01  1.74525E+01  2.23414E+01  1.78518E+01  1.54751E+01  1.19481E+01 -4.57392E-01  2.05058E+00
   1.01542E+01  3.85449E+00  3.30342E-01  1.25461E+01  1.11342E+01  2.30306E+01  1.32271E+01 -4.22065E+00  2.40687E+01  1.66043E+00
   2.80573E+01  2.64436E+00  2.72787E+01  2.34152E+00 -3.72675E+00  1.33283E+01  2.53759E+01 -4.57841E-01  1.80663E+01  2.84547E+01
   2.68960E+01  1.81576E+01  3.13562E+01  1.87970E+01  3.01123E+01  1.90950E+01  1.80504E+01  1.70077E+01  9.91627E+00  1.29919E+01
   8.04897E+00  7.49136E+00  1.37162E+01  1.11514E+01  4.19280E+00  1.43646E+01  1.56513E+01  1.42317E+01  3.65344E+00  1.60096E+01
  -5.76510E-01 -2.93658E+00 -2.48590E-01  2.37705E+01  2.42938E-01  1.62067E+01  1.16037E+01  8.39406E+00  2.07014E+01  1.48314E+01
   1.51376E+01  1.34884E+01  2.24337E+01  1.50109E+01  3.30239E+00 -2.30517E+01  3.78011E+00  1.65885E+01  2.17675E+01  9.79019E+00
   1.28102E+01  1.44638E+01 -9.99295E-01  1.84254E+01  4.47725E+00  1.72871E+01  1.65086E+01  2.33283E+01  5.44163E+00 -3.21357E+00
   1.17897E+01  7.31821E+00  1.95138E+01  4.15391E+00  2.20508E+00 -9.18821E-01  1.15077E+01  6.56898E+00  2.73227E+00  6.74176E+00
   6.05133E+00  1.40970E+01  1.41811E+01 -1.06082E+00  7.38373E+00 -1.05131E+00  2.30252E+00  1.23454E+01  1.50436E+01  5.81044E+00
   1.21005E+01  8.66857E+00  7.28394E+00  1.05828E+01  5.45026E+00  1.50253E+01 -4.74030E+00  2.21047E+00  1.15323E+01 -2.21476E+01
  -2.63165E-01  1.41754E+01  1.00304E+01  1.16007E+01 -3.97109E+00 -1.11727E+01 -2.32938E+00  1.98979E+01  7.77975E+00 -1.73805E+01
   1.71445E+00 -5.57548E+00 -8.12766E-01  1.17558E+01  3.24999E+01  2.71169E+00  7.62831E+00  1.48926E+01  5.11272E+00 -1.96346E+01
   5.47904E+00  1.29606E+01  2.12672E+01  4.98518E+00  2.00329E+00 -2.56457E+00 -7.86010E+00  1.83111E+01  8.96382E+00  4.21839E+00
   1.21059E+01 -2.22299E+00  9.71744E+00  3.54995E+00  1.51589E+01  6.24005E+00  1.41414E+01  5.22261E+00  1.69844E+00  5.85357E+00
  -3.50914E+00 -7.53590E+00  1.22071E+01  1.94770E+01 -1.21535E+01 -1.24250E+01  1.02585E+01  2.21682E+01  1.97501E+00  1.55243E+01
   7.02351E+00  9.75364E+00  1.08561E+01  2.25285E+01  1.08377E+01 -1.28813E+00 -5.53435E+00  7.86209E+00 -7.33642E+00  1.54361E+01
   1.82216E+01  1.13403E+01  4.04993E+00  1.52805E+01  1.57324E+01  2.97747E+01  1.52061E+01  2.10119E+01  2.51465E+00  2.21077E+01
   2.87536E+00  1.60337E+01  2.44984E+00 -4.76289E-01 -4.50641E+00  1.23842E+01  3.41293E+00  8.92651E+00  6.22478E+00  5.78964E+00
   6.75631E+00  3.75670E+00  1.03203E+01 -3.88850E+00  1.86306E+01 -1.65449E+00  1.15770E+01  9.25812E+00  3.00276E+00 -5.53119E+00
  -5.56697E-01  2.23075E+01 -3.48643E+00  4.83496E+00  4.61585E+00 -1.33975E+01  1.07650E+00  7.69168E-01  2.71550E+00 -1.17820E+01
   4.40126E+00  8.69042E+00 -8.01580E+00 -8.52552E+00 -9.73105E-02 -2.78804E+00  4.73740E+00  8.06246E+00  7.00431E+00 -6.31420E+00
  -9.58652E+00 -1.01494E+01 -1.09808E+01  5.85464E+00  2.71631E+00 -1.50117E+00  9.08818E+00  1.17924E+01  5.13425E+00  7.49785E+00
  -1.10379E+01  5.13723E+00 -7.27845E+00  1.47799E+01  3.06755E+00  6.76031E+00  1.17830E+00  1.89571E+01  5.97622E+00 -8.65586E+00
  -8.42493E+00 -1.63882E+00  3.05571E+00  6.39924E+00  1.69548E+01  1.23369E+01  3.11946E+01  4.52681E+00  7.03895E+00  1.48699E+01
   2.76350E+00  7.41565E+00  7.97046E+00  1.34698E+01  8.77444E+00  3.32293E+00  1.57053E+01  8.34383E-01  7.94478E+00  4.63596E+00
   1.46017E-01  3.12994E+00 -4.64592E-01  2.45283E+01  1.48146E+01  1.19127E+01  4.14898E+00  3.98268E+00 -4.11207E+00 -1.03832E+01
   2.53152E+01 -2.93005E+00  5.68527E+00  1.86892E+01 -4.59864E+00 -4.80994E+00  1.48538E+01 -6.29441E-01  1.57618E+00  2.15824E+01
   9.00276E+00  1.37142E+01  1.78102E+01  2.48920E+01  2.39333E+01  2.45300E+01  8.76998E+00  1.68196E+01  2.21669E+01  3.88316E+01
   2.25549E+01  2.58193E+01  1.80977E+01  9.70283E+00  2.22412E+01  2.56957E+01  1.63267E+01  5.45772E+00  1.56691E+01  1.28573E+01
   1.08430E+01  1.69610E+01  2.23378E+01  2.81279E+00  1.39653E+01  1.88737E+00  2.32496E+01  3.20365E+00  1.84373E+01  2.07457E+01
   2.93106E+01  1.19844E+01  4.53735E+00 -4.92963E+00  2.06677E+00 -9.08686E-01 -2.49382E+00 -4.63728E+00 -1.48521E+01 -8.98911E+00
  -1.31690E+01  9.91031E-01  2.00888E+01  9.81878E+00  6.22101E+00  1.26561E+01 -1.70594E-01 -2.46227E+00 -3.74120E+00 -1.10609E+01
   1.13202E+00 -6.06913E+00  2.09228E+00 -9.96265E+00 -1.34061E+01 -1.51561E+01 -1.04261E+01 -1.97680E+01  2.69858E+00 -3.27903E+00
  -6.51442E+00  3.24448E+00  9.15383E+00 -2.01116E+01 -1.54181E+01 -1.63690E+01 -4.15874E-01 -1.33871E+01  2.25839E+01  9.67265E+00
   1.33909E+00 -1.24862E+01 -1.71155E+01  3.34151E+00 -8.21501E+00  7.54027E+00  1.19496E+00 -7.87689E-01  3.81849E+00 -1.43839E+00
   1.33797E+01 -2.46350E+00 -4.34133E+00 -2.84000E+00  7.05630E+00  1.18071E+01  1.22184E+01 -2.62767E-01 -1.38770E+00  2.62227E+00
  -6.03510E+00  9.42407E+00  1.81622E+01 -9.67617E+00 -7.47914E+00  4.76111E+00  3.81463E+00 -2.07668E+00 -1.75662E+00 -1.41241E+01
   1.49013E+01 -2.82914E+00  5.07175E-01  7.56234E+00  1.07098E+01  8.72715E-01 -5.05359E+00 -9.26379E+00 -6.96766E+00 -3.21248E+00
  -2.15518E+00  1.89037E+01  6.39741E+00  2.22053E+01 -6.69056E+00 -1.33638E+01 -6.89187E+00 -2.09351E+00 -4.84620E+00  1.35960E+01
   4.13784E+00 -1.54426E+01 -1.69287E+00 -1.15292E+01  1.16299E+01 -1.22363E+01 -2.25194E+00 -5.48360E+00 -7.55057E+00  3.48194E+00
   8.46091E-01 -5.20937E+00 -8.24350E+00  3.77294E-01 -6.85395E+00  2.78466E+00 -9.30904E+00  2.10081E+00 -1.94284E+01 -2.34306E+00
   3.25581E+00 -1.54206E+00  7.74301E-01 -1.75836E+00  1.48435E+01 -7.71336E+00  5.17828E+00 -9.95065E-02
 NY points of the fit to the data follow
   1.19071E+01  1.15476E+01  1.12987E+01  1.11223E+01  1.12451E+01  1.18856E+01  1.28533E+01  1.38674E+01  1.47130E+01  1.53216E+01
   1.57386E+01  1.59931E+01  1.60509E+01  1.58489E+01  1.53842E+01  1.47472E+01  1.40375E+01  1.32878E+01  1.25419E+01  1.19569E+01
   1.16503E+01  1.14642E+01  1.12457E+01  1.11540E+01  1.13050E+01  1.17007E+01  1.23013E+01  1.30280E+01  1.37629E+01  1.43774E+01
   1.48116E+01  1.50167E+01  1.49301E+01  1.46024E+01  1.41026E+01  1.34915E+01  1.27981E+01  1.20459E+01  1.13782E+01  1.09999E+01
   1.10917E+01  1.17626E+01  1.28724E+01  1.40793E+01  1.50454E+01  1.56203E+01  1.58241E+01  1.57052E+01  1.52945E+01  1.46313E+01
   1.37501E+01  1.27495E+01  1.17982E+01  1.10282E+01  1.05296E+01  1.03736E+01  1.05205E+01  1.08087E+01  1.10436E+01  1.11331E+01
   1.10930E+01  1.09529E+01  1.07445E+01  1.04899E+01  1.02302E+01  1.00401E+01  9.94056E+00  9.93259E+00  1.00265E+01  1.02020E+01
   1.04063E+01  1.05812E+01  1.06734E+01  1.06576E+01  1.05353E+01  1.03400E+01  1.01151E+01  9.88557E+00  9.66831E+00  9.47489E+00
   9.27555E+00  9.01691E+00  8.65249E+00  8.21108E+00  7.76637E+00  7.38162E+00  7.08234E+00  6.87676E+00  6.76200E+00  6.75790E+00
   6.86480E+00  7.04554E+00  7.26177E+00  7.49331E+00  7.79766E+00  8.58624E+00  1.07533E+01  1.40746E+01  1.77261E+01  2.09341E+01
   2.32704E+01  2.47517E+01  2.55205E+01  2.55897E+01  2.48320E+01  2.31638E+01  2.07452E+01  1.79121E+01  1.49619E+01  1.21125E+01
   9.67125E+00  8.07526E+00  7.43583E+00  7.20299E+00  7.05852E+00  6.94674E+00  6.85373E+00  6.78463E+00  6.75865E+00  6.85278E+00
   7.39558E+00  8.58941E+00  1.01500E+01  1.17147E+01  1.30033E+01  1.39287E+01  1.45516E+01  1.49181E+01  1.49502E+01  1.45308E+01
   1.36435E+01  1.24080E+01  1.10086E+01  9.61067E+00  8.35304E+00  7.42042E+00  6.94784E+00  6.81805E+00  6.80969E+00  6.86314E+00
   6.96219E+00  7.09378E+00  7.24510E+00  7.38307E+00  7.46375E+00  7.47403E+00  7.42251E+00  7.32616E+00  7.21149E+00  7.10506E+00
   7.02253E+00  6.96739E+00  6.92566E+00  6.88770E+00  6.85160E+00  6.81834E+00  6.78708E+00  6.75569E+00  6.72125E+00  6.67965E+00
   6.63440E+00  6.59058E+00  6.54948E+00  6.50892E+00  6.46671E+00  6.42447E+00  6.38458E+00  6.34636E+00  6.30565E+00  6.25637E+00
   6.19570E+00  6.12308E+00  6.03900E+00  5.94410E+00  5.83941E+00  5.72861E+00  5.61613E+00  5.50879E+00  5.40386E+00  5.29581E+00
   5.18609E+00  5.08071E+00  4.99293E+00  4.94488E+00  4.95507E+00  5.02503E+00  5.13150E+00  5.24099E+00  5.32791E+00  5.37425E+00
   5.35988E+00  5.26664E+00  5.12676E+00  4.98555E+00  4.86954E+00  4.79122E+00  4.75463E+00  4.76651E+00  4.84898E+00  5.02518E+00
   5.24910E+00  5.46237E+00  5.61300E+00  5.61948E+00  5.46967E+00  5.19067E+00  4.85282E+00  4.59661E+00  4.59511E+00  5.08319E+00
   5.95833E+00  6.94013E+00  7.77866E+00  8.31266E+00  8.44009E+00  7.99667E+00  6.91915E+00  5.44117E+00  3.89665E+00  2.51753E+00
   1.48132E+00  8.45197E-01  6.35041E-01  9.04629E-01  1.65785E+00  2.77548E+00  3.98002E+00  5.08237E+00  6.01916E+00  6.74574E+00
   7.20247E+00  7.36741E+00  7.33101E+00  7.20090E+00  6.99500E+00  6.70050E+00  6.31554E+00  5.90904E+00  5.57011E+00  5.34386E+00
   5.20834E+00  5.17441E+00  5.25092E+00  5.38632E+00  5.51833E+00  5.62918E+00  5.75315E+00  5.90029E+00  6.04261E+00  6.13495E+00
   6.15152E+00  6.04463E+00  5.83979E+00  5.65804E+00  5.59775E+00  5.67046E+00  5.84052E+00  6.08465E+00  6.32687E+00  6.48780E+00
   6.56736E+00  6.59112E+00  6.57740E+00  6.51541E+00  6.38841E+00  6.17976E+00  5.89415E+00  5.56412E+00  5.25493E+00  5.00944E+00
   4.83344E+00  4.71532E+00  4.65022E+00  4.62380E+00  4.59918E+00  4.56077E+00  4.51018E+00  4.43932E+00  4.34517E+00  4.22872E+00
   4.09327E+00  3.94806E+00  3.81293E+00  3.70170E+00  3.61334E+00  3.54278E+00  3.48603E+00  3.43819E+00  3.39398E+00  3.34838E+00
   3.30024E+00  3.25226E+00  3.20547E+00  3.16043E+00  3.11826E+00  3.07966E+00  3.04455E+00  3.01248E+00  2.98348E+00  2.95748E+00
   2.93371E+00  2.91168E+00  2.89141E+00  2.87279E+00  2.85580E+00  2.84042E+00  2.82662E+00  2.81450E+00  2.80422E+00  2.79597E+00
   2.78998E+00  2.78661E+00  2.78631E+00  2.78934E+00  2.79584E+00  2.80608E+00  2.82042E+00  2.83926E+00  2.86308E+00  2.89244E+00
   2.92797E+00  2.97043E+00  3.02067E+00  3.07962E+00  3.14837E+00  3.22815E+00  3.32037E+00  3.42659E+00  3.54856E+00  3.68815E+00
   3.84743E+00  4.02863E+00  4.23418E+00  4.46662E+00  4.72866E+00  5.02320E+00  5.35358E+00  5.72405E+00  6.14126E+00  6.61911E+00
   7.18556E+00  7.82526E+00  8.47891E+00  9.11506E+00  9.73518E+00  1.03685E+01  1.10482E+01  1.17986E+01  1.26815E+01  1.37509E+01
   1.50097E+01  1.64179E+01  1.78939E+01  1.93370E+01  2.06485E+01  2.17367E+01  2.25060E+01  2.28545E+01  2.27320E+01  2.21700E+01
   2.12425E+01  2.00428E+01  1.86735E+01  1.72454E+01  1.58639E+01  1.45828E+01  1.34153E+01  1.23632E+01  1.14190E+01  1.05691E+01
   9.79838E+00  9.09283E+00  8.44139E+00  7.83609E+00  7.27170E+00  6.74500E+00  6.25404E+00  5.79746E+00  5.37411E+00  4.98275E+00
   4.62195E+00  4.29007E+00  3.98532E+00  3.70579E+00  3.44952E+00  3.21451E+00  2.99887E+00  2.80075E+00  2.61844E+00  2.45035E+00
   2.29501E+00  2.15109E+00  2.01739E+00  1.89284E+00  1.77650E+00  1.66750E+00  1.56510E+00  1.46862E+00  1.37747E+00  1.29113E+00
   1.20916E+00  1.13113E+00  1.05668E+00  9.85481E-01  9.17254E-01  8.51743E-01  7.88732E-01  7.28002E-01  6.69371E-01  6.12664E-01
   5.57747E-01  5.04483E-01  4.52760E-01  4.02449E-01  3.53455E-01  3.05679E-01  2.59057E-01  2.13504E-01  1.68957E-01  1.25333E-01
   8.25825E-02  4.06470E-02 -5.06092E-04 -4.09352E-02 -8.06780E-02 -1.19791E-01 -1.58298E-01 -1.96235E-01 -2.33618E-01 -2.70491E-01
  -3.06879E-01 -3.42820E-01 -3.78322E-01 -4.13411E-01 -4.48098E-01 -4.82419E-01 -5.16387E-01 -5.50029E-01 -5.83341E-01 -6.16345E-01
  -6.49048E-01 -6.81481E-01 -7.13650E-01 -7.45570E-01 -7.77236E-01 -8.08668E-01 -8.39873E-01 -8.70877E-01 -9.01678E-01 -9.32289E-01
  -9.62702E-01 -9.92934E-01 -1.02299E+00 -1.05289E+00 -1.08263E+00 -1.11222E+00 -1.14165E+00 -1.17093E+00 -1.20009E+00 -1.22912E+00
  -1.25802E+00 -1.28681E+00 -1.31546E+00 -1.34401E+00 -1.37246E+00 -1.40081E+00 -1.42906E+00 -1.45721E+00 -1.48526E+00 -1.51323E+00
  -1.54111E+00 -1.56892E+00 -1.59663E+00 -1.62427E+00 -1.65182E+00 -1.67932E+00 -1.70675E+00 -1.73411E+00 -1.76140E+00 -1.78862E+00
  -1.81579E+00 -1.84292E+00 -1.86999E+00 -1.89701E+00 -1.92397E+00 -1.95089E+00 -1.97777E+00 -2.00462E+00 -2.03143E+00 -2.05819E+00
  -2.08492E+00 -2.11162E+00 -2.13830E+00 -2.16497E+00 -2.19160E+00 -2.21821E+00 -2.24481E+00 -2.27141E+00
 NY background values follow
     9.157E+00    9.133E+00    9.109E+00    9.086E+00    9.062E+00    9.039E+00    9.015E+00    8.991E+00    8.968E+00    8.944E+00
     8.920E+00    8.897E+00    8.873E+00    8.849E+00    8.826E+00    8.802E+00    8.778E+00    8.755E+00    8.731E+00    8.708E+00
     8.684E+00    8.660E+00    8.637E+00    8.613E+00    8.589E+00    8.566E+00    8.542E+00    8.518E+00    8.495E+00    8.471E+00
     8.447E+00    8.424E+00    8.400E+00    8.376E+00    8.353E+00    8.329E+00    8.305E+00    8.282E+00    8.258E+00    8.235E+00
     8.211E+00    8.187E+00    8.164E+00    8.140E+00    8.116E+00    8.093E+00    8.069E+00    8.045E+00    8.022E+00    7.998E+00
     7.974E+00    7.951E+00    7.927E+00    7.903E+00    7.880E+00    7.856E+00    7.832E+00    7.809E+00    7.785E+00    7.761E+00
     7.738E+00    7.714E+00    7.690E+00    7.667E+00    7.643E+00    7.619E+00    7.596E+00    7.572E+00    7.548E+00    7.525E+00
     7.501E+00    7.477E+00    7.454E+00    7.430E+00    7.406E+00    7.383E+00    7.359E+00    7.335E+00    7.312E+00    7.288E+00
     7.264E+00    7.241E+00    7.217E+00    7.193E+00    7.170E+00    7.146E+00    7.122E+00    7.099E+00    7.075E+00    7.051E+00
     7.028E+00    7.004E+00    6.980E+00    6.957E+00    6.933E+00    6.909E+00    6.886E+00    6.862E+00    6.838E+00    6.815E+00
     6.791E+00    6.767E+00    6.744E+00    6.720E+00    6.696E+00    6.673E+00    6.649E+00    6.625E+00    6.602E+00    6.578E+00
     6.554E+00    6.531E+00    6.507E+00    6.483E+00    6.460E+00    6.436E+00    6.412E+00    6.389E+00    6.365E+00    6.341E+00
     6.318E+00    6.294E+00    6.270E+00    6.247E+00    6.223E+00    6.199E+00    6.176E+00    6.152E+00    6.128E+00    6.105E+00
     6.081E+00    6.057E+00    6.034E+00    6.010E+00    5.986E+00    5.963E+00    5.939E+00    5.915E+00    5.892E+00    5.868E+00
     5.844E+00    5.821E+00    5.797E+00    5.773E+00    5.750E+00    5.726E+00    5.702E+00    5.679E+00    5.655E+00    5.631E+00
     5.608E+00    5.584E+00    5.560E+00    5.537E+00    5.513E+00    5.489E+00    5.466E+00    5.442E+00    5.418E+00    5.395E+00
     5.371E+00    5.347E+00    5.324E+00    5.300E+00    5.276E+00    5.253E+00    5.229E+00    5.205E+00    5.182E+00    5.158E+00
     5.134E+00    5.110E+00    5.087E+00    5.063E+00    5.039E+00    5.016E+00    4.992E+00    4.968E+00    4.945E+00    4.921E+00
     4.897E+00    4.874E+00    4.850E+00    4.826E+00    4.803E+00    4.779E+00    4.755E+00    4.732E+00    4.708E+00    4.684E+00
     4.661E+00    4.637E+00    4.613E+00    4.590E+00    4.566E+00    4.542E+00    4.519E+00    4.495E+00    4.471E+00    4.448E+00
     4.424E+00    4.400E+00    4.377E+00    4.353E+00    4.329E+00    4.306E+00    4.282E+00    4.258E+00    4.235E+00    4.211E+00
     4.187E+00    4.164E+00    4.140E+00    4.116E+00    4.093E+00    4.069E+00    4.046E+00    4.022E+00    3.998E+00    3.975E+00
     3.951E+00    3.927E+00    3.904E+00    3.880E+00    3.856E+00    3.833E+00    3.809E+00    3.785E+00    3.762E+00    3.738E+00
     3.714E+00    3.691E+00    3.667E+00    3.643E+00    3.620E+00    3.596E+00    3.572E+00    3.549E+00    3.525E+00    3.501E+00
     3.478E+00    3.454E+00    3.430E+00    3.407E+00    3.383E+00    3.359E+00    3.336E+00    3.312E+00    3.288E+00    3.265E+00
     3.241E+00    3.218E+00    3.194E+00    3.170E+00    3.147E+00    3.123E+00    3.099E+00    3.076E+00    3.052E+00    3.028E+00
     3.005E+00    2.981E+00    2.957E+00    2.934E+00    2.910E+00    2.886E+00    2.863E+00    2.839E+00    2.816E+00    2.792E+00
     2.768E+00    2.745E+00    2.721E+00    2.697E+00    2.674E+00    2.650E+00    2.626E+00    2.603E+00    2.579E+00    2.555E+00
     2.532E+00    2.508E+00    2.485E+00    2.461E+00    2.437E+00    2.414E+00    2.390E+00    2.366E+00    2.343E+00    2.319E+00
     2.295E+00    2.272E+00    2.248E+00    2.225E+00    2.201E+00    2.177E+00    2.154E+00    2.130E+00    2.106E+00    2.083E+00
     2.059E+00    2.035E+00    2.012E+00    1.988E+00    1.965E+00    1.941E+00    1.917E+00    1.894E+00    1.870E+00    1.846E+00
     1.823E+00    1.799E+00    1.776E+00    1.752E+00    1.728E+00    1.705E+00    1.681E+00    1.658E+00    1.634E+00    1.610E+00
     1.587E+00    1.563E+00    1.539E+00    1.516E+00    1.492E+00    1.469E+00    1.445E+00    1.421E+00    1.398E+00    1.374E+00
     1.351E+00    1.327E+00    1.303E+00    1.280E+00    1.256E+00    1.232E+00    1.209E+00    1.185E+00    1.162E+00    1.138E+00
     1.114E+00    1.091E+00    1.067E+00    1.044E+00    1.020E+00    9.964E-01    9.728E-01    9.492E-01    9.256E-01    9.020E-01
     8.784E-01    8.548E-01    8.312E-01    8.076E-01    7.840E-01    7.604E-01    7.368E-01    7.132E-01    6.896E-01    6.661E-01
     6.425E-01    6.189E-01    5.953E-01    5.717E-01    5.481E-01    5.245E-01    5.009E-01    4.773E-01    4.538E-01    4.302E-01
     4.066E-01    3.830E-01    3.594E-01    3.358E-01    3.123E-01    2.887E-01    2.651E-01    2.415E-01    2.179E-01    1.944E-01
     1.708E-01    1.472E-01    1.236E-01    1.001E-01    7.650E-02    5.292E-02    2.935E-02    5.783E-03   -1.779E-02   -4.136E-02
    -6.492E-02   -8.849E-02   -1.121E-01   -1.356E-01   -1.592E-01   -1.828E-01   -2.063E-01   -2.299E-01   -2.534E-01   -2.770E-01
    -3.006E-01   -3.241E-01   -3.477E-01   -3.712E-01   -3.948E-01   -4.183E-01   -4.419E-01   -4.655E-01   -4.890E-01   -5.126E-01
    -5.361E-01   -5.597E-01   -5.832E-01   -6.068E-01   -6.303E-01   -6.538E-01   -6.774E-01   -7.009E-01   -7.245E-01   -7.480E-01
    -7.716E-01   -7.951E-01   -8.186E-01   -8.422E-01   -8.657E-01   -8.893E-01   -9.128E-01   -9.363E-01   -9.599E-01   -9.834E-01
    -1.007E+00   -1.030E+00   -1.054E+00   -1.078E+00   -1.101E+00   -1.125E+00   -1.148E+00   -1.172E+00   -1.195E+00   -1.219E+00
    -1.242E+00   -1.266E+00   -1.289E+00   -1.313E+00   -1.336E+00   -1.360E+00   -1.383E+00   -1.407E+00   -1.430E+00   -1.454E+00
    -1.477E+00   -1.501E+00   -1.524E+00   -1.548E+00   -1.571E+00   -1.595E+00   -1.618E+00   -1.642E+00   -1.665E+00   -1.689E+00
    -1.712E+00   -1.736E+00   -1.759E+00   -1.783E+00   -1.806E+00   -1.830E+00   -1.853E+00   -1.877E+00   -1.900E+00   -1.924E+00
    -1.947E+00   -1.971E+00   -1.994E+00   -2.018E+00   -2.041E+00   -2.065E+00   -2.088E+00   -2.112E+00   -2.135E+00   -2.159E+00
    -2.182E+00   -2.206E+00   -2.229E+00   -2.253E+00   -2.276E+00   -2.300E+00   -2.323E+00   -2.347E+00   -2.370E+00   -2.394E+00
    -2.417E+00   -2.440E+00   -2.464E+00   -2.487E+00   -2.511E+00   -2.534E+00   -2.558E+00   -2.581E+00
 Asp      Conc. = 5.07E+01
