 LCModel (Version 6.3-1L) Copyright: S.W. Provencher.          Ref.: Magn. Reson. Med. 30:672-679 (1993).                
 Slice#2 Row#9 Col#2  PD_05_press_2_raw_act
 36 lines in following concentration table = NCONC+1
    Conc.  %SD /Cr+PCr  Metabolite                                         
    0.000 999%   0.000 Ala                                                 
  154.532 113%   0.201 Asp                                                 
  447.298  62%   0.582 Cr                                                  
  320.645  90%   0.418 PCr                                                 
   31.108 349% 4.1E-02 GABA                                                
   31.814 341% 4.1E-02 Glc                                                 
  777.771  43%   1.013 Gln                                                 
 1.41E+03  27%   1.838 Glu                                                 
  275.031  10%   0.358 GPC                                                 
    0.000 999%   0.000 PCh                                                 
  630.419  17%   0.821 GSH                                                 
 1.47E+03  27%   1.917 Ins                                                 
   14.699 999% 1.9E-02 Lac                                                 
 1.49E+03   6%   1.935 NAA                                                 
    0.000 999%   0.000 NAAG                                                
   62.300  47% 8.1E-02 Scyllo                                              
   25.839 678% 3.4E-02 Tau                                                 
  190.093  72%   0.248 -CrCH2                                              
  275.031  10%   0.358 GPC+PCh                                             
 1.49E+03   6%   1.935 NAA+NAAG                                            
  767.944  10%   1.000 Cr+PCr                                              
 2.19E+03  26%   2.851 Glu+Gln                                             
 1.16E+03  54%   1.504 Lip13a                                              
    0.000 999%   0.000 Lip13b                                              
    0.000 999%   0.000 Lip09                                               
  707.638  32%   0.921 MM09                                                
    0.000 999%   0.000 Lip20                                               
    0.000 999%   0.000 MM20                                                
  274.317  63%   0.357 MM12                                                
 4.35E+03   6%   5.669+MM14                                                
 1.85E+03  16%   2.410 MM17                                                
 1.16E+03  54%   1.504 Lip13a+Lip13b                                       
 5.78E+03  14%   7.530 MM14+Lip13a+Lip13b+MM12                             
  707.638  32%   0.921 MM09+Lip09                                          
    0.000 999%   0.000 MM20+Lip20                                          
   6 lines in following misc. output table
  FWHM = 0.054 ppm    S/N =   5                                            
  Data shift = 0.023 ppm                                                   
  Ph: -20 deg     -14.0 deg/ppm                                            
  alphaB,S = 6.3E-01,   1.0E+02                                            
   14 spline knots.   Ns = 8(1)                                            
  ( 9) 4 infls.   (10) 1 extrs.                                            
  498 points on ppm-axis = NY
      4.000000     3.992357     3.984714     3.977070     3.969427     3.961784     3.954141     3.946497     3.938854     3.931211
      3.923568     3.915925     3.908281     3.900638     3.892995     3.885352     3.877708     3.870065     3.862422     3.854779
      3.847136     3.839492     3.831849     3.824206     3.816563     3.808919     3.801276     3.793633     3.785990     3.778347
      3.770703     3.763060     3.755417     3.747774     3.740130     3.732487     3.724844     3.717201     3.709558     3.701914
      3.694271     3.686628     3.678985     3.671341     3.663698     3.656055     3.648412     3.640769     3.633125     3.625482
      3.617839     3.610196     3.602552     3.594909     3.587266     3.579623     3.571980     3.564336     3.556693     3.549050
      3.541407     3.533763     3.526120     3.518477     3.510834     3.503191     3.495547     3.487904     3.480261     3.472618
      3.464974     3.457331     3.449688     3.442045     3.434402     3.426758     3.419115     3.411472     3.403829     3.396185
      3.388542     3.380899     3.373256     3.365613     3.357969     3.350326     3.342683     3.335040     3.327396     3.319753
      3.312110     3.304467     3.296824     3.289180     3.281537     3.273894     3.266251     3.258607     3.250964     3.243321
      3.235678     3.228034     3.220391     3.212748     3.205105     3.197462     3.189818     3.182175     3.174532     3.166889
      3.159245     3.151602     3.143959     3.136316     3.128673     3.121029     3.113386     3.105743     3.098100     3.090456
      3.082813     3.075170     3.067527     3.059884     3.052240     3.044597     3.036954     3.029311     3.021667     3.014024
      3.006381     2.998738     2.991095     2.983451     2.975808     2.968165     2.960522     2.952878     2.945235     2.937592
      2.929949     2.922306     2.914662     2.907019     2.899376     2.891733     2.884089     2.876446     2.868803     2.861160
      2.853517     2.845873     2.838230     2.830587     2.822944     2.815300     2.807657     2.800014     2.792371     2.784728
      2.777084     2.769441     2.761798     2.754155     2.746511     2.738868     2.731225     2.723582     2.715939     2.708295
      2.700652     2.693009     2.685366     2.677722     2.670079     2.662436     2.654793     2.647150     2.639506     2.631863
      2.624220     2.616577     2.608933     2.601290     2.593647     2.586004     2.578361     2.570717     2.563074     2.555431
      2.547788     2.540144     2.532501     2.524858     2.517215     2.509572     2.501928     2.494285     2.486642     2.478999
      2.471355     2.463712     2.456069     2.448426     2.440783     2.433139     2.425496     2.417853     2.410210     2.402566
      2.394923     2.387280     2.379637     2.371994     2.364350     2.356707     2.349064     2.341421     2.333777     2.326134
      2.318491     2.310848     2.303205     2.295561     2.287918     2.280275     2.272632     2.264988     2.257345     2.249702
      2.242059     2.234416     2.226772     2.219129     2.211486     2.203843     2.196199     2.188556     2.180913     2.173270
      2.165627     2.157983     2.150340     2.142697     2.135054     2.127410     2.119767     2.112124     2.104481     2.096838
      2.089194     2.081551     2.073908     2.066265     2.058621     2.050978     2.043335     2.035692     2.028049     2.020405
      2.012762     2.005119     1.997476     1.989833     1.982190     1.974546     1.966903     1.959260     1.951617     1.943974
      1.936331     1.928688     1.921045     1.913402     1.905759     1.898115     1.890472     1.882829     1.875186     1.867543
      1.859900     1.852257     1.844614     1.836971     1.829327     1.821684     1.814041     1.806398     1.798755     1.791112
      1.783469     1.775826     1.768183     1.760540     1.752896     1.745253     1.737610     1.729967     1.722324     1.714681
      1.707038     1.699395     1.691752     1.684108     1.676465     1.668822     1.661179     1.653536     1.645893     1.638250
      1.630607     1.622964     1.615321     1.607677     1.600034     1.592391     1.584748     1.577105     1.569462     1.561819
      1.554176     1.546533     1.538890     1.531246     1.523603     1.515960     1.508317     1.500674     1.493031     1.485388
      1.477745     1.470102     1.462458     1.454815     1.447172     1.439529     1.431886     1.424243     1.416600     1.408957
      1.401314     1.393671     1.386027     1.378384     1.370741     1.363098     1.355455     1.347812     1.340169     1.332526
      1.324883     1.317240     1.309596     1.301953     1.294310     1.286667     1.279024     1.271381     1.263738     1.256095
      1.248452     1.240808     1.233165     1.225522     1.217879     1.210236     1.202593     1.194950     1.187307     1.179664
      1.172021     1.164377     1.156734     1.149091     1.141448     1.133805     1.126162     1.118519     1.110876     1.103233
      1.095590     1.087946     1.080303     1.072660     1.065017     1.057374     1.049731     1.042088     1.034445     1.026802
      1.019158     1.011515     1.003872     0.996229     0.988586     0.980943     0.973300     0.965657     0.958014     0.950371
      0.942727     0.935084     0.927441     0.919798     0.912155     0.904512     0.896869     0.889226     0.881583     0.873940
      0.866296     0.858653     0.851010     0.843367     0.835724     0.828081     0.820438     0.812795     0.805152     0.797508
      0.789865     0.782222     0.774579     0.766936     0.759293     0.751650     0.744007     0.736364     0.728721     0.721077
      0.713434     0.705791     0.698148     0.690505     0.682862     0.675219     0.667576     0.659933     0.652290     0.644646
      0.637003     0.629360     0.621717     0.614074     0.606431     0.598788     0.591145     0.583502     0.575858     0.568215
      0.560572     0.552929     0.545286     0.537643     0.530000     0.522357     0.514714     0.507071     0.499427     0.491784
      0.484141     0.476498     0.468855     0.461212     0.453569     0.445925     0.438282     0.430639     0.422996     0.415353
      0.407710     0.400067     0.392424     0.384780     0.377137     0.369494     0.361851     0.354208     0.346565     0.338922
      0.331278     0.323635     0.315992     0.308349     0.300706     0.293063     0.285420     0.277777     0.270133     0.262490
      0.254847     0.247204     0.239561     0.231918     0.224275     0.216631     0.208988     0.201345
 NY phased data points follow
  -1.72563E+02 -1.72769E+02 -1.63456E+02 -1.63677E+02 -1.57124E+02 -1.60110E+02 -1.50106E+02 -1.37090E+02 -1.40146E+02 -1.33866E+02
  -1.30031E+02 -1.29529E+02 -1.33167E+02 -1.41245E+02 -1.33918E+02 -1.33926E+02 -1.28068E+02 -1.29189E+02 -1.27407E+02 -1.30665E+02
  -1.27496E+02 -1.23305E+02 -1.29389E+02 -1.20150E+02 -1.16417E+02 -1.14407E+02 -1.10815E+02 -1.13918E+02 -1.09168E+02 -1.02341E+02
  -9.25695E+01 -9.94476E+01 -1.02618E+02 -9.34037E+01 -9.58855E+01 -9.12436E+01 -9.11958E+01 -9.43348E+01 -9.14234E+01 -9.24771E+01
  -9.24166E+01 -8.59581E+01 -8.72336E+01 -8.46529E+01 -7.97259E+01 -8.47453E+01 -7.76015E+01 -7.80700E+01 -7.60746E+01 -7.91833E+01
  -8.04773E+01 -8.55730E+01 -8.18399E+01 -7.98311E+01 -7.65018E+01 -7.98179E+01 -7.62530E+01 -7.63521E+01 -6.61919E+01 -7.41561E+01
  -6.81002E+01 -6.80641E+01 -7.18220E+01 -7.16292E+01 -7.33022E+01 -7.64865E+01 -6.99323E+01 -7.38578E+01 -6.51584E+01 -6.46378E+01
  -7.25525E+01 -6.73111E+01 -6.44658E+01 -6.12576E+01 -6.32215E+01 -6.25988E+01 -6.64486E+01 -5.60233E+01 -5.89453E+01 -6.30911E+01
  -5.82796E+01 -6.31549E+01 -5.57327E+01 -5.55471E+01 -4.76158E+01 -5.37165E+01 -5.04957E+01 -5.74848E+01 -4.89034E+01 -5.08936E+01
  -4.80469E+01 -4.83691E+01 -5.18817E+01 -4.52403E+01 -4.80379E+01 -4.52519E+01 -4.26344E+01 -3.73836E+01 -3.81760E+01 -3.52435E+01
  -3.00985E+01 -2.58288E+01 -2.22621E+01 -1.79372E+01 -1.35690E+01 -3.46658E+01 -2.68222E+01 -2.53638E+01 -3.49714E+01 -3.78844E+01
  -2.87526E+01 -3.29505E+01 -3.73070E+01 -3.13976E+01 -3.39887E+01 -2.90324E+01 -3.21376E+01 -3.35476E+01 -3.47955E+01 -4.05985E+01
  -3.13413E+01 -3.50273E+01 -2.61554E+01 -1.74268E+01 -1.19582E+01 -7.40969E+00 -4.34900E+00 -3.20283E+00 -5.46426E+00 -8.88340E+00
  -1.42587E+01 -1.48448E+01 -1.44118E+01 -1.59345E+01 -2.36089E+01 -2.30764E+01 -2.41116E+01 -2.28801E+01 -2.00119E+01 -2.07721E+01
  -1.67123E+01 -1.72574E+01 -2.20540E+01 -2.20147E+01 -2.12529E+01 -2.05436E+01 -1.96274E+01 -2.33577E+01 -1.00280E+01 -1.92082E+01
  -2.09059E+01 -1.83704E+01 -1.82614E+01 -1.47700E+01 -2.24937E+01 -1.25505E+01 -1.43646E+01 -1.63789E+01 -1.17088E+01 -1.88887E+01
  -1.70789E+01 -1.53471E+01 -1.13783E+01 -1.28210E+01 -9.69954E+00 -1.95511E+01 -1.30235E+01 -9.92920E+00 -5.82198E+00 -7.51593E+00
  -5.12407E+00 -5.34451E+00 -1.22924E+01 -4.96966E+00 -1.27188E+01 -1.44138E+01 -9.49167E+00 -1.88391E+00 -3.76694E+00 -1.11353E+01
  -2.38612E+00 -3.72481E+00 -6.23995E+00 -3.26022E+00 -9.06784E+00 -6.30776E+00 -8.72504E+00 -2.24713E+00  3.05136E+00  1.42877E+00
   1.55692E+00 -5.13100E+00 -1.51774E+00  3.83123E+00  4.39824E+00  7.81814E+00 -1.64655E+00  1.11440E+00 -3.04277E-01  3.01529E+00
   3.87100E+00  4.87352E+00  6.41212E+00 -2.55502E+00  3.88214E+00  7.40897E+00  5.78037E+00  2.78216E+00  3.24537E+00 -2.13958E+00
   7.00138E+00  4.23349E+00  1.02343E+01  1.29596E+01  2.21757E+01  1.28302E+01  1.97102E+01  1.25128E+01  1.20416E+01  1.60893E+01
   1.61224E+01  1.41211E+01  1.35661E+01  7.55392E+00  1.46416E+01  1.27784E+01  1.97627E+01  2.59303E+01  2.03201E+01  2.43194E+01
   2.50624E+01  2.23947E+01  2.87404E+01  1.97592E+01  2.03161E+01  2.29262E+01  2.29864E+01  2.32900E+01  2.61274E+01  1.94135E+01
   1.62140E+01  2.07362E+01  2.24278E+01  2.82892E+01  2.52765E+01  1.99541E+01  2.88854E+01  2.83473E+01  2.92423E+01  2.21317E+01
   3.40543E+01  2.46261E+01  3.47635E+01  2.31935E+01  2.50052E+01  4.16760E+01  4.55836E+01  6.63676E+01  7.96359E+01  7.87539E+01
   8.35221E+01  8.14612E+01  7.06100E+01  6.49046E+01  5.74414E+01  6.34155E+01  5.16278E+01  5.60775E+01  4.66490E+01  4.25576E+01
   4.46207E+01  4.81980E+01  4.59983E+01  4.23604E+01  4.66239E+01  4.02609E+01  4.04281E+01  4.56801E+01  4.47273E+01  4.74736E+01
   4.97251E+01  4.81947E+01  5.07516E+01  3.84783E+01  4.89903E+01  4.65639E+01  5.09024E+01  4.79436E+01  4.69268E+01  4.79236E+01
   5.38153E+01  4.83512E+01  5.10996E+01  5.72289E+01  4.94871E+01  5.61135E+01  5.73667E+01  5.94542E+01  5.95483E+01  5.98246E+01
   6.06775E+01  5.67222E+01  6.73720E+01  6.07044E+01  6.45222E+01  6.76941E+01  6.58850E+01  7.76660E+01  7.03948E+01  7.23629E+01
   8.07071E+01  7.62209E+01  8.02264E+01  8.38818E+01  8.00359E+01  8.51649E+01  8.80072E+01  8.51717E+01  8.83225E+01  8.89209E+01
   8.93666E+01  9.21782E+01  8.90127E+01  8.76703E+01  9.49402E+01  9.54684E+01  9.08385E+01  9.53758E+01  8.81472E+01  9.56276E+01
   9.24106E+01  9.14298E+01  8.20066E+01  8.77341E+01  8.02729E+01  7.93231E+01  7.82491E+01  7.58414E+01  7.00100E+01  7.05838E+01
   6.49106E+01  6.45011E+01  6.04708E+01  6.22148E+01  6.47720E+01  6.32172E+01  5.79592E+01  5.52824E+01  5.83376E+01  5.97538E+01
   5.57076E+01  5.33928E+01  5.23258E+01  5.56220E+01  6.17484E+01  5.28625E+01  5.17204E+01  4.95387E+01  5.52786E+01  4.62349E+01
   5.60101E+01  5.24963E+01  5.47458E+01  5.16547E+01  4.56043E+01  4.44839E+01  5.18798E+01  4.81103E+01  4.59523E+01  4.89377E+01
   5.50213E+01  4.85299E+01  4.96293E+01  4.61158E+01  4.85096E+01  4.89821E+01  4.39691E+01  4.29553E+01  5.28419E+01  4.74119E+01
   4.38092E+01  3.86342E+01  4.26788E+01  3.89948E+01  3.43524E+01  3.58658E+01  3.79209E+01  3.50975E+01  3.66813E+01  3.82379E+01
   4.10616E+01  3.86801E+01  4.03342E+01  3.21474E+01  3.90230E+01  2.84764E+01  3.62612E+01  3.30874E+01  4.52590E+01  4.15074E+01
   3.50261E+01  3.40804E+01  3.52883E+01  2.87205E+01  3.16262E+01  2.81476E+01  2.75742E+01  3.68678E+01  2.32614E+01  2.38268E+01
   2.49782E+01  2.44137E+01  3.05842E+01  2.65138E+01  2.81610E+01  2.51276E+01  2.84206E+01  2.02768E+01  1.64120E+01  2.22065E+01
   2.22450E+01  1.82972E+01  1.95725E+01  2.27722E+01  1.93344E+01  2.37786E+01  2.35358E+01  1.74491E+01  2.33046E+01  1.38534E+01
   1.54290E+01  1.75244E+01  1.52826E+01  1.93148E+01  1.69647E+01  1.39147E+01  1.22439E+01  1.22632E+01  1.89253E+01  1.09747E+01
   1.75410E+01  1.33380E+01  1.26556E+01  1.50100E+01  1.83017E+01  1.48415E+01  1.79582E+01  1.97180E+01  1.54457E+01  1.43791E+01
   1.66860E+01  1.31516E+01  1.41263E+01  7.98564E+00  1.28024E+01  1.68396E+01  1.12755E+01  1.12906E+01  1.69393E+01  1.41846E+01
   7.85008E+00  8.09038E+00  1.60643E+01  1.32958E+01  9.50201E+00  1.72945E+01  1.04876E+01  1.39753E+01  1.28501E+01  2.41545E+01
   1.39599E+01  1.56346E+01  1.27711E+01  1.58589E+01  1.41359E+01  1.40668E+01  1.06594E+01  1.44534E+01  1.48074E+01  1.81128E+01
   1.42207E+01  1.65305E+01  1.29593E+01  2.12020E+01  1.61101E+01  1.61298E+01  1.34088E+01  1.86006E+01  1.23725E+01  1.06714E+01
   1.90769E+01  1.57991E+01  1.12835E+01  9.81385E+00  1.69918E+01  1.56854E+01  1.25546E+01  1.24455E+01
 NY points of the fit to the data follow
  -1.60710E+02 -1.59629E+02 -1.58392E+02 -1.56908E+02 -1.54840E+02 -1.51821E+02 -1.47903E+02 -1.43525E+02 -1.39299E+02 -1.35785E+02
  -1.33324E+02 -1.31982E+02 -1.31496E+02 -1.31335E+02 -1.31028E+02 -1.30446E+02 -1.29732E+02 -1.29072E+02 -1.28508E+02 -1.27858E+02
  -1.26912E+02 -1.25745E+02 -1.24722E+02 -1.23645E+02 -1.21907E+02 -1.19090E+02 -1.15070E+02 -1.10194E+02 -1.05132E+02 -1.00662E+02
  -9.74863E+01 -9.59848E+01 -9.59655E+01 -9.67374E+01 -9.76829E+01 -9.84990E+01 -9.90303E+01 -9.92725E+01 -9.93206E+01 -9.90098E+01
  -9.78735E+01 -9.57566E+01 -9.27823E+01 -8.92361E+01 -8.56792E+01 -8.27203E+01 -8.08093E+01 -8.00986E+01 -8.04286E+01 -8.12372E+01
  -8.18515E+01 -8.19912E+01 -8.17007E+01 -8.11198E+01 -8.03167E+01 -7.92452E+01 -7.78344E+01 -7.61686E+01 -7.45715E+01 -7.33737E+01
  -7.26582E+01 -7.22832E+01 -7.19796E+01 -7.15296E+01 -7.08175E+01 -6.98233E+01 -6.86421E+01 -6.74091E+01 -6.61978E+01 -6.50213E+01
  -6.39023E+01 -6.28635E+01 -6.19480E+01 -6.11683E+01 -6.04818E+01 -5.98369E+01 -5.92120E+01 -5.86056E+01 -5.80220E+01 -5.74006E+01
  -5.66420E+01 -5.57536E+01 -5.48648E+01 -5.41336E+01 -5.36510E+01 -5.33990E+01 -5.32656E+01 -5.31047E+01 -5.27622E+01 -5.21052E+01
  -5.11757E+01 -5.01845E+01 -4.93387E+01 -4.87364E+01 -4.84086E+01 -4.82146E+01 -4.71509E+01 -4.43046E+01 -3.96136E+01 -3.37009E+01
  -2.77667E+01 -2.31132E+01 -2.05806E+01 -2.04521E+01 -2.23325E+01 -2.50640E+01 -2.74169E+01 -2.90134E+01 -3.02486E+01 -3.15627E+01
  -3.31121E+01 -3.46710E+01 -3.57161E+01 -3.58967E+01 -3.56297E+01 -3.52683E+01 -3.48908E+01 -3.45115E+01 -3.41509E+01 -3.37508E+01
  -3.24439E+01 -2.93790E+01 -2.45243E+01 -1.85684E+01 -1.26974E+01 -8.13857E+00 -5.62095E+00 -5.26797E+00 -6.66059E+00 -8.82906E+00
  -1.08203E+01 -1.24883E+01 -1.43436E+01 -1.67203E+01 -1.95015E+01 -2.20667E+01 -2.35686E+01 -2.35613E+01 -2.26389E+01 -2.14937E+01
  -2.04848E+01 -1.97600E+01 -1.92678E+01 -1.88478E+01 -1.83983E+01 -1.79559E+01 -1.75865E+01 -1.73399E+01 -1.72275E+01 -1.71911E+01
  -1.71412E+01 -1.70141E+01 -1.67638E+01 -1.64107E+01 -1.60211E+01 -1.56857E+01 -1.54552E+01 -1.53334E+01 -1.52260E+01 -1.50026E+01
  -1.46066E+01 -1.40499E+01 -1.34025E+01 -1.27798E+01 -1.22884E+01 -1.19626E+01 -1.17394E+01 -1.15095E+01 -1.11981E+01 -1.08429E+01
  -1.05872E+01 -1.04913E+01 -1.04802E+01 -1.04166E+01 -1.02181E+01 -9.89266E+00 -9.50402E+00 -9.08638E+00 -8.66555E+00 -8.29027E+00
  -8.00058E+00 -7.78040E+00 -7.53128E+00 -7.14552E+00 -6.52051E+00 -5.55798E+00 -4.21520E+00 -2.57479E+00 -8.41229E-01  6.57110E-01
   1.63087E+00  1.91430E+00  1.61251E+00  1.04075E+00  5.40141E-01  3.87517E-01  7.27531E-01  1.59433E+00  2.97652E+00  4.78525E+00
   6.75753E+00  8.55379E+00  9.93472E+00  1.06168E+01  1.03867E+01  9.36659E+00  7.85105E+00  6.24439E+00  5.02748E+00  4.75241E+00
   5.77066E+00  7.96955E+00  1.08208E+01  1.35951E+01  1.57163E+01  1.68288E+01  1.66715E+01  1.52877E+01  1.32613E+01  1.13601E+01
   1.01262E+01  9.87239E+00  1.06181E+01  1.21245E+01  1.40228E+01  1.58291E+01  1.72168E+01  1.81278E+01  1.87450E+01  1.92893E+01
   1.98895E+01  2.06570E+01  2.15884E+01  2.26113E+01  2.36331E+01  2.45326E+01  2.50872E+01  2.51789E+01  2.48186E+01  2.41822E+01
   2.35742E+01  2.32846E+01  2.34444E+01  2.40300E+01  2.48972E+01  2.57917E+01  2.64978E+01  2.70562E+01  2.76539E+01  2.83970E+01
   2.93366E+01  3.04071E+01  3.12661E+01  3.23041E+01  3.56322E+01  4.24161E+01  5.21956E+01  6.32571E+01  7.31519E+01  7.97049E+01
   8.17459E+01  7.91783E+01  7.34140E+01  6.70890E+01  6.21417E+01  5.85410E+01  5.52571E+01  5.16458E+01  4.77193E+01  4.42466E+01
   4.23428E+01  4.21246E+01  4.24682E+01  4.29621E+01  4.34921E+01  4.39817E+01  4.44012E+01  4.47859E+01  4.51624E+01  4.55423E+01
   4.59284E+01  4.63189E+01  4.67106E+01  4.71103E+01  4.75257E+01  4.79573E+01  4.84066E+01  4.88780E+01  4.93766E+01  4.99072E+01
   5.04729E+01  5.10775E+01  5.17311E+01  5.24439E+01  5.32248E+01  5.40823E+01  5.50233E+01  5.60533E+01  5.71745E+01  5.83871E+01
   5.96884E+01  6.10721E+01  6.25289E+01  6.40477E+01  6.56151E+01  6.72170E+01  6.88398E+01  7.04704E+01  7.20974E+01  7.37111E+01
   7.53045E+01  7.68726E+01  7.84131E+01  7.99246E+01  8.14058E+01  8.28537E+01  8.42623E+01  8.56222E+01  8.69190E+01  8.81337E+01
   8.92419E+01  9.02151E+01  9.10220E+01  9.16302E+01  9.20085E+01  9.21293E+01  9.19709E+01  9.15188E+01  9.07683E+01  8.97243E+01
   8.84024E+01  8.68277E+01  8.50341E+01  8.30624E+01  8.09580E+01  7.87693E+01  7.65447E+01  7.43306E+01  7.21697E+01  7.00994E+01
   6.81549E+01  6.63623E+01  6.47300E+01  6.32547E+01  6.19267E+01  6.07349E+01  5.96703E+01  5.87235E+01  5.78928E+01  5.71835E+01
   5.65943E+01  5.61096E+01  5.57012E+01  5.53393E+01  5.49989E+01  5.46607E+01  5.43111E+01  5.39430E+01  5.35532E+01  5.31408E+01
   5.27049E+01  5.22417E+01  5.17481E+01  5.12237E+01  5.06732E+01  5.01049E+01  4.95226E+01  4.89270E+01  4.83203E+01  4.77055E+01
   4.70859E+01  4.64650E+01  4.58459E+01  4.52318E+01  4.46260E+01  4.40311E+01  4.34501E+01  4.28852E+01  4.23390E+01  4.18133E+01
   4.13102E+01  4.08312E+01  4.03775E+01  3.99502E+01  3.95497E+01  3.91761E+01  3.88287E+01  3.85064E+01  3.82070E+01  3.79278E+01
   3.76651E+01  3.74145E+01  3.71708E+01  3.69280E+01  3.66799E+01  3.64199E+01  3.61414E+01  3.58382E+01  3.55049E+01  3.51366E+01
   3.47297E+01  3.42822E+01  3.37934E+01  3.32640E+01  3.26964E+01  3.20943E+01  3.14625E+01  3.08069E+01  3.01337E+01  2.94495E+01
   2.87607E+01  2.80735E+01  2.73938E+01  2.67267E+01  2.60763E+01  2.54462E+01  2.48390E+01  2.42563E+01  2.36991E+01  2.31677E+01
   2.26619E+01  2.21810E+01  2.17239E+01  2.12895E+01  2.08764E+01  2.04832E+01  2.01085E+01  1.97511E+01  1.94097E+01  1.90831E+01
   1.87704E+01  1.84706E+01  1.81831E+01  1.79071E+01  1.76421E+01  1.73875E+01  1.71429E+01  1.69080E+01  1.66826E+01  1.64663E+01
   1.62589E+01  1.60604E+01  1.58704E+01  1.56890E+01  1.55160E+01  1.53513E+01  1.51948E+01  1.50465E+01  1.49064E+01  1.47744E+01
   1.46505E+01  1.45347E+01  1.44269E+01  1.43270E+01  1.42350E+01  1.41503E+01  1.40729E+01  1.40025E+01  1.39387E+01  1.38814E+01
   1.38304E+01  1.37853E+01  1.37459E+01  1.37121E+01  1.36835E+01  1.36599E+01  1.36411E+01  1.36269E+01  1.36169E+01  1.36110E+01
   1.36090E+01  1.36106E+01  1.36156E+01  1.36237E+01  1.36348E+01  1.36485E+01  1.36648E+01  1.36832E+01  1.37037E+01  1.37259E+01
   1.37497E+01  1.37748E+01  1.38011E+01  1.38282E+01  1.38559E+01  1.38841E+01  1.39125E+01  1.39409E+01  1.39690E+01  1.39967E+01
   1.40237E+01  1.40497E+01  1.40747E+01  1.40983E+01  1.41204E+01  1.41407E+01  1.41591E+01  1.41752E+01
 NY background values follow
    -1.636E+02   -1.619E+02   -1.603E+02   -1.586E+02   -1.570E+02   -1.553E+02   -1.537E+02   -1.520E+02   -1.504E+02   -1.488E+02
    -1.471E+02   -1.455E+02   -1.439E+02   -1.422E+02   -1.406E+02   -1.390E+02   -1.374E+02   -1.358E+02   -1.342E+02   -1.326E+02
    -1.310E+02   -1.295E+02   -1.279E+02   -1.263E+02   -1.248E+02   -1.233E+02   -1.217E+02   -1.202E+02   -1.187E+02   -1.172E+02
    -1.157E+02   -1.143E+02   -1.128E+02   -1.113E+02   -1.099E+02   -1.085E+02   -1.071E+02   -1.057E+02   -1.043E+02   -1.029E+02
    -1.016E+02   -1.002E+02   -9.889E+01   -9.758E+01   -9.629E+01   -9.501E+01   -9.375E+01   -9.251E+01   -9.128E+01   -9.007E+01
    -8.887E+01   -8.769E+01   -8.653E+01   -8.538E+01   -8.425E+01   -8.313E+01   -8.203E+01   -8.094E+01   -7.987E+01   -7.881E+01
    -7.776E+01   -7.673E+01   -7.571E+01   -7.471E+01   -7.372E+01   -7.274E+01   -7.177E+01   -7.082E+01   -6.988E+01   -6.895E+01
    -6.803E+01   -6.712E+01   -6.623E+01   -6.534E+01   -6.447E+01   -6.361E+01   -6.275E+01   -6.191E+01   -6.108E+01   -6.026E+01
    -5.945E+01   -5.864E+01   -5.785E+01   -5.706E+01   -5.629E+01   -5.552E+01   -5.476E+01   -5.401E+01   -5.327E+01   -5.253E+01
    -5.180E+01   -5.108E+01   -5.037E+01   -4.966E+01   -4.896E+01   -4.827E+01   -4.758E+01   -4.690E+01   -4.623E+01   -4.556E+01
    -4.490E+01   -4.425E+01   -4.360E+01   -4.296E+01   -4.232E+01   -4.169E+01   -4.107E+01   -4.045E+01   -3.984E+01   -3.923E+01
    -3.863E+01   -3.803E+01   -3.744E+01   -3.685E+01   -3.627E+01   -3.569E+01   -3.512E+01   -3.455E+01   -3.399E+01   -3.343E+01
    -3.288E+01   -3.233E+01   -3.179E+01   -3.125E+01   -3.071E+01   -3.018E+01   -2.965E+01   -2.913E+01   -2.861E+01   -2.809E+01
    -2.758E+01   -2.707E+01   -2.656E+01   -2.606E+01   -2.556E+01   -2.506E+01   -2.457E+01   -2.408E+01   -2.359E+01   -2.310E+01
    -2.262E+01   -2.214E+01   -2.166E+01   -2.119E+01   -2.071E+01   -2.024E+01   -1.978E+01   -1.931E+01   -1.885E+01   -1.838E+01
    -1.792E+01   -1.747E+01   -1.701E+01   -1.656E+01   -1.610E+01   -1.565E+01   -1.520E+01   -1.475E+01   -1.431E+01   -1.386E+01
    -1.342E+01   -1.297E+01   -1.253E+01   -1.209E+01   -1.165E+01   -1.121E+01   -1.077E+01   -1.033E+01   -9.892E+00   -9.454E+00
    -9.017E+00   -8.580E+00   -8.144E+00   -7.708E+00   -7.272E+00   -6.836E+00   -6.399E+00   -5.963E+00   -5.527E+00   -5.090E+00
    -4.653E+00   -4.216E+00   -3.778E+00   -3.339E+00   -2.900E+00   -2.461E+00   -2.020E+00   -1.579E+00   -1.137E+00   -6.943E-01
    -2.505E-01    1.943E-01    6.402E-01    1.087E+00    1.535E+00    1.985E+00    2.435E+00    2.887E+00    3.341E+00    3.796E+00
     4.252E+00    4.710E+00    5.170E+00    5.631E+00    6.094E+00    6.559E+00    7.026E+00    7.494E+00    7.965E+00    8.437E+00
     8.912E+00    9.389E+00    9.868E+00    1.035E+01    1.083E+01    1.132E+01    1.181E+01    1.230E+01    1.279E+01    1.329E+01
     1.379E+01    1.429E+01    1.479E+01    1.530E+01    1.581E+01    1.632E+01    1.684E+01    1.736E+01    1.788E+01    1.841E+01
     1.893E+01    1.946E+01    1.999E+01    2.053E+01    2.106E+01    2.160E+01    2.214E+01    2.268E+01    2.322E+01    2.376E+01
     2.431E+01    2.485E+01    2.539E+01    2.594E+01    2.648E+01    2.702E+01    2.757E+01    2.811E+01    2.865E+01    2.920E+01
     2.974E+01    3.028E+01    3.082E+01    3.135E+01    3.189E+01    3.242E+01    3.295E+01    3.348E+01    3.401E+01    3.453E+01
     3.505E+01    3.557E+01    3.609E+01    3.660E+01    3.711E+01    3.762E+01    3.812E+01    3.861E+01    3.911E+01    3.960E+01
     4.008E+01    4.056E+01    4.104E+01    4.151E+01    4.197E+01    4.243E+01    4.289E+01    4.333E+01    4.378E+01    4.421E+01
     4.464E+01    4.507E+01    4.548E+01    4.589E+01    4.629E+01    4.669E+01    4.708E+01    4.746E+01    4.783E+01    4.820E+01
     4.855E+01    4.890E+01    4.924E+01    4.957E+01    4.990E+01    5.021E+01    5.051E+01    5.081E+01    5.110E+01    5.137E+01
     5.164E+01    5.189E+01    5.214E+01    5.237E+01    5.260E+01    5.281E+01    5.301E+01    5.320E+01    5.338E+01    5.355E+01
     5.371E+01    5.385E+01    5.398E+01    5.410E+01    5.421E+01    5.431E+01    5.439E+01    5.446E+01    5.451E+01    5.456E+01
     5.459E+01    5.460E+01    5.461E+01    5.460E+01    5.458E+01    5.455E+01    5.451E+01    5.445E+01    5.439E+01    5.431E+01
     5.422E+01    5.412E+01    5.401E+01    5.388E+01    5.375E+01    5.360E+01    5.345E+01    5.328E+01    5.311E+01    5.292E+01
     5.272E+01    5.252E+01    5.230E+01    5.207E+01    5.184E+01    5.159E+01    5.134E+01    5.107E+01    5.080E+01    5.052E+01
     5.023E+01    4.993E+01    4.962E+01    4.930E+01    4.898E+01    4.864E+01    4.830E+01    4.795E+01    4.760E+01    4.723E+01
     4.686E+01    4.648E+01    4.609E+01    4.570E+01    4.530E+01    4.489E+01    4.448E+01    4.406E+01    4.364E+01    4.321E+01
     4.277E+01    4.233E+01    4.189E+01    4.144E+01    4.099E+01    4.054E+01    4.008E+01    3.962E+01    3.915E+01    3.869E+01
     3.822E+01    3.775E+01    3.728E+01    3.681E+01    3.634E+01    3.586E+01    3.539E+01    3.492E+01    3.444E+01    3.397E+01
     3.350E+01    3.303E+01    3.256E+01    3.209E+01    3.163E+01    3.117E+01    3.071E+01    3.025E+01    2.980E+01    2.935E+01
     2.891E+01    2.847E+01    2.803E+01    2.760E+01    2.717E+01    2.675E+01    2.634E+01    2.593E+01    2.552E+01    2.513E+01
     2.474E+01    2.435E+01    2.398E+01    2.361E+01    2.324E+01    2.288E+01    2.253E+01    2.219E+01    2.185E+01    2.151E+01
     2.119E+01    2.087E+01    2.056E+01    2.025E+01    1.995E+01    1.966E+01    1.938E+01    1.910E+01    1.882E+01    1.856E+01
     1.830E+01    1.805E+01    1.781E+01    1.757E+01    1.734E+01    1.712E+01    1.690E+01    1.669E+01    1.649E+01    1.629E+01
     1.611E+01    1.592E+01    1.575E+01    1.559E+01    1.543E+01    1.528E+01    1.513E+01    1.500E+01    1.487E+01    1.474E+01
     1.463E+01    1.452E+01    1.442E+01    1.433E+01    1.425E+01    1.417E+01    1.410E+01    1.404E+01    1.398E+01    1.393E+01
     1.388E+01    1.384E+01    1.381E+01    1.378E+01    1.375E+01    1.373E+01    1.372E+01    1.371E+01    1.370E+01    1.370E+01
     1.370E+01    1.371E+01    1.371E+01    1.373E+01    1.374E+01    1.376E+01    1.377E+01    1.380E+01    1.382E+01    1.384E+01
     1.387E+01    1.390E+01    1.392E+01    1.395E+01    1.398E+01    1.401E+01    1.404E+01    1.407E+01    1.410E+01    1.413E+01
     1.416E+01    1.418E+01    1.421E+01    1.423E+01    1.426E+01    1.428E+01    1.430E+01    1.431E+01
 Asp      Conc. = 1.55E+02
