 LCModel (Version 6.3-1L) Copyright: S.W. Provencher.          Ref.: Magn. Reson. Med. 30:672-679 (1993).                
 Slice#1 Row#4 Col#1  PD_05_press_2_raw_act
 36 lines in following concentration table = NCONC+1
    Conc.  %SD /Cr+PCr  Metabolite                                         
 7.92E+03  15%   0.000 Ala                                                 
   18.843 223%   0.000 Asp                                                 
    0.000 999%   0.000 Cr                                                  
    0.000 999%   0.000 PCr                                                 
   13.497 187%   0.000 GABA                                                
   17.035 148%   0.000 Glc                                                 
 5.46E+03  24%   0.000 Gln                                                 
    0.000 999%   0.000 Glu                                                 
    0.000 999%   0.000 GPC                                                 
   99.439  55%   0.000 PCh                                                 
    0.000 999%   0.000 GSH                                                 
   92.598 645%   0.000 Ins                                                 
    0.000 999%   0.000 Lac                                                 
  154.797 108%   0.000 NAA                                                 
    0.000 999%   0.000 NAAG                                                
    8.218 101%   0.000 Scyllo                                              
   40.471 102%   0.000 Tau                                                 
  269.859  43%   0.000 -CrCH2                                              
   99.439  55%   0.000 GPC+PCh                                             
  154.797 108%   0.000 NAA+NAAG                                            
    0.000 999%   0.000 Cr+PCr                                              
 5.46E+03  24%   0.000 Glu+Gln                                             
    0.000 999%   0.000 Lip13a                                              
    0.000 999%   0.000 Lip13b                                              
    0.000 999%   0.000 Lip09                                               
 1.35E+03  17%   0.000 MM09                                                
 1.95E-02 999%   0.000 Lip20                                               
 2.07E+03  19%   0.000 MM20                                                
  378.084  26%   0.000 MM12                                                
 2.16E+03  11%   0.000+MM14                                                
  997.701  18%   0.000 MM17                                                
    0.000 999%   0.000 Lip13a+Lip13b                                       
 2.54E+03  11%   0.000 MM14+Lip13a+Lip13b+MM12                             
 1.35E+03  17%   0.000 MM09+Lip09                                          
 2.07E+03  19%   0.000 MM20+Lip20                                          
   6 lines in following misc. output table
  FWHM = 0.183 ppm    S/N =   3                                            
  Data shift = 0.145 ppm                                                   
  Ph: -92 deg      -0.8 deg/ppm                                            
  alphaB,S = 2.8E+00,   1.0E+02                                            
   10 spline knots.   Ns = 9(2)                                            
  (10) 6 infls.   ( 3) 1 extrs.                                            
  498 points on ppm-axis = NY
      4.000000     3.992357     3.984714     3.977070     3.969427     3.961784     3.954141     3.946497     3.938854     3.931211
      3.923568     3.915925     3.908281     3.900638     3.892995     3.885352     3.877708     3.870065     3.862422     3.854779
      3.847136     3.839492     3.831849     3.824206     3.816563     3.808919     3.801276     3.793633     3.785990     3.778347
      3.770703     3.763060     3.755417     3.747774     3.740130     3.732487     3.724844     3.717201     3.709558     3.701914
      3.694271     3.686628     3.678985     3.671341     3.663698     3.656055     3.648412     3.640769     3.633125     3.625482
      3.617839     3.610196     3.602552     3.594909     3.587266     3.579623     3.571980     3.564336     3.556693     3.549050
      3.541407     3.533763     3.526120     3.518477     3.510834     3.503191     3.495547     3.487904     3.480261     3.472618
      3.464974     3.457331     3.449688     3.442045     3.434402     3.426758     3.419115     3.411472     3.403829     3.396185
      3.388542     3.380899     3.373256     3.365613     3.357969     3.350326     3.342683     3.335040     3.327396     3.319753
      3.312110     3.304467     3.296824     3.289180     3.281537     3.273894     3.266251     3.258607     3.250964     3.243321
      3.235678     3.228034     3.220391     3.212748     3.205105     3.197462     3.189818     3.182175     3.174532     3.166889
      3.159245     3.151602     3.143959     3.136316     3.128673     3.121029     3.113386     3.105743     3.098100     3.090456
      3.082813     3.075170     3.067527     3.059884     3.052240     3.044597     3.036954     3.029311     3.021667     3.014024
      3.006381     2.998738     2.991095     2.983451     2.975808     2.968165     2.960522     2.952878     2.945235     2.937592
      2.929949     2.922306     2.914662     2.907019     2.899376     2.891733     2.884089     2.876446     2.868803     2.861160
      2.853517     2.845873     2.838230     2.830587     2.822944     2.815300     2.807657     2.800014     2.792371     2.784728
      2.777084     2.769441     2.761798     2.754155     2.746511     2.738868     2.731225     2.723582     2.715939     2.708295
      2.700652     2.693009     2.685366     2.677722     2.670079     2.662436     2.654793     2.647150     2.639506     2.631863
      2.624220     2.616577     2.608933     2.601290     2.593647     2.586004     2.578361     2.570717     2.563074     2.555431
      2.547788     2.540144     2.532501     2.524858     2.517215     2.509572     2.501928     2.494285     2.486642     2.478999
      2.471355     2.463712     2.456069     2.448426     2.440783     2.433139     2.425496     2.417853     2.410210     2.402566
      2.394923     2.387280     2.379637     2.371994     2.364350     2.356707     2.349064     2.341421     2.333777     2.326134
      2.318491     2.310848     2.303205     2.295561     2.287918     2.280275     2.272632     2.264988     2.257345     2.249702
      2.242059     2.234416     2.226772     2.219129     2.211486     2.203843     2.196199     2.188556     2.180913     2.173270
      2.165627     2.157983     2.150340     2.142697     2.135054     2.127410     2.119767     2.112124     2.104481     2.096838
      2.089194     2.081551     2.073908     2.066265     2.058621     2.050978     2.043335     2.035692     2.028049     2.020405
      2.012762     2.005119     1.997476     1.989833     1.982190     1.974546     1.966903     1.959260     1.951617     1.943974
      1.936331     1.928688     1.921045     1.913402     1.905759     1.898115     1.890472     1.882829     1.875186     1.867543
      1.859900     1.852257     1.844614     1.836971     1.829327     1.821684     1.814041     1.806398     1.798755     1.791112
      1.783469     1.775826     1.768183     1.760540     1.752896     1.745253     1.737610     1.729967     1.722324     1.714681
      1.707038     1.699395     1.691752     1.684108     1.676465     1.668822     1.661179     1.653536     1.645893     1.638250
      1.630607     1.622964     1.615321     1.607677     1.600034     1.592391     1.584748     1.577105     1.569462     1.561819
      1.554176     1.546533     1.538890     1.531246     1.523603     1.515960     1.508317     1.500674     1.493031     1.485388
      1.477745     1.470102     1.462458     1.454815     1.447172     1.439529     1.431886     1.424243     1.416600     1.408957
      1.401314     1.393671     1.386027     1.378384     1.370741     1.363098     1.355455     1.347812     1.340169     1.332526
      1.324883     1.317240     1.309596     1.301953     1.294310     1.286667     1.279024     1.271381     1.263738     1.256095
      1.248452     1.240808     1.233165     1.225522     1.217879     1.210236     1.202593     1.194950     1.187307     1.179664
      1.172021     1.164377     1.156734     1.149091     1.141448     1.133805     1.126162     1.118519     1.110876     1.103233
      1.095590     1.087946     1.080303     1.072660     1.065017     1.057374     1.049731     1.042088     1.034445     1.026802
      1.019158     1.011515     1.003872     0.996229     0.988586     0.980943     0.973300     0.965657     0.958014     0.950371
      0.942727     0.935084     0.927441     0.919798     0.912155     0.904512     0.896869     0.889226     0.881583     0.873940
      0.866296     0.858653     0.851010     0.843367     0.835724     0.828081     0.820438     0.812795     0.805152     0.797508
      0.789865     0.782222     0.774579     0.766936     0.759293     0.751650     0.744007     0.736364     0.728721     0.721077
      0.713434     0.705791     0.698148     0.690505     0.682862     0.675219     0.667576     0.659933     0.652290     0.644646
      0.637003     0.629360     0.621717     0.614074     0.606431     0.598788     0.591145     0.583502     0.575858     0.568215
      0.560572     0.552929     0.545286     0.537643     0.530000     0.522357     0.514714     0.507071     0.499427     0.491784
      0.484141     0.476498     0.468855     0.461212     0.453569     0.445925     0.438282     0.430639     0.422996     0.415353
      0.407710     0.400067     0.392424     0.384780     0.377137     0.369494     0.361851     0.354208     0.346565     0.338922
      0.331278     0.323635     0.315992     0.308349     0.300706     0.293063     0.285420     0.277777     0.270133     0.262490
      0.254847     0.247204     0.239561     0.231918     0.224275     0.216631     0.208988     0.201345
 NY phased data points follow
  -8.42092E+01 -7.92630E+01 -7.76070E+01 -7.37442E+01 -8.49707E+01 -7.73761E+01 -7.38647E+01 -8.13353E+01 -6.45952E+01 -7.48463E+01
  -7.83008E+01 -6.96049E+01 -7.09950E+01 -6.98478E+01 -7.01549E+01 -6.95913E+01 -6.94892E+01 -7.98837E+01 -6.82877E+01 -6.91358E+01
  -6.71084E+01 -6.78870E+01 -6.48198E+01 -6.89946E+01 -5.70586E+01 -5.75718E+01 -6.49930E+01 -6.04706E+01 -6.31391E+01 -6.44099E+01
  -7.24203E+01 -7.09633E+01 -7.44304E+01 -6.24028E+01 -5.91750E+01 -6.51852E+01 -5.92690E+01 -6.58899E+01 -6.55499E+01 -6.66384E+01
  -5.83068E+01 -5.28494E+01 -5.94744E+01 -6.11335E+01 -6.22032E+01 -6.38970E+01 -6.24249E+01 -6.19532E+01 -5.39121E+01 -6.30479E+01
  -5.51030E+01 -5.88300E+01 -5.22505E+01 -5.44855E+01 -5.76012E+01 -4.90651E+01 -5.74208E+01 -6.22150E+01 -5.39516E+01 -5.38667E+01
  -5.15334E+01 -5.29708E+01 -6.00592E+01 -5.42855E+01 -4.52245E+01 -4.80712E+01 -5.49980E+01 -5.69186E+01 -4.40922E+01 -4.98843E+01
  -5.14608E+01 -4.26820E+01 -4.91687E+01 -4.72574E+01 -4.83418E+01 -3.80290E+01 -4.27053E+01 -4.53285E+01 -4.31048E+01 -4.19806E+01
  -5.40312E+01 -4.46522E+01 -4.51287E+01 -4.72308E+01 -3.89707E+01 -5.24166E+01 -5.46088E+01 -4.89220E+01 -5.42925E+01 -4.59297E+01
  -5.58917E+01 -4.25125E+01 -3.60732E+01 -4.41277E+01 -4.25218E+01 -4.69348E+01 -3.85914E+01 -4.30519E+01 -4.03527E+01 -4.32306E+01
  -4.58520E+01 -4.43337E+01 -3.64194E+01 -3.96175E+01 -4.01060E+01 -5.06028E+01 -4.36270E+01 -4.80801E+01 -4.76416E+01 -4.45455E+01
  -4.91446E+01 -5.23327E+01 -4.76300E+01 -4.03145E+01 -4.83765E+01 -5.56187E+01 -4.46970E+01 -4.40216E+01 -4.75150E+01 -4.77340E+01
  -4.48869E+01 -3.94285E+01 -4.40188E+01 -4.55144E+01 -4.39297E+01 -4.15627E+01 -4.35671E+01 -3.61029E+01 -4.43322E+01 -3.47426E+01
  -3.95709E+01 -3.36570E+01 -3.79685E+01 -3.90963E+01 -4.24329E+01 -4.08048E+01 -3.65443E+01 -3.67488E+01 -3.32436E+01 -3.62191E+01
  -4.10987E+01 -4.31554E+01 -4.89937E+01 -3.67299E+01 -4.42426E+01 -3.26097E+01 -4.26417E+01 -3.58391E+01 -3.69992E+01 -3.80993E+01
  -3.38117E+01 -3.81677E+01 -3.25726E+01 -3.82089E+01 -4.16642E+01 -3.12502E+01 -3.55216E+01 -4.38285E+01 -3.99023E+01 -2.27328E+01
  -3.56141E+01 -4.18301E+01 -3.35870E+01 -3.04547E+01 -3.83545E+01 -3.33427E+01 -3.89991E+01 -4.00905E+01 -3.35805E+01 -3.72100E+01
  -3.65378E+01 -3.05693E+01 -3.71700E+01 -3.37542E+01 -3.81528E+01 -3.28216E+01 -4.32698E+01 -3.73178E+01 -3.88865E+01 -3.52213E+01
  -3.85239E+01 -3.36066E+01 -2.99517E+01 -2.86711E+01 -3.74020E+01 -4.36777E+01 -4.27571E+01 -4.34180E+01 -4.12280E+01 -4.43576E+01
  -3.35831E+01 -3.95271E+01 -3.40135E+01 -3.52459E+01 -3.57466E+01 -2.69365E+01 -4.14140E+01 -3.35416E+01 -4.21200E+01 -3.83579E+01
  -3.73225E+01 -3.47865E+01 -3.29032E+01 -3.14404E+01 -3.46626E+01 -3.36236E+01 -3.59815E+01 -3.74384E+01 -2.74982E+01 -2.88067E+01
  -3.07787E+01 -4.05769E+01 -3.41839E+01 -3.98094E+01 -3.75112E+01 -3.12209E+01 -3.04454E+01 -2.44866E+01 -3.16618E+01 -2.87999E+01
  -2.19959E+01 -3.00745E+01 -1.94916E+01 -1.31850E+01 -1.85479E+01 -1.13192E+01 -2.46872E+01 -1.87431E+01 -2.92139E+01 -1.72539E+01
  -1.84268E+01 -1.40488E+01 -2.03745E+01 -1.71453E+01 -1.70045E+01 -1.90666E+01 -6.49636E+00 -1.40697E+01 -2.92842E+01 -1.66233E+01
  -2.39662E+01 -2.49344E+01 -3.04678E+01 -2.80037E+01 -2.42036E+01 -2.66858E+01 -2.16977E+01 -2.51999E+01 -2.77224E+01 -1.86281E+01
  -2.72453E+01 -1.97723E+01 -2.76032E+01 -2.17797E+01 -2.22347E+01 -1.57528E+01 -2.23183E+01 -1.64287E+01 -2.76129E+01 -2.30624E+01
  -1.21952E+01 -2.05060E+01 -2.57507E+01 -1.54402E+01 -2.62747E+01 -1.38656E+01 -1.41591E+01 -1.68472E+01 -1.92156E+01 -1.67169E+01
  -2.05142E+01 -1.59223E+01 -9.21532E+00 -2.21472E+01 -9.80068E+00 -1.29855E+01 -1.94384E+01 -1.80212E+01 -2.27735E+01 -2.28128E+01
  -2.34008E+01 -2.61749E+01 -1.32735E+01 -1.81418E+01 -1.78261E+01 -1.76261E+01 -1.98942E+01 -2.56168E+01 -2.51620E+01 -2.54110E+01
  -2.17827E+01 -2.89427E+01 -3.00220E+01 -3.19055E+01 -2.03141E+01 -2.76075E+01 -1.88371E+01 -1.91310E+01 -1.95496E+01 -2.41255E+01
  -2.27995E+01 -2.04957E+01 -2.32106E+01 -2.04306E+01 -1.71442E+01 -2.27176E+01 -1.93980E+01 -1.73414E+01 -6.09678E+00 -7.59499E+00
  -5.87012E+00 -6.48389E+00 -2.26530E+00 -1.43327E+00  1.32102E+01  1.00048E+01  3.38285E+00  6.47926E+00  5.71788E+00  7.79319E+00
   7.07836E+00  2.43389E+00  3.52164E+00  8.35513E+00  8.30461E+00  1.27172E+01  1.25761E+01  1.44530E+01  1.62142E+01  2.73250E+01
   1.50255E+01  1.49434E+01  1.26521E+01  1.53271E+01  8.10866E+00  5.94728E+00 -1.91963E+00  5.30201E+00  4.72998E+00  3.58785E-02
  -1.73158E+00 -2.34705E+00  3.65631E+00 -4.22348E+00 -1.99744E+00  2.75048E+00 -3.02772E-01 -2.28863E+00 -7.98408E+00 -8.22690E+00
  -7.15944E+00 -1.41745E+01 -7.21370E+00 -7.37659E+00 -1.28955E+01 -1.12520E+01 -1.09066E+01 -6.57121E+00 -1.20009E+01 -1.69929E+01
  -1.00166E+01 -1.85198E+01 -1.55999E+01 -1.38260E+01 -1.80669E+01 -1.97436E+01 -2.22353E+01 -1.65310E+01 -1.98591E+01 -1.76550E+01
  -1.64667E+01 -1.96004E+01 -1.32829E+01 -1.17716E+01 -1.41706E+01 -2.14871E+01 -2.46133E+01 -1.91879E+01 -1.26189E+01 -1.37023E+01
  -1.55619E+01 -1.29452E+01 -1.34296E+01 -1.79818E+01 -1.06053E+01 -1.56603E+01 -2.03246E+01 -1.89027E+01 -1.17836E+01 -1.17440E+01
  -1.26381E+01 -9.84575E+00 -1.48640E+01 -1.46921E+01 -1.66074E+01 -1.82466E+01 -1.74314E+01 -1.78516E+01 -1.07305E+01 -1.20182E+01
  -1.75221E+01 -1.20294E+01 -1.57767E+01 -1.72505E+01 -2.02436E+01 -1.20539E+01 -1.62558E+01 -2.35152E+01 -1.93020E+01 -1.81938E+01
  -1.90750E+00 -1.45444E+01 -1.45065E+01 -9.69621E+00 -1.90347E+01 -1.29579E+01 -9.78173E+00 -8.72710E+00 -9.17221E+00 -8.14538E+00
  -7.67107E+00 -1.28696E+01 -8.10236E+00 -1.32531E+01 -5.72502E+00 -5.66847E+00 -1.08697E+01 -1.42989E+01 -9.29803E+00 -6.76466E+00
   7.35136E-01 -1.54148E+01 -8.81856E+00 -1.39868E+01 -1.42811E+01 -1.33851E+01 -1.08719E+01 -1.27783E+01 -1.16702E+01 -1.46006E+01
  -1.05291E+01 -1.51307E+01 -1.00192E+01 -1.44963E+01 -1.61314E+01 -7.54005E+00 -1.01266E+01 -4.33473E+00 -1.12350E+01 -1.30428E+01
  -1.11703E+01 -1.20688E+01 -1.94105E+01 -1.03780E+01 -7.43548E+00 -1.38811E+01 -1.02176E+01 -7.75729E+00 -4.80738E+00 -1.22160E+01
  -1.04433E+01 -1.50208E+01 -9.17228E+00 -6.14981E+00 -1.43567E+01 -1.62829E+01 -4.39217E+00 -1.29835E+01 -7.29695E+00 -1.24631E+01
  -1.10342E+01 -1.13637E+01 -1.83750E+01 -1.48732E+01 -2.09428E+00 -9.43884E+00 -1.78053E+01 -8.97747E+00 -6.97871E+00 -7.39269E+00
  -4.30931E+00 -1.68395E+01 -1.06600E+01 -8.12016E+00 -8.96276E+00 -1.20217E+01 -1.95352E+01 -1.28070E+01 -1.58128E+01 -1.17050E+01
  -1.27718E+01 -7.86839E+00 -1.62484E+01 -4.27295E+00 -4.82935E+00 -1.27905E+01 -2.05284E+01 -8.91587E+00
 NY points of the fit to the data follow
  -7.21070E+01 -7.21749E+01 -7.19118E+01 -7.19225E+01 -7.17025E+01 -7.15205E+01 -7.12062E+01 -7.04881E+01 -7.02843E+01 -6.93141E+01
  -6.91604E+01 -6.78918E+01 -6.81040E+01 -6.67854E+01 -6.78286E+01 -6.67955E+01 -6.81547E+01 -6.71837E+01 -6.84908E+01 -6.71916E+01
  -6.78643E+01 -6.57031E+01 -6.59088E+01 -6.37181E+01 -6.39080E+01 -6.18061E+01 -6.24730E+01 -6.07456E+01 -6.22556E+01 -6.13771E+01
  -6.25827E+01 -6.19549E+01 -6.26402E+01 -6.19765E+01 -6.19811E+01 -6.11988E+01 -6.09251E+01 -6.06085E+01 -5.98558E+01 -5.95704E+01
  -5.89492E+01 -5.85635E+01 -5.83883E+01 -5.86238E+01 -5.86796E+01 -5.92350E+01 -5.85708E+01 -5.83788E+01 -5.78537E+01 -5.76557E+01
  -5.71814E+01 -5.72996E+01 -5.72145E+01 -5.76358E+01 -5.74784E+01 -5.73172E+01 -5.70000E+01 -5.67690E+01 -5.64193E+01 -5.63965E+01
  -5.60196E+01 -5.57701E+01 -5.55638E+01 -5.53760E+01 -5.51789E+01 -5.49980E+01 -5.48032E+01 -5.46288E+01 -5.44257E+01 -5.42328E+01
  -5.40148E+01 -5.38153E+01 -5.35908E+01 -5.33959E+01 -5.31583E+01 -5.29651E+01 -5.27319E+01 -5.25460E+01 -5.23134E+01 -5.21423E+01
  -5.19158E+01 -5.17469E+01 -5.15170E+01 -5.13379E+01 -5.10826E+01 -5.08049E+01 -5.04810E+01 -5.01575E+01 -4.97562E+01 -4.93305E+01
  -4.88160E+01 -4.83176E+01 -4.77078E+01 -4.73617E+01 -4.67462E+01 -4.65527E+01 -4.59599E+01 -4.59097E+01 -4.53499E+01 -4.53764E+01
  -4.48316E+01 -4.48793E+01 -4.43278E+01 -4.43332E+01 -4.37439E+01 -4.37342E+01 -4.31553E+01 -4.33574E+01 -4.28724E+01 -4.31408E+01
  -4.27272E+01 -4.30285E+01 -4.26837E+01 -4.29969E+01 -4.27293E+01 -4.30581E+01 -4.28629E+01 -4.30473E+01 -4.28444E+01 -4.28648E+01
  -4.26422E+01 -4.26399E+01 -4.24661E+01 -4.25185E+01 -4.23809E+01 -4.21946E+01 -4.19869E+01 -4.17944E+01 -4.15963E+01 -4.14146E+01
  -4.12312E+01 -4.10654E+01 -4.08986E+01 -4.07503E+01 -4.06017E+01 -4.04711E+01 -4.03402E+01 -4.02258E+01 -4.01096E+01 -4.00082E+01
  -3.99043E+01 -3.98119E+01 -3.97183E+01 -3.96335E+01 -3.95461E+01 -3.94653E+01 -3.93798E+01 -3.93003E+01 -3.92166E+01 -3.91366E+01
  -3.90520E+01 -3.89654E+01 -3.88771E+01 -3.87829E+01 -3.86920E+01 -3.85922E+01 -3.85002E+01 -3.83971E+01 -3.83038E+01 -3.81995E+01
  -3.81018E+01 -3.79953E+01 -3.78938E+01 -3.77875E+01 -3.76811E+01 -3.75693E+01 -3.74524E+01 -3.73375E+01 -3.72127E+01 -3.70954E+01
  -3.69589E+01 -3.68348E+01 -3.66883E+01 -3.65564E+01 -3.64016E+01 -3.62801E+01 -3.61742E+01 -3.60760E+01 -3.60897E+01 -3.60489E+01
  -3.62189E+01 -3.62334E+01 -3.66267E+01 -3.65813E+01 -3.69930E+01 -3.68207E+01 -3.70846E+01 -3.65288E+01 -3.65029E+01 -3.55541E+01
  -3.53518E+01 -3.43345E+01 -3.46563E+01 -3.36317E+01 -3.44913E+01 -3.38493E+01 -3.56209E+01 -3.51661E+01 -3.73648E+01 -3.65105E+01
  -3.80386E+01 -3.65861E+01 -3.74670E+01 -3.54421E+01 -3.57519E+01 -3.36129E+01 -3.39246E+01 -3.19474E+01 -3.24437E+01 -3.09670E+01
  -3.19230E+01 -3.07210E+01 -3.17885E+01 -3.03804E+01 -3.05908E+01 -2.92078E+01 -2.90755E+01 -2.77653E+01 -2.75849E+01 -2.63447E+01
  -2.60779E+01 -2.49954E+01 -2.48285E+01 -2.39069E+01 -2.41608E+01 -2.33765E+01 -2.36712E+01 -2.24672E+01 -2.24021E+01 -2.12226E+01
  -2.09747E+01 -2.10608E+01 -2.17569E+01 -2.23375E+01 -2.29387E+01 -2.37724E+01 -2.41940E+01 -2.48151E+01 -2.49169E+01 -2.48833E+01
  -2.41507E+01 -2.38344E+01 -2.27443E+01 -2.26426E+01 -2.15882E+01 -2.22643E+01 -2.10869E+01 -2.19904E+01 -2.06070E+01 -2.16165E+01
  -2.02949E+01 -2.13259E+01 -2.01735E+01 -2.09046E+01 -1.96921E+01 -1.99514E+01 -1.86088E+01 -1.89496E+01 -1.82761E+01 -1.88975E+01
  -1.84399E+01 -1.91519E+01 -1.86896E+01 -1.88906E+01 -1.87005E+01 -1.90049E+01 -1.88815E+01 -1.91905E+01 -1.92427E+01 -1.95291E+01
  -1.97416E+01 -2.01095E+01 -2.04298E+01 -2.06972E+01 -2.09215E+01 -2.11038E+01 -2.12032E+01 -2.12674E+01 -2.13966E+01 -2.14208E+01
  -2.15999E+01 -2.16884E+01 -2.17270E+01 -2.17447E+01 -2.17507E+01 -2.17445E+01 -2.17225E+01 -2.16842E+01 -2.16342E+01 -2.15667E+01
  -2.14862E+01 -2.13883E+01 -2.12755E+01 -2.11432E+01 -2.09928E+01 -2.08188E+01 -2.06233E+01 -2.03969E+01 -2.01366E+01 -1.98316E+01
  -1.94770E+01 -1.90550E+01 -1.85541E+01 -1.79496E+01 -1.72183E+01 -1.63182E+01 -1.51942E+01 -1.37400E+01 -1.17164E+01 -9.01154E+00
  -7.01049E+00 -3.65291E+00 -1.62894E+00  2.70253E+00  3.47340E+00  7.61376E+00  5.07816E+00  8.20786E+00  4.20753E+00  6.66605E+00
   1.70614E+00  4.67998E+00  6.99857E-01  5.71260E+00  4.06513E+00  9.47383E+00  8.81708E+00  1.40623E+01  1.28283E+01  1.62613E+01
   1.22942E+01  1.23167E+01  7.97609E+00  6.92743E+00  2.78479E+00  1.88974E+00 -8.17981E-01 -6.36896E-01 -8.13138E-01 -2.00130E+00
  -6.33483E-01 -1.37496E+00  8.40769E-01  2.29417E-01  1.69709E+00 -2.18275E-01  4.45315E-01 -3.26056E+00 -1.96472E+00 -3.68997E+00
  -3.70015E+00 -4.90377E+00 -4.74105E+00 -5.93309E+00 -6.10542E+00 -8.98004E+00 -1.08688E+01 -1.19891E+01 -1.27538E+01 -1.33080E+01
  -1.37300E+01 -1.40551E+01 -1.43159E+01 -1.45239E+01 -1.46983E+01 -1.48422E+01 -1.49687E+01 -1.50763E+01 -1.51750E+01 -1.52607E+01
  -1.53414E+01 -1.54115E+01 -1.54779E+01 -1.55339E+01 -1.55858E+01 -1.56262E+01 -1.56611E+01 -1.56830E+01 -1.56976E+01 -1.56974E+01
  -1.56880E+01 -1.56619E+01 -1.56249E+01 -1.55694E+01 -1.55012E+01 -1.54129E+01 -1.53102E+01 -1.51855E+01 -1.50449E+01 -1.48806E+01
  -1.46989E+01 -1.44920E+01 -1.42666E+01 -1.40153E+01 -1.37451E+01 -1.34494E+01 -1.31360E+01 -1.27992E+01 -1.24480E+01 -1.20779E+01
  -1.16994E+01 -1.13093E+01 -1.09196E+01 -1.05281E+01 -1.01482E+01 -9.77851E+00 -9.43287E+00 -9.11023E+00 -8.82400E+00 -8.57233E+00
  -8.36747E+00 -8.20587E+00 -8.09776E+00 -8.03718E+00 -8.03183E+00 -8.07310E+00 -8.16616E+00 -8.29996E+00 -8.47757E+00 -8.68610E+00
  -8.92731E+00 -9.18742E+00 -9.46782E+00 -9.75476E+00 -1.00501E+01 -1.03409E+01 -1.06302E+01 -1.09061E+01 -1.11733E+01 -1.14213E+01
  -1.16562E+01 -1.18688E+01 -1.20664E+01 -1.22409E+01 -1.24005E+01 -1.25378E+01 -1.26616E+01 -1.27649E+01 -1.28568E+01 -1.29304E+01
  -1.29948E+01 -1.30432E+01 -1.30847E+01 -1.31122E+01 -1.31348E+01 -1.31453E+01 -1.31526E+01 -1.31493E+01 -1.31441E+01 -1.31296E+01
  -1.31143E+01 -1.30907E+01 -1.30673E+01 -1.30361E+01 -1.30060E+01 -1.29687E+01 -1.29330E+01 -1.28907E+01 -1.28504E+01 -1.28039E+01
  -1.27597E+01 -1.27096E+01 -1.26622E+01 -1.26091E+01 -1.25589E+01 -1.25032E+01 -1.24506E+01 -1.23928E+01 -1.23382E+01 -1.22785E+01
  -1.22221E+01 -1.21607E+01 -1.21029E+01 -1.20401E+01 -1.19809E+01 -1.19169E+01 -1.18566E+01 -1.17915E+01 -1.17302E+01 -1.16642E+01
  -1.16020E+01 -1.15351E+01 -1.14722E+01 -1.14046E+01 -1.13410E+01 -1.12727E+01 -1.12086E+01 -1.11397E+01 -1.10750E+01 -1.10056E+01
  -1.09404E+01 -1.08705E+01 -1.08049E+01 -1.07345E+01 -1.06683E+01 -1.05973E+01 -1.05306E+01 -1.04589E+01
 NY background values follow
    -7.175E+01   -7.150E+01   -7.125E+01   -7.100E+01   -7.075E+01   -7.050E+01   -7.025E+01   -6.999E+01   -6.974E+01   -6.949E+01
    -6.924E+01   -6.899E+01   -6.874E+01   -6.849E+01   -6.823E+01   -6.798E+01   -6.773E+01   -6.748E+01   -6.723E+01   -6.698E+01
    -6.673E+01   -6.648E+01   -6.623E+01   -6.598E+01   -6.573E+01   -6.548E+01   -6.523E+01   -6.498E+01   -6.473E+01   -6.448E+01
    -6.423E+01   -6.398E+01   -6.373E+01   -6.349E+01   -6.324E+01   -6.299E+01   -6.274E+01   -6.250E+01   -6.225E+01   -6.201E+01
    -6.176E+01   -6.151E+01   -6.127E+01   -6.103E+01   -6.078E+01   -6.054E+01   -6.030E+01   -6.005E+01   -5.981E+01   -5.957E+01
    -5.933E+01   -5.909E+01   -5.885E+01   -5.861E+01   -5.837E+01   -5.814E+01   -5.790E+01   -5.766E+01   -5.743E+01   -5.719E+01
    -5.696E+01   -5.672E+01   -5.649E+01   -5.626E+01   -5.602E+01   -5.579E+01   -5.556E+01   -5.533E+01   -5.510E+01   -5.488E+01
    -5.465E+01   -5.442E+01   -5.420E+01   -5.397E+01   -5.375E+01   -5.352E+01   -5.330E+01   -5.308E+01   -5.286E+01   -5.264E+01
    -5.242E+01   -5.220E+01   -5.198E+01   -5.177E+01   -5.155E+01   -5.134E+01   -5.112E+01   -5.091E+01   -5.070E+01   -5.049E+01
    -5.028E+01   -5.007E+01   -4.986E+01   -4.965E+01   -4.944E+01   -4.923E+01   -4.903E+01   -4.882E+01   -4.862E+01   -4.842E+01
    -4.822E+01   -4.801E+01   -4.781E+01   -4.761E+01   -4.742E+01   -4.722E+01   -4.702E+01   -4.682E+01   -4.663E+01   -4.643E+01
    -4.624E+01   -4.605E+01   -4.586E+01   -4.567E+01   -4.548E+01   -4.529E+01   -4.510E+01   -4.491E+01   -4.472E+01   -4.454E+01
    -4.435E+01   -4.417E+01   -4.399E+01   -4.380E+01   -4.362E+01   -4.344E+01   -4.326E+01   -4.308E+01   -4.291E+01   -4.273E+01
    -4.255E+01   -4.238E+01   -4.220E+01   -4.203E+01   -4.186E+01   -4.169E+01   -4.152E+01   -4.135E+01   -4.118E+01   -4.101E+01
    -4.084E+01   -4.068E+01   -4.051E+01   -4.035E+01   -4.019E+01   -4.002E+01   -3.986E+01   -3.970E+01   -3.954E+01   -3.938E+01
    -3.922E+01   -3.907E+01   -3.891E+01   -3.876E+01   -3.860E+01   -3.845E+01   -3.830E+01   -3.814E+01   -3.799E+01   -3.784E+01
    -3.769E+01   -3.754E+01   -3.740E+01   -3.725E+01   -3.710E+01   -3.696E+01   -3.682E+01   -3.667E+01   -3.653E+01   -3.639E+01
    -3.625E+01   -3.611E+01   -3.597E+01   -3.583E+01   -3.569E+01   -3.556E+01   -3.542E+01   -3.528E+01   -3.515E+01   -3.502E+01
    -3.488E+01   -3.475E+01   -3.462E+01   -3.449E+01   -3.436E+01   -3.423E+01   -3.410E+01   -3.398E+01   -3.385E+01   -3.373E+01
    -3.360E+01   -3.348E+01   -3.335E+01   -3.323E+01   -3.311E+01   -3.299E+01   -3.287E+01   -3.275E+01   -3.263E+01   -3.251E+01
    -3.239E+01   -3.228E+01   -3.216E+01   -3.205E+01   -3.193E+01   -3.182E+01   -3.171E+01   -3.159E+01   -3.148E+01   -3.137E+01
    -3.126E+01   -3.115E+01   -3.104E+01   -3.093E+01   -3.083E+01   -3.072E+01   -3.061E+01   -3.051E+01   -3.041E+01   -3.030E+01
    -3.020E+01   -3.010E+01   -2.999E+01   -2.989E+01   -2.979E+01   -2.969E+01   -2.959E+01   -2.949E+01   -2.940E+01   -2.930E+01
    -2.920E+01   -2.911E+01   -2.901E+01   -2.892E+01   -2.882E+01   -2.873E+01   -2.864E+01   -2.854E+01   -2.845E+01   -2.836E+01
    -2.827E+01   -2.818E+01   -2.809E+01   -2.800E+01   -2.791E+01   -2.783E+01   -2.774E+01   -2.765E+01   -2.757E+01   -2.748E+01
    -2.740E+01   -2.731E+01   -2.723E+01   -2.714E+01   -2.706E+01   -2.698E+01   -2.690E+01   -2.682E+01   -2.674E+01   -2.666E+01
    -2.658E+01   -2.650E+01   -2.642E+01   -2.634E+01   -2.626E+01   -2.619E+01   -2.611E+01   -2.603E+01   -2.596E+01   -2.588E+01
    -2.581E+01   -2.573E+01   -2.566E+01   -2.559E+01   -2.551E+01   -2.544E+01   -2.537E+01   -2.530E+01   -2.523E+01   -2.515E+01
    -2.508E+01   -2.501E+01   -2.494E+01   -2.488E+01   -2.481E+01   -2.474E+01   -2.467E+01   -2.460E+01   -2.454E+01   -2.447E+01
    -2.440E+01   -2.434E+01   -2.427E+01   -2.421E+01   -2.414E+01   -2.408E+01   -2.401E+01   -2.395E+01   -2.388E+01   -2.382E+01
    -2.376E+01   -2.369E+01   -2.363E+01   -2.357E+01   -2.351E+01   -2.345E+01   -2.338E+01   -2.332E+01   -2.326E+01   -2.320E+01
    -2.314E+01   -2.308E+01   -2.302E+01   -2.296E+01   -2.290E+01   -2.284E+01   -2.278E+01   -2.272E+01   -2.266E+01   -2.260E+01
    -2.255E+01   -2.249E+01   -2.243E+01   -2.237E+01   -2.231E+01   -2.225E+01   -2.220E+01   -2.214E+01   -2.208E+01   -2.202E+01
    -2.196E+01   -2.191E+01   -2.185E+01   -2.179E+01   -2.173E+01   -2.168E+01   -2.162E+01   -2.156E+01   -2.150E+01   -2.145E+01
    -2.139E+01   -2.133E+01   -2.127E+01   -2.122E+01   -2.116E+01   -2.110E+01   -2.104E+01   -2.099E+01   -2.093E+01   -2.087E+01
    -2.081E+01   -2.076E+01   -2.070E+01   -2.064E+01   -2.058E+01   -2.052E+01   -2.047E+01   -2.041E+01   -2.035E+01   -2.029E+01
    -2.023E+01   -2.017E+01   -2.011E+01   -2.005E+01   -2.000E+01   -1.994E+01   -1.988E+01   -1.982E+01   -1.976E+01   -1.970E+01
    -1.964E+01   -1.958E+01   -1.952E+01   -1.946E+01   -1.940E+01   -1.933E+01   -1.927E+01   -1.921E+01   -1.915E+01   -1.909E+01
    -1.903E+01   -1.897E+01   -1.891E+01   -1.884E+01   -1.878E+01   -1.872E+01   -1.866E+01   -1.859E+01   -1.853E+01   -1.847E+01
    -1.841E+01   -1.834E+01   -1.828E+01   -1.822E+01   -1.815E+01   -1.809E+01   -1.802E+01   -1.796E+01   -1.790E+01   -1.783E+01
    -1.777E+01   -1.770E+01   -1.764E+01   -1.757E+01   -1.751E+01   -1.744E+01   -1.737E+01   -1.731E+01   -1.724E+01   -1.718E+01
    -1.711E+01   -1.704E+01   -1.698E+01   -1.691E+01   -1.684E+01   -1.677E+01   -1.671E+01   -1.664E+01   -1.657E+01   -1.650E+01
    -1.643E+01   -1.636E+01   -1.630E+01   -1.623E+01   -1.616E+01   -1.609E+01   -1.602E+01   -1.595E+01   -1.588E+01   -1.581E+01
    -1.574E+01   -1.567E+01   -1.560E+01   -1.552E+01   -1.545E+01   -1.538E+01   -1.531E+01   -1.524E+01   -1.517E+01   -1.509E+01
    -1.502E+01   -1.495E+01   -1.488E+01   -1.480E+01   -1.473E+01   -1.466E+01   -1.459E+01   -1.451E+01   -1.444E+01   -1.437E+01
    -1.429E+01   -1.422E+01   -1.414E+01   -1.407E+01   -1.400E+01   -1.392E+01   -1.385E+01   -1.377E+01   -1.370E+01   -1.363E+01
    -1.355E+01   -1.348E+01   -1.340E+01   -1.333E+01   -1.325E+01   -1.318E+01   -1.310E+01   -1.303E+01   -1.295E+01   -1.288E+01
    -1.280E+01   -1.273E+01   -1.265E+01   -1.258E+01   -1.250E+01   -1.243E+01   -1.236E+01   -1.228E+01   -1.221E+01   -1.213E+01
    -1.206E+01   -1.198E+01   -1.191E+01   -1.183E+01   -1.176E+01   -1.168E+01   -1.161E+01   -1.153E+01   -1.146E+01   -1.138E+01
    -1.131E+01   -1.124E+01   -1.116E+01   -1.109E+01   -1.101E+01   -1.094E+01   -1.087E+01   -1.079E+01
 Ala      Conc. = 7.92E+03
