 LCModel (Version 6.3-1L) Copyright: S.W. Provencher.          Ref.: Magn. Reson. Med. 30:672-679 (1993).                
 Slice#3 Row#12 Col#1  PD_05_press_2_raw_act
 36 lines in following concentration table = NCONC+1
    Conc.  %SD /Cr+PCr  Metabolite                                         
    0.000 999%   0.000 Ala                                                 
   10.649  53%   0.367 Asp                                                 
    0.000 999%   0.000 Cr                                                  
   29.042  99%   1.000 PCr                                                 
    6.491  52%   0.224 GABA                                                
    6.360  53%   0.219 Glc                                                 
 1.05E+03  22%  36.198 Gln                                                 
  787.105  32%  27.102 Glu                                                 
   16.933  62%   0.583 GPC                                                 
    0.000 999%   0.000 PCh                                                 
    0.000 999%   0.000 GSH                                                 
    0.000 999%   0.000 Ins                                                 
  522.334  22%  17.986 Lac                                                 
  134.436  26%   4.629 NAA                                                 
    0.000 999%   0.000 NAAG                                                
    2.178  52% 7.5E-02 Scyllo                                              
   10.663  52%   0.367 Tau                                                 
    1.929 297% 6.6E-02 -CrCH2                                              
   16.933  62%   0.583 GPC+PCh                                             
  134.436  26%   4.629 NAA+NAAG                                            
   29.042  99%   1.000 Cr+PCr                                              
 1.84E+03  22%  63.300 Glu+Gln                                             
    0.000 999%   0.000 Lip13a                                              
  180.510  27%   6.216 Lip13b                                              
    0.000 999%   0.000 Lip09                                               
  416.466  16%  14.340 MM09                                                
   40.904  57%   1.408 Lip20                                               
  624.984  16%  21.520 MM20                                                
  124.946  16%   4.302 MM12                                                
  312.443  16%  10.758 MM14                                                
  156.204  16%   5.379 MM17                                                
  180.510  27%   6.216 Lip13a+Lip13b                                       
  617.900  13%  21.276 MM14+Lip13a+Lip13b+MM12                             
  416.466  16%  14.340 MM09+Lip09                                          
  665.888  15%  22.929 MM20+Lip20                                          
   6 lines in following misc. output table
  FWHM = 0.092 ppm    S/N =   2                                            
  Data shift = 0.008 ppm                                                   
  Ph:-125 deg     -49.5 deg/ppm                                            
  alphaB,S = 8.5E+01,   6.0E+01                                            
   14 spline knots.   Ns = 8(1)                                            
  (13) 7 infls.   (11) 7 extrs.                                            
  498 points on ppm-axis = NY
      4.000000     3.992357     3.984714     3.977070     3.969427     3.961784     3.954141     3.946497     3.938854     3.931211
      3.923568     3.915925     3.908281     3.900638     3.892995     3.885352     3.877708     3.870065     3.862422     3.854779
      3.847136     3.839492     3.831849     3.824206     3.816563     3.808919     3.801276     3.793633     3.785990     3.778347
      3.770703     3.763060     3.755417     3.747774     3.740130     3.732487     3.724844     3.717201     3.709558     3.701914
      3.694271     3.686628     3.678985     3.671341     3.663698     3.656055     3.648412     3.640769     3.633125     3.625482
      3.617839     3.610196     3.602552     3.594909     3.587266     3.579623     3.571980     3.564336     3.556693     3.549050
      3.541407     3.533763     3.526120     3.518477     3.510834     3.503191     3.495547     3.487904     3.480261     3.472618
      3.464974     3.457331     3.449688     3.442045     3.434402     3.426758     3.419115     3.411472     3.403829     3.396185
      3.388542     3.380899     3.373256     3.365613     3.357969     3.350326     3.342683     3.335040     3.327396     3.319753
      3.312110     3.304467     3.296824     3.289180     3.281537     3.273894     3.266251     3.258607     3.250964     3.243321
      3.235678     3.228034     3.220391     3.212748     3.205105     3.197462     3.189818     3.182175     3.174532     3.166889
      3.159245     3.151602     3.143959     3.136316     3.128673     3.121029     3.113386     3.105743     3.098100     3.090456
      3.082813     3.075170     3.067527     3.059884     3.052240     3.044597     3.036954     3.029311     3.021667     3.014024
      3.006381     2.998738     2.991095     2.983451     2.975808     2.968165     2.960522     2.952878     2.945235     2.937592
      2.929949     2.922306     2.914662     2.907019     2.899376     2.891733     2.884089     2.876446     2.868803     2.861160
      2.853517     2.845873     2.838230     2.830587     2.822944     2.815300     2.807657     2.800014     2.792371     2.784728
      2.777084     2.769441     2.761798     2.754155     2.746511     2.738868     2.731225     2.723582     2.715939     2.708295
      2.700652     2.693009     2.685366     2.677722     2.670079     2.662436     2.654793     2.647150     2.639506     2.631863
      2.624220     2.616577     2.608933     2.601290     2.593647     2.586004     2.578361     2.570717     2.563074     2.555431
      2.547788     2.540144     2.532501     2.524858     2.517215     2.509572     2.501928     2.494285     2.486642     2.478999
      2.471355     2.463712     2.456069     2.448426     2.440783     2.433139     2.425496     2.417853     2.410210     2.402566
      2.394923     2.387280     2.379637     2.371994     2.364350     2.356707     2.349064     2.341421     2.333777     2.326134
      2.318491     2.310848     2.303205     2.295561     2.287918     2.280275     2.272632     2.264988     2.257345     2.249702
      2.242059     2.234416     2.226772     2.219129     2.211486     2.203843     2.196199     2.188556     2.180913     2.173270
      2.165627     2.157983     2.150340     2.142697     2.135054     2.127410     2.119767     2.112124     2.104481     2.096838
      2.089194     2.081551     2.073908     2.066265     2.058621     2.050978     2.043335     2.035692     2.028049     2.020405
      2.012762     2.005119     1.997476     1.989833     1.982190     1.974546     1.966903     1.959260     1.951617     1.943974
      1.936331     1.928688     1.921045     1.913402     1.905759     1.898115     1.890472     1.882829     1.875186     1.867543
      1.859900     1.852257     1.844614     1.836971     1.829327     1.821684     1.814041     1.806398     1.798755     1.791112
      1.783469     1.775826     1.768183     1.760540     1.752896     1.745253     1.737610     1.729967     1.722324     1.714681
      1.707038     1.699395     1.691752     1.684108     1.676465     1.668822     1.661179     1.653536     1.645893     1.638250
      1.630607     1.622964     1.615321     1.607677     1.600034     1.592391     1.584748     1.577105     1.569462     1.561819
      1.554176     1.546533     1.538890     1.531246     1.523603     1.515960     1.508317     1.500674     1.493031     1.485388
      1.477745     1.470102     1.462458     1.454815     1.447172     1.439529     1.431886     1.424243     1.416600     1.408957
      1.401314     1.393671     1.386027     1.378384     1.370741     1.363098     1.355455     1.347812     1.340169     1.332526
      1.324883     1.317240     1.309596     1.301953     1.294310     1.286667     1.279024     1.271381     1.263738     1.256095
      1.248452     1.240808     1.233165     1.225522     1.217879     1.210236     1.202593     1.194950     1.187307     1.179664
      1.172021     1.164377     1.156734     1.149091     1.141448     1.133805     1.126162     1.118519     1.110876     1.103233
      1.095590     1.087946     1.080303     1.072660     1.065017     1.057374     1.049731     1.042088     1.034445     1.026802
      1.019158     1.011515     1.003872     0.996229     0.988586     0.980943     0.973300     0.965657     0.958014     0.950371
      0.942727     0.935084     0.927441     0.919798     0.912155     0.904512     0.896869     0.889226     0.881583     0.873940
      0.866296     0.858653     0.851010     0.843367     0.835724     0.828081     0.820438     0.812795     0.805152     0.797508
      0.789865     0.782222     0.774579     0.766936     0.759293     0.751650     0.744007     0.736364     0.728721     0.721077
      0.713434     0.705791     0.698148     0.690505     0.682862     0.675219     0.667576     0.659933     0.652290     0.644646
      0.637003     0.629360     0.621717     0.614074     0.606431     0.598788     0.591145     0.583502     0.575858     0.568215
      0.560572     0.552929     0.545286     0.537643     0.530000     0.522357     0.514714     0.507071     0.499427     0.491784
      0.484141     0.476498     0.468855     0.461212     0.453569     0.445925     0.438282     0.430639     0.422996     0.415353
      0.407710     0.400067     0.392424     0.384780     0.377137     0.369494     0.361851     0.354208     0.346565     0.338922
      0.331278     0.323635     0.315992     0.308349     0.300706     0.293063     0.285420     0.277777     0.270133     0.262490
      0.254847     0.247204     0.239561     0.231918     0.224275     0.216631     0.208988     0.201345
 NY phased data points follow
  -1.23214E-01 -1.11097E+00 -3.60895E+00 -1.51920E+00 -1.94526E+00 -1.65755E+00 -3.47359E+00 -3.11545E-01  2.79670E-01 -9.59263E-01
  -3.69373E+00  2.03462E+00 -1.42410E+00  4.03326E-01 -1.53193E+00  1.99456E+00  5.84463E-01 -1.97944E-01 -4.06536E+00 -1.67483E+00
  -1.89639E+00 -6.52399E-02  9.16600E-01 -6.87479E-01  1.22761E+00 -1.58087E+00 -7.47110E-01 -1.73038E+00 -2.80046E+00 -3.66941E+00
   1.07963E-01 -3.35718E-02 -3.01638E+00 -2.30210E+00  6.66023E-01 -4.33448E+00 -1.45102E+00 -1.09636E+00 -2.46024E+00  4.12995E-02
  -5.17917E-01  2.63905E-01  6.55665E-01 -1.88592E+00 -1.66956E+00 -8.42530E-01  1.54411E+00 -1.90681E+00 -8.42264E-01 -3.87177E+00
  -2.77481E+00 -2.95671E+00 -3.63370E+00 -2.23178E+00 -2.71473E+00 -8.64906E-01 -1.83324E+00 -3.20986E+00  8.51769E-01 -1.57011E+00
  -2.34548E+00 -2.03644E+00 -1.86286E+00 -9.13510E-01 -1.15059E+00 -3.49261E+00 -3.34620E+00 -3.07244E+00 -2.08420E+00 -1.84148E+00
  -1.86042E+00 -1.83396E+00 -2.44329E+00 -1.30780E+00 -1.80133E+00  1.18532E-01 -4.12555E+00 -2.28512E+00 -1.66928E+00 -1.75323E+00
  -2.61705E+00 -8.81059E-01 -1.05526E+00 -5.40622E-02 -6.20824E-01 -2.12855E+00 -1.88760E+00 -1.72642E+00 -1.88621E+00 -1.58452E+00
   1.51995E+00 -2.60507E+00 -5.67431E-01 -4.02460E+00 -7.21894E-01 -1.05369E+00 -4.36856E+00 -2.19444E+00 -3.49698E+00 -2.93691E+00
  -1.78735E+00 -1.97666E+00 -6.14945E-01 -1.03444E+00 -1.13985E+00  3.00101E+00 -4.56831E-01 -1.43070E+00 -3.30976E-01  2.45024E+00
  -3.30102E+00  1.59760E+00 -3.34908E+00 -5.23889E-01 -1.75853E+00 -7.88704E-01  1.30779E+00  1.54527E+00 -7.92327E-01 -1.34881E+00
  -1.04542E+00 -2.20318E+00 -4.06475E+00 -2.29677E+00  7.37746E-01 -2.36220E+00 -2.58493E+00  1.11387E+00 -2.86865E+00 -7.68658E-01
  -4.28955E+00 -1.54646E+00 -2.25206E-03  1.71540E+00  6.21859E-01 -2.69090E-01  2.02253E+00 -2.40619E+00  1.65692E+00  1.17442E+00
  -1.95696E+00 -3.02929E+00 -1.46344E+00 -1.80374E+00 -2.40206E+00 -1.45234E+00 -3.24498E+00 -4.71601E+00 -2.77946E+00 -2.74425E+00
  -2.08137E+00  1.38616E-01 -6.72308E-01 -6.72474E-01 -1.63254E+00 -2.41714E-01 -2.24578E+00 -1.79211E+00 -5.16775E-01 -3.20955E-01
  -2.25399E+00 -3.98008E-01 -1.10289E+00 -6.78143E-01 -1.43027E+00 -2.36374E+00 -2.90661E+00 -3.26256E+00 -2.96844E-01 -2.65410E+00
  -8.01249E-01 -2.57043E+00 -1.41414E+00 -3.46503E+00 -1.43697E+00 -3.54062E+00 -1.60166E+00 -3.48681E+00 -4.15895E+00 -2.96194E+00
  -1.85539E+00 -4.47821E+00 -3.44878E+00 -2.13768E+00 -3.14051E+00 -1.65011E+00 -5.18956E+00 -3.24417E+00 -3.80523E+00 -2.24890E+00
  -4.73368E+00 -4.51485E+00 -5.87640E+00 -2.31535E+00 -2.54047E+00 -4.29116E+00 -4.25049E+00 -2.51182E+00 -3.01327E+00 -3.90153E+00
  -2.85503E-01 -4.98628E+00 -3.36023E+00 -1.17932E+00 -2.76937E+00  8.73289E-02 -1.18324E+00 -2.48582E-01 -1.61004E+00 -1.73346E+00
  -1.35546E+00 -1.20625E+00 -4.91030E-01 -7.61049E-01 -3.73545E-01 -8.03568E-01 -1.14975E-01  1.96182E-01 -3.02261E-01 -2.20051E-01
  -1.45315E+00  1.07988E+00  1.03172E-01  3.38365E+00  2.66945E+00  4.77732E-01  2.38401E+00  3.79945E+00  2.62250E+00  2.55958E+00
   2.22689E+00  1.87335E+00  6.09736E+00  4.13259E+00  4.64697E+00  4.95811E+00  1.61909E+00  2.54660E+00  4.85365E+00  4.76894E+00
   1.70769E+00  2.29617E+00  1.32596E+00  4.08385E+00  4.01687E+00  3.34230E+00  4.57452E+00  2.16376E+00  2.13009E+00  3.69933E+00
   2.17176E+00  2.95256E+00  3.01257E+00  4.22522E+00  2.71832E+00  9.06776E-01  3.28181E+00  3.61287E+00  4.57742E+00  2.13585E+00
   3.26144E+00  2.92818E+00  3.88263E+00  3.84081E+00  7.81591E+00  5.38841E+00  5.95225E+00  3.51590E+00  3.62706E+00  6.29616E+00
   3.59559E+00  3.70813E+00  5.15978E+00  3.50429E+00  4.69516E+00  2.39597E+00  1.32947E+00  1.35755E+00  3.70448E+00  1.34276E+00
   1.62819E+00  5.42885E-01  3.13255E+00  2.07102E+00  1.46630E+00  1.55565E+00  9.35446E-01 -2.11536E-01  1.17981E+00  2.47626E+00
   3.44389E-01  2.02105E+00  1.11787E+00  1.34134E+00  2.99648E+00  7.74738E-01 -4.38932E-01 -4.00775E-02 -2.30783E+00 -1.37578E+00
  -1.52311E-01  2.10987E-01  4.43924E-01  8.33207E-01  5.56899E-01 -2.85326E-01 -4.73574E-01  1.36289E+00  2.50476E+00 -1.19938E+00
  -1.24076E+00 -5.20083E-01 -2.07173E+00 -2.91173E+00 -1.93106E+00 -2.13799E+00  1.14608E+00 -5.64301E-01 -2.26308E+00 -4.32067E-01
   2.68435E+00 -8.37204E-01 -1.15886E+00  1.81535E-01  2.57880E+00  2.46338E+00  2.79267E+00  2.07393E+00  1.92721E-01  4.49953E+00
   4.72966E+00  3.66222E+00  3.99541E+00  2.53783E+00  4.24269E+00  2.92829E+00  2.62863E+00  5.35072E+00  5.02620E+00  4.40324E+00
   4.05252E+00  5.03432E+00  4.72318E+00  2.64901E+00  6.19174E+00  3.60699E+00  3.91261E+00  2.76314E+00  2.49562E+00  3.28835E+00
   4.20413E+00  2.68746E+00  1.18407E+00  4.73393E+00  5.15668E+00  2.50087E+00  3.41150E+00  1.39573E+00  3.25268E+00  3.67975E+00
   1.39087E+00  2.63934E+00  5.81695E+00  4.09334E+00  1.92967E+00  2.44775E+00  3.22113E+00  3.26581E+00  2.54955E+00  2.36078E+00
   3.08252E+00  4.46347E+00  6.67188E-01  2.52624E+00  4.88133E+00  1.17484E+00  1.27791E+00  1.11969E+00  2.01511E+00 -1.32458E+00
   1.73017E+00  2.42797E+00 -9.82663E-01 -8.49888E-01  7.25234E-01 -2.31043E+00 -1.12609E-01 -1.43394E+00 -2.00076E+00 -2.59437E+00
  -3.77066E-01 -1.06938E+00  1.25474E+00  6.81771E-01 -2.42920E+00  8.26440E-01 -1.99515E+00 -9.93308E-01 -1.20773E+00  1.52889E+00
   8.68264E-01 -1.25633E+00  2.13140E+00  1.39683E+00  1.33045E+00  4.30900E-01 -2.12104E-01  1.57483E+00  2.14251E+00 -3.29901E-01
  -1.12439E+00  1.03379E-02  9.36978E-01 -6.83168E-01 -5.48523E-02  7.41164E-01  4.05841E-01  9.15704E-01 -2.35544E-01 -2.75116E-01
   2.08938E-01 -2.46302E-01  3.85063E-01  1.97596E+00 -8.83174E-02  1.24865E-01 -1.30043E+00  1.71874E+00 -4.09354E-02  1.46442E+00
   2.67686E-01  1.54273E+00  1.30313E+00  1.93698E+00  7.74796E-01  4.95146E-01  1.00895E-01  3.01043E+00  2.36126E-01  1.63096E+00
   3.99927E+00  2.09878E+00  3.11917E-01  5.72373E-01  1.72438E+00  4.25505E-01 -9.45290E-01  1.90141E+00 -2.02943E-01 -9.20206E-01
   2.99842E-01  9.96167E-01  1.79393E+00 -6.20511E-01 -1.14016E+00  5.69610E-01  3.67438E+00  1.13630E+00  1.29681E+00  1.77198E+00
   4.20193E-01  1.64455E+00 -8.54460E-01  1.96750E+00  1.19163E+00 -4.30133E-01  6.73047E-01 -1.64946E+00  8.04498E-01  1.61610E-01
   2.32963E+00  6.79757E-01  1.99193E+00  2.32844E+00  9.19970E-01 -5.84503E-01  2.23689E+00  1.91876E+00 -1.10791E-01  1.72703E+00
  -9.51311E-01 -2.79838E-01 -4.40908E-01  7.50072E-01 -7.64578E-01 -3.50469E-01  2.07963E-01  2.04956E+00 -1.60193E+00  7.23595E-01
   2.35043E+00  1.73325E+00  2.41828E+00  1.65521E-01  6.51291E-01  4.07181E-01  6.44829E-01  3.47975E-01
 NY points of the fit to the data follow
  -2.04869E+00 -2.22287E+00 -2.29123E+00 -2.32856E+00 -2.35334E+00 -2.31889E+00 -2.18100E+00 -1.96791E+00 -1.80431E+00 -1.71975E+00
  -1.66702E+00 -1.62638E+00 -1.58571E+00 -1.53490E+00 -1.46684E+00 -1.38159E+00 -1.28576E+00 -1.17438E+00 -1.05930E+00 -1.06888E+00
  -1.23182E+00 -1.35813E+00 -1.34378E+00 -1.32344E+00 -1.32366E+00 -1.21017E+00 -1.16667E+00 -1.29349E+00 -1.37886E+00 -1.14784E+00
  -7.20653E-01 -3.71677E-01 -2.08485E-01 -4.09796E-01 -9.67764E-01 -1.45586E+00 -1.37684E+00 -8.65462E-01 -2.69063E-01  1.66815E-01
   9.89748E-02 -6.60920E-01 -1.63192E+00 -2.10332E+00 -2.11081E+00 -1.79287E+00 -1.25539E+00 -7.16514E-01 -5.59946E-01 -7.96870E-01
  -1.03167E+00 -1.19852E+00 -1.32554E+00 -1.41894E+00 -1.49128E+00 -1.55395E+00 -1.60227E+00 -1.63662E+00 -1.66821E+00 -1.70102E+00
  -1.72927E+00 -1.74994E+00 -1.76476E+00 -1.77769E+00 -1.78986E+00 -1.79875E+00 -1.80468E+00 -1.80729E+00 -1.80667E+00 -1.80681E+00
  -1.80859E+00 -1.80885E+00 -1.80579E+00 -1.80155E+00 -1.79901E+00 -1.79992E+00 -1.80311E+00 -1.80456E+00 -1.79781E+00 -1.78268E+00
  -1.77082E+00 -1.76406E+00 -1.75551E+00 -1.74332E+00 -1.73555E+00 -1.73336E+00 -1.73161E+00 -1.72938E+00 -1.72488E+00 -1.71931E+00
  -1.71542E+00 -1.71227E+00 -1.70937E+00 -1.70628E+00 -1.68354E+00 -1.57541E+00 -1.43203E+00 -1.34461E+00 -1.28652E+00 -1.16654E+00
  -9.69080E-01 -7.77825E-01 -6.60030E-01 -6.13181E-01 -6.05996E-01 -6.16750E-01 -6.37409E-01 -6.61166E-01 -6.71240E-01 -6.74454E-01
  -7.36462E-01 -9.26429E-01 -1.19924E+00 -1.34848E+00 -1.36880E+00 -1.35874E+00 -1.34036E+00 -1.31555E+00 -1.26662E+00 -1.16261E+00
  -1.05599E+00 -9.90456E-01 -9.34070E-01 -8.34608E-01 -6.96483E-01 -5.74644E-01 -5.03873E-01 -4.76245E-01 -4.70541E-01 -4.76182E-01
  -4.89987E-01 -5.04989E-01 -5.13535E-01 -5.29293E-01 -5.92798E-01 -7.36531E-01 -9.15547E-01 -1.01008E+00 -1.04335E+00 -1.06744E+00
  -1.09029E+00 -1.11025E+00 -1.12659E+00 -1.14078E+00 -1.15559E+00 -1.17220E+00 -1.18855E+00 -1.20550E+00 -1.22354E+00 -1.24003E+00
  -1.25327E+00 -1.26370E+00 -1.27601E+00 -1.29655E+00 -1.32151E+00 -1.34044E+00 -1.35037E+00 -1.35629E+00 -1.36930E+00 -1.39044E+00
  -1.40775E+00 -1.41296E+00 -1.40981E+00 -1.40914E+00 -1.41617E+00 -1.42820E+00 -1.44269E+00 -1.45883E+00 -1.47519E+00 -1.48349E+00
  -1.47217E+00 -1.46159E+00 -1.47301E+00 -1.50762E+00 -1.54460E+00 -1.55211E+00 -1.53627E+00 -1.52050E+00 -1.51474E+00 -1.51482E+00
  -1.50214E+00 -1.47098E+00 -1.43734E+00 -1.40746E+00 -1.37270E+00 -1.32920E+00 -1.31856E+00 -1.36742E+00 -1.42511E+00 -1.51758E+00
  -1.62245E+00 -1.74104E+00 -1.88074E+00 -1.99723E+00 -1.98002E+00 -1.82269E+00 -1.63858E+00 -1.42465E+00 -1.04591E+00 -5.94115E-01
  -2.22598E-01 -3.67667E-02 -1.82217E-01 -5.38688E-01 -6.56483E-01 -6.00438E-01 -7.36121E-01 -1.21253E+00 -1.51630E+00 -1.55417E+00
  -1.54570E+00 -1.52114E+00 -1.28188E+00 -9.76681E-01 -1.01704E+00 -1.29204E+00 -1.28230E+00 -8.79714E-01 -1.19047E-01  8.26444E-01
   1.35439E+00  1.26988E+00  1.10648E+00  8.28614E-01  3.25614E-01 -1.44312E-01 -1.33130E-01  7.12506E-02  1.83347E-01  3.50036E-01
   9.52168E-01  1.81320E+00  2.25828E+00  2.12561E+00  1.89421E+00  1.67420E+00  1.50200E+00  1.55047E+00  1.73768E+00  1.83962E+00
   1.78980E+00  1.58951E+00  1.25449E+00  9.81256E-01  1.07011E+00  1.51691E+00  1.81476E+00  1.70303E+00  1.46668E+00  1.20074E+00
   9.53826E-01  1.04237E+00  1.72503E+00  2.53482E+00  3.08284E+00  3.43923E+00  3.79290E+00  4.28292E+00  4.88792E+00  5.32823E+00
   5.34766E+00  5.03810E+00  4.59703E+00  4.14965E+00  3.77729E+00  3.56923E+00  3.53211E+00  3.45049E+00  3.01404E+00  2.19377E+00
   1.44581E+00  1.16998E+00  1.04925E+00  9.72313E-01  9.62421E-01  9.54420E-01  9.23697E-01  9.07022E-01  9.07433E-01  9.29156E-01
   9.64674E-01  9.85470E-01  9.67999E-01  9.35865E-01  9.17387E-01  9.10551E-01  9.09413E-01  9.16167E-01  9.33726E-01  9.59663E-01
   9.81426E-01  9.91875E-01  9.95526E-01  9.92814E-01  9.83597E-01  9.69303E-01  9.51688E-01  9.30870E-01  9.05266E-01  8.76057E-01
   8.46145E-01  8.15837E-01  7.84902E-01  7.55295E-01  7.28031E-01  7.03672E-01  6.83034E-01  6.66963E-01  6.56264E-01  6.51567E-01
   6.53169E-01  6.61155E-01  6.75897E-01  6.98468E-01  7.29115E-01  7.67569E-01  8.14145E-01  8.69217E-01  9.32865E-01  1.00509E+00
   1.08578E+00  1.17474E+00  1.27167E+00  1.37618E+00  1.48774E+00  1.60563E+00  1.72900E+00  1.85694E+00  1.98855E+00  2.12305E+00
   2.25982E+00  2.39854E+00  2.53946E+00  2.68385E+00  2.83469E+00  2.99767E+00  3.18337E+00  3.41286E+00  3.73576E+00  4.25384E+00
   4.73203E+00  4.68089E+00  4.43551E+00  4.45780E+00  4.67063E+00  4.53976E+00  3.82523E+00  3.12718E+00  2.90562E+00  2.75180E+00
   2.44127E+00  2.27655E+00  2.60971E+00  3.21949E+00  3.47631E+00  3.07442E+00  2.42811E+00  2.42405E+00  3.11172E+00  3.58890E+00
   3.91590E+00  4.29973E+00  4.63867E+00  4.48038E+00  3.47084E+00  2.30567E+00  1.70657E+00  1.39428E+00  1.20606E+00  1.08481E+00
   1.00366E+00  9.47993E-01  9.09394E-01  8.82904E-01  8.65576E-01  8.55734E-01  8.52535E-01  8.55648E-01  8.64980E-01  8.80491E-01
   9.02138E-01  9.29894E-01  9.63757E-01  1.00371E+00  1.04967E+00  1.10142E+00  1.15865E+00  1.22099E+00  1.28799E+00  1.35912E+00
   1.43367E+00  1.51082E+00  1.58960E+00  1.66895E+00  1.74771E+00  1.82462E+00  1.89833E+00  1.96740E+00  2.03041E+00  2.08599E+00
   2.13285E+00  2.16979E+00  2.19578E+00  2.20999E+00  2.21185E+00  2.20106E+00  2.17763E+00  2.14184E+00  2.09424E+00  2.03566E+00
   1.96717E+00  1.89006E+00  1.80573E+00  1.71568E+00  1.62146E+00  1.52460E+00  1.42660E+00  1.32886E+00  1.23262E+00  1.13899E+00
   1.04887E+00  9.63026E-01  8.82041E-01  8.06316E-01  7.36092E-01  6.71471E-01  6.12432E-01  5.58868E-01  5.10587E-01  4.67336E-01
   4.28813E-01  3.94691E-01  3.64632E-01  3.38301E-01  3.15374E-01  2.95530E-01  2.78461E-01  2.63883E-01  2.51539E-01  2.41203E-01
   2.32657E-01  2.25703E-01  2.20159E-01  2.15874E-01  2.12716E-01  2.10565E-01  2.09311E-01  2.08851E-01  2.09098E-01  2.09984E-01
   2.11443E-01  2.13417E-01  2.15848E-01  2.18690E-01  2.21903E-01  2.25451E-01  2.29305E-01  2.33438E-01  2.37821E-01  2.42428E-01
   2.47240E-01  2.52244E-01  2.57426E-01  2.62768E-01  2.68253E-01  2.73867E-01  2.79603E-01  2.85457E-01  2.91422E-01  2.97487E-01
   3.03641E-01  3.09881E-01  3.16204E-01  3.22608E-01  3.29084E-01  3.35628E-01  3.42237E-01  3.48913E-01  3.55656E-01  3.62467E-01
   3.69339E-01  3.76274E-01  3.83270E-01  3.90331E-01  3.97461E-01  4.04662E-01  4.11932E-01  4.19276E-01  4.26699E-01  4.34209E-01
   4.41813E-01  4.49516E-01  4.57325E-01  4.65250E-01  4.73304E-01  4.81504E-01  4.89866E-01  4.98407E-01
 NY background values follow
    -2.251E+00   -2.245E+00   -2.240E+00   -2.234E+00   -2.229E+00   -2.223E+00   -2.217E+00   -2.212E+00   -2.206E+00   -2.200E+00
    -2.195E+00   -2.189E+00   -2.183E+00   -2.178E+00   -2.172E+00   -2.166E+00   -2.160E+00   -2.155E+00   -2.149E+00   -2.143E+00
    -2.137E+00   -2.132E+00   -2.126E+00   -2.120E+00   -2.114E+00   -2.109E+00   -2.103E+00   -2.097E+00   -2.091E+00   -2.086E+00
    -2.080E+00   -2.074E+00   -2.068E+00   -2.062E+00   -2.057E+00   -2.051E+00   -2.045E+00   -2.039E+00   -2.033E+00   -2.027E+00
    -2.022E+00   -2.016E+00   -2.010E+00   -2.004E+00   -1.998E+00   -1.992E+00   -1.986E+00   -1.981E+00   -1.975E+00   -1.969E+00
    -1.963E+00   -1.957E+00   -1.951E+00   -1.945E+00   -1.939E+00   -1.933E+00   -1.927E+00   -1.921E+00   -1.916E+00   -1.910E+00
    -1.904E+00   -1.898E+00   -1.892E+00   -1.886E+00   -1.880E+00   -1.874E+00   -1.868E+00   -1.862E+00   -1.856E+00   -1.850E+00
    -1.844E+00   -1.838E+00   -1.832E+00   -1.826E+00   -1.820E+00   -1.814E+00   -1.808E+00   -1.802E+00   -1.796E+00   -1.790E+00
    -1.784E+00   -1.778E+00   -1.772E+00   -1.766E+00   -1.760E+00   -1.754E+00   -1.748E+00   -1.742E+00   -1.736E+00   -1.730E+00
    -1.723E+00   -1.717E+00   -1.711E+00   -1.705E+00   -1.699E+00   -1.693E+00   -1.687E+00   -1.681E+00   -1.675E+00   -1.669E+00
    -1.663E+00   -1.657E+00   -1.650E+00   -1.644E+00   -1.638E+00   -1.632E+00   -1.626E+00   -1.620E+00   -1.614E+00   -1.608E+00
    -1.601E+00   -1.595E+00   -1.589E+00   -1.583E+00   -1.577E+00   -1.571E+00   -1.565E+00   -1.558E+00   -1.552E+00   -1.546E+00
    -1.540E+00   -1.534E+00   -1.528E+00   -1.521E+00   -1.515E+00   -1.509E+00   -1.503E+00   -1.497E+00   -1.491E+00   -1.484E+00
    -1.478E+00   -1.472E+00   -1.466E+00   -1.460E+00   -1.453E+00   -1.447E+00   -1.441E+00   -1.435E+00   -1.429E+00   -1.422E+00
    -1.416E+00   -1.410E+00   -1.404E+00   -1.397E+00   -1.391E+00   -1.385E+00   -1.379E+00   -1.373E+00   -1.366E+00   -1.360E+00
    -1.354E+00   -1.348E+00   -1.341E+00   -1.335E+00   -1.329E+00   -1.323E+00   -1.316E+00   -1.310E+00   -1.304E+00   -1.298E+00
    -1.291E+00   -1.285E+00   -1.279E+00   -1.273E+00   -1.266E+00   -1.260E+00   -1.254E+00   -1.248E+00   -1.241E+00   -1.235E+00
    -1.229E+00   -1.223E+00   -1.216E+00   -1.210E+00   -1.204E+00   -1.197E+00   -1.191E+00   -1.185E+00   -1.179E+00   -1.172E+00
    -1.166E+00   -1.160E+00   -1.153E+00   -1.147E+00   -1.141E+00   -1.135E+00   -1.128E+00   -1.122E+00   -1.116E+00   -1.109E+00
    -1.103E+00   -1.097E+00   -1.091E+00   -1.084E+00   -1.078E+00   -1.072E+00   -1.065E+00   -1.059E+00   -1.053E+00   -1.046E+00
    -1.040E+00   -1.034E+00   -1.028E+00   -1.021E+00   -1.015E+00   -1.009E+00   -1.002E+00   -9.961E-01   -9.898E-01   -9.835E-01
    -9.772E-01   -9.708E-01   -9.645E-01   -9.582E-01   -9.519E-01   -9.456E-01   -9.393E-01   -9.330E-01   -9.267E-01   -9.204E-01
    -9.141E-01   -9.078E-01   -9.015E-01   -8.952E-01   -8.889E-01   -8.826E-01   -8.763E-01   -8.700E-01   -8.637E-01   -8.573E-01
    -8.510E-01   -8.447E-01   -8.384E-01   -8.321E-01   -8.258E-01   -8.195E-01   -8.132E-01   -8.069E-01   -8.006E-01   -7.943E-01
    -7.880E-01   -7.817E-01   -7.754E-01   -7.691E-01   -7.628E-01   -7.565E-01   -7.502E-01   -7.439E-01   -7.376E-01   -7.313E-01
    -7.250E-01   -7.188E-01   -7.125E-01   -7.062E-01   -6.999E-01   -6.936E-01   -6.873E-01   -6.810E-01   -6.747E-01   -6.684E-01
    -6.622E-01   -6.559E-01   -6.496E-01   -6.433E-01   -6.370E-01   -6.308E-01   -6.245E-01   -6.182E-01   -6.119E-01   -6.057E-01
    -5.994E-01   -5.931E-01   -5.869E-01   -5.806E-01   -5.743E-01   -5.681E-01   -5.618E-01   -5.555E-01   -5.493E-01   -5.430E-01
    -5.368E-01   -5.305E-01   -5.243E-01   -5.180E-01   -5.118E-01   -5.055E-01   -4.993E-01   -4.930E-01   -4.868E-01   -4.805E-01
    -4.743E-01   -4.681E-01   -4.618E-01   -4.556E-01   -4.494E-01   -4.432E-01   -4.369E-01   -4.307E-01   -4.245E-01   -4.183E-01
    -4.121E-01   -4.058E-01   -3.996E-01   -3.934E-01   -3.872E-01   -3.810E-01   -3.748E-01   -3.686E-01   -3.624E-01   -3.562E-01
    -3.500E-01   -3.438E-01   -3.376E-01   -3.315E-01   -3.253E-01   -3.191E-01   -3.129E-01   -3.067E-01   -3.006E-01   -2.944E-01
    -2.882E-01   -2.821E-01   -2.759E-01   -2.698E-01   -2.636E-01   -2.575E-01   -2.513E-01   -2.452E-01   -2.390E-01   -2.329E-01
    -2.267E-01   -2.206E-01   -2.145E-01   -2.084E-01   -2.022E-01   -1.961E-01   -1.900E-01   -1.839E-01   -1.778E-01   -1.717E-01
    -1.656E-01   -1.595E-01   -1.534E-01   -1.473E-01   -1.412E-01   -1.351E-01   -1.290E-01   -1.229E-01   -1.169E-01   -1.108E-01
    -1.047E-01   -9.865E-02   -9.258E-02   -8.653E-02   -8.047E-02   -7.442E-02   -6.838E-02   -6.233E-02   -5.629E-02   -5.026E-02
    -4.423E-02   -3.820E-02   -3.218E-02   -2.616E-02   -2.014E-02   -1.413E-02   -8.124E-03   -2.121E-03    3.878E-03    9.873E-03
     1.586E-02    2.185E-02    2.783E-02    3.381E-02    3.978E-02    4.575E-02    5.172E-02    5.768E-02    6.364E-02    6.959E-02
     7.553E-02    8.148E-02    8.742E-02    9.335E-02    9.928E-02    1.052E-01    1.111E-01    1.170E-01    1.230E-01    1.289E-01
     1.348E-01    1.407E-01    1.465E-01    1.524E-01    1.583E-01    1.642E-01    1.701E-01    1.759E-01    1.818E-01    1.877E-01
     1.935E-01    1.994E-01    2.052E-01    2.110E-01    2.169E-01    2.227E-01    2.285E-01    2.343E-01    2.401E-01    2.460E-01
     2.518E-01    2.576E-01    2.633E-01    2.691E-01    2.749E-01    2.807E-01    2.865E-01    2.922E-01    2.980E-01    3.037E-01
     3.095E-01    3.152E-01    3.210E-01    3.267E-01    3.324E-01    3.381E-01    3.438E-01    3.496E-01    3.553E-01    3.610E-01
     3.666E-01    3.723E-01    3.780E-01    3.837E-01    3.894E-01    3.950E-01    4.007E-01    4.063E-01    4.120E-01    4.176E-01
     4.232E-01    4.289E-01    4.345E-01    4.401E-01    4.457E-01    4.513E-01    4.569E-01    4.625E-01    4.681E-01    4.736E-01
     4.792E-01    4.848E-01    4.903E-01    4.959E-01    5.014E-01    5.070E-01    5.125E-01    5.180E-01    5.235E-01    5.291E-01
     5.346E-01    5.401E-01    5.455E-01    5.510E-01    5.565E-01    5.620E-01    5.674E-01    5.729E-01    5.784E-01    5.838E-01
     5.892E-01    5.947E-01    6.001E-01    6.055E-01    6.109E-01    6.163E-01    6.217E-01    6.271E-01    6.325E-01    6.379E-01
     6.432E-01    6.486E-01    6.540E-01    6.593E-01    6.646E-01    6.700E-01    6.753E-01    6.806E-01    6.859E-01    6.912E-01
     6.965E-01    7.018E-01    7.071E-01    7.124E-01    7.176E-01    7.229E-01    7.282E-01    7.334E-01
 Asp      Conc. = 1.06E+01
