 LCModel (Version 6.3-1L) Copyright: S.W. Provencher.          Ref.: Magn. Reson. Med. 30:672-679 (1993).                
 Slice#3 Row#10 Col#12  PD_05_press_2_raw_act
 36 lines in following concentration table = NCONC+1
    Conc.  %SD /Cr+PCr  Metabolite                                         
    0.000 999%   0.000 Ala                                                 
   12.362  92%   0.279 Asp                                                 
   44.356  50%   1.000 Cr                                                  
    0.000 999%   0.000 PCr                                                 
    7.275  94%   0.164 GABA                                                
    7.226  95%   0.163 Glc                                                 
    0.000 999%   0.000 Gln                                                 
   11.092 727%   0.250 Glu                                                 
   24.744  37%   0.558 GPC                                                 
    0.000 999%   0.000 PCh                                                 
    0.000 999%   0.000 GSH                                                 
   25.530 366%   0.576 Ins                                                 
    0.000 999%   0.000 Lac                                                 
  101.971  31%   2.299 NAA                                                 
   38.702  80%   0.873 NAAG                                                
    2.627  86% 5.9E-02 Scyllo                                              
   12.412  91%   0.280 Tau                                                 
    4.636 214%   0.105 -CrCH2                                              
   24.744  37%   0.558 GPC+PCh                                             
  140.673  32%   3.171 NAA+NAAG                                            
   44.356  50%   1.000 Cr+PCr                                              
   11.092 727%   0.250 Glu+Gln                                             
    0.000 999%   0.000 Lip13a                                              
   13.403 737%   0.302 Lip13b                                              
    0.000 999%   0.000 Lip09                                               
 1.99E+03  11%  44.787 MM09                                                
    0.000 999%   0.000 Lip20                                               
  200.450 135%   4.519 MM20                                                
  785.608  39%  17.711 MM12                                                
 9.41E+03   6% 212.239 MM14                                                
 2.14E+03  16%  48.134 MM17                                                
   13.403 737%   0.302 Lip13a+Lip13b                                       
 1.02E+04   5% 230.252 MM14+Lip13a+Lip13b+MM12                             
 1.99E+03  11%  44.787 MM09+Lip09                                          
  200.450 135%   4.519 MM20+Lip20                                          
   6 lines in following misc. output table
  FWHM = 0.038 ppm    S/N =   9                                            
  Data shift =-0.008 ppm                                                   
  Ph: -34 deg      -6.3 deg/ppm                                            
  alphaB,S = 5.1E-01,   1.8E+01                                            
   14 spline knots.   Ns = 7(1)                                            
  ( 5) 2 infls.   ( 4) 1 extrs.                                            
  498 points on ppm-axis = NY
      4.000000     3.992357     3.984714     3.977070     3.969427     3.961784     3.954141     3.946497     3.938854     3.931211
      3.923568     3.915925     3.908281     3.900638     3.892995     3.885352     3.877708     3.870065     3.862422     3.854779
      3.847136     3.839492     3.831849     3.824206     3.816563     3.808919     3.801276     3.793633     3.785990     3.778347
      3.770703     3.763060     3.755417     3.747774     3.740130     3.732487     3.724844     3.717201     3.709558     3.701914
      3.694271     3.686628     3.678985     3.671341     3.663698     3.656055     3.648412     3.640769     3.633125     3.625482
      3.617839     3.610196     3.602552     3.594909     3.587266     3.579623     3.571980     3.564336     3.556693     3.549050
      3.541407     3.533763     3.526120     3.518477     3.510834     3.503191     3.495547     3.487904     3.480261     3.472618
      3.464974     3.457331     3.449688     3.442045     3.434402     3.426758     3.419115     3.411472     3.403829     3.396185
      3.388542     3.380899     3.373256     3.365613     3.357969     3.350326     3.342683     3.335040     3.327396     3.319753
      3.312110     3.304467     3.296824     3.289180     3.281537     3.273894     3.266251     3.258607     3.250964     3.243321
      3.235678     3.228034     3.220391     3.212748     3.205105     3.197462     3.189818     3.182175     3.174532     3.166889
      3.159245     3.151602     3.143959     3.136316     3.128673     3.121029     3.113386     3.105743     3.098100     3.090456
      3.082813     3.075170     3.067527     3.059884     3.052240     3.044597     3.036954     3.029311     3.021667     3.014024
      3.006381     2.998738     2.991095     2.983451     2.975808     2.968165     2.960522     2.952878     2.945235     2.937592
      2.929949     2.922306     2.914662     2.907019     2.899376     2.891733     2.884089     2.876446     2.868803     2.861160
      2.853517     2.845873     2.838230     2.830587     2.822944     2.815300     2.807657     2.800014     2.792371     2.784728
      2.777084     2.769441     2.761798     2.754155     2.746511     2.738868     2.731225     2.723582     2.715939     2.708295
      2.700652     2.693009     2.685366     2.677722     2.670079     2.662436     2.654793     2.647150     2.639506     2.631863
      2.624220     2.616577     2.608933     2.601290     2.593647     2.586004     2.578361     2.570717     2.563074     2.555431
      2.547788     2.540144     2.532501     2.524858     2.517215     2.509572     2.501928     2.494285     2.486642     2.478999
      2.471355     2.463712     2.456069     2.448426     2.440783     2.433139     2.425496     2.417853     2.410210     2.402566
      2.394923     2.387280     2.379637     2.371994     2.364350     2.356707     2.349064     2.341421     2.333777     2.326134
      2.318491     2.310848     2.303205     2.295561     2.287918     2.280275     2.272632     2.264988     2.257345     2.249702
      2.242059     2.234416     2.226772     2.219129     2.211486     2.203843     2.196199     2.188556     2.180913     2.173270
      2.165627     2.157983     2.150340     2.142697     2.135054     2.127410     2.119767     2.112124     2.104481     2.096838
      2.089194     2.081551     2.073908     2.066265     2.058621     2.050978     2.043335     2.035692     2.028049     2.020405
      2.012762     2.005119     1.997476     1.989833     1.982190     1.974546     1.966903     1.959260     1.951617     1.943974
      1.936331     1.928688     1.921045     1.913402     1.905759     1.898115     1.890472     1.882829     1.875186     1.867543
      1.859900     1.852257     1.844614     1.836971     1.829327     1.821684     1.814041     1.806398     1.798755     1.791112
      1.783469     1.775826     1.768183     1.760540     1.752896     1.745253     1.737610     1.729967     1.722324     1.714681
      1.707038     1.699395     1.691752     1.684108     1.676465     1.668822     1.661179     1.653536     1.645893     1.638250
      1.630607     1.622964     1.615321     1.607677     1.600034     1.592391     1.584748     1.577105     1.569462     1.561819
      1.554176     1.546533     1.538890     1.531246     1.523603     1.515960     1.508317     1.500674     1.493031     1.485388
      1.477745     1.470102     1.462458     1.454815     1.447172     1.439529     1.431886     1.424243     1.416600     1.408957
      1.401314     1.393671     1.386027     1.378384     1.370741     1.363098     1.355455     1.347812     1.340169     1.332526
      1.324883     1.317240     1.309596     1.301953     1.294310     1.286667     1.279024     1.271381     1.263738     1.256095
      1.248452     1.240808     1.233165     1.225522     1.217879     1.210236     1.202593     1.194950     1.187307     1.179664
      1.172021     1.164377     1.156734     1.149091     1.141448     1.133805     1.126162     1.118519     1.110876     1.103233
      1.095590     1.087946     1.080303     1.072660     1.065017     1.057374     1.049731     1.042088     1.034445     1.026802
      1.019158     1.011515     1.003872     0.996229     0.988586     0.980943     0.973300     0.965657     0.958014     0.950371
      0.942727     0.935084     0.927441     0.919798     0.912155     0.904512     0.896869     0.889226     0.881583     0.873940
      0.866296     0.858653     0.851010     0.843367     0.835724     0.828081     0.820438     0.812795     0.805152     0.797508
      0.789865     0.782222     0.774579     0.766936     0.759293     0.751650     0.744007     0.736364     0.728721     0.721077
      0.713434     0.705791     0.698148     0.690505     0.682862     0.675219     0.667576     0.659933     0.652290     0.644646
      0.637003     0.629360     0.621717     0.614074     0.606431     0.598788     0.591145     0.583502     0.575858     0.568215
      0.560572     0.552929     0.545286     0.537643     0.530000     0.522357     0.514714     0.507071     0.499427     0.491784
      0.484141     0.476498     0.468855     0.461212     0.453569     0.445925     0.438282     0.430639     0.422996     0.415353
      0.407710     0.400067     0.392424     0.384780     0.377137     0.369494     0.361851     0.354208     0.346565     0.338922
      0.331278     0.323635     0.315992     0.308349     0.300706     0.293063     0.285420     0.277777     0.270133     0.262490
      0.254847     0.247204     0.239561     0.231918     0.224275     0.216631     0.208988     0.201345
 NY phased data points follow
   3.19002E+00  3.66553E+00 -1.14492E+00 -1.31261E+00  3.43520E+00  1.83490E+00  6.67966E-01  2.35727E+00  5.46462E+00  2.79064E+00
   4.83839E+00  4.98183E-01 -4.66403E-01  1.40524E+00  1.37198E+00  3.09282E+00  3.84253E+00  1.32684E-01 -8.58569E-01  2.57090E+00
   2.07532E+00  9.53869E-01 -1.41893E+00  8.25753E-01 -9.15997E-01 -2.24146E+00  2.62214E-02  5.29938E+00  2.85773E+00  1.14942E+00
   3.53100E+00  2.44750E+00 -1.08237E+00  5.32358E+00  3.46119E+00  3.07163E+00  3.18577E+00  3.92239E+00  2.14051E+00  3.11667E+00
   1.00030E+00  1.87819E+00 -5.67280E-01  2.73114E+00  2.71534E+00  4.64998E+00  4.58358E+00  2.03528E+00  1.51339E+00  4.80163E+00
   3.05480E+00  2.23979E+00  3.20587E+00  4.57498E+00  2.50901E+00  4.06849E+00  1.59821E+00  3.63572E+00 -7.23054E-02  1.73838E+00
   2.83900E+00  3.69471E-01  2.96075E+00  2.93935E-01 -1.32679E-01  9.06045E-01  4.57216E+00  3.23985E+00  3.57247E+00  4.63238E+00
   2.92490E+00  4.00857E+00 -1.28113E+00  3.93922E+00  3.49921E+00  2.10873E+00  1.63802E+00  1.78542E+00  3.46069E+00  5.06363E+00
   6.28773E-01  1.75222E+00  4.38259E+00  7.56628E+00 -6.73072E-01  2.36326E+00  4.78530E+00  5.08929E+00  6.51985E+00  2.69244E+00
   4.12693E+00  2.65800E+00  3.31137E+00  1.52742E+00  4.93136E+00  2.05561E+00  8.32836E+00  2.15910E+00  7.18862E+00  8.64198E+00
   6.72203E+00  7.02385E+00  3.69931E+00  4.43324E+00  1.11906E+00  7.21226E+00  4.72381E+00  5.68115E+00  2.75178E+00  3.67493E+00
   5.08615E+00  4.54991E+00  6.45676E+00  3.02049E+00  3.70283E+00  4.97565E+00  5.83751E+00  5.55922E+00  7.44926E+00  2.99683E+00
   7.58423E+00  5.49701E+00  4.87957E+00  4.34428E+00  7.62972E+00  6.48302E+00  7.79370E+00  4.18264E+00  3.70608E+00  2.62104E+00
   6.11416E+00  1.70855E+00  5.53781E+00  4.49172E+00  4.92754E+00  3.00676E+00  4.20031E+00  4.48726E+00  6.45271E+00  5.19521E+00
   3.48988E+00  2.75010E+00  5.57764E+00  6.13228E+00  4.75024E+00  8.04788E+00  3.85981E+00  6.69850E+00  5.87753E+00  5.26713E+00
   7.02552E+00  8.66652E+00  6.20325E+00  5.76502E+00  5.80796E+00  4.60936E+00  5.05844E+00  6.14885E+00  5.83034E+00  6.05078E+00
   6.54184E+00  7.23514E+00  6.65394E+00  7.30684E+00  2.31581E+00  6.02666E+00  3.86235E+00  4.42229E+00  7.04474E+00  4.58990E+00
   9.07111E+00  7.42568E+00  7.11831E+00  6.13246E+00  3.56545E+00  4.35367E+00  1.06395E+01  9.27919E+00  9.03898E+00  6.29729E+00
   8.21199E+00  5.77647E+00  9.00325E+00  6.21035E+00  7.50765E+00  9.40166E+00  6.92639E+00  3.70146E+00  7.57360E+00  9.09713E+00
   6.93261E+00  6.93841E+00  7.58327E+00  9.11335E+00  7.83474E+00  1.08672E+01  8.27319E+00  6.71018E+00  9.73014E+00  7.09585E+00
   5.56410E+00  5.11287E+00  7.28439E+00  7.39319E+00  8.09080E+00  9.75697E+00  9.16087E+00  8.74917E+00  1.05807E+01  1.01139E+01
   8.79092E+00  9.17247E+00  1.01378E+01  8.65347E+00  1.00345E+01  9.21249E+00  1.04125E+01  1.00491E+01  7.09202E+00  1.07228E+01
   1.04743E+01  1.18417E+01  7.27787E+00  1.31244E+01  7.02017E+00  1.10873E+01  1.26692E+01  1.27649E+01  1.07610E+01  9.47247E+00
   9.55289E+00  1.15208E+01  8.86857E+00  1.38067E+01  5.61904E+00  1.03611E+01  1.12482E+01  9.95269E+00  1.25053E+01  1.35833E+01
   1.08726E+01  1.28799E+01  1.02907E+01  1.22281E+01  9.88557E+00  1.41303E+01  1.51736E+01  1.34541E+01  1.49104E+01  1.34242E+01
   1.16134E+01  1.52833E+01  1.70929E+01  1.46233E+01  1.80624E+01  1.58186E+01  1.85082E+01  2.40399E+01  1.46771E+01  1.81293E+01
   1.66326E+01  1.55087E+01  1.35517E+01  1.50886E+01  1.38235E+01  1.45879E+01  1.22213E+01  1.40714E+01  1.37084E+01  1.49416E+01
   1.76051E+01  1.28242E+01  1.43385E+01  1.95377E+01  1.17242E+01  1.83101E+01  1.94854E+01  1.76699E+01  1.70936E+01  1.71069E+01
   1.65495E+01  1.87150E+01  2.08061E+01  1.79690E+01  1.92411E+01  2.06060E+01  1.95534E+01  1.75063E+01  2.26228E+01  1.98210E+01
   2.24998E+01  2.13531E+01  2.16108E+01  2.14506E+01  2.24354E+01  2.18611E+01  2.13310E+01  2.86391E+01  2.43004E+01  2.81662E+01
   2.48307E+01  2.65779E+01  2.77119E+01  2.72289E+01  2.51586E+01  2.59129E+01  2.79897E+01  2.52479E+01  2.99689E+01  2.79771E+01
   2.87100E+01  2.97781E+01  3.00664E+01  3.34624E+01  3.03734E+01  3.23461E+01  3.31119E+01  3.33585E+01  3.19960E+01  3.30538E+01
   3.38970E+01  3.93073E+01  3.86206E+01  3.54458E+01  3.64439E+01  4.04442E+01  4.34143E+01  4.70748E+01  4.54954E+01  4.65404E+01
   4.83983E+01  5.21168E+01  5.15047E+01  5.11449E+01  4.95265E+01  5.42790E+01  5.36399E+01  5.38099E+01  5.10385E+01  5.19084E+01
   5.49050E+01  5.44605E+01  5.37609E+01  5.07154E+01  5.12159E+01  5.33571E+01  5.01906E+01  4.92721E+01  4.82538E+01  4.58286E+01
   4.95711E+01  4.68089E+01  4.23847E+01  4.15237E+01  3.96260E+01  3.95789E+01  3.39557E+01  4.08456E+01  3.40613E+01  3.42330E+01
   3.56799E+01  3.44006E+01  3.14045E+01  2.94757E+01  2.88089E+01  2.70478E+01  2.71411E+01  2.70211E+01  2.71443E+01  2.82470E+01
   2.52438E+01  2.61857E+01  2.73660E+01  2.54487E+01  2.43359E+01  2.58229E+01  2.89008E+01  2.46641E+01  2.51139E+01  2.34767E+01
   2.20974E+01  2.60823E+01  2.99000E+01  2.62258E+01  2.63567E+01  2.42175E+01  2.53768E+01  2.32353E+01  2.65431E+01  2.71979E+01
   2.15118E+01  2.22966E+01  2.69634E+01  2.47932E+01  2.61525E+01  2.44392E+01  2.39495E+01  2.54824E+01  2.55740E+01  2.70352E+01
   2.29193E+01  2.43251E+01  2.29709E+01  2.52911E+01  2.20552E+01  2.71254E+01  2.55042E+01  2.23955E+01  1.87605E+01  2.38242E+01
   2.30033E+01  1.97979E+01  1.99569E+01  2.14834E+01  1.88410E+01  2.13955E+01  2.26037E+01  2.14189E+01  2.08067E+01  1.96733E+01
   1.77079E+01  1.98882E+01  2.05737E+01  2.00234E+01  1.80306E+01  2.04588E+01  1.62076E+01  1.82628E+01  1.55763E+01  1.22663E+01
   1.57028E+01  1.87798E+01  1.40393E+01  1.44183E+01  1.11550E+01  1.24710E+01  1.58108E+01  1.33496E+01  1.11283E+01  1.09216E+01
   9.55852E+00  1.05744E+01  1.41637E+01  1.00450E+01  9.55129E+00  1.03761E+01  1.20501E+01  6.94031E+00  1.11431E+01  7.72920E+00
   1.02636E+01  1.03826E+01  8.32680E+00  1.00754E+01  6.73854E+00  6.95480E+00  4.95881E+00  5.06969E+00  1.59635E+00  7.57589E+00
   4.42491E+00  5.77284E+00  3.89637E+00  5.74527E+00  6.21078E+00  3.10374E+00  1.40878E+00  4.85558E+00  4.39406E+00  4.65442E+00
   3.84371E+00  1.71577E+00  1.99470E-01  3.42886E+00 -5.08216E-01  8.67621E-01  8.72626E-01  1.21005E-01  8.95378E-01  2.41045E+00
  -1.43997E+00 -2.21138E-01  3.10463E+00 -2.91555E-02  2.49508E+00  2.44815E+00  2.09145E+00 -2.91452E+00 -3.99733E-03 -1.41298E+00
   4.71795E-01 -1.72140E+00  9.32589E-01 -1.82764E+00  1.40519E+00 -2.04494E+00  4.16231E-01 -8.89681E-01
 NY points of the fit to the data follow
   1.16250E+00  1.22595E+00  1.26961E+00  1.31394E+00  1.47067E+00  1.79085E+00  2.19310E+00  2.56269E+00  2.73743E+00  2.64130E+00
   2.35064E+00  2.00462E+00  1.73230E+00  1.59282E+00  1.54739E+00  1.50886E+00  1.44122E+00  1.39320E+00  1.42116E+00  1.50598E+00
   1.57736E+00  1.60921E+00  1.62722E+00  1.64425E+00  1.66299E+00  1.68455E+00  1.71151E+00  1.74803E+00  1.79422E+00  1.84384E+00
   1.88927E+00  1.92999E+00  1.97006E+00  2.00716E+00  2.03027E+00  2.03975E+00  2.04601E+00  2.05186E+00  2.06652E+00  2.10395E+00
   2.16558E+00  2.24929E+00  2.34275E+00  2.42695E+00  2.48243E+00  2.50176E+00  2.48241E+00  2.43389E+00  2.38283E+00  2.35425E+00
   2.35294E+00  2.36314E+00  2.37787E+00  2.40418E+00  2.44537E+00  2.49724E+00  2.54808E+00  2.58549E+00  2.60227E+00  2.60109E+00
   2.59623E+00  2.60000E+00  2.62244E+00  2.65670E+00  2.69057E+00  2.72279E+00  2.75432E+00  2.78904E+00  2.83525E+00  2.89367E+00
   2.95266E+00  3.00146E+00  3.02884E+00  3.02850E+00  3.00985E+00  2.99206E+00  2.99039E+00  3.01301E+00  3.06013E+00  3.13573E+00
   3.22430E+00  3.30136E+00  3.35281E+00  3.36577E+00  3.34267E+00  3.30787E+00  3.28577E+00  3.28709E+00  3.30913E+00  3.33854E+00
   3.36263E+00  3.38688E+00  3.43390E+00  3.51283E+00  3.63436E+00  3.92253E+00  4.62536E+00  5.58969E+00  6.56220E+00  7.19167E+00
   7.16344E+00  6.53316E+00  5.61879E+00  4.77853E+00  4.25623E+00  4.07148E+00  4.03076E+00  3.94751E+00  3.81943E+00  3.78263E+00
   3.89399E+00  4.04881E+00  4.13206E+00  4.17544E+00  4.21203E+00  4.24907E+00  4.28808E+00  4.33196E+00  4.38973E+00  4.50564E+00
   4.84335E+00  5.41984E+00  6.07656E+00  6.62362E+00  6.82982E+00  6.62020E+00  6.13691E+00  5.60090E+00  5.19975E+00  5.01298E+00
   4.97064E+00  4.94352E+00  4.88323E+00  4.84836E+00  4.90373E+00  5.01875E+00  5.10618E+00  5.15183E+00  5.18866E+00  5.22912E+00
   5.27506E+00  5.32291E+00  5.36821E+00  5.40606E+00  5.43554E+00  5.46132E+00  5.49001E+00  5.52150E+00  5.55134E+00  5.57886E+00
   5.60678E+00  5.64480E+00  5.70051E+00  5.76203E+00  5.80450E+00  5.81637E+00  5.80455E+00  5.79486E+00  5.82535E+00  5.90103E+00
   6.00076E+00  6.09218E+00  6.14525E+00  6.15591E+00  6.15085E+00  6.16257E+00  6.20559E+00  6.27226E+00  6.33562E+00  6.36921E+00
   6.37616E+00  6.38589E+00  6.42166E+00  6.49728E+00  6.59445E+00  6.68244E+00  6.74130E+00  6.77918E+00  6.82584E+00  6.90428E+00
   7.00753E+00  7.11652E+00  7.21533E+00  7.30069E+00  7.39601E+00  7.51886E+00  7.65205E+00  7.76399E+00  7.83702E+00  7.87917E+00
   7.92518E+00  7.99018E+00  8.06641E+00  8.13524E+00  8.18025E+00  8.20950E+00  8.24622E+00  8.31190E+00  8.40643E+00  8.52050E+00
   8.62869E+00  8.70504E+00  8.74388E+00  8.75897E+00  8.76856E+00  8.78487E+00  8.80719E+00  8.84049E+00  8.88886E+00  8.96152E+00
   9.06860E+00  9.20327E+00  9.34111E+00  9.45552E+00  9.53685E+00  9.58853E+00  9.63022E+00  9.68970E+00  9.78180E+00  9.89891E+00
   1.00262E+01  1.01491E+01  1.02606E+01  1.03528E+01  1.04188E+01  1.04697E+01  1.05252E+01  1.05979E+01  1.06963E+01  1.08174E+01
   1.09495E+01  1.10789E+01  1.11939E+01  1.12872E+01  1.13645E+01  1.14345E+01  1.15048E+01  1.15850E+01  1.16805E+01  1.17955E+01
   1.19299E+01  1.20743E+01  1.22154E+01  1.23423E+01  1.24493E+01  1.25442E+01  1.26442E+01  1.27648E+01  1.29545E+01  1.33566E+01
   1.39446E+01  1.45967E+01  1.51981E+01  1.58698E+01  1.68012E+01  1.78188E+01  1.87219E+01  1.91218E+01  1.87451E+01  1.77274E+01
   1.64440E+01  1.53351E+01  1.47225E+01  1.45843E+01  1.45936E+01  1.44960E+01  1.43742E+01  1.44356E+01  1.46924E+01  1.49603E+01
   1.51356E+01  1.52789E+01  1.54142E+01  1.55504E+01  1.56964E+01  1.58590E+01  1.60426E+01  1.62492E+01  1.64788E+01  1.67319E+01
   1.70072E+01  1.73043E+01  1.76245E+01  1.79668E+01  1.83309E+01  1.87201E+01  1.91380E+01  1.95846E+01  2.00579E+01  2.05530E+01
   2.10647E+01  2.15876E+01  2.21158E+01  2.26458E+01  2.31751E+01  2.36996E+01  2.42150E+01  2.47157E+01  2.51965E+01  2.56530E+01
   2.60810E+01  2.64773E+01  2.68413E+01  2.71749E+01  2.74811E+01  2.77639E+01  2.80289E+01  2.82837E+01  2.85372E+01  2.87992E+01
   2.90801E+01  2.93908E+01  2.97425E+01  3.01458E+01  3.06111E+01  3.11476E+01  3.17633E+01  3.24643E+01  3.32552E+01  3.41382E+01
   3.51130E+01  3.61770E+01  3.73245E+01  3.85474E+01  3.98347E+01  4.11727E+01  4.25453E+01  4.39343E+01  4.53195E+01  4.66795E+01
   4.79920E+01  4.92345E+01  5.03848E+01  5.14218E+01  5.23262E+01  5.30809E+01  5.36717E+01  5.40878E+01  5.43219E+01  5.43709E+01
   5.42355E+01  5.39203E+01  5.34339E+01  5.27880E+01  5.19977E+01  5.10800E+01  5.00542E+01  4.89402E+01  4.77584E+01  4.65288E+01
   4.52704E+01  4.40003E+01  4.27337E+01  4.14837E+01  4.02608E+01  3.90739E+01  3.79297E+01  3.68334E+01  3.57887E+01  3.47983E+01
   3.38635E+01  3.29848E+01  3.21615E+01  3.13918E+01  3.06733E+01  3.00028E+01  2.93770E+01  2.87922E+01  2.82450E+01  2.77324E+01
   2.72517E+01  2.68012E+01  2.63793E+01  2.59855E+01  2.56195E+01  2.52815E+01  2.49721E+01  2.46922E+01  2.44428E+01  2.42249E+01
   2.40397E+01  2.38880E+01  2.37704E+01  2.36874E+01  2.36391E+01  2.36249E+01  2.36439E+01  2.36946E+01  2.37749E+01  2.38820E+01
   2.40124E+01  2.41622E+01  2.43264E+01  2.44998E+01  2.46766E+01  2.48505E+01  2.50150E+01  2.51635E+01  2.52897E+01  2.53872E+01
   2.54505E+01  2.54743E+01  2.54545E+01  2.53877E+01  2.52719E+01  2.51058E+01  2.48897E+01  2.46246E+01  2.43129E+01  2.39577E+01
   2.35629E+01  2.31332E+01  2.26736E+01  2.21895E+01  2.16861E+01  2.11688E+01  2.06425E+01  2.01121E+01  1.95816E+01  1.90550E+01
   1.85352E+01  1.80251E+01  1.75267E+01  1.70415E+01  1.65707E+01  1.61149E+01  1.56745E+01  1.52495E+01  1.48397E+01  1.44445E+01
   1.40635E+01  1.36960E+01  1.33412E+01  1.29982E+01  1.26664E+01  1.23448E+01  1.20328E+01  1.17295E+01  1.14343E+01  1.11465E+01
   1.08655E+01  1.05907E+01  1.03215E+01  1.00575E+01  9.79829E+00  9.54336E+00  9.29238E+00  9.04501E+00  8.80093E+00  8.55988E+00
   8.32158E+00  8.08583E+00  7.85240E+00  7.62110E+00  7.39176E+00  7.16424E+00  6.93841E+00  6.71413E+00  6.49131E+00  6.26983E+00
   6.04961E+00  5.83057E+00  5.61263E+00  5.39574E+00  5.17983E+00  4.96484E+00  4.75072E+00  4.53745E+00  4.32498E+00  4.11329E+00
   3.90232E+00  3.69207E+00  3.48251E+00  3.27362E+00  3.06539E+00  2.85781E+00  2.65085E+00  2.44451E+00  2.23879E+00  2.03369E+00
   1.82919E+00  1.62530E+00  1.42201E+00  1.21933E+00  1.01727E+00  8.15829E-01  6.15008E-01  4.14809E-01  2.15244E-01  1.63242E-02
  -1.81936E-01 -3.79532E-01 -5.76456E-01 -7.72699E-01 -9.68245E-01 -1.16308E+00 -1.35718E+00 -1.55055E+00
 NY background values follow
     8.708E-01    8.957E-01    9.205E-01    9.454E-01    9.703E-01    9.953E-01    1.020E+00    1.045E+00    1.070E+00    1.095E+00
     1.120E+00    1.145E+00    1.171E+00    1.196E+00    1.221E+00    1.246E+00    1.272E+00    1.297E+00    1.322E+00    1.348E+00
     1.373E+00    1.398E+00    1.424E+00    1.449E+00    1.475E+00    1.501E+00    1.526E+00    1.552E+00    1.578E+00    1.603E+00
     1.629E+00    1.655E+00    1.681E+00    1.707E+00    1.733E+00    1.759E+00    1.785E+00    1.811E+00    1.837E+00    1.863E+00
     1.889E+00    1.916E+00    1.942E+00    1.968E+00    1.995E+00    2.021E+00    2.048E+00    2.074E+00    2.101E+00    2.127E+00
     2.154E+00    2.181E+00    2.208E+00    2.235E+00    2.262E+00    2.289E+00    2.316E+00    2.343E+00    2.370E+00    2.398E+00
     2.425E+00    2.453E+00    2.480E+00    2.508E+00    2.536E+00    2.564E+00    2.592E+00    2.620E+00    2.648E+00    2.676E+00
     2.705E+00    2.733E+00    2.762E+00    2.791E+00    2.820E+00    2.849E+00    2.878E+00    2.907E+00    2.936E+00    2.966E+00
     2.996E+00    3.026E+00    3.055E+00    3.086E+00    3.116E+00    3.146E+00    3.177E+00    3.208E+00    3.238E+00    3.269E+00
     3.301E+00    3.332E+00    3.363E+00    3.395E+00    3.427E+00    3.459E+00    3.491E+00    3.524E+00    3.556E+00    3.589E+00
     3.622E+00    3.655E+00    3.689E+00    3.722E+00    3.756E+00    3.790E+00    3.825E+00    3.859E+00    3.894E+00    3.929E+00
     3.964E+00    4.000E+00    4.035E+00    4.071E+00    4.108E+00    4.144E+00    4.181E+00    4.218E+00    4.255E+00    4.293E+00
     4.331E+00    4.369E+00    4.407E+00    4.446E+00    4.485E+00    4.525E+00    4.564E+00    4.604E+00    4.644E+00    4.685E+00
     4.726E+00    4.767E+00    4.809E+00    4.851E+00    4.893E+00    4.935E+00    4.978E+00    5.022E+00    5.065E+00    5.109E+00
     5.154E+00    5.198E+00    5.243E+00    5.289E+00    5.334E+00    5.381E+00    5.427E+00    5.474E+00    5.521E+00    5.569E+00
     5.617E+00    5.665E+00    5.714E+00    5.763E+00    5.812E+00    5.862E+00    5.913E+00    5.963E+00    6.014E+00    6.066E+00
     6.118E+00    6.170E+00    6.222E+00    6.275E+00    6.329E+00    6.383E+00    6.437E+00    6.492E+00    6.547E+00    6.602E+00
     6.658E+00    6.714E+00    6.771E+00    6.828E+00    6.886E+00    6.944E+00    7.002E+00    7.061E+00    7.120E+00    7.180E+00
     7.240E+00    7.300E+00    7.361E+00    7.423E+00    7.484E+00    7.547E+00    7.609E+00    7.672E+00    7.736E+00    7.800E+00
     7.864E+00    7.929E+00    7.994E+00    8.059E+00    8.125E+00    8.191E+00    8.257E+00    8.324E+00    8.391E+00    8.459E+00
     8.527E+00    8.595E+00    8.663E+00    8.732E+00    8.801E+00    8.871E+00    8.940E+00    9.010E+00    9.081E+00    9.151E+00
     9.222E+00    9.293E+00    9.364E+00    9.436E+00    9.508E+00    9.580E+00    9.653E+00    9.725E+00    9.798E+00    9.871E+00
     9.945E+00    1.002E+01    1.009E+01    1.017E+01    1.024E+01    1.031E+01    1.039E+01    1.046E+01    1.054E+01    1.061E+01
     1.069E+01    1.076E+01    1.084E+01    1.091E+01    1.099E+01    1.107E+01    1.114E+01    1.122E+01    1.129E+01    1.137E+01
     1.144E+01    1.152E+01    1.159E+01    1.167E+01    1.174E+01    1.181E+01    1.189E+01    1.196E+01    1.204E+01    1.211E+01
     1.218E+01    1.225E+01    1.233E+01    1.240E+01    1.247E+01    1.254E+01    1.261E+01    1.268E+01    1.275E+01    1.282E+01
     1.289E+01    1.295E+01    1.302E+01    1.309E+01    1.315E+01    1.322E+01    1.328E+01    1.335E+01    1.341E+01    1.347E+01
     1.354E+01    1.360E+01    1.366E+01    1.372E+01    1.377E+01    1.383E+01    1.389E+01    1.394E+01    1.400E+01    1.405E+01
     1.411E+01    1.416E+01    1.421E+01    1.426E+01    1.431E+01    1.436E+01    1.441E+01    1.445E+01    1.450E+01    1.455E+01
     1.459E+01    1.463E+01    1.468E+01    1.472E+01    1.476E+01    1.480E+01    1.483E+01    1.487E+01    1.491E+01    1.494E+01
     1.498E+01    1.501E+01    1.504E+01    1.507E+01    1.510E+01    1.513E+01    1.516E+01    1.519E+01    1.521E+01    1.524E+01
     1.526E+01    1.528E+01    1.530E+01    1.533E+01    1.534E+01    1.536E+01    1.538E+01    1.539E+01    1.541E+01    1.542E+01
     1.543E+01    1.544E+01    1.545E+01    1.546E+01    1.547E+01    1.548E+01    1.548E+01    1.548E+01    1.549E+01    1.549E+01
     1.549E+01    1.549E+01    1.548E+01    1.548E+01    1.547E+01    1.547E+01    1.546E+01    1.545E+01    1.544E+01    1.543E+01
     1.542E+01    1.540E+01    1.539E+01    1.537E+01    1.535E+01    1.533E+01    1.531E+01    1.529E+01    1.527E+01    1.524E+01
     1.521E+01    1.519E+01    1.516E+01    1.513E+01    1.510E+01    1.506E+01    1.503E+01    1.499E+01    1.496E+01    1.492E+01
     1.488E+01    1.484E+01    1.479E+01    1.475E+01    1.471E+01    1.466E+01    1.461E+01    1.456E+01    1.451E+01    1.446E+01
     1.440E+01    1.435E+01    1.429E+01    1.423E+01    1.417E+01    1.411E+01    1.405E+01    1.398E+01    1.392E+01    1.385E+01
     1.378E+01    1.371E+01    1.364E+01    1.356E+01    1.349E+01    1.341E+01    1.333E+01    1.325E+01    1.317E+01    1.309E+01
     1.300E+01    1.292E+01    1.283E+01    1.274E+01    1.265E+01    1.256E+01    1.246E+01    1.237E+01    1.227E+01    1.217E+01
     1.207E+01    1.197E+01    1.187E+01    1.176E+01    1.165E+01    1.154E+01    1.143E+01    1.132E+01    1.121E+01    1.109E+01
     1.098E+01    1.086E+01    1.074E+01    1.062E+01    1.049E+01    1.037E+01    1.024E+01    1.011E+01    9.984E+00    9.853E+00
     9.721E+00    9.587E+00    9.452E+00    9.316E+00    9.178E+00    9.039E+00    8.899E+00    8.757E+00    8.614E+00    8.470E+00
     8.325E+00    8.178E+00    8.030E+00    7.881E+00    7.731E+00    7.579E+00    7.427E+00    7.273E+00    7.119E+00    6.963E+00
     6.806E+00    6.648E+00    6.489E+00    6.329E+00    6.169E+00    6.007E+00    5.844E+00    5.680E+00    5.516E+00    5.351E+00
     5.184E+00    5.017E+00    4.849E+00    4.680E+00    4.511E+00    4.341E+00    4.170E+00    3.998E+00    3.826E+00    3.653E+00
     3.479E+00    3.305E+00    3.130E+00    2.955E+00    2.779E+00    2.603E+00    2.426E+00    2.249E+00    2.071E+00    1.894E+00
     1.715E+00    1.537E+00    1.358E+00    1.179E+00    9.997E-01    8.202E-01    6.405E-01    4.607E-01    2.808E-01    1.008E-01
    -7.929E-02   -2.594E-01   -4.395E-01   -6.196E-01   -7.997E-01   -9.797E-01   -1.160E+00   -1.339E+00   -1.519E+00   -1.698E+00
    -1.878E+00   -2.057E+00   -2.235E+00   -2.414E+00   -2.592E+00   -2.770E+00   -2.947E+00   -3.124E+00
 Asp      Conc. = 1.24E+01
