 LCModel (Version 6.3-1L) Copyright: S.W. Provencher.          Ref.: Magn. Reson. Med. 30:672-679 (1993).                
 Slice#1 Row#8 Col#7  PD_05_press_2_raw_act
 36 lines in following concentration table = NCONC+1
    Conc.  %SD /Cr+PCr  Metabolite                                         
  196.395  75%   0.116 Ala                                                 
  317.799  89%   0.188 Asp                                                 
 1.30E+03  18%   0.768 Cr                                                  
  393.027  59%   0.232 PCr                                                 
    0.000 999%   0.000 GABA                                                
  107.706 169% 6.4E-02 Glc                                                 
 1.02E+03  30%   0.603 Gln                                                 
 2.37E+03  14%   1.399 Glu                                                 
  367.718   9%   0.217 GPC                                                 
    0.000 999%   0.000 PCh                                                 
  569.113  19%   0.336 GSH                                                 
 1.99E+03  17%   1.173 Ins                                                 
   63.372 245% 3.7E-02 Lac                                                 
 3.02E+03   5%   1.786 NAA                                                 
  244.657  68%   0.145 NAAG                                                
   65.003  58% 3.8E-02 Scyllo                                              
   72.832 339% 4.3E-02 Tau                                                 
    0.000 999%   0.000 -CrCH2                                              
  367.718   9%   0.217 GPC+PCh                                             
 3.27E+03   4%   1.931 NAA+NAAG                                            
 1.69E+03   5%   1.000 Cr+PCr                                              
 3.39E+03  14%   2.002 Glu+Gln                                             
 1.74E+03  33%   1.028 Lip13a                                              
    0.000 999%   0.000 Lip13b                                              
    0.000 999%   0.000 Lip09                                               
 2.39E+03  13%   1.411 MM09                                                
  104.704 249% 6.2E-02 Lip20                                               
 4.72E+03  12%   2.793 MM20                                                
  907.506  26%   0.536 MM12                                                
 1.19E+03  41%   0.702 MM14                                                
 2.11E+03  11%   1.246 MM17                                                
 1.74E+03  33%   1.028 Lip13a+Lip13b                                       
 3.83E+03  14%   2.266 MM14+Lip13a+Lip13b+MM12                             
 2.39E+03  13%   1.411 MM09+Lip09                                          
 4.83E+03  11%   2.854 MM20+Lip20                                          
   6 lines in following misc. output table
  FWHM = 0.038 ppm    S/N =  11                                            
  Data shift = 0.000 ppm                                                   
  Ph:   2 deg       8.3 deg/ppm                                            
  alphaB,S = 1.1E+01,   3.1E+01                                            
   14 spline knots.   Ns = 5(1)                                            
  ( 6) 3 infls.   ( 5) 1 extrs.                                            
  498 points on ppm-axis = NY
      4.000000     3.992357     3.984714     3.977070     3.969427     3.961784     3.954141     3.946497     3.938854     3.931211
      3.923568     3.915925     3.908281     3.900638     3.892995     3.885352     3.877708     3.870065     3.862422     3.854779
      3.847136     3.839492     3.831849     3.824206     3.816563     3.808919     3.801276     3.793633     3.785990     3.778347
      3.770703     3.763060     3.755417     3.747774     3.740130     3.732487     3.724844     3.717201     3.709558     3.701914
      3.694271     3.686628     3.678985     3.671341     3.663698     3.656055     3.648412     3.640769     3.633125     3.625482
      3.617839     3.610196     3.602552     3.594909     3.587266     3.579623     3.571980     3.564336     3.556693     3.549050
      3.541407     3.533763     3.526120     3.518477     3.510834     3.503191     3.495547     3.487904     3.480261     3.472618
      3.464974     3.457331     3.449688     3.442045     3.434402     3.426758     3.419115     3.411472     3.403829     3.396185
      3.388542     3.380899     3.373256     3.365613     3.357969     3.350326     3.342683     3.335040     3.327396     3.319753
      3.312110     3.304467     3.296824     3.289180     3.281537     3.273894     3.266251     3.258607     3.250964     3.243321
      3.235678     3.228034     3.220391     3.212748     3.205105     3.197462     3.189818     3.182175     3.174532     3.166889
      3.159245     3.151602     3.143959     3.136316     3.128673     3.121029     3.113386     3.105743     3.098100     3.090456
      3.082813     3.075170     3.067527     3.059884     3.052240     3.044597     3.036954     3.029311     3.021667     3.014024
      3.006381     2.998738     2.991095     2.983451     2.975808     2.968165     2.960522     2.952878     2.945235     2.937592
      2.929949     2.922306     2.914662     2.907019     2.899376     2.891733     2.884089     2.876446     2.868803     2.861160
      2.853517     2.845873     2.838230     2.830587     2.822944     2.815300     2.807657     2.800014     2.792371     2.784728
      2.777084     2.769441     2.761798     2.754155     2.746511     2.738868     2.731225     2.723582     2.715939     2.708295
      2.700652     2.693009     2.685366     2.677722     2.670079     2.662436     2.654793     2.647150     2.639506     2.631863
      2.624220     2.616577     2.608933     2.601290     2.593647     2.586004     2.578361     2.570717     2.563074     2.555431
      2.547788     2.540144     2.532501     2.524858     2.517215     2.509572     2.501928     2.494285     2.486642     2.478999
      2.471355     2.463712     2.456069     2.448426     2.440783     2.433139     2.425496     2.417853     2.410210     2.402566
      2.394923     2.387280     2.379637     2.371994     2.364350     2.356707     2.349064     2.341421     2.333777     2.326134
      2.318491     2.310848     2.303205     2.295561     2.287918     2.280275     2.272632     2.264988     2.257345     2.249702
      2.242059     2.234416     2.226772     2.219129     2.211486     2.203843     2.196199     2.188556     2.180913     2.173270
      2.165627     2.157983     2.150340     2.142697     2.135054     2.127410     2.119767     2.112124     2.104481     2.096838
      2.089194     2.081551     2.073908     2.066265     2.058621     2.050978     2.043335     2.035692     2.028049     2.020405
      2.012762     2.005119     1.997476     1.989833     1.982190     1.974546     1.966903     1.959260     1.951617     1.943974
      1.936331     1.928688     1.921045     1.913402     1.905759     1.898115     1.890472     1.882829     1.875186     1.867543
      1.859900     1.852257     1.844614     1.836971     1.829327     1.821684     1.814041     1.806398     1.798755     1.791112
      1.783469     1.775826     1.768183     1.760540     1.752896     1.745253     1.737610     1.729967     1.722324     1.714681
      1.707038     1.699395     1.691752     1.684108     1.676465     1.668822     1.661179     1.653536     1.645893     1.638250
      1.630607     1.622964     1.615321     1.607677     1.600034     1.592391     1.584748     1.577105     1.569462     1.561819
      1.554176     1.546533     1.538890     1.531246     1.523603     1.515960     1.508317     1.500674     1.493031     1.485388
      1.477745     1.470102     1.462458     1.454815     1.447172     1.439529     1.431886     1.424243     1.416600     1.408957
      1.401314     1.393671     1.386027     1.378384     1.370741     1.363098     1.355455     1.347812     1.340169     1.332526
      1.324883     1.317240     1.309596     1.301953     1.294310     1.286667     1.279024     1.271381     1.263738     1.256095
      1.248452     1.240808     1.233165     1.225522     1.217879     1.210236     1.202593     1.194950     1.187307     1.179664
      1.172021     1.164377     1.156734     1.149091     1.141448     1.133805     1.126162     1.118519     1.110876     1.103233
      1.095590     1.087946     1.080303     1.072660     1.065017     1.057374     1.049731     1.042088     1.034445     1.026802
      1.019158     1.011515     1.003872     0.996229     0.988586     0.980943     0.973300     0.965657     0.958014     0.950371
      0.942727     0.935084     0.927441     0.919798     0.912155     0.904512     0.896869     0.889226     0.881583     0.873940
      0.866296     0.858653     0.851010     0.843367     0.835724     0.828081     0.820438     0.812795     0.805152     0.797508
      0.789865     0.782222     0.774579     0.766936     0.759293     0.751650     0.744007     0.736364     0.728721     0.721077
      0.713434     0.705791     0.698148     0.690505     0.682862     0.675219     0.667576     0.659933     0.652290     0.644646
      0.637003     0.629360     0.621717     0.614074     0.606431     0.598788     0.591145     0.583502     0.575858     0.568215
      0.560572     0.552929     0.545286     0.537643     0.530000     0.522357     0.514714     0.507071     0.499427     0.491784
      0.484141     0.476498     0.468855     0.461212     0.453569     0.445925     0.438282     0.430639     0.422996     0.415353
      0.407710     0.400067     0.392424     0.384780     0.377137     0.369494     0.361851     0.354208     0.346565     0.338922
      0.331278     0.323635     0.315992     0.308349     0.300706     0.293063     0.285420     0.277777     0.270133     0.262490
      0.254847     0.247204     0.239561     0.231918     0.224275     0.216631     0.208988     0.201345
 NY phased data points follow
   2.82810E+01  4.18181E+01  1.79102E+01  1.45586E+01  1.68409E+01  3.86112E+01  3.84903E+01  3.67652E+01  4.84059E+01  4.90490E+01
   5.93042E+01  7.21695E+01  6.66143E+01  5.35147E+01  5.59868E+01  4.67322E+01  4.50978E+01  2.74338E+01  3.37403E+01  2.82024E+01
   3.51636E+01  3.33376E+01  3.79619E+01  3.73221E+01  3.05644E+01  2.94907E+01  2.69677E+01  3.19751E+01  2.85683E+01  2.73162E+01
   3.40000E+01  4.59407E+01  4.49487E+01  3.58002E+01  3.73418E+01  2.13624E+01  2.78316E+01  1.28865E+01  2.71697E+01  2.88074E+01
   2.81122E+01  2.32523E+01  2.11932E+01  2.49911E+01  2.77372E+01  3.51554E+01  4.31785E+01  3.98804E+01  4.26759E+01  3.79964E+01
   3.09377E+01  2.22976E+01  2.97460E+01  3.49796E+01  1.87989E+01  2.63729E+01  2.29197E+01  3.52359E+01  2.17941E+01  2.83545E+01
   2.94021E+01  1.61685E+01  1.83891E+01  1.79168E+01  1.36168E+01  1.40485E+01  1.55724E+01  2.52886E+01  9.36971E+00  2.11829E+01
   1.25365E+01  1.71670E+01  1.44662E+01  1.68737E+01  1.39826E+01  1.65254E+01  1.74856E+01  7.71453E+00  2.32181E+01  2.66219E+01
   2.04484E+01  1.35429E+01  9.11770E+00  1.35102E+01  1.57076E+01  1.55221E+01  9.82414E+00  1.80410E+01  1.87662E+01  2.02819E+01
   2.32194E+01  1.81097E+01  1.14932E+01  2.36700E+01  2.49178E+01  1.90584E+01  1.74859E+01  1.53787E+01  2.65356E+01  2.61779E+01
   1.85954E+01  3.60161E+01  4.48551E+01  5.88475E+01  5.52318E+01  5.06452E+01  3.62859E+01  3.29053E+01  2.25756E+01  2.80596E+01
   2.55614E+01  3.14937E+01  1.82751E+01  1.39571E+01  1.99597E+01  9.35183E+00  1.50443E+01  2.66752E+01  1.97311E+01  1.89976E+01
   4.94955E+00  1.50961E+01  2.74200E+01  1.97275E+01  2.82211E+01  4.94253E+01  8.13734E+01  8.55450E+01  8.00518E+01  8.13014E+01
   6.61056E+01  4.18490E+01  2.90069E+01  2.08145E+01  2.51934E+01  1.54502E+01  2.42406E+01  1.48160E+01  2.59024E+01  1.87122E+01
   2.14570E+01  1.46151E+01  1.33006E+01  1.36072E+01  1.83933E+01  1.99685E+01  1.42470E+01  1.90104E+01  6.07703E+00  1.47661E+01
   3.75292E+00  5.94272E+00  1.99955E+01 -4.31804E+00  1.03606E+01  4.17050E+00  6.96191E+00  4.14863E+00  2.73556E+00  9.40460E+00
   8.81676E+00  1.41962E+01  3.30722E+00  5.62149E+00  8.34767E+00  3.06791E+00  9.98079E+00  5.32062E+00  2.25695E+00  5.26767E+00
  -1.62788E+00 -5.70961E+00  2.38727E+00 -8.92261E+00 -1.48169E+01 -1.10731E+01 -4.95785E-01 -6.31531E+00 -4.65227E+00 -6.52545E+00
  -7.67178E+00 -1.16308E+01 -1.94883E+00  8.38866E-01  5.96581E+00  3.74949E+00  4.34446E+00 -2.12476E+00  3.61885E+00  2.60075E+00
   1.36221E+01  6.45868E+00  7.62388E+00  4.47597E+00  8.21234E+00  6.89104E-01 -8.90867E+00  6.66336E+00  6.10449E+00 -2.96513E+00
   3.13244E+00  1.01414E+01  1.98235E+00  1.28076E+01  1.59947E+01  1.18969E+01  1.25736E+01  1.43060E+00  1.40855E+00  1.09038E+00
  -3.65178E-01  6.99850E+00  1.19274E+01  1.33918E+01  1.91510E+01  2.95448E+01  2.90482E+01  3.86540E+01  2.64750E+01  1.53808E+01
   1.47406E+01  5.66418E+00 -6.64282E+00 -1.07441E+00  8.40940E+00 -2.31327E-01  1.68823E+01  2.45725E+01  2.40335E+01  2.99738E+01
   2.49194E+01  1.34833E+01  1.75067E+01  2.07534E+00  2.56463E+01  2.36946E+01  1.57668E+01  2.48020E+01  1.99191E+01  2.07931E+01
   1.96682E+01  7.87442E+00  5.79698E+00  1.18317E+01  2.26264E+01  2.70206E+01  3.60942E+01  2.99387E+01  2.14473E+01  3.37733E+01
   3.51192E+01  3.72046E+01  2.56361E+01  3.91985E+01  3.41554E+01  4.59092E+01  5.53419E+01  6.31726E+01  8.92617E+01  1.30722E+02
   1.51344E+02  1.68410E+02  1.36666E+02  9.75899E+01  6.08527E+01  3.86797E+01  3.23210E+01  2.43418E+01  1.88898E+01  2.86900E+01
   1.33494E+01  2.05218E+01  9.12456E+00  1.63472E+01  1.29329E+01  5.27872E+00  1.02283E+01  1.23214E+01  8.97660E-01  1.06249E+01
   8.17325E+00  1.85353E+00  1.94520E+00  1.03318E+01  5.05034E+00  5.69973E+00 -3.52031E+00  1.34809E+00 -1.64648E+00  6.40146E+00
   1.29931E+01  1.17638E+01  6.37259E+00  1.43554E+00  1.21098E+01  8.55581E+00  6.99957E+00  6.52103E+00  1.40629E+01  1.00595E+01
   1.34455E+01  6.55825E+00  1.62940E+01  1.23584E+01  1.12394E+01  1.50787E+01  1.65007E+01  2.06067E+01  2.87210E+01  1.56872E+01
   2.25044E+01  2.32838E+01  2.04901E+01  2.87884E+01  1.70362E+01  3.78657E+01  3.11322E+01  2.35819E+01  1.90450E+01  8.64108E+00
   2.26142E+01  2.50606E+01  1.64167E+01  8.84678E+00  1.08831E+01  1.37913E+01  1.11834E+01  2.18025E+01  9.77161E+00  6.50668E+00
   7.92022E+00  3.37297E+00  9.37630E+00  5.55785E+00  1.17773E+01  1.45803E+01  1.78874E+01  1.16540E+01  6.86624E+00  1.27992E+01
   1.10341E+01  1.42088E+01 -1.26189E+00  1.23288E+01  1.45103E+01  5.45114E+00  1.18148E+01  1.46959E+01  9.41669E+00  1.49134E+01
   7.40739E+00  7.98890E+00  5.04467E+00  1.61593E+01  1.04836E+01  1.67342E+01  1.62568E+01  5.73955E+00  1.36936E+01  3.50947E+00
   1.40971E+01  1.51150E+01  2.09038E+01  2.41568E+01  2.04018E+01  2.25877E+01  1.72154E+01  1.76030E+01  2.04846E+01  1.30489E+01
   1.06139E+01  1.43028E+01  1.94565E+01  7.01733E+00  7.88105E-02  9.59701E+00  7.63354E+00  8.87055E+00  5.19726E+00  1.21647E+01
   8.48910E+00  1.71945E+00  1.27580E+00  4.91373E+00  1.42681E+01  4.36399E+00  7.54906E+00  8.92400E+00  9.82252E+00  1.18648E+00
   1.09804E+01  6.59949E+00  1.41103E+01  1.02151E+01  5.99948E+00  1.72342E+01  2.32867E+00  1.08068E+01  1.44709E+01  1.29299E+01
   1.56514E+01  1.70593E+01  1.48588E+01  2.57490E+01  1.91254E+01  1.56399E+01  1.94918E+01  1.68977E+01  8.13290E+00  1.05599E+01
   8.44314E+00  9.20763E+00  7.43846E+00  6.18718E+00  1.16214E+01  5.83955E+00  7.67335E+00  5.45470E-01  5.10231E+00 -2.65832E-01
   2.21794E+00  4.00054E+00  5.11991E-01 -8.74180E+00 -7.17292E+00  2.31504E+00 -6.92622E+00  3.60582E+00 -2.81238E+00  9.52942E+00
  -1.79925E+00 -1.98726E+00  4.64524E-01  4.99501E+00 -2.56324E+00  3.93618E+00 -5.91038E+00  2.32808E-01 -8.73608E+00  2.24214E+00
  -5.76245E+00 -1.77067E+00 -2.33044E+00 -1.15598E+01 -7.60606E+00  4.65783E+00 -6.57861E+00 -1.06435E+01 -6.95385E+00 -7.79087E+00
  -6.58767E+00 -8.99892E+00 -5.45581E+00 -3.94803E+00 -6.94200E+00  1.16122E+00 -8.79923E+00 -3.74623E+00 -6.99839E+00 -5.93486E-01
  -7.49988E+00 -1.19944E+01 -8.19426E+00 -1.10441E+00  4.95588E+00 -7.61643E+00 -1.00643E+01 -6.27218E+00  5.14761E+00  9.98249E-02
   2.47563E-02  3.25921E+00 -3.68618E+00 -3.54810E-02 -3.36565E+00 -5.27973E+00  2.59466E-01 -5.60705E-01 -1.04843E+01 -4.70381E+00
  -1.89392E+00 -3.20930E+00  6.61506E+00 -1.18885E+01 -6.65050E+00 -1.47560E+00 -3.45775E+00 -3.16404E+00 -4.16080E+00  6.53233E+00
  -7.21627E+00 -5.32705E+00 -2.22093E+00  5.77576E+00  8.65355E+00 -1.02152E+00 -3.16540E+00 -4.95814E+00
 NY points of the fit to the data follow
   2.44056E+01  2.39260E+01  2.38276E+01  2.43171E+01  2.55876E+01  2.73943E+01  3.06695E+01  3.63428E+01  4.27626E+01  5.06833E+01
   5.97387E+01  6.59475E+01  6.62315E+01  6.02192E+01  4.99394E+01  3.92793E+01  3.21765E+01  2.82351E+01  2.51788E+01  2.38968E+01
   2.40061E+01  2.45511E+01  2.50772E+01  2.49861E+01  2.45497E+01  2.42666E+01  2.39533E+01  2.52692E+01  2.93035E+01  3.48479E+01
   3.99076E+01  4.25328E+01  4.20745E+01  3.89673E+01  3.46032E+01  2.97662E+01  2.45953E+01  2.06076E+01  1.86117E+01  1.83954E+01
   1.92494E+01  2.09250E+01  2.32893E+01  2.56419E+01  2.85779E+01  3.30752E+01  3.77424E+01  4.01415E+01  3.87256E+01  3.36633E+01
   2.71627E+01  2.19774E+01  1.90285E+01  1.76673E+01  1.75341E+01  1.83272E+01  1.97072E+01  2.14870E+01  2.34444E+01  2.51375E+01
   2.58636E+01  2.50702E+01  2.29686E+01  2.04588E+01  1.85255E+01  1.75544E+01  1.76978E+01  1.86112E+01  1.97162E+01  2.08601E+01
   2.18914E+01  2.26003E+01  2.28066E+01  2.24779E+01  2.18180E+01  2.10459E+01  2.04305E+01  1.98851E+01  1.93107E+01  1.88642E+01
   1.85895E+01  1.84746E+01  1.84477E+01  1.84001E+01  1.84297E+01  1.82374E+01  1.73569E+01  1.58624E+01  1.42879E+01  1.33224E+01
   1.34047E+01  1.44342E+01  1.56614E+01  1.66285E+01  1.73688E+01  1.75691E+01  1.72030E+01  1.67671E+01  1.76057E+01  2.03016E+01
   2.55229E+01  3.58472E+01  4.87530E+01  5.80977E+01  5.95049E+01  5.23131E+01  4.03247E+01  2.94824E+01  2.29160E+01  1.89112E+01
   1.61965E+01  1.54792E+01  1.54397E+01  1.55507E+01  1.56807E+01  1.58161E+01  1.59646E+01  1.61134E+01  1.62782E+01  1.65496E+01
   1.70918E+01  1.83753E+01  2.16771E+01  2.77118E+01  3.69194E+01  5.25819E+01  7.21739E+01  8.68624E+01  8.98117E+01  7.97375E+01
   6.18646E+01  4.50591E+01  3.41785E+01  2.68659E+01  2.05579E+01  1.63929E+01  1.37406E+01  1.25397E+01  1.28446E+01  1.41263E+01
   1.56164E+01  1.67324E+01  1.70493E+01  1.66850E+01  1.60559E+01  1.53364E+01  1.46386E+01  1.39329E+01  1.32161E+01  1.25865E+01
   1.20355E+01  1.15561E+01  1.10903E+01  1.07184E+01  1.05220E+01  1.04523E+01  1.03873E+01  1.02335E+01  9.63888E+00  8.40567E+00
   7.07905E+00  6.23542E+00  6.45372E+00  7.74109E+00  9.11959E+00  9.63979E+00  9.13685E+00  8.09534E+00  7.00376E+00  6.26389E+00
   5.87121E+00  5.44028E+00  5.00161E+00  4.41318E+00  3.34688E+00  2.35316E+00  2.11473E+00  2.78864E+00  3.82444E+00  4.30143E+00
   3.91144E+00  3.26345E+00  3.13730E+00  3.67325E+00  4.13799E+00  4.19071E+00  4.44444E+00  5.84425E+00  8.40092E+00  1.14372E+01
   1.38017E+01  1.45045E+01  1.36242E+01  1.18194E+01  9.88726E+00  8.30207E+00  7.37019E+00  7.27416E+00  8.24281E+00  1.04421E+01
   1.32136E+01  1.60174E+01  1.84228E+01  1.97452E+01  1.96698E+01  1.75352E+01  1.35012E+01  7.96535E+00  2.43781E+00 -9.48346E-01
  -1.61044E+00  5.47211E-01  4.89862E+00  1.07492E+01  1.79341E+01  2.46824E+01  2.83103E+01  2.66763E+01  2.04755E+01  1.22386E+01
   3.91756E+00 -3.01466E+00 -6.80793E+00 -5.84311E+00 -2.10749E-01  7.59786E+00  1.45898E+01  1.89278E+01  2.07922E+01  2.07833E+01
   1.92337E+01  1.72157E+01  1.60423E+01  1.58672E+01  1.67770E+01  1.88005E+01  2.12819E+01  2.34823E+01  2.45673E+01  2.37863E+01
   2.13153E+01  1.83230E+01  1.60846E+01  1.56325E+01  1.74022E+01  2.06389E+01  2.39175E+01  2.62323E+01  2.74322E+01  2.77521E+01
   2.76771E+01  2.80186E+01  2.92090E+01  3.19814E+01  3.66379E+01  4.45737E+01  5.46887E+01  6.78590E+01  9.42515E+01  1.29172E+02
   1.55162E+02  1.58846E+02  1.37034E+02  1.00449E+02  6.70627E+01  4.64766E+01  3.29604E+01  2.26927E+01  1.86717E+01  1.67108E+01
   1.52150E+01  1.40706E+01  1.34624E+01  1.31889E+01  1.30685E+01  1.28625E+01  1.23995E+01  1.17120E+01  1.09501E+01  1.01928E+01
   9.47768E+00  8.87150E+00  8.42084E+00  8.10313E+00  7.84449E+00  7.58179E+00  7.30897E+00  7.06150E+00  6.84143E+00  6.67026E+00
   6.58393E+00  6.60282E+00  6.72111E+00  6.92576E+00  7.20739E+00  7.57336E+00  8.03442E+00  8.60347E+00  9.29381E+00  1.01194E+01
   1.10825E+01  1.21742E+01  1.33711E+01  1.46390E+01  1.59419E+01  1.72429E+01  1.84984E+01  1.96699E+01  2.07211E+01  2.16149E+01
   2.23175E+01  2.28030E+01  2.30541E+01  2.30655E+01  2.28433E+01  2.24044E+01  2.17749E+01  2.09894E+01  2.00906E+01  1.91281E+01
   1.81592E+01  1.72601E+01  1.65134E+01  1.58570E+01  1.54007E+01  1.50577E+01  1.43108E+01  1.28659E+01  1.08729E+01  8.78373E+00
   7.24303E+00  6.47675E+00  6.33237E+00  6.88730E+00  8.26407E+00  1.00206E+01  1.15062E+01  1.22937E+01  1.23521E+01  1.20824E+01
   1.18916E+01  1.17684E+01  1.17266E+01  1.18495E+01  1.20917E+01  1.24211E+01  1.26628E+01  1.26706E+01  1.24533E+01  1.21379E+01
   1.19407E+01  1.19615E+01  1.22011E+01  1.26609E+01  1.33171E+01  1.40307E+01  1.45786E+01  1.48337E+01  1.48090E+01  1.46400E+01
   1.44358E+01  1.41724E+01  1.38622E+01  1.35314E+01  1.31654E+01  1.27602E+01  1.23185E+01  1.18454E+01  1.13485E+01  1.08365E+01
   1.03186E+01  9.80358E+00  9.30016E+00  8.81689E+00  8.36241E+00  7.94499E+00  7.57209E+00  7.25016E+00  6.98503E+00  6.78228E+00
   6.64727E+00  6.58466E+00  6.59807E+00  6.69008E+00  6.86252E+00  7.11653E+00  7.45218E+00  7.86773E+00  8.35925E+00  8.92065E+00
   9.54388E+00  1.02188E+01  1.09328E+01  1.16707E+01  1.24148E+01  1.31458E+01  1.38437E+01  1.44882E+01  1.50594E+01  1.55380E+01
   1.59068E+01  1.61518E+01  1.62627E+01  1.62337E+01  1.60627E+01  1.57521E+01  1.53084E+01  1.47425E+01  1.40685E+01  1.33034E+01
   1.24650E+01  1.15720E+01  1.06434E+01  9.69741E+00  8.75108E+00  7.81924E+00  6.91416E+00  6.04568E+00  5.22144E+00  4.44699E+00
   3.72564E+00  3.05853E+00  2.44501E+00  1.88334E+00  1.37114E+00  9.05499E-01  4.82890E-01  9.93206E-02 -2.49276E-01 -5.66596E-01
  -8.55871E-01 -1.12010E+00 -1.36228E+00 -1.58532E+00 -1.79175E+00 -1.98350E+00 -2.16214E+00 -2.32911E+00 -2.48596E+00 -2.63412E+00
  -2.77466E+00 -2.90825E+00 -3.03541E+00 -3.15682E+00 -3.27331E+00 -3.38557E+00 -3.49397E+00 -3.59864E+00 -3.69978E+00 -3.79783E+00
  -3.89330E+00 -3.98650E+00 -4.07747E+00 -4.16614E+00 -4.25266E+00 -4.33740E+00 -4.42069E+00 -4.50262E+00 -4.58307E+00 -4.66198E+00
  -4.73956E+00 -4.81612E+00 -4.89183E+00 -4.96661E+00 -5.04030E+00 -5.11291E+00 -5.18467E+00 -5.25587E+00 -5.32654E+00 -5.39650E+00
  -5.46562E+00 -5.53399E+00 -5.60188E+00 -5.66945E+00 -5.73660E+00 -5.80313E+00 -5.86899E+00 -5.93438E+00 -5.99954E+00 -6.06450E+00
  -6.12911E+00 -6.19318E+00 -6.25676E+00 -6.32010E+00 -6.38335E+00 -6.44645E+00 -6.50918E+00 -6.57146E+00 -6.63343E+00 -6.69533E+00
  -6.75722E+00 -6.81895E+00 -6.88033E+00 -6.94136E+00 -7.00227E+00 -7.06322E+00 -7.12418E+00 -7.18495E+00
 NY background values follow
     1.875E+01    1.870E+01    1.864E+01    1.859E+01    1.853E+01    1.847E+01    1.842E+01    1.836E+01    1.831E+01    1.825E+01
     1.819E+01    1.814E+01    1.808E+01    1.803E+01    1.797E+01    1.791E+01    1.786E+01    1.780E+01    1.775E+01    1.769E+01
     1.763E+01    1.758E+01    1.752E+01    1.747E+01    1.741E+01    1.735E+01    1.730E+01    1.724E+01    1.719E+01    1.713E+01
     1.707E+01    1.702E+01    1.696E+01    1.691E+01    1.685E+01    1.679E+01    1.674E+01    1.668E+01    1.663E+01    1.657E+01
     1.651E+01    1.646E+01    1.640E+01    1.635E+01    1.629E+01    1.623E+01    1.618E+01    1.612E+01    1.607E+01    1.601E+01
     1.595E+01    1.590E+01    1.584E+01    1.579E+01    1.573E+01    1.567E+01    1.562E+01    1.556E+01    1.551E+01    1.545E+01
     1.539E+01    1.534E+01    1.528E+01    1.523E+01    1.517E+01    1.511E+01    1.506E+01    1.500E+01    1.495E+01    1.489E+01
     1.483E+01    1.478E+01    1.472E+01    1.467E+01    1.461E+01    1.455E+01    1.450E+01    1.444E+01    1.439E+01    1.433E+01
     1.427E+01    1.422E+01    1.416E+01    1.411E+01    1.405E+01    1.399E+01    1.394E+01    1.388E+01    1.383E+01    1.377E+01
     1.371E+01    1.366E+01    1.360E+01    1.355E+01    1.349E+01    1.344E+01    1.338E+01    1.332E+01    1.327E+01    1.321E+01
     1.316E+01    1.310E+01    1.304E+01    1.299E+01    1.293E+01    1.288E+01    1.282E+01    1.276E+01    1.271E+01    1.265E+01
     1.260E+01    1.254E+01    1.249E+01    1.243E+01    1.237E+01    1.232E+01    1.226E+01    1.221E+01    1.215E+01    1.210E+01
     1.204E+01    1.198E+01    1.193E+01    1.187E+01    1.182E+01    1.176E+01    1.171E+01    1.165E+01    1.159E+01    1.154E+01
     1.148E+01    1.143E+01    1.137E+01    1.132E+01    1.126E+01    1.121E+01    1.115E+01    1.109E+01    1.104E+01    1.098E+01
     1.093E+01    1.087E+01    1.082E+01    1.076E+01    1.071E+01    1.065E+01    1.059E+01    1.054E+01    1.048E+01    1.043E+01
     1.037E+01    1.032E+01    1.026E+01    1.021E+01    1.015E+01    1.010E+01    1.004E+01    9.986E+00    9.931E+00    9.875E+00
     9.820E+00    9.765E+00    9.710E+00    9.655E+00    9.599E+00    9.544E+00    9.489E+00    9.434E+00    9.379E+00    9.324E+00
     9.269E+00    9.214E+00    9.158E+00    9.103E+00    9.048E+00    8.993E+00    8.938E+00    8.883E+00    8.828E+00    8.773E+00
     8.719E+00    8.664E+00    8.609E+00    8.554E+00    8.499E+00    8.444E+00    8.389E+00    8.335E+00    8.280E+00    8.225E+00
     8.170E+00    8.116E+00    8.061E+00    8.006E+00    7.951E+00    7.897E+00    7.842E+00    7.787E+00    7.733E+00    7.678E+00
     7.624E+00    7.569E+00    7.514E+00    7.460E+00    7.405E+00    7.351E+00    7.296E+00    7.242E+00    7.187E+00    7.133E+00
     7.079E+00    7.024E+00    6.970E+00    6.915E+00    6.861E+00    6.807E+00    6.752E+00    6.698E+00    6.644E+00    6.589E+00
     6.535E+00    6.481E+00    6.427E+00    6.372E+00    6.318E+00    6.264E+00    6.210E+00    6.156E+00    6.102E+00    6.047E+00
     5.993E+00    5.939E+00    5.885E+00    5.831E+00    5.777E+00    5.723E+00    5.669E+00    5.615E+00    5.561E+00    5.507E+00
     5.453E+00    5.399E+00    5.345E+00    5.291E+00    5.237E+00    5.183E+00    5.129E+00    5.076E+00    5.022E+00    4.968E+00
     4.914E+00    4.860E+00    4.806E+00    4.753E+00    4.699E+00    4.645E+00    4.591E+00    4.538E+00    4.484E+00    4.430E+00
     4.377E+00    4.323E+00    4.269E+00    4.216E+00    4.162E+00    4.108E+00    4.055E+00    4.001E+00    3.948E+00    3.894E+00
     3.840E+00    3.787E+00    3.733E+00    3.680E+00    3.626E+00    3.573E+00    3.520E+00    3.466E+00    3.413E+00    3.359E+00
     3.306E+00    3.252E+00    3.199E+00    3.146E+00    3.092E+00    3.039E+00    2.986E+00    2.932E+00    2.879E+00    2.826E+00
     2.773E+00    2.719E+00    2.666E+00    2.613E+00    2.560E+00    2.506E+00    2.453E+00    2.400E+00    2.347E+00    2.294E+00
     2.241E+00    2.187E+00    2.134E+00    2.081E+00    2.028E+00    1.975E+00    1.922E+00    1.869E+00    1.816E+00    1.763E+00
     1.710E+00    1.657E+00    1.604E+00    1.551E+00    1.498E+00    1.445E+00    1.392E+00    1.339E+00    1.286E+00    1.233E+00
     1.180E+00    1.128E+00    1.075E+00    1.022E+00    9.691E-01    9.162E-01    8.634E-01    8.106E-01    7.578E-01    7.050E-01
     6.522E-01    5.995E-01    5.467E-01    4.940E-01    4.413E-01    3.885E-01    3.358E-01    2.831E-01    2.305E-01    1.778E-01
     1.251E-01    7.248E-02    1.984E-02   -3.279E-02   -8.541E-02   -1.380E-01   -1.906E-01   -2.432E-01   -2.958E-01   -3.483E-01
    -4.009E-01   -4.534E-01   -5.060E-01   -5.585E-01   -6.110E-01   -6.635E-01   -7.160E-01   -7.685E-01   -8.210E-01   -8.734E-01
    -9.259E-01   -9.783E-01   -1.031E+00   -1.083E+00   -1.136E+00   -1.188E+00   -1.240E+00   -1.293E+00   -1.345E+00   -1.398E+00
    -1.450E+00   -1.502E+00   -1.555E+00   -1.607E+00   -1.659E+00   -1.712E+00   -1.764E+00   -1.816E+00   -1.868E+00   -1.921E+00
    -1.973E+00   -2.025E+00   -2.077E+00   -2.130E+00   -2.182E+00   -2.234E+00   -2.286E+00   -2.339E+00   -2.391E+00   -2.443E+00
    -2.495E+00   -2.547E+00   -2.599E+00   -2.652E+00   -2.704E+00   -2.756E+00   -2.808E+00   -2.860E+00   -2.912E+00   -2.964E+00
    -3.016E+00   -3.068E+00   -3.121E+00   -3.173E+00   -3.225E+00   -3.277E+00   -3.329E+00   -3.381E+00   -3.433E+00   -3.485E+00
    -3.537E+00   -3.589E+00   -3.641E+00   -3.693E+00   -3.745E+00   -3.797E+00   -3.849E+00   -3.901E+00   -3.952E+00   -4.004E+00
    -4.056E+00   -4.108E+00   -4.160E+00   -4.212E+00   -4.264E+00   -4.316E+00   -4.368E+00   -4.420E+00   -4.471E+00   -4.523E+00
    -4.575E+00   -4.627E+00   -4.679E+00   -4.731E+00   -4.783E+00   -4.834E+00   -4.886E+00   -4.938E+00   -4.990E+00   -5.042E+00
    -5.093E+00   -5.145E+00   -5.197E+00   -5.249E+00   -5.300E+00   -5.352E+00   -5.404E+00   -5.456E+00   -5.507E+00   -5.559E+00
    -5.611E+00   -5.663E+00   -5.714E+00   -5.766E+00   -5.818E+00   -5.869E+00   -5.921E+00   -5.973E+00   -6.025E+00   -6.076E+00
    -6.128E+00   -6.180E+00   -6.231E+00   -6.283E+00   -6.335E+00   -6.386E+00   -6.438E+00   -6.489E+00   -6.541E+00   -6.593E+00
    -6.644E+00   -6.696E+00   -6.748E+00   -6.799E+00   -6.851E+00   -6.902E+00   -6.954E+00   -7.006E+00   -7.057E+00   -7.109E+00
    -7.160E+00   -7.212E+00   -7.264E+00   -7.315E+00   -7.367E+00   -7.418E+00   -7.470E+00   -7.521E+00   -7.573E+00   -7.625E+00
    -7.676E+00   -7.728E+00   -7.779E+00   -7.831E+00   -7.882E+00   -7.934E+00   -7.985E+00   -8.037E+00
 Ala      Conc. = 1.96E+02
