 LCModel (Version 6.3-1L) Copyright: S.W. Provencher.          Ref.: Magn. Reson. Med. 30:672-679 (1993).                
 Slice#1 Row#12 Col#7  PD_05_press_2_raw_act
 36 lines in following concentration table = NCONC+1
    Conc.  %SD /Cr+PCr  Metabolite                                         
  372.112  59%   2.864 Ala                                                 
   17.876  28%   0.138 Asp                                                 
    0.000 999%   0.000 Cr                                                  
  129.920  32%   1.000 PCr                                                 
   10.744  28% 8.3E-02 GABA                                                
   10.718  28% 8.2E-02 Glc                                                 
    0.000 999%   0.000 Gln                                                 
    0.000 999%   0.000 Glu                                                 
   36.968  43%   0.285 GPC                                                 
    0.000 999%   0.000 PCh                                                 
   11.013 575% 8.5E-02 GSH                                                 
  167.332  95%   1.288 Ins                                                 
  502.808  40%   3.870 Lac                                                 
  117.062  36%   0.901 NAA                                                 
    0.000 999%   0.000 NAAG                                                
    3.564  28% 2.7E-02 Scyllo                                              
   17.843  28%   0.137 Tau                                                 
   13.100  45%   0.101 -CrCH2                                              
   36.968  43%   0.285 GPC+PCh                                             
  117.062  36%   0.901 NAA+NAAG                                            
  129.920  32%   1.000 Cr+PCr                                              
    0.000 999%   0.000 Glu+Gln                                             
    0.000 999%   0.000 Lip13a                                              
    0.000 999%   0.000 Lip13b                                              
    0.000 999%   0.000 Lip09                                               
 3.08E-04 999% 2.4E-06 MM09                                                
 4.92E-05 999% 3.8E-07 Lip20                                               
 1.58E-03 999% 1.2E-05 MM20                                                
    0.000 999%   0.000 MM12                                                
 2.26E-03 999% 1.7E-05 MM14                                                
    0.000 999%   0.000 MM17                                                
    0.000 999%   0.000 Lip13a+Lip13b                                       
 2.26E-03 999% 1.7E-05 MM14+Lip13a+Lip13b+MM12                             
 3.08E-04 999% 2.4E-06 MM09+Lip09                                          
 1.63E-03 999% 1.3E-05 MM20+Lip20                                          
   6 lines in following misc. output table
  FWHM = 0.138 ppm    S/N =   1                                            
  Data shift = 0.115 ppm                                                   
  Ph:  96 deg     -21.1 deg/ppm                                            
  alphaB,S = 8.5E+01,   1.0E+02                                            
   14 spline knots.   Ns = 8(2)                                            
   2 inflections.     1 extrema                                            
  498 points on ppm-axis = NY
      4.000000     3.992357     3.984714     3.977070     3.969427     3.961784     3.954141     3.946497     3.938854     3.931211
      3.923568     3.915925     3.908281     3.900638     3.892995     3.885352     3.877708     3.870065     3.862422     3.854779
      3.847136     3.839492     3.831849     3.824206     3.816563     3.808919     3.801276     3.793633     3.785990     3.778347
      3.770703     3.763060     3.755417     3.747774     3.740130     3.732487     3.724844     3.717201     3.709558     3.701914
      3.694271     3.686628     3.678985     3.671341     3.663698     3.656055     3.648412     3.640769     3.633125     3.625482
      3.617839     3.610196     3.602552     3.594909     3.587266     3.579623     3.571980     3.564336     3.556693     3.549050
      3.541407     3.533763     3.526120     3.518477     3.510834     3.503191     3.495547     3.487904     3.480261     3.472618
      3.464974     3.457331     3.449688     3.442045     3.434402     3.426758     3.419115     3.411472     3.403829     3.396185
      3.388542     3.380899     3.373256     3.365613     3.357969     3.350326     3.342683     3.335040     3.327396     3.319753
      3.312110     3.304467     3.296824     3.289180     3.281537     3.273894     3.266251     3.258607     3.250964     3.243321
      3.235678     3.228034     3.220391     3.212748     3.205105     3.197462     3.189818     3.182175     3.174532     3.166889
      3.159245     3.151602     3.143959     3.136316     3.128673     3.121029     3.113386     3.105743     3.098100     3.090456
      3.082813     3.075170     3.067527     3.059884     3.052240     3.044597     3.036954     3.029311     3.021667     3.014024
      3.006381     2.998738     2.991095     2.983451     2.975808     2.968165     2.960522     2.952878     2.945235     2.937592
      2.929949     2.922306     2.914662     2.907019     2.899376     2.891733     2.884089     2.876446     2.868803     2.861160
      2.853517     2.845873     2.838230     2.830587     2.822944     2.815300     2.807657     2.800014     2.792371     2.784728
      2.777084     2.769441     2.761798     2.754155     2.746511     2.738868     2.731225     2.723582     2.715939     2.708295
      2.700652     2.693009     2.685366     2.677722     2.670079     2.662436     2.654793     2.647150     2.639506     2.631863
      2.624220     2.616577     2.608933     2.601290     2.593647     2.586004     2.578361     2.570717     2.563074     2.555431
      2.547788     2.540144     2.532501     2.524858     2.517215     2.509572     2.501928     2.494285     2.486642     2.478999
      2.471355     2.463712     2.456069     2.448426     2.440783     2.433139     2.425496     2.417853     2.410210     2.402566
      2.394923     2.387280     2.379637     2.371994     2.364350     2.356707     2.349064     2.341421     2.333777     2.326134
      2.318491     2.310848     2.303205     2.295561     2.287918     2.280275     2.272632     2.264988     2.257345     2.249702
      2.242059     2.234416     2.226772     2.219129     2.211486     2.203843     2.196199     2.188556     2.180913     2.173270
      2.165627     2.157983     2.150340     2.142697     2.135054     2.127410     2.119767     2.112124     2.104481     2.096838
      2.089194     2.081551     2.073908     2.066265     2.058621     2.050978     2.043335     2.035692     2.028049     2.020405
      2.012762     2.005119     1.997476     1.989833     1.982190     1.974546     1.966903     1.959260     1.951617     1.943974
      1.936331     1.928688     1.921045     1.913402     1.905759     1.898115     1.890472     1.882829     1.875186     1.867543
      1.859900     1.852257     1.844614     1.836971     1.829327     1.821684     1.814041     1.806398     1.798755     1.791112
      1.783469     1.775826     1.768183     1.760540     1.752896     1.745253     1.737610     1.729967     1.722324     1.714681
      1.707038     1.699395     1.691752     1.684108     1.676465     1.668822     1.661179     1.653536     1.645893     1.638250
      1.630607     1.622964     1.615321     1.607677     1.600034     1.592391     1.584748     1.577105     1.569462     1.561819
      1.554176     1.546533     1.538890     1.531246     1.523603     1.515960     1.508317     1.500674     1.493031     1.485388
      1.477745     1.470102     1.462458     1.454815     1.447172     1.439529     1.431886     1.424243     1.416600     1.408957
      1.401314     1.393671     1.386027     1.378384     1.370741     1.363098     1.355455     1.347812     1.340169     1.332526
      1.324883     1.317240     1.309596     1.301953     1.294310     1.286667     1.279024     1.271381     1.263738     1.256095
      1.248452     1.240808     1.233165     1.225522     1.217879     1.210236     1.202593     1.194950     1.187307     1.179664
      1.172021     1.164377     1.156734     1.149091     1.141448     1.133805     1.126162     1.118519     1.110876     1.103233
      1.095590     1.087946     1.080303     1.072660     1.065017     1.057374     1.049731     1.042088     1.034445     1.026802
      1.019158     1.011515     1.003872     0.996229     0.988586     0.980943     0.973300     0.965657     0.958014     0.950371
      0.942727     0.935084     0.927441     0.919798     0.912155     0.904512     0.896869     0.889226     0.881583     0.873940
      0.866296     0.858653     0.851010     0.843367     0.835724     0.828081     0.820438     0.812795     0.805152     0.797508
      0.789865     0.782222     0.774579     0.766936     0.759293     0.751650     0.744007     0.736364     0.728721     0.721077
      0.713434     0.705791     0.698148     0.690505     0.682862     0.675219     0.667576     0.659933     0.652290     0.644646
      0.637003     0.629360     0.621717     0.614074     0.606431     0.598788     0.591145     0.583502     0.575858     0.568215
      0.560572     0.552929     0.545286     0.537643     0.530000     0.522357     0.514714     0.507071     0.499427     0.491784
      0.484141     0.476498     0.468855     0.461212     0.453569     0.445925     0.438282     0.430639     0.422996     0.415353
      0.407710     0.400067     0.392424     0.384780     0.377137     0.369494     0.361851     0.354208     0.346565     0.338922
      0.331278     0.323635     0.315992     0.308349     0.300706     0.293063     0.285420     0.277777     0.270133     0.262490
      0.254847     0.247204     0.239561     0.231918     0.224275     0.216631     0.208988     0.201345
 NY phased data points follow
   1.68801E+00 -2.16233E-01 -1.89194E+00  1.16135E+00  3.20453E-01  1.64460E+00 -2.90670E-01 -1.36996E+00  1.05079E+00 -2.65303E+00
   3.57955E+00 -5.36437E-01  3.12086E+00 -2.26707E+00  1.67589E+00  3.89915E+00  2.30169E+00  5.63184E-01 -1.10989E+00 -4.81150E-01
   1.75411E+00  1.36665E+00 -5.36550E-01 -1.33027E+00 -2.39959E+00 -2.03169E+00 -2.83934E+00 -3.87044E+00  1.53114E-01 -7.58428E-01
  -4.82411E-01  4.60864E-01  1.77854E+00 -5.70518E-01 -2.50955E-01  2.24848E+00  7.57068E-02 -1.33462E+00  1.13920E+00  1.04932E+00
  -7.93395E-01  5.23749E-02 -7.50944E-01 -9.96895E-01 -1.56018E+00  6.02863E+00  7.43271E-02  1.83687E+00 -6.35531E-01  1.59802E+00
  -2.34403E+00 -1.81380E+00 -1.47663E+00  2.42872E+00  3.06424E+00  2.56203E+00 -3.92636E-01 -4.78697E-01  3.61682E+00  1.48390E-01
  -2.50345E-01 -2.98011E-01  4.80673E+00 -7.94959E-01 -1.38691E+00 -8.31249E-01 -1.73658E+00 -3.81700E+00 -1.98362E+00  1.64940E+00
  -8.22748E-01  3.57671E+00 -3.22921E+00  5.79545E-01  3.76600E-01  4.76288E-01 -7.71272E-01 -4.67890E-03 -1.66267E+00 -4.76158E-02
  -7.55334E-01  2.84764E-02  3.03053E-01  2.28216E-01  1.07457E+00 -2.03177E+00 -5.22777E-01 -1.91732E+00 -3.85845E+00 -1.02869E+00
  -1.85054E+00 -3.06988E+00  3.16200E+00  2.23307E-01 -1.03813E+00  8.99836E-01  2.23030E+00  5.13825E-01  1.03332E+00  3.12990E+00
   8.41838E-01  3.39021E+00  7.97816E-01 -1.04602E+00 -8.35387E-01  1.65636E+00  5.57638E-01  8.69162E-01  1.56782E+00  5.33364E+00
   3.08221E+00 -2.35072E+00 -1.81534E+00  2.03175E-01 -2.07069E+00 -1.73341E+00  1.13951E+00  1.21451E+00 -6.17385E-01  1.25961E+00
  -3.12986E-01  3.55594E+00  7.14934E-01  1.07789E+00 -2.05810E-01  1.33722E+00  1.17761E+00  1.73229E+00  9.30843E-01  2.25514E+00
   2.88404E-01  2.65172E+00  1.96797E+00 -1.10986E+00  1.83777E-01  3.67744E+00  6.17713E+00  1.89935E+00 -6.67955E-01  1.42871E+00
  -2.42324E+00  1.37929E+00 -2.78963E+00 -1.57829E+00  1.04190E-01  6.77589E-01 -5.89106E-01 -2.95875E-01  2.67533E+00 -3.70318E-01
   3.44190E+00 -2.39312E+00  3.41454E+00 -4.10517E-01  1.67571E+00  1.01278E+00 -8.30064E-01  3.63077E-01  1.89786E+00 -4.71830E-01
  -7.47000E-01 -2.50713E+00  3.76328E-01 -3.07862E+00  1.38640E+00  2.31758E+00 -2.03519E+00 -2.90991E+00  6.62908E-01  1.62890E-01
   1.40802E+00 -4.31550E+00 -8.08718E-01  7.53796E-01  5.88884E-01  6.34553E-01 -5.40377E-01 -1.14911E+00 -1.75721E+00  6.02462E-01
  -1.32560E+00  3.45290E+00 -4.74794E-01 -2.26701E+00  1.91519E-01  2.77860E-01  7.32687E-01 -1.97588E+00 -2.73377E-01  1.48988E-01
   1.97052E+00 -2.40134E+00 -1.19993E+00 -2.42717E+00  1.36677E-01 -2.23291E+00  5.70307E-01  6.32305E-01 -3.51014E+00  2.94308E+00
  -9.54674E-01  1.72943E+00 -8.17819E-01  2.96987E+00 -5.07194E-01 -4.07612E-01  2.69203E+00  8.99199E-01  2.68867E+00 -8.18588E-01
  -1.72853E+00  3.12648E-02 -8.77688E-01  2.31850E+00  1.87931E+00  1.66994E+00 -2.54143E+00 -2.66474E+00  2.46799E+00 -7.12826E-01
   5.80512E-01  6.27038E-01  7.59839E-01 -1.60252E+00  1.27820E+00  1.77218E-03 -1.07672E+00 -1.25516E+00  4.04834E+00 -7.77692E-01
   1.43562E+00  1.26472E+00  3.94255E-01 -1.72197E+00 -1.32191E+00 -3.06535E+00 -2.20421E+00  2.78031E+00 -5.42668E-01  3.72796E+00
   2.05834E+00  9.79040E-01  2.17754E+00  4.22432E+00  3.58758E+00  6.83163E-01 -7.19530E-01 -2.40782E-01 -3.58650E-01 -1.65303E+00
   4.56516E-01 -1.33105E-01  2.97702E+00  3.39731E+00 -3.47786E+00  1.56833E-01  1.91538E+00  1.13822E+00  6.76580E-01  2.19227E+00
   3.04593E+00  8.29002E-01 -8.03292E-01 -1.47879E+00 -1.59468E+00  3.59142E+00  8.29417E-01  5.44553E+00  4.31523E+00  4.45414E+00
  -1.55368E+00  3.60374E+00 -8.23480E-02  1.62319E+00  9.73272E-01  3.89579E+00 -1.23780E-01 -5.77646E-01 -5.02924E-01 -4.50937E-01
  -2.05133E+00  5.99502E-01  1.51457E+00 -3.76123E-01  2.54522E+00 -2.39221E+00 -9.54231E-01 -5.57746E-01 -1.88442E+00  2.86310E+00
  -2.55343E+00 -6.45674E+00  1.69852E+00 -1.97874E+00 -1.13034E+00 -3.31962E+00  1.99221E+00  2.15959E+00 -1.88991E+00  5.33799E-01
  -4.90740E-01 -3.94080E+00 -5.43872E+00  1.77366E+00 -2.42000E+00 -1.65985E+00 -2.93827E+00 -4.47357E+00 -2.92661E+00  1.24889E+00
  -3.86046E+00 -8.28693E-01 -3.69781E-01 -1.19296E+00  3.84846E-01  8.32235E-01  6.39691E+00  3.92846E+00 -3.20607E+00  1.89272E+00
   2.91181E+00  2.66047E+00  3.09670E+00  2.16455E+00  1.97279E+00  2.85217E+00  4.10594E+00  5.30974E+00 -5.03933E-02 -7.80896E-01
  -1.08536E+00  5.32835E+00 -4.17163E-01  1.52626E+00  4.95963E+00 -5.46322E-01 -4.07213E-01  3.88958E+00  3.95313E+00  3.70805E+00
   3.85998E+00  2.01532E+00  1.28656E+00  2.34262E+00  8.85087E-01  5.86611E+00  3.52168E+00  1.58963E+00 -1.49695E+00  2.38173E+00
  -2.88581E-01  1.33808E+00  2.76152E+00 -2.16218E+00  9.87600E-01 -1.25195E+00 -1.93515E+00  9.43308E-01 -2.45694E+00  1.97796E+00
   1.00586E+00  4.11517E+00 -8.84903E-01 -1.01202E+00  5.18872E+00 -3.45646E+00  2.06260E+00  3.96430E+00 -2.68790E+00  3.69591E-01
  -4.63000E-01  3.29844E+00  6.48004E-01  7.87014E-01  3.43983E+00  7.23147E-01  1.50767E+00  2.80518E+00 -4.90698E-01  3.13714E+00
  -1.95152E+00  1.76402E+00 -2.30579E+00  8.99655E-01 -9.41236E-01 -2.60485E+00 -1.16687E-02  6.37786E-01 -2.01510E+00  1.94185E+00
  -4.30373E-01  1.49179E+00 -1.02265E+00  7.82027E-01  2.14607E-02 -1.25036E+00 -1.20441E-01  4.24973E+00  6.93710E-02 -3.34829E+00
  -1.80987E+00  2.60874E+00 -1.94966E+00 -8.42684E-01 -8.05861E-01  3.32399E+00  1.46167E+00  2.90751E-01  8.47541E-02  2.81168E+00
  -1.80489E+00 -1.81874E+00 -2.77400E+00  1.48862E+00 -1.33237E+00  1.68777E-01  9.82417E-01 -2.34907E-01  1.70656E+00 -1.21571E-01
  -3.07613E-01  4.11567E-01 -2.12926E+00 -1.82975E+00  3.11284E+00  4.10811E+00  1.06746E+00  7.91499E-01  1.22877E+00 -1.23204E+00
   1.11967E+00  2.53040E+00  7.01227E-01  2.20361E+00 -2.65398E+00  5.67472E-01 -4.14395E+00  1.17879E+00 -2.96745E+00  1.49829E+00
  -1.40675E+00  2.35035E+00  5.12723E+00  2.78418E+00  1.65664E+00 -6.15106E-01  4.39647E+00  2.68747E+00  6.53717E-01  2.39349E+00
   5.55184E-01  2.42625E+00  2.22050E+00 -3.05271E+00  1.00683E+00 -1.53201E-01 -6.77173E-01  1.97949E+00  1.69887E+00  1.31718E+00
   2.09184E+00 -1.08422E+00 -2.95479E-01  3.40831E-01  1.61453E+00 -3.21235E+00 -1.00025E+00  1.40005E+00 -9.31841E-01  1.78946E+00
   1.60289E+00  2.25405E+00 -1.61771E+00 -1.38927E+00 -1.68145E+00 -1.20241E+00  8.22139E-01  1.41465E+00 -3.52510E+00 -1.45178E+00
   1.44168E+00  2.68561E+00  2.18533E+00  6.40088E-01  1.51375E+00  8.75759E-01  9.48951E-01  8.98419E-01  1.17943E+00  2.46454E+00
   1.46485E-01  1.44280E+00 -1.08137E+00  9.55837E-01  2.41143E+00  2.67881E-01  1.80856E+00  2.49659E+00
 NY points of the fit to the data follow
   2.40169E-01  5.21986E-01  4.14734E-01  6.62104E-01  5.59812E-01  7.58095E-01  6.64173E-01  8.09306E-01  7.20639E-01  8.24240E-01
   7.54818E-01  8.56146E-01  7.88895E-01  8.75929E-01  7.76630E-01  8.27447E-01  6.77368E-01  6.80268E-01  4.77943E-01  4.69071E-01
   2.33359E-01  2.46934E-01 -5.96431E-03  5.61071E-02 -1.89558E-01 -8.38344E-02 -3.09386E-01 -1.54741E-01 -3.53981E-01 -1.53756E-01
  -3.39054E-01 -1.52714E-01 -3.16804E-01 -1.48177E-01 -2.74401E-01 -1.20628E-01 -1.99361E-01 -6.06864E-02 -9.94295E-02  1.57007E-02
   7.94351E-03  9.04283E-02  1.07986E-01  1.55422E-01  1.82726E-01  1.98386E-01  2.10768E-01  1.99343E-01  2.10220E-01  1.84635E-01
   1.99417E-01  1.66428E-01  1.78681E-01  1.52047E-01  1.62099E-01  1.29548E-01  1.32612E-01  9.78193E-02  9.50482E-02  5.82093E-02
   4.78823E-02  1.40233E-02  1.09360E-02 -1.33052E-02 -8.65410E-03 -2.29538E-02 -5.70908E-03 -9.94115E-03  1.49392E-02  6.12721E-03
   2.57755E-02  1.16139E-02  2.87512E-02  1.08826E-02  2.64242E-02  1.43238E-03  1.42889E-02 -2.05894E-02 -1.19310E-02 -5.26498E-02
  -4.38571E-02 -9.21648E-02 -8.46100E-02 -1.42357E-01 -1.35399E-01 -1.97500E-01 -1.90298E-01 -2.51444E-01 -2.24521E-01 -2.48462E-01
  -1.94053E-01 -1.43404E-01 -7.70705E-02  6.71951E-02  1.05505E-01  3.30163E-01  3.27351E-01  6.30623E-01  5.67293E-01  9.29735E-01
   7.87973E-01  1.17438E+00  9.51202E-01  1.32744E+00  1.03981E+00  1.38427E+00  1.05055E+00  1.33854E+00  9.69387E-01  1.17350E+00
   7.98164E-01  9.06046E-01  5.76763E-01  6.41623E-01  4.00310E-01  4.91083E-01  3.42080E-01  4.97901E-01  4.05073E-01  6.13053E-01
   5.61985E-01  8.49229E-01  8.18394E-01  1.18895E+00  1.10556E+00  1.47657E+00  1.32672E+00  1.65933E+00  1.45175E+00  1.72964E+00
   1.47671E+00  1.68292E+00  1.39371E+00  1.50053E+00  1.19512E+00  1.19942E+00  9.07859E-01  8.33059E-01  5.84000E-01  4.68000E-01
   2.77230E-01  1.51452E-01  1.97545E-02 -1.00594E-01 -1.70948E-01 -2.52279E-01 -2.64368E-01 -2.77134E-01 -2.75371E-01 -2.84751E-01
  -2.83027E-01 -2.91461E-01 -2.91267E-01 -2.97789E-01 -2.99785E-01 -3.05473E-01 -3.10324E-01 -3.14813E-01 -3.21405E-01 -3.22769E-01
  -3.29890E-01 -3.28505E-01 -3.37516E-01 -3.35277E-01 -3.45707E-01 -3.43367E-01 -3.53330E-01 -3.52046E-01 -3.60034E-01 -3.60928E-01
  -3.66517E-01 -3.70825E-01 -3.72982E-01 -3.81365E-01 -3.78842E-01 -3.90895E-01 -3.82654E-01 -3.95214E-01 -3.81072E-01 -3.91235E-01
  -3.72413E-01 -3.79620E-01 -3.55704E-01 -3.56324E-01 -3.29235E-01 -3.21373E-01 -2.95626E-01 -2.80805E-01 -2.59760E-01 -2.39328E-01
  -2.23061E-01 -1.98378E-01 -1.85974E-01 -1.59128E-01 -1.50563E-01 -1.25330E-01 -1.20568E-01 -9.92795E-02 -9.50279E-02 -8.09020E-02
  -7.81584E-02 -7.38155E-02 -7.21212E-02 -7.57332E-02 -7.39715E-02 -8.44597E-02 -8.23325E-02 -9.86150E-02 -9.42903E-02 -1.11510E-01
  -1.05399E-01 -1.21478E-01 -1.14637E-01 -1.27922E-01 -1.20539E-01 -1.29411E-01 -1.22467E-01 -1.26666E-01 -1.21615E-01 -1.21449E-01
  -1.17578E-01 -1.13050E-01 -1.09441E-01 -1.00494E-01 -9.58036E-02 -8.53375E-02 -8.11430E-02 -7.08815E-02 -6.74936E-02 -5.87099E-02
  -5.67668E-02 -5.04637E-02 -4.97016E-02 -4.65718E-02 -4.54158E-02 -4.29027E-02 -4.01480E-02 -3.76046E-02 -3.30743E-02 -3.00980E-02
  -2.39064E-02 -2.05827E-02 -1.30791E-02 -9.89503E-03 -5.00743E-03  2.19582E-04  3.18357E-02  6.49168E-02  1.41731E-01  2.29095E-01
   3.38619E-01  4.89867E-01  5.88301E-01  7.94139E-01  8.69331E-01  1.12688E+00  1.15461E+00  1.44779E+00  1.40044E+00  1.70252E+00
   1.56773E+00  1.85532E+00  1.64554E+00  1.90413E+00  1.63210E+00  1.84578E+00  1.51684E+00  1.66573E+00  1.30528E+00  1.38372E+00
   1.03269E+00  1.05171E+00  7.49615E-01  7.29810E-01  4.97166E-01  4.57002E-01  2.93128E-01  2.46301E-01  1.60822E-01  1.30561E-01
   1.25108E-01  1.25255E-01  1.27036E-01  1.30318E-01  1.34019E-01  1.38619E-01  1.43285E-01  1.48759E-01  1.54152E-01  1.60428E-01
   1.66397E-01  1.73792E-01  1.80635E-01  1.89213E-01  1.97200E-01  2.07033E-01  2.16314E-01  2.27513E-01  2.38052E-01  2.50632E-01
   2.62860E-01  2.77191E-01  2.91665E-01  3.08526E-01  3.26218E-01  3.46844E-01  3.69298E-01  3.95487E-01  4.24943E-01  4.59644E-01
   4.99362E-01  5.51008E-01  6.35956E-01  7.38621E-01  8.49986E-01  1.01612E+00  1.08438E+00  1.29688E+00  1.23488E+00  1.44138E+00
   1.22064E+00  1.45700E+00  1.06125E+00  1.37558E+00  8.22094E-01  1.24688E+00  5.85307E-01  1.09527E+00  3.78337E-01  9.87105E-01
   2.72534E-01  9.68019E-01  3.37094E-01  1.12122E+00  6.16030E-01  1.45759E+00  1.05803E+00  1.90234E+00  1.54314E+00  2.27604E+00
   1.92078E+00  2.53918E+00  2.11782E+00  2.64652E+00  2.13025E+00  2.62970E+00  1.99790E+00  2.47454E+00  1.67226E+00  2.16078E+00
   1.27391E+00  1.80762E+00  8.82277E-01  1.45335E+00  5.76438E-01  1.22839E+00  5.01607E-01  1.17614E+00  6.17166E-01  1.29290E+00
   8.89413E-01  1.48304E+00  1.19131E+00  1.62475E+00  1.42905E+00  1.70553E+00  1.57302E+00  1.72067E+00  1.54929E+00  1.51764E+00
   1.34679E+00  1.19771E+00  1.04472E+00  8.66768E-01  7.59244E-01  6.87036E-01  6.33053E-01  5.91243E-01  5.57293E-01  5.29744E-01
   5.06443E-01  4.87123E-01  4.70353E-01  4.56323E-01  4.43904E-01  4.33490E-01  4.24108E-01  4.16273E-01  4.09109E-01  4.03196E-01
   3.97702E-01  3.93246E-01  3.89029E-01  3.85702E-01  3.82494E-01  3.80069E-01  3.77665E-01  3.75959E-01  3.74201E-01  3.73081E-01
   3.71858E-01  3.71226E-01  3.70445E-01  3.70212E-01  3.69797E-01  3.69903E-01  3.69803E-01  3.70197E-01  3.70360E-01  3.70996E-01
   3.71384E-01  3.72232E-01  3.72817E-01  3.73847E-01  3.74600E-01  3.75785E-01  3.76685E-01  3.78009E-01  3.79040E-01  3.80485E-01
   3.81626E-01  3.83176E-01  3.84418E-01  3.86064E-01  3.87395E-01  3.89123E-01  3.90532E-01  3.92334E-01  3.93814E-01  3.95683E-01
   3.97226E-01  3.99154E-01  4.00751E-01  4.02733E-01  4.04383E-01  4.06414E-01  4.08109E-01  4.10182E-01  4.11919E-01  4.14032E-01
   4.15808E-01  4.17958E-01  4.19766E-01  4.21948E-01  4.23788E-01  4.26001E-01  4.27870E-01  4.30110E-01  4.32005E-01  4.34269E-01
   4.36189E-01  4.38477E-01  4.40419E-01  4.42728E-01  4.44689E-01  4.47018E-01  4.48999E-01  4.51347E-01  4.53345E-01  4.55708E-01
   4.57722E-01  4.60102E-01  4.62132E-01  4.64526E-01  4.66570E-01  4.68977E-01  4.71034E-01  4.73455E-01  4.75525E-01  4.77957E-01
   4.80038E-01  4.82482E-01  4.84574E-01  4.87030E-01  4.89134E-01  4.91599E-01  4.93712E-01  4.96188E-01  4.98312E-01  5.00798E-01
   5.02932E-01  5.05428E-01  5.07571E-01  5.10077E-01  5.12231E-01  5.14748E-01  5.16913E-01  5.19440E-01  5.21616E-01  5.24155E-01
   5.26345E-01  5.28898E-01  5.31102E-01  5.33671E-01  5.35893E-01  5.38482E-01  5.40727E-01  5.43342E-01
 NY background values follow
    -6.960E-01   -6.935E-01   -6.911E-01   -6.886E-01   -6.861E-01   -6.836E-01   -6.812E-01   -6.787E-01   -6.762E-01   -6.737E-01
    -6.713E-01   -6.688E-01   -6.663E-01   -6.638E-01   -6.614E-01   -6.589E-01   -6.564E-01   -6.539E-01   -6.515E-01   -6.490E-01
    -6.465E-01   -6.440E-01   -6.416E-01   -6.391E-01   -6.366E-01   -6.341E-01   -6.317E-01   -6.292E-01   -6.267E-01   -6.242E-01
    -6.218E-01   -6.193E-01   -6.168E-01   -6.144E-01   -6.119E-01   -6.094E-01   -6.069E-01   -6.045E-01   -6.020E-01   -5.995E-01
    -5.970E-01   -5.946E-01   -5.921E-01   -5.896E-01   -5.871E-01   -5.847E-01   -5.822E-01   -5.797E-01   -5.772E-01   -5.748E-01
    -5.723E-01   -5.698E-01   -5.673E-01   -5.649E-01   -5.624E-01   -5.599E-01   -5.574E-01   -5.550E-01   -5.525E-01   -5.500E-01
    -5.475E-01   -5.451E-01   -5.426E-01   -5.401E-01   -5.376E-01   -5.352E-01   -5.327E-01   -5.302E-01   -5.277E-01   -5.253E-01
    -5.228E-01   -5.203E-01   -5.178E-01   -5.154E-01   -5.129E-01   -5.104E-01   -5.080E-01   -5.055E-01   -5.030E-01   -5.005E-01
    -4.981E-01   -4.956E-01   -4.931E-01   -4.906E-01   -4.882E-01   -4.857E-01   -4.832E-01   -4.807E-01   -4.783E-01   -4.758E-01
    -4.733E-01   -4.708E-01   -4.684E-01   -4.659E-01   -4.634E-01   -4.609E-01   -4.585E-01   -4.560E-01   -4.535E-01   -4.510E-01
    -4.486E-01   -4.461E-01   -4.436E-01   -4.411E-01   -4.387E-01   -4.362E-01   -4.337E-01   -4.312E-01   -4.288E-01   -4.263E-01
    -4.238E-01   -4.213E-01   -4.189E-01   -4.164E-01   -4.139E-01   -4.114E-01   -4.090E-01   -4.065E-01   -4.040E-01   -4.016E-01
    -3.991E-01   -3.966E-01   -3.941E-01   -3.917E-01   -3.892E-01   -3.867E-01   -3.842E-01   -3.818E-01   -3.793E-01   -3.768E-01
    -3.743E-01   -3.719E-01   -3.694E-01   -3.669E-01   -3.644E-01   -3.620E-01   -3.595E-01   -3.570E-01   -3.545E-01   -3.521E-01
    -3.496E-01   -3.471E-01   -3.446E-01   -3.422E-01   -3.397E-01   -3.372E-01   -3.347E-01   -3.323E-01   -3.298E-01   -3.273E-01
    -3.248E-01   -3.224E-01   -3.199E-01   -3.174E-01   -3.149E-01   -3.125E-01   -3.100E-01   -3.075E-01   -3.050E-01   -3.026E-01
    -3.001E-01   -2.976E-01   -2.951E-01   -2.927E-01   -2.902E-01   -2.877E-01   -2.853E-01   -2.828E-01   -2.803E-01   -2.778E-01
    -2.754E-01   -2.729E-01   -2.704E-01   -2.679E-01   -2.655E-01   -2.630E-01   -2.605E-01   -2.580E-01   -2.556E-01   -2.531E-01
    -2.506E-01   -2.481E-01   -2.457E-01   -2.432E-01   -2.407E-01   -2.382E-01   -2.358E-01   -2.333E-01   -2.308E-01   -2.283E-01
    -2.259E-01   -2.234E-01   -2.209E-01   -2.184E-01   -2.160E-01   -2.135E-01   -2.110E-01   -2.085E-01   -2.061E-01   -2.036E-01
    -2.011E-01   -1.986E-01   -1.962E-01   -1.937E-01   -1.912E-01   -1.887E-01   -1.863E-01   -1.838E-01   -1.813E-01   -1.789E-01
    -1.764E-01   -1.739E-01   -1.714E-01   -1.690E-01   -1.665E-01   -1.640E-01   -1.615E-01   -1.591E-01   -1.566E-01   -1.541E-01
    -1.516E-01   -1.492E-01   -1.467E-01   -1.442E-01   -1.417E-01   -1.393E-01   -1.368E-01   -1.343E-01   -1.318E-01   -1.294E-01
    -1.269E-01   -1.244E-01   -1.219E-01   -1.195E-01   -1.170E-01   -1.145E-01   -1.120E-01   -1.096E-01   -1.071E-01   -1.046E-01
    -1.021E-01   -9.967E-02   -9.720E-02   -9.472E-02   -9.225E-02   -8.977E-02   -8.730E-02   -8.482E-02   -8.235E-02   -7.988E-02
    -7.740E-02   -7.493E-02   -7.245E-02   -6.998E-02   -6.750E-02   -6.503E-02   -6.256E-02   -6.008E-02   -5.761E-02   -5.513E-02
    -5.266E-02   -5.018E-02   -4.771E-02   -4.523E-02   -4.276E-02   -4.029E-02   -3.781E-02   -3.534E-02   -3.286E-02   -3.039E-02
    -2.791E-02   -2.544E-02   -2.296E-02   -2.049E-02   -1.802E-02   -1.554E-02   -1.307E-02   -1.059E-02   -8.118E-03   -5.644E-03
    -3.169E-03   -6.950E-04    1.779E-03    4.254E-03    6.728E-03    9.203E-03    1.168E-02    1.415E-02    1.663E-02    1.910E-02
     2.157E-02    2.405E-02    2.652E-02    2.900E-02    3.147E-02    3.395E-02    3.642E-02    3.890E-02    4.137E-02    4.384E-02
     4.632E-02    4.879E-02    5.127E-02    5.374E-02    5.622E-02    5.869E-02    6.117E-02    6.364E-02    6.611E-02    6.859E-02
     7.106E-02    7.354E-02    7.601E-02    7.849E-02    8.096E-02    8.344E-02    8.591E-02    8.838E-02    9.086E-02    9.333E-02
     9.581E-02    9.828E-02    1.008E-01    1.032E-01    1.057E-01    1.082E-01    1.107E-01    1.131E-01    1.156E-01    1.181E-01
     1.206E-01    1.230E-01    1.255E-01    1.280E-01    1.304E-01    1.329E-01    1.354E-01    1.379E-01    1.403E-01    1.428E-01
     1.453E-01    1.478E-01    1.502E-01    1.527E-01    1.552E-01    1.577E-01    1.601E-01    1.626E-01    1.651E-01    1.676E-01
     1.700E-01    1.725E-01    1.750E-01    1.775E-01    1.799E-01    1.824E-01    1.849E-01    1.874E-01    1.898E-01    1.923E-01
     1.948E-01    1.973E-01    1.997E-01    2.022E-01    2.047E-01    2.072E-01    2.096E-01    2.121E-01    2.146E-01    2.171E-01
     2.195E-01    2.220E-01    2.245E-01    2.270E-01    2.294E-01    2.319E-01    2.344E-01    2.369E-01    2.393E-01    2.418E-01
     2.443E-01    2.468E-01    2.492E-01    2.517E-01    2.542E-01    2.566E-01    2.591E-01    2.616E-01    2.641E-01    2.665E-01
     2.690E-01    2.715E-01    2.740E-01    2.764E-01    2.789E-01    2.814E-01    2.839E-01    2.863E-01    2.888E-01    2.913E-01
     2.938E-01    2.962E-01    2.987E-01    3.012E-01    3.037E-01    3.061E-01    3.086E-01    3.111E-01    3.136E-01    3.160E-01
     3.185E-01    3.210E-01    3.235E-01    3.259E-01    3.284E-01    3.309E-01    3.334E-01    3.358E-01    3.383E-01    3.408E-01
     3.433E-01    3.457E-01    3.482E-01    3.507E-01    3.532E-01    3.556E-01    3.581E-01    3.606E-01    3.631E-01    3.655E-01
     3.680E-01    3.705E-01    3.730E-01    3.754E-01    3.779E-01    3.804E-01    3.828E-01    3.853E-01    3.878E-01    3.903E-01
     3.927E-01    3.952E-01    3.977E-01    4.002E-01    4.026E-01    4.051E-01    4.076E-01    4.101E-01    4.125E-01    4.150E-01
     4.175E-01    4.200E-01    4.224E-01    4.249E-01    4.274E-01    4.299E-01    4.323E-01    4.348E-01    4.373E-01    4.398E-01
     4.422E-01    4.447E-01    4.472E-01    4.497E-01    4.521E-01    4.546E-01    4.571E-01    4.596E-01    4.620E-01    4.645E-01
     4.670E-01    4.695E-01    4.719E-01    4.744E-01    4.769E-01    4.794E-01    4.818E-01    4.843E-01    4.868E-01    4.893E-01
     4.917E-01    4.942E-01    4.967E-01    4.992E-01    5.016E-01    5.041E-01    5.066E-01    5.091E-01    5.115E-01    5.140E-01
     5.165E-01    5.189E-01    5.214E-01    5.239E-01    5.264E-01    5.288E-01    5.313E-01    5.338E-01
 Ala      Conc. = 3.72E+02
