 LCModel (Version 6.3-1L) Copyright: S.W. Provencher.          Ref.: Magn. Reson. Med. 30:672-679 (1993).                
 Slice#1 Row#6 Col#10  PD_05_press_2_raw_act
 36 lines in following concentration table = NCONC+1
    Conc.  %SD /Cr+PCr  Metabolite                                         
  104.431 149%   0.120 Ala                                                 
    0.000 999%   0.000 Asp                                                 
   33.520 903% 3.9E-02 Cr                                                  
  834.147  38%   0.961 PCr                                                 
   72.150 190% 8.3E-02 GABA                                                
  122.899 114%   0.142 Glc                                                 
  672.825  48%   0.775 Gln                                                 
  747.418  47%   0.861 Glu                                                 
  152.592 135%   0.176 GPC                                                 
  248.804  83%   0.287 PCh                                                 
  300.967  37%   0.347 GSH                                                 
  786.959  46%   0.907 Ins                                                 
  520.426  34%   0.600 Lac                                                 
 2.09E+03  10%   2.410 NAA                                                 
  447.468  46%   0.516 NAAG                                                
   97.314  35%   0.112 Scyllo                                              
  217.334  97%   0.250 Tau                                                 
  454.327  33%   0.524 -CrCH2                                              
  401.396   9%   0.463 GPC+PCh                                             
 2.54E+03   5%   2.926 NAA+NAAG                                            
  867.667  10%   1.000 Cr+PCr                                              
 1.42E+03  34%   1.637 Glu+Gln                                             
 4.17E+03  22%   4.808 Lip13a                                              
    0.000 999%   0.000 Lip13b                                              
 1.25E+03  35%   1.444 Lip09                                               
  716.932  66%   0.826 MM09                                                
  835.377  38%   0.963 Lip20                                               
  961.704  63%   1.108 MM20                                                
  143.958 190%   0.166 MM12                                                
  318.171 188%   0.367 MM14                                                
  603.866  48%   0.696 MM17                                                
 4.17E+03  22%   4.808 Lip13a+Lip13b                                       
 4.63E+03  13%   5.340 MM14+Lip13a+Lip13b+MM12                             
 1.97E+03  14%   2.271 MM09+Lip09                                          
 1.80E+03  31%   2.071 MM20+Lip20                                          
   6 lines in following misc. output table
  FWHM = 0.038 ppm    S/N =   7                                            
  Data shift = 0.000 ppm                                                   
  Ph: -16 deg       4.6 deg/ppm                                            
  alphaB,S = 8.5E+01,   2.6E+01                                            
   14 spline knots.   Ns = 6(1)                                            
   2 inflections.     1 extrema                                            
  498 points on ppm-axis = NY
      4.000000     3.992357     3.984714     3.977070     3.969427     3.961784     3.954141     3.946497     3.938854     3.931211
      3.923568     3.915925     3.908281     3.900638     3.892995     3.885352     3.877708     3.870065     3.862422     3.854779
      3.847136     3.839492     3.831849     3.824206     3.816563     3.808919     3.801276     3.793633     3.785990     3.778347
      3.770703     3.763060     3.755417     3.747774     3.740130     3.732487     3.724844     3.717201     3.709558     3.701914
      3.694271     3.686628     3.678985     3.671341     3.663698     3.656055     3.648412     3.640769     3.633125     3.625482
      3.617839     3.610196     3.602552     3.594909     3.587266     3.579623     3.571980     3.564336     3.556693     3.549050
      3.541407     3.533763     3.526120     3.518477     3.510834     3.503191     3.495547     3.487904     3.480261     3.472618
      3.464974     3.457331     3.449688     3.442045     3.434402     3.426758     3.419115     3.411472     3.403829     3.396185
      3.388542     3.380899     3.373256     3.365613     3.357969     3.350326     3.342683     3.335040     3.327396     3.319753
      3.312110     3.304467     3.296824     3.289180     3.281537     3.273894     3.266251     3.258607     3.250964     3.243321
      3.235678     3.228034     3.220391     3.212748     3.205105     3.197462     3.189818     3.182175     3.174532     3.166889
      3.159245     3.151602     3.143959     3.136316     3.128673     3.121029     3.113386     3.105743     3.098100     3.090456
      3.082813     3.075170     3.067527     3.059884     3.052240     3.044597     3.036954     3.029311     3.021667     3.014024
      3.006381     2.998738     2.991095     2.983451     2.975808     2.968165     2.960522     2.952878     2.945235     2.937592
      2.929949     2.922306     2.914662     2.907019     2.899376     2.891733     2.884089     2.876446     2.868803     2.861160
      2.853517     2.845873     2.838230     2.830587     2.822944     2.815300     2.807657     2.800014     2.792371     2.784728
      2.777084     2.769441     2.761798     2.754155     2.746511     2.738868     2.731225     2.723582     2.715939     2.708295
      2.700652     2.693009     2.685366     2.677722     2.670079     2.662436     2.654793     2.647150     2.639506     2.631863
      2.624220     2.616577     2.608933     2.601290     2.593647     2.586004     2.578361     2.570717     2.563074     2.555431
      2.547788     2.540144     2.532501     2.524858     2.517215     2.509572     2.501928     2.494285     2.486642     2.478999
      2.471355     2.463712     2.456069     2.448426     2.440783     2.433139     2.425496     2.417853     2.410210     2.402566
      2.394923     2.387280     2.379637     2.371994     2.364350     2.356707     2.349064     2.341421     2.333777     2.326134
      2.318491     2.310848     2.303205     2.295561     2.287918     2.280275     2.272632     2.264988     2.257345     2.249702
      2.242059     2.234416     2.226772     2.219129     2.211486     2.203843     2.196199     2.188556     2.180913     2.173270
      2.165627     2.157983     2.150340     2.142697     2.135054     2.127410     2.119767     2.112124     2.104481     2.096838
      2.089194     2.081551     2.073908     2.066265     2.058621     2.050978     2.043335     2.035692     2.028049     2.020405
      2.012762     2.005119     1.997476     1.989833     1.982190     1.974546     1.966903     1.959260     1.951617     1.943974
      1.936331     1.928688     1.921045     1.913402     1.905759     1.898115     1.890472     1.882829     1.875186     1.867543
      1.859900     1.852257     1.844614     1.836971     1.829327     1.821684     1.814041     1.806398     1.798755     1.791112
      1.783469     1.775826     1.768183     1.760540     1.752896     1.745253     1.737610     1.729967     1.722324     1.714681
      1.707038     1.699395     1.691752     1.684108     1.676465     1.668822     1.661179     1.653536     1.645893     1.638250
      1.630607     1.622964     1.615321     1.607677     1.600034     1.592391     1.584748     1.577105     1.569462     1.561819
      1.554176     1.546533     1.538890     1.531246     1.523603     1.515960     1.508317     1.500674     1.493031     1.485388
      1.477745     1.470102     1.462458     1.454815     1.447172     1.439529     1.431886     1.424243     1.416600     1.408957
      1.401314     1.393671     1.386027     1.378384     1.370741     1.363098     1.355455     1.347812     1.340169     1.332526
      1.324883     1.317240     1.309596     1.301953     1.294310     1.286667     1.279024     1.271381     1.263738     1.256095
      1.248452     1.240808     1.233165     1.225522     1.217879     1.210236     1.202593     1.194950     1.187307     1.179664
      1.172021     1.164377     1.156734     1.149091     1.141448     1.133805     1.126162     1.118519     1.110876     1.103233
      1.095590     1.087946     1.080303     1.072660     1.065017     1.057374     1.049731     1.042088     1.034445     1.026802
      1.019158     1.011515     1.003872     0.996229     0.988586     0.980943     0.973300     0.965657     0.958014     0.950371
      0.942727     0.935084     0.927441     0.919798     0.912155     0.904512     0.896869     0.889226     0.881583     0.873940
      0.866296     0.858653     0.851010     0.843367     0.835724     0.828081     0.820438     0.812795     0.805152     0.797508
      0.789865     0.782222     0.774579     0.766936     0.759293     0.751650     0.744007     0.736364     0.728721     0.721077
      0.713434     0.705791     0.698148     0.690505     0.682862     0.675219     0.667576     0.659933     0.652290     0.644646
      0.637003     0.629360     0.621717     0.614074     0.606431     0.598788     0.591145     0.583502     0.575858     0.568215
      0.560572     0.552929     0.545286     0.537643     0.530000     0.522357     0.514714     0.507071     0.499427     0.491784
      0.484141     0.476498     0.468855     0.461212     0.453569     0.445925     0.438282     0.430639     0.422996     0.415353
      0.407710     0.400067     0.392424     0.384780     0.377137     0.369494     0.361851     0.354208     0.346565     0.338922
      0.331278     0.323635     0.315992     0.308349     0.300706     0.293063     0.285420     0.277777     0.270133     0.262490
      0.254847     0.247204     0.239561     0.231918     0.224275     0.216631     0.208988     0.201345
 NY phased data points follow
   1.89789E+00 -4.85686E+00  7.18398E-01  1.79283E+00  1.28963E+01  4.14513E+00  6.44972E+00 -3.31802E+00  4.76334E+00  7.18473E+00
   5.95972E+00  1.25130E+01  2.37055E+01  5.99059E-01  4.41711E+00  8.78103E+00  1.98327E+01 -4.22057E+00  6.40851E-02 -4.69194E+00
  -3.68595E+00 -8.53811E+00  3.25738E+00  7.84002E+00  2.07971E+00 -8.89011E+00 -3.34817E+00  3.62391E+00  1.76246E+01  3.38908E-01
   1.63419E+00  5.20829E+00  1.80733E+01  1.07538E+01  3.28586E+00  5.52283E+00  5.01461E-01  1.31826E-02  1.02963E+01 -5.98058E-01
   9.83014E+00  5.47409E+00  1.45223E+01 -2.84461E+00  6.85523E+00 -4.88786E+00  1.34736E+01  1.44889E+01  1.43686E+01  5.25976E+00
   9.06027E+00  1.10546E+00  1.24682E+01  6.85535E+00  8.43659E+00 -1.76801E+00  5.73549E+00  1.17888E+01  3.25225E+00  1.06866E+00
   8.72893E+00  8.89097E+00  3.14231E-01 -2.17699E+00  1.10006E+01 -7.36978E+00 -8.07487E+00 -8.19569E+00 -5.16189E+00  3.15568E+00
   1.60005E+00 -1.56389E+00  2.89021E+00 -5.64137E-01  7.51436E+00  2.03526E+00  4.29184E+00 -6.45475E-01  9.70749E+00  2.57400E+00
   7.30106E+00 -3.75835E+00  9.57555E+00  4.09442E+00  4.00281E+00  1.18007E+01  1.22455E+01  7.76293E+00  6.95352E+00 -1.69252E+00
   1.40211E+01  3.55414E-01  5.52149E+00  2.23593E+00  1.09148E+01  1.63919E+00  1.56386E+01  1.05586E+01  2.37236E+00  6.97519E+00
   1.90676E+01  2.86663E+01  3.78675E+01  4.20682E+01  3.85028E+01  3.99896E+01  4.56051E+01  2.58598E+01  1.50033E+01  9.37836E+00
   2.54646E+00  5.87289E+00 -2.36240E-01  6.43767E+00  1.60564E+01 -3.14374E+00 -4.97494E-02  6.74554E-01 -5.35982E-01  3.17363E+00
   7.36727E+00  5.19616E+00  8.02024E+00  1.14458E+01  1.23655E+01  9.03563E+00  3.47851E+01  3.77944E+01  2.68029E+01  3.90900E+01
   3.76040E+01  2.33802E+01  9.56129E+00  4.25151E+00  7.58592E+00  4.94872E+00  7.82728E+00  1.47732E+01 -4.02809E+00  1.21206E-02
   4.59428E+00  2.89472E+00  1.54057E+01  5.81640E+00  7.43750E+00  4.89626E+00  4.64206E-01  4.06423E+00  3.38620E+00 -3.29111E+00
   6.08717E+00  1.47076E+00  6.21017E+00  8.20113E+00  7.03436E+00  5.82230E+00  1.31838E+01  5.38006E+00  1.42604E+01  6.08051E+00
   1.43030E+01  9.16867E+00  1.18463E+01  3.14714E+00  1.38123E+01  1.06238E+01  1.96713E+00 -1.10568E+00  6.54030E+00 -5.89142E+00
  -7.60678E+00 -3.06838E+00 -1.38830E+01 -7.66536E+00 -1.19230E+01  4.95361E+00 -1.40096E+01 -1.62864E+01 -8.66229E+00 -1.02998E+01
  -4.68464E+00 -3.82095E+00 -7.74414E+00 -2.79244E+00 -1.31808E+01 -6.46671E+00  4.91412E+00  2.25665E+00  9.56410E-01 -7.39732E+00
   6.06874E+00  9.06118E+00  6.10299E+00 -5.17659E+00  4.83328E+00 -1.67876E+00  6.28462E+00 -1.29978E+01 -1.21320E+01 -6.96683E+00
  -1.19597E+01  4.20422E-01  4.90430E+00 -2.57680E-02  9.70172E+00 -5.06235E+00 -2.95724E+00  2.59498E-01 -2.68411E+00 -1.36862E+00
  -5.46866E-01 -1.00295E+00 -3.15813E+00  8.98318E+00  2.02974E+01  1.11000E+01  3.67851E+00  2.53284E+01  7.13424E+00  8.26963E+00
   3.73351E-01 -1.24966E+00  6.54636E+00  5.68249E+00  6.83607E-01  6.92797E-01  2.93319E+00  1.23933E+01  2.42294E-01  5.70623E+00
   7.63166E+00  1.17742E+00  1.23857E+01  1.46526E+01  1.35305E+01  1.33030E+01  1.39928E+01  3.88361E+00  8.45955E+00  1.43868E+01
   9.52059E+00  5.61871E+00 -6.74397E+00  3.99322E+00  3.32925E+00  1.40242E+00  5.37174E+00 -2.96416E+00  5.31200E+00  6.96743E+00
   9.86353E+00  5.25020E+00  9.96527E+00  2.76390E+01  2.53803E+01  3.92562E+01  4.69903E+01  5.10878E+01  7.61372E+01  8.27917E+01
   9.01722E+01  9.94857E+01  8.50179E+01  5.90085E+01  3.73812E+01  1.04140E+01  1.96216E+01  1.44990E+01  1.46437E+01  1.24877E+01
   2.86577E+00  7.77660E+00 -2.56806E+00 -4.82141E+00  1.32849E+01  5.94086E+00  4.81908E+00 -1.42128E+00 -3.08952E+00  4.49710E+00
  -3.78340E+00  6.09268E+00  8.92480E+00  2.21850E+00  3.75775E+00 -7.22724E-01  9.40014E+00  8.41101E+00  8.24567E+00  2.62574E-01
   1.28899E+00  2.77917E+00 -2.60309E+00  2.32734E+00  1.83478E+01  3.36524E+00  5.40356E+00  1.63616E+01  1.03054E+01  1.45739E+01
   6.41087E+00  8.56706E+00  7.96463E+00  1.16529E+01  5.97410E+00  7.37684E+00  7.50344E+00  1.93643E+00  6.14316E+00 -1.60995E+00
   2.67342E+00  5.81318E+00  3.04601E+00 -6.27702E+00  9.05351E+00  1.72442E+00  1.17706E+01  1.07948E+01  1.04828E+01 -5.52143E-01
   1.40274E+01 -1.33951E+00  1.07558E+01  1.24365E-01  1.17579E+01  3.02544E+00  9.82092E+00  9.39967E+00  1.43512E+00  1.42692E+00
   6.60860E-01  6.78095E+00  2.00431E+01  3.39337E+00  2.46737E+00  4.02728E+00  7.99178E+00  1.70086E+01  3.72699E+00  1.45899E+01
   1.83384E+01  2.43172E+01  2.07841E+01  2.41796E+01  2.47353E+01  2.06273E+01  3.24363E+01  3.15642E+01  2.17913E+01  2.55861E+01
   1.42199E+01  1.91910E+01  9.82315E+00  1.53747E+01  1.41181E+01  1.39353E+01  1.03192E+01  2.15317E+01  1.86001E+01  1.79384E+01
   1.56292E+01  2.13078E+01  2.20703E+01  2.45213E+01  2.01372E+01  3.56091E+01  1.34689E+01  7.34725E+00  1.60301E+01  8.68657E+00
   1.43826E+01  1.13653E+01  2.07845E+01  1.49099E+00  1.79986E+01  1.67334E+01  7.58712E+00 -5.49289E+00  3.95103E+00  1.56567E+00
  -1.40631E+00  3.94216E+00  4.53458E+00  5.80554E+00  7.58165E+00  1.38609E+01  2.51661E+00  2.23564E+01  3.71564E+00  1.08750E+01
   1.01145E+01  1.05511E+01  1.26949E+01  1.10939E+01  2.08313E+01  1.84544E+01  1.43933E+01 -1.23704E+00  1.15077E+01  3.75714E+00
   9.14481E+00  1.24237E+01  1.41722E+01  2.09734E+01  2.52976E+01  1.22621E+01  2.16255E+01  1.66900E+01  1.98733E+01  2.15320E+01
   1.82750E+01  9.16505E+00  1.24498E+01  1.25604E+01  1.77567E+01  1.19749E+01  1.07042E+01  1.00344E+01  7.70663E+00  1.13941E+01
   5.74987E+00  1.19833E+01  6.19798E+00  3.72852E+00  6.07644E+00  1.69405E+01  3.85082E+00 -2.51422E-01  1.03794E+01  8.64101E+00
   5.63785E+00  3.25997E+00  1.25322E+01  2.15308E-01  4.52479E+00 -3.18333E+00 -1.12053E+00  5.69631E+00 -7.00581E-01 -2.92990E+00
  -7.76960E+00 -1.15270E-01  5.39555E+00 -8.21832E+00  9.38767E+00  5.12661E+00  7.97600E-01  4.69114E+00  4.45242E+00 -2.28910E+00
  -3.28875E+00 -1.97578E+00  8.63030E+00 -3.58201E+00  6.32386E+00  5.27954E+00 -4.03085E+00 -2.12755E+00  7.04473E+00 -2.11178E+00
  -5.09363E+00  7.74425E+00  3.02868E+00 -5.60484E-01  1.16904E+00  1.85326E+00 -7.86425E+00 -5.00509E+00  2.50116E+00  2.97980E+00
   4.43020E+00  1.31420E+01  7.85094E+00 -4.89708E-01  6.70955E+00  1.52568E+00  7.66190E+00  2.60957E+00  3.27099E+00 -1.13335E+00
   2.14184E+00  1.38276E+00 -5.95657E+00  1.94951E+00  5.28356E+00 -4.28028E-01 -1.31722E+00  8.98293E+00 -2.30694E+00 -5.06503E-01
   3.62549E+00 -4.19299E+00  7.80564E+00 -6.66223E+00  7.09100E+00  4.31949E+00 -2.42144E-01  1.66369E+00
 NY points of the fit to the data follow
   1.48363E+00  1.05205E+00  9.50404E-01  9.45895E-01  1.70548E+00  2.32403E+00  2.77643E+00  4.21893E+00  7.00854E+00  9.63008E+00
   1.16607E+01  1.34547E+01  1.35968E+01  1.08554E+01  6.90995E+00  4.58109E+00  3.96680E+00  3.22097E+00  2.85314E+00  2.80006E+00
   2.85710E+00  2.95482E+00  3.00450E+00  3.00615E+00  3.05587E+00  2.90152E+00  2.76692E+00  3.34922E+00  4.96376E+00  7.20205E+00
   9.76155E+00  1.22495E+01  1.33890E+01  1.22703E+01  9.52282E+00  6.66531E+00  4.43119E+00  2.71722E+00  1.86087E+00  1.82430E+00
   2.27916E+00  2.88012E+00  3.38487E+00  3.79855E+00  4.42183E+00  5.51446E+00  6.86742E+00  8.04172E+00  8.73683E+00  8.56353E+00
   7.21477E+00  5.02301E+00  2.99865E+00  1.98870E+00  1.87200E+00  2.04905E+00  2.33459E+00  2.75781E+00  3.31440E+00  3.84677E+00
   4.25599E+00  4.47583E+00  4.30546E+00  3.70652E+00  2.92182E+00  2.32469E+00  2.11748E+00  2.23715E+00  2.50966E+00  2.84702E+00
   3.26506E+00  3.58674E+00  3.82594E+00  4.14800E+00  4.44416E+00  4.47109E+00  4.22753E+00  3.88572E+00  3.39518E+00  2.77714E+00
   2.58638E+00  2.88383E+00  3.38389E+00  4.31754E+00  5.75238E+00  6.94658E+00  7.41132E+00  7.29726E+00  6.41812E+00  4.51979E+00
   2.40668E+00  1.27209E+00  1.20136E+00  1.28821E+00  1.20669E+00  1.21249E+00  1.69253E+00  3.60799E+00  6.76524E+00  1.02621E+01
   1.58606E+01  2.47902E+01  3.46382E+01  4.21265E+01  4.62876E+01  4.53301E+01  3.69788E+01  2.41160E+01  1.36669E+01  8.79951E+00
   6.50907E+00  4.49291E+00  3.44755E+00  2.98226E+00  2.70387E+00  2.47954E+00  2.29881E+00  2.12489E+00  1.96192E+00  1.87194E+00
   2.00963E+00  3.19299E+00  5.57276E+00  8.11705E+00  1.22629E+01  1.92608E+01  2.71737E+01  3.31162E+01  3.65822E+01  3.63769E+01
   3.03954E+01  2.05826E+01  1.25367E+01  8.91984E+00  7.01150E+00  4.76346E+00  3.24508E+00  2.22644E+00  1.88694E+00  2.31798E+00
   3.17738E+00  4.01520E+00  4.62195E+00  4.84836E+00  4.68217E+00  4.30731E+00  3.93085E+00  3.68440E+00  3.54226E+00  3.38994E+00
   3.27780E+00  3.15306E+00  2.97691E+00  2.81819E+00  2.70432E+00  2.58006E+00  2.56141E+00  2.61995E+00  2.52604E+00  2.18199E+00
   1.64624E+00  1.15384E+00  9.42682E-01  1.14565E+00  1.60438E+00  1.93305E+00  1.69415E+00  8.00374E-01 -3.00614E-01 -1.13506E+00
  -1.52328E+00 -1.66373E+00 -1.83994E+00 -2.15450E+00 -2.65879E+00 -3.15808E+00 -3.37264E+00 -3.29972E+00 -2.94204E+00 -2.43827E+00
  -2.18397E+00 -2.50217E+00 -2.91564E+00 -2.86108E+00 -2.43122E+00 -1.86041E+00 -1.16439E+00 -3.54187E-01  7.85368E-01  2.40741E+00
   4.14213E+00  5.15195E+00  5.02797E+00  4.29590E+00  3.37159E+00  2.20080E+00  1.15014E+00  7.96692E-01  1.15130E+00  1.91198E+00
   3.17730E+00  5.00221E+00  6.79773E+00  7.75274E+00  7.50758E+00  6.49424E+00  4.57806E+00  1.66786E+00 -1.35061E+00 -3.39828E+00
  -4.19277E+00 -3.91581E+00 -2.16019E+00  9.20458E-01  4.05391E+00  6.08868E+00  7.08556E+00  7.29154E+00  6.12918E+00  3.79128E+00
   1.41637E+00 -1.26744E-02 -2.55305E-01  2.66846E-01  1.60493E+00  3.63927E+00  5.66520E+00  6.85566E+00  6.95860E+00  6.42835E+00
   5.72800E+00  5.17179E+00  4.82704E+00  4.74235E+00  5.12698E+00  6.09301E+00  6.99685E+00  7.38277E+00  7.70950E+00  7.97204E+00
   7.49475E+00  6.23769E+00  5.04285E+00  4.36428E+00  4.07023E+00  4.40623E+00  5.47498E+00  6.68327E+00  7.48175E+00  8.29149E+00
   9.88366E+00  1.16847E+01  1.39620E+01  1.84324E+01  2.72461E+01  3.65773E+01  4.50091E+01  5.72979E+01  7.32063E+01  8.52569E+01
   9.08998E+01  9.24826E+01  8.50186E+01  6.35631E+01  3.78161E+01  2.16502E+01  1.60284E+01  1.19866E+01  8.61392E+00  7.33868E+00
   6.66210E+00  6.20700E+00  5.98070E+00  5.91724E+00  5.86307E+00  5.74118E+00  5.52398E+00  5.21855E+00  4.86115E+00  4.54439E+00
   4.35007E+00  4.26541E+00  4.23699E+00  4.25128E+00  4.32057E+00  4.40441E+00  4.46645E+00  4.51224E+00  4.56908E+00  4.65478E+00
   4.78215E+00  4.95329E+00  5.16063E+00  5.38376E+00  5.60780E+00  5.79825E+00  5.93581E+00  6.04613E+00  6.15624E+00  6.25571E+00
   6.34368E+00  6.43185E+00  6.52078E+00  6.59174E+00  6.62364E+00  6.61558E+00  6.58001E+00  6.51869E+00  6.43652E+00  6.34130E+00
   6.23827E+00  6.13359E+00  6.03278E+00  5.94106E+00  5.86350E+00  5.80496E+00  5.77064E+00  5.76646E+00  5.79839E+00  5.87415E+00
   6.00968E+00  6.22863E+00  6.46829E+00  6.71965E+00  7.05609E+00  7.40052E+00  7.56574E+00  7.50936E+00  7.30363E+00  6.99889E+00
   6.70337E+00  6.64657E+00  7.08995E+00  8.00857E+00  9.12747E+00  1.03305E+01  1.16352E+01  1.29111E+01  1.39238E+01  1.46192E+01
   1.53017E+01  1.63505E+01  1.77397E+01  1.89481E+01  2.02766E+01  2.18852E+01  2.30307E+01  2.28362E+01  2.14264E+01  1.92010E+01
   1.63593E+01  1.34379E+01  1.21820E+01  1.36094E+01  1.65711E+01  1.94508E+01  2.23801E+01  2.50542E+01  2.62774E+01  2.53449E+01
   2.32151E+01  2.14404E+01  2.02379E+01  1.89606E+01  1.78058E+01  1.67851E+01  1.58321E+01  1.49264E+01  1.40627E+01  1.32419E+01
   1.24666E+01  1.17405E+01  1.10670E+01  1.04487E+01  9.88711E+00  9.38350E+00  8.93859E+00  8.55303E+00  8.22684E+00  7.95986E+00
   7.75161E+00  7.60206E+00  7.51137E+00  7.48013E+00  7.50875E+00  7.59777E+00  7.74754E+00  7.95866E+00  8.23134E+00  8.56537E+00
   8.95926E+00  9.41049E+00  9.91498E+00  1.04674E+01  1.10605E+01  1.16851E+01  1.23297E+01  1.29813E+01  1.36250E+01  1.42453E+01
   1.48258E+01  1.53501E+01  1.58020E+01  1.61672E+01  1.64331E+01  1.65903E+01  1.66320E+01  1.65552E+01  1.63602E+01  1.60513E+01
   1.56360E+01  1.51251E+01  1.45314E+01  1.38695E+01  1.31550E+01  1.24041E+01  1.16325E+01  1.08554E+01  1.00858E+01  9.33544E+00
   8.61381E+00  7.92866E+00  7.28553E+00  6.68818E+00  6.13824E+00  5.63605E+00  5.18062E+00  4.77031E+00  4.40251E+00  4.07431E+00
   3.78215E+00  3.52269E+00  3.29251E+00  3.08860E+00  2.90787E+00  2.74759E+00  2.60500E+00  2.47796E+00  2.36444E+00  2.26292E+00
   2.17177E+00  2.08970E+00  2.01535E+00  1.94792E+00  1.88654E+00  1.83069E+00  1.77956E+00  1.73263E+00  1.68929E+00  1.64932E+00
   1.61236E+00  1.57824E+00  1.54649E+00  1.51692E+00  1.48920E+00  1.46339E+00  1.43927E+00  1.41679E+00  1.39559E+00  1.37563E+00
   1.35675E+00  1.33907E+00  1.32243E+00  1.30680E+00  1.29190E+00  1.27779E+00  1.26438E+00  1.25182E+00  1.23990E+00  1.22864E+00
   1.21780E+00  1.20752E+00  1.19773E+00  1.18859E+00  1.17986E+00  1.17157E+00  1.16354E+00  1.15597E+00  1.14877E+00  1.14207E+00
   1.13563E+00  1.12949E+00  1.12355E+00  1.11801E+00  1.11279E+00  1.10795E+00  1.10328E+00  1.09886E+00  1.09462E+00  1.09079E+00
   1.08722E+00  1.08398E+00  1.08086E+00  1.07801E+00  1.07538E+00  1.07319E+00  1.07126E+00  1.06967E+00
 NY background values follow
     8.723E-01    8.730E-01    8.737E-01    8.743E-01    8.750E-01    8.757E-01    8.764E-01    8.771E-01    8.777E-01    8.784E-01
     8.791E-01    8.798E-01    8.805E-01    8.811E-01    8.818E-01    8.825E-01    8.832E-01    8.839E-01    8.845E-01    8.852E-01
     8.859E-01    8.866E-01    8.872E-01    8.879E-01    8.886E-01    8.893E-01    8.899E-01    8.906E-01    8.913E-01    8.920E-01
     8.927E-01    8.933E-01    8.940E-01    8.947E-01    8.954E-01    8.960E-01    8.967E-01    8.974E-01    8.981E-01    8.987E-01
     8.994E-01    9.001E-01    9.008E-01    9.014E-01    9.021E-01    9.028E-01    9.035E-01    9.041E-01    9.048E-01    9.055E-01
     9.061E-01    9.068E-01    9.075E-01    9.082E-01    9.088E-01    9.095E-01    9.102E-01    9.109E-01    9.115E-01    9.122E-01
     9.129E-01    9.135E-01    9.142E-01    9.149E-01    9.156E-01    9.162E-01    9.169E-01    9.176E-01    9.182E-01    9.189E-01
     9.196E-01    9.203E-01    9.209E-01    9.216E-01    9.223E-01    9.229E-01    9.236E-01    9.243E-01    9.249E-01    9.256E-01
     9.263E-01    9.269E-01    9.276E-01    9.283E-01    9.290E-01    9.296E-01    9.303E-01    9.310E-01    9.316E-01    9.323E-01
     9.330E-01    9.336E-01    9.343E-01    9.350E-01    9.356E-01    9.363E-01    9.370E-01    9.376E-01    9.383E-01    9.390E-01
     9.396E-01    9.403E-01    9.410E-01    9.416E-01    9.423E-01    9.429E-01    9.436E-01    9.443E-01    9.449E-01    9.456E-01
     9.463E-01    9.469E-01    9.476E-01    9.483E-01    9.489E-01    9.496E-01    9.502E-01    9.509E-01    9.516E-01    9.522E-01
     9.529E-01    9.536E-01    9.542E-01    9.549E-01    9.555E-01    9.562E-01    9.569E-01    9.575E-01    9.582E-01    9.588E-01
     9.595E-01    9.602E-01    9.608E-01    9.615E-01    9.621E-01    9.628E-01    9.635E-01    9.641E-01    9.648E-01    9.654E-01
     9.661E-01    9.667E-01    9.674E-01    9.681E-01    9.687E-01    9.694E-01    9.700E-01    9.707E-01    9.713E-01    9.720E-01
     9.727E-01    9.733E-01    9.740E-01    9.746E-01    9.753E-01    9.759E-01    9.766E-01    9.772E-01    9.779E-01    9.785E-01
     9.792E-01    9.799E-01    9.805E-01    9.812E-01    9.818E-01    9.825E-01    9.831E-01    9.838E-01    9.844E-01    9.851E-01
     9.857E-01    9.864E-01    9.870E-01    9.877E-01    9.883E-01    9.890E-01    9.896E-01    9.903E-01    9.909E-01    9.916E-01
     9.922E-01    9.929E-01    9.935E-01    9.942E-01    9.948E-01    9.955E-01    9.961E-01    9.968E-01    9.974E-01    9.981E-01
     9.987E-01    9.994E-01    1.000E+00    1.001E+00    1.001E+00    1.002E+00    1.003E+00    1.003E+00    1.004E+00    1.005E+00
     1.005E+00    1.006E+00    1.006E+00    1.007E+00    1.008E+00    1.008E+00    1.009E+00    1.010E+00    1.010E+00    1.011E+00
     1.012E+00    1.012E+00    1.013E+00    1.014E+00    1.014E+00    1.015E+00    1.016E+00    1.016E+00    1.017E+00    1.017E+00
     1.018E+00    1.019E+00    1.019E+00    1.020E+00    1.021E+00    1.021E+00    1.022E+00    1.023E+00    1.023E+00    1.024E+00
     1.024E+00    1.025E+00    1.026E+00    1.026E+00    1.027E+00    1.028E+00    1.028E+00    1.029E+00    1.030E+00    1.030E+00
     1.031E+00    1.031E+00    1.032E+00    1.033E+00    1.033E+00    1.034E+00    1.035E+00    1.035E+00    1.036E+00    1.037E+00
     1.037E+00    1.038E+00    1.038E+00    1.039E+00    1.040E+00    1.040E+00    1.041E+00    1.042E+00    1.042E+00    1.043E+00
     1.044E+00    1.044E+00    1.045E+00    1.045E+00    1.046E+00    1.047E+00    1.047E+00    1.048E+00    1.049E+00    1.049E+00
     1.050E+00    1.051E+00    1.051E+00    1.052E+00    1.052E+00    1.053E+00    1.054E+00    1.054E+00    1.055E+00    1.056E+00
     1.056E+00    1.057E+00    1.057E+00    1.058E+00    1.059E+00    1.059E+00    1.060E+00    1.061E+00    1.061E+00    1.062E+00
     1.062E+00    1.063E+00    1.064E+00    1.064E+00    1.065E+00    1.066E+00    1.066E+00    1.067E+00    1.067E+00    1.068E+00
     1.069E+00    1.069E+00    1.070E+00    1.071E+00    1.071E+00    1.072E+00    1.072E+00    1.073E+00    1.074E+00    1.074E+00
     1.075E+00    1.076E+00    1.076E+00    1.077E+00    1.077E+00    1.078E+00    1.079E+00    1.079E+00    1.080E+00    1.080E+00
     1.081E+00    1.082E+00    1.082E+00    1.083E+00    1.084E+00    1.084E+00    1.085E+00    1.085E+00    1.086E+00    1.087E+00
     1.087E+00    1.088E+00    1.089E+00    1.089E+00    1.090E+00    1.090E+00    1.091E+00    1.092E+00    1.092E+00    1.093E+00
     1.093E+00    1.094E+00    1.095E+00    1.095E+00    1.096E+00    1.096E+00    1.097E+00    1.098E+00    1.098E+00    1.099E+00
     1.100E+00    1.100E+00    1.101E+00    1.101E+00    1.102E+00    1.103E+00    1.103E+00    1.104E+00    1.104E+00    1.105E+00
     1.106E+00    1.106E+00    1.107E+00    1.107E+00    1.108E+00    1.109E+00    1.109E+00    1.110E+00    1.110E+00    1.111E+00
     1.112E+00    1.112E+00    1.113E+00    1.114E+00    1.114E+00    1.115E+00    1.115E+00    1.116E+00    1.117E+00    1.117E+00
     1.118E+00    1.118E+00    1.119E+00    1.120E+00    1.120E+00    1.121E+00    1.121E+00    1.122E+00    1.123E+00    1.123E+00
     1.124E+00    1.124E+00    1.125E+00    1.126E+00    1.126E+00    1.127E+00    1.127E+00    1.128E+00    1.129E+00    1.129E+00
     1.130E+00    1.130E+00    1.131E+00    1.131E+00    1.132E+00    1.133E+00    1.133E+00    1.134E+00    1.134E+00    1.135E+00
     1.136E+00    1.136E+00    1.137E+00    1.137E+00    1.138E+00    1.139E+00    1.139E+00    1.140E+00    1.140E+00    1.141E+00
     1.142E+00    1.142E+00    1.143E+00    1.143E+00    1.144E+00    1.145E+00    1.145E+00    1.146E+00    1.146E+00    1.147E+00
     1.147E+00    1.148E+00    1.149E+00    1.149E+00    1.150E+00    1.150E+00    1.151E+00    1.152E+00    1.152E+00    1.153E+00
     1.153E+00    1.154E+00    1.154E+00    1.155E+00    1.156E+00    1.156E+00    1.157E+00    1.157E+00    1.158E+00    1.159E+00
     1.159E+00    1.160E+00    1.160E+00    1.161E+00    1.161E+00    1.162E+00    1.163E+00    1.163E+00    1.164E+00    1.164E+00
     1.165E+00    1.166E+00    1.166E+00    1.167E+00    1.167E+00    1.168E+00    1.168E+00    1.169E+00    1.170E+00    1.170E+00
     1.171E+00    1.171E+00    1.172E+00    1.172E+00    1.173E+00    1.174E+00    1.174E+00    1.175E+00    1.175E+00    1.176E+00
     1.176E+00    1.177E+00    1.178E+00    1.178E+00    1.179E+00    1.179E+00    1.180E+00    1.180E+00    1.181E+00    1.182E+00
     1.182E+00    1.183E+00    1.183E+00    1.184E+00    1.184E+00    1.185E+00    1.186E+00    1.186E+00
 Ala      Conc. = 1.04E+02
