 LCModel (Version 6.3-1L) Copyright: S.W. Provencher.          Ref.: Magn. Reson. Med. 30:672-679 (1993).                
 Slice#2 Row#4 Col#4  PD_05_press_2_raw_act
 36 lines in following concentration table = NCONC+1
    Conc.  %SD /Cr+PCr  Metabolite                                         
    0.000 999%   0.000 Ala                                                 
  469.013 128%   0.134 Asp                                                 
 1.75E+03  33%   0.498 Cr                                                  
 1.76E+03  33%   0.502 PCr                                                 
    0.000 999%   0.000 GABA                                                
    0.000 999%   0.000 Glc                                                 
  967.312  63%   0.276 Gln                                                 
 4.02E+03  17%   1.145 Glu                                                 
 1.46E+03   5%   0.417 GPC                                                 
    0.000 999%   0.000 PCh                                                 
 1.04E+03  18%   0.297 GSH                                                 
 2.11E+03  35%   0.601 Ins                                                 
  228.556 137% 6.5E-02 Lac                                                 
 5.22E+03   8%   1.488 NAA                                                 
 1.73E+03  23%   0.492 NAAG                                                
  129.483  59% 3.7E-02 Scyllo                                              
    0.000 999%   0.000 Tau                                                 
    0.000 999%   0.000 -CrCH2                                              
 1.46E+03   5%   0.417 GPC+PCh                                             
 6.94E+03   3%   1.980 NAA+NAAG                                            
 3.51E+03   4%   1.000 Cr+PCr                                              
 4.98E+03  20%   1.421 Glu+Gln                                             
 5.40E+03  29%   1.539 Lip13a                                              
    0.000 999%   0.000 Lip13b                                              
  838.199 101%   0.239 Lip09                                               
 5.67E+03  17%   1.618 MM09                                                
  921.888  67%   0.263 Lip20                                               
 1.44E+04  10%   4.113 MM20                                                
 2.46E+03  29%   0.702 MM12                                                
    0.000 999%   0.000 MM14                                                
    0.000 999%   0.000 MM17                                                
 5.40E+03  29%   1.539 Lip13a+Lip13b                                       
 7.86E+03  18%   2.241 MM14+Lip13a+Lip13b+MM12                             
 6.51E+03  13%   1.857 MM09+Lip09                                          
 1.53E+04   9%   4.376 MM20+Lip20                                          
   6 lines in following misc. output table
  FWHM = 0.054 ppm    S/N =  13                                            
  Data shift = 0.031 ppm                                                   
  Ph:   0 deg       3.8 deg/ppm                                            
  alphaB,S = 6.6E-01,   8.7E+01                                            
   14 spline knots.   Ns = 7(1)                                            
  (13) 2 infls.   (15) 1 extrs.                                            
  498 points on ppm-axis = NY
      4.000000     3.992357     3.984714     3.977070     3.969427     3.961784     3.954141     3.946497     3.938854     3.931211
      3.923568     3.915925     3.908281     3.900638     3.892995     3.885352     3.877708     3.870065     3.862422     3.854779
      3.847136     3.839492     3.831849     3.824206     3.816563     3.808919     3.801276     3.793633     3.785990     3.778347
      3.770703     3.763060     3.755417     3.747774     3.740130     3.732487     3.724844     3.717201     3.709558     3.701914
      3.694271     3.686628     3.678985     3.671341     3.663698     3.656055     3.648412     3.640769     3.633125     3.625482
      3.617839     3.610196     3.602552     3.594909     3.587266     3.579623     3.571980     3.564336     3.556693     3.549050
      3.541407     3.533763     3.526120     3.518477     3.510834     3.503191     3.495547     3.487904     3.480261     3.472618
      3.464974     3.457331     3.449688     3.442045     3.434402     3.426758     3.419115     3.411472     3.403829     3.396185
      3.388542     3.380899     3.373256     3.365613     3.357969     3.350326     3.342683     3.335040     3.327396     3.319753
      3.312110     3.304467     3.296824     3.289180     3.281537     3.273894     3.266251     3.258607     3.250964     3.243321
      3.235678     3.228034     3.220391     3.212748     3.205105     3.197462     3.189818     3.182175     3.174532     3.166889
      3.159245     3.151602     3.143959     3.136316     3.128673     3.121029     3.113386     3.105743     3.098100     3.090456
      3.082813     3.075170     3.067527     3.059884     3.052240     3.044597     3.036954     3.029311     3.021667     3.014024
      3.006381     2.998738     2.991095     2.983451     2.975808     2.968165     2.960522     2.952878     2.945235     2.937592
      2.929949     2.922306     2.914662     2.907019     2.899376     2.891733     2.884089     2.876446     2.868803     2.861160
      2.853517     2.845873     2.838230     2.830587     2.822944     2.815300     2.807657     2.800014     2.792371     2.784728
      2.777084     2.769441     2.761798     2.754155     2.746511     2.738868     2.731225     2.723582     2.715939     2.708295
      2.700652     2.693009     2.685366     2.677722     2.670079     2.662436     2.654793     2.647150     2.639506     2.631863
      2.624220     2.616577     2.608933     2.601290     2.593647     2.586004     2.578361     2.570717     2.563074     2.555431
      2.547788     2.540144     2.532501     2.524858     2.517215     2.509572     2.501928     2.494285     2.486642     2.478999
      2.471355     2.463712     2.456069     2.448426     2.440783     2.433139     2.425496     2.417853     2.410210     2.402566
      2.394923     2.387280     2.379637     2.371994     2.364350     2.356707     2.349064     2.341421     2.333777     2.326134
      2.318491     2.310848     2.303205     2.295561     2.287918     2.280275     2.272632     2.264988     2.257345     2.249702
      2.242059     2.234416     2.226772     2.219129     2.211486     2.203843     2.196199     2.188556     2.180913     2.173270
      2.165627     2.157983     2.150340     2.142697     2.135054     2.127410     2.119767     2.112124     2.104481     2.096838
      2.089194     2.081551     2.073908     2.066265     2.058621     2.050978     2.043335     2.035692     2.028049     2.020405
      2.012762     2.005119     1.997476     1.989833     1.982190     1.974546     1.966903     1.959260     1.951617     1.943974
      1.936331     1.928688     1.921045     1.913402     1.905759     1.898115     1.890472     1.882829     1.875186     1.867543
      1.859900     1.852257     1.844614     1.836971     1.829327     1.821684     1.814041     1.806398     1.798755     1.791112
      1.783469     1.775826     1.768183     1.760540     1.752896     1.745253     1.737610     1.729967     1.722324     1.714681
      1.707038     1.699395     1.691752     1.684108     1.676465     1.668822     1.661179     1.653536     1.645893     1.638250
      1.630607     1.622964     1.615321     1.607677     1.600034     1.592391     1.584748     1.577105     1.569462     1.561819
      1.554176     1.546533     1.538890     1.531246     1.523603     1.515960     1.508317     1.500674     1.493031     1.485388
      1.477745     1.470102     1.462458     1.454815     1.447172     1.439529     1.431886     1.424243     1.416600     1.408957
      1.401314     1.393671     1.386027     1.378384     1.370741     1.363098     1.355455     1.347812     1.340169     1.332526
      1.324883     1.317240     1.309596     1.301953     1.294310     1.286667     1.279024     1.271381     1.263738     1.256095
      1.248452     1.240808     1.233165     1.225522     1.217879     1.210236     1.202593     1.194950     1.187307     1.179664
      1.172021     1.164377     1.156734     1.149091     1.141448     1.133805     1.126162     1.118519     1.110876     1.103233
      1.095590     1.087946     1.080303     1.072660     1.065017     1.057374     1.049731     1.042088     1.034445     1.026802
      1.019158     1.011515     1.003872     0.996229     0.988586     0.980943     0.973300     0.965657     0.958014     0.950371
      0.942727     0.935084     0.927441     0.919798     0.912155     0.904512     0.896869     0.889226     0.881583     0.873940
      0.866296     0.858653     0.851010     0.843367     0.835724     0.828081     0.820438     0.812795     0.805152     0.797508
      0.789865     0.782222     0.774579     0.766936     0.759293     0.751650     0.744007     0.736364     0.728721     0.721077
      0.713434     0.705791     0.698148     0.690505     0.682862     0.675219     0.667576     0.659933     0.652290     0.644646
      0.637003     0.629360     0.621717     0.614074     0.606431     0.598788     0.591145     0.583502     0.575858     0.568215
      0.560572     0.552929     0.545286     0.537643     0.530000     0.522357     0.514714     0.507071     0.499427     0.491784
      0.484141     0.476498     0.468855     0.461212     0.453569     0.445925     0.438282     0.430639     0.422996     0.415353
      0.407710     0.400067     0.392424     0.384780     0.377137     0.369494     0.361851     0.354208     0.346565     0.338922
      0.331278     0.323635     0.315992     0.308349     0.300706     0.293063     0.285420     0.277777     0.270133     0.262490
      0.254847     0.247204     0.239561     0.231918     0.224275     0.216631     0.208988     0.201345
 NY phased data points follow
   1.34623E+01  1.69099E+01  3.28077E+01  1.60016E+01  4.03500E+01  2.92951E+01  5.12411E+01  6.27552E+01  7.81860E+01  9.50124E+01
   1.06353E+02  8.77911E+01  1.00487E+02  6.78670E+01  6.58130E+01  4.52735E+01  4.60376E+01  3.48762E+01  3.42647E+01  1.98755E+01
   2.68709E+01  1.75271E+01  2.58600E+01  1.36467E+01  2.91625E+01  1.99691E+01  2.01280E+01  3.26168E+01  3.93632E+01  3.27191E+01
   3.40090E+01  3.17620E+01  3.03165E+01  2.24254E+01  4.27755E+01  3.00239E+01  3.76753E+01  2.11617E+01  2.11420E+01  1.23429E+01
   1.68980E+01  1.20033E+01  2.53139E+01  2.22456E+01  3.27121E+01  1.88843E+01  4.57958E+01  3.66962E+01  4.94645E+01  2.00271E+01
   3.48452E+01  1.96077E+01  2.78631E+01  2.16314E+01  2.04358E+01  1.24689E+01  1.16604E+01  1.14138E+01  2.28346E+01  6.01730E+00
   1.94127E+01  1.48983E+01  9.99725E+00 -3.51535E+00  1.27693E+01 -1.18386E+01  6.20666E+00 -1.18362E+01 -1.05237E+01  1.20124E+00
   8.68167E-01 -4.48192E+00  9.61916E+00 -1.93754E+00 -9.67461E+00  2.58586E+00  2.10149E+00 -8.71299E+00  8.58964E-01  5.38155E-01
   7.70417E+00  4.87995E+00  1.23242E+01 -1.68050E+00  1.32929E+01 -3.34716E+00  1.67152E+01 -5.49250E+00  2.24982E+01  6.42736E+00
  -2.76603E+00  8.22915E+00  1.19871E+01  1.03259E+01  1.31259E+01  1.01027E+01  2.09317E+01  1.52260E+01  4.92032E+01  5.79151E+01
   8.02331E+01  9.53411E+01  1.26090E+02  1.38208E+02  1.32258E+02  1.09064E+02  1.00680E+02  6.39778E+01  6.53088E+01  3.60427E+01
   4.23123E+01  1.85560E+01  1.75135E+01  2.10312E+01  2.16806E+01  7.89598E+00  1.80191E+01  4.26569E+00  1.72157E+01  1.38834E+01
   1.40567E+01  1.44599E+01  1.96210E+01  3.84868E+01  6.72164E+01  8.47902E+01  1.11586E+02  1.25176E+02  1.26491E+02  1.09764E+02
   8.67067E+01  6.11844E+01  6.32926E+01  4.01602E+01  2.71770E+01  5.81579E+00  1.40817E+01  8.83155E+00  9.00271E+00 -7.35571E+00
   7.76384E+00 -2.03425E+00  3.57548E+00  3.21285E+00  1.04248E+01  3.16251E+00  3.79378E+00 -1.03470E+01 -3.54841E+00  9.97926E+00
   6.90176E+00 -7.85442E+00  3.35772E+00 -1.75704E+01 -2.12863E+01 -1.06459E+01 -1.59490E+01 -5.03197E+00 -4.61183E+00 -2.35252E+01
  -1.29908E+01 -1.19848E+01  3.73907E+00 -1.56353E+01 -9.52434E+00 -1.08219E+01 -1.60441E+00 -1.27898E+00 -3.39533E+00 -1.11872E+01
  -1.56111E+01 -1.90317E+01 -3.39674E+01 -1.80040E+01 -1.81036E+01 -2.53573E+01 -2.65928E+01 -3.58054E+01 -2.37881E+01 -3.56725E+01
  -2.01968E+01 -2.70924E+01 -4.66191E+01 -2.61514E+01 -1.34291E+01 -2.10335E+01 -2.16396E+01 -4.44972E+00 -3.37445E+00 -6.40674E+00
   5.76302E+00  1.49987E+01  1.58408E+01  6.55743E+00  1.56475E+01 -9.20807E+00  4.64455E+00 -1.31075E+00 -1.83558E+01 -1.12219E+01
  -2.50233E-01  7.01314E+00  1.78110E+01  6.40649E+00  5.49873E+00 -6.51532E+00 -1.31364E-01 -7.06805E+00 -8.86157E+00 -4.18092E+00
   3.29146E+00 -8.41393E+00 -1.08613E+01  6.12956E+00  3.14943E+01  2.21762E+01  2.99989E+01  3.36210E+01  7.57698E+00 -1.15387E+00
   9.06310E+00 -1.34175E+01 -8.94884E+00  1.67168E-01  3.28974E+00  1.74683E+01  9.88890E+00  2.89134E+01  3.03478E+01  2.31075E+01
   2.52306E+01  1.41032E+01  3.57528E+01  2.35799E+01  2.48982E+01  3.07665E+01  3.77113E+01  2.11197E+01  3.18060E+01  2.07741E+01
   1.63232E+01  1.14639E+01  2.07435E+01  2.46302E+01  3.59543E+01  3.04122E+01  3.51935E+01  4.01322E+01  3.94334E+01  2.34506E+01
   4.64588E+01  5.32813E+01  8.17719E+01  8.42077E+01  1.03386E+02  1.10185E+02  1.47736E+02  1.86952E+02  2.01344E+02  2.31537E+02
   2.40805E+02  2.15688E+02  1.88861E+02  1.46817E+02  1.08387E+02  8.86790E+01  5.70073E+01  3.44503E+01  4.52512E+01  3.41639E+01
   1.69061E+01  1.18387E+01  1.91837E+01 -6.44004E+00  8.49521E+00  6.69778E+00  9.25341E-01  6.38922E+00  6.16614E+00 -6.45174E+00
  -1.46503E+01 -8.08629E+00  3.07286E+00 -8.89119E+00 -8.74884E+00 -4.71169E+00 -1.82423E+00 -2.68604E+00 -4.74450E+00 -8.16783E+00
  -1.24036E+01 -3.04207E+01 -2.95078E+01 -1.09053E+01 -1.79851E+01 -2.03452E+01 -1.90931E+01 -2.54720E+01 -3.13946E+01 -2.39366E+01
  -2.68671E+01 -1.80623E+01 -3.18617E+01 -2.72759E+01 -1.67499E+01 -2.45172E+01 -2.46373E+01 -3.19388E+01 -2.17037E+01 -3.05410E+01
  -2.37167E+01 -2.64292E+01 -2.51569E+01 -2.66355E+01 -3.51744E+01 -3.79535E+01 -3.55812E+01 -2.59791E+01 -4.67155E+01 -4.04147E+01
  -3.02193E+01 -5.21004E+01 -3.19803E+01 -4.49583E+01 -3.93590E+01 -5.48201E+01 -4.67759E+01 -4.43485E+01 -4.23840E+01 -4.31716E+01
  -3.41685E+01 -3.08805E+01 -2.45256E+01 -2.60331E+01 -2.77470E+01 -2.17393E+01 -3.52799E+01 -3.13252E+01 -2.67162E+01 -3.28470E+01
  -1.14043E+01 -7.22600E+00 -2.70899E+01 -2.55009E+01 -9.80169E-01 -1.00592E+01 -1.14949E+01 -1.40101E+01 -1.08532E+00 -9.41556E+00
  -6.53367E+00 -1.60455E+01  8.65716E+00 -9.05880E+00  4.33346E-01  1.87486E+00  5.11387E+00 -1.21534E+01  6.60684E+00  4.38242E+00
   2.28618E+01  5.85499E+00  1.39439E+01  7.58683E+00  1.10931E+01  1.12458E+00  4.53876E+00  2.07130E+01  3.22244E+00  1.64596E+01
   1.28563E+01  5.63077E+00  4.72130E+00  1.47498E+01  1.50832E+01 -2.39452E+00  6.20075E+00 -7.04310E+00  8.69105E+00  1.32977E+00
  -3.46191E+00 -3.26535E+00 -5.68758E+00  9.47939E+00  4.43980E+00 -2.74601E+00  1.57170E+01  1.30497E+01  1.80139E+01  1.68985E+01
   1.66393E+01  1.27894E+01  1.63187E+01  7.97896E-01  1.94759E+01  2.45196E+01  2.09208E+01  2.38511E+01  1.24108E+01  8.64742E+00
   2.00546E+01  1.69242E+01  1.88480E+01  1.99977E+01  2.16684E+01  2.45830E+01  5.07363E+00  2.71118E+01  2.66586E+01  9.96319E+00
   2.36558E+01  5.72377E+00  2.10426E+01  1.99779E+01  1.60207E+01  3.02296E+00 -2.83176E+00  1.91664E+01  1.13489E+00  7.95703E+00
   1.28659E+01  1.86499E+01  1.89516E+01  1.48346E+00  6.28030E+00  9.29146E+00  9.83290E+00 -2.62308E+00  1.77149E+01  1.11668E+00
   8.90531E+00  5.40179E+00  3.14508E+00 -1.19240E+01  1.54513E+01  1.30133E+01 -2.44405E+00 -7.05311E-02 -8.84501E+00 -2.37239E+00
   2.36791E+00 -2.45068E+00 -9.61923E+00  2.18853E+00  2.28778E+00 -8.18536E-01  1.16962E+00  2.25923E-01  1.61647E+01  2.80267E+00
   9.94632E+00  1.08119E+01  4.78592E+00  3.96709E+00 -3.35612E+00  5.69957E+00  8.64421E+00 -1.54712E+00 -6.05096E+00  1.12688E+01
  -1.04203E+01  1.45938E+00  3.20728E+00 -6.77148E-01  1.38309E+00 -9.62150E+00  5.46979E+00  8.42467E+00  1.25429E+01 -2.38528E+00
   8.32886E+00  7.38355E+00 -4.32000E+00  1.43303E+01  1.52349E+01 -3.88545E+00  6.37711E+00  4.61720E-01  2.03429E+01 -3.41094E+00
  -1.02086E+01 -3.17680E+00  6.83823E+00  3.67370E+00  1.29406E+00  4.82438E+00  1.10331E+01 -1.47525E+00  7.75842E+00 -5.23524E+00
  -1.32718E+00 -7.09864E+00  2.61868E+00  1.04295E+01 -1.55839E+00 -6.63637E+00 -3.11015E+00 -3.31815E+00
 NY points of the fit to the data follow
   2.21972E+01  2.22411E+01  2.34551E+01  2.62964E+01  3.13541E+01  3.96308E+01  5.11230E+01  6.49337E+01  7.91591E+01  9.07664E+01
   9.67712E+01  9.55638E+01  8.77659E+01  7.60696E+01  6.37561E+01  5.27540E+01  4.35589E+01  3.56171E+01  2.89770E+01  2.43291E+01
   2.14418E+01  2.02473E+01  1.95995E+01  1.91896E+01  1.92026E+01  2.03298E+01  2.29763E+01  2.69934E+01  3.20601E+01  3.71976E+01
   4.08410E+01  4.18206E+01  4.00168E+01  3.61592E+01  3.12398E+01  2.60523E+01  2.14665E+01  1.78984E+01  1.58036E+01  1.56333E+01
   1.64454E+01  1.77816E+01  1.97746E+01  2.24470E+01  2.55114E+01  2.83378E+01  3.04083E+01  3.10065E+01  2.96235E+01  2.66847E+01
   2.30058E+01  1.94219E+01  1.65033E+01  1.43204E+01  1.26721E+01  1.16497E+01  1.14663E+01  1.19793E+01  1.26793E+01  1.31105E+01
   1.29864E+01  1.21503E+01  1.07361E+01  9.12525E+00  7.76042E+00  6.93069E+00  6.66221E+00  6.80078E+00  7.22527E+00  7.80744E+00
   8.36674E+00  8.79261E+00  8.93083E+00  8.72687E+00  8.26078E+00  7.67788E+00  7.13957E+00  6.70533E+00  6.38282E+00  6.22997E+00
   6.30283E+00  6.70950E+00  7.41352E+00  8.18289E+00  8.71929E+00  8.75982E+00  8.09715E+00  6.78101E+00  5.27296E+00  4.18079E+00
   3.85210E+00  4.18397E+00  4.85481E+00  5.62807E+00  6.48583E+00  7.94489E+00  1.14758E+01  1.89015E+01  3.20370E+01  5.24121E+01
   7.83970E+01  1.05561E+02  1.28126E+02  1.39323E+02  1.34922E+02  1.17305E+02  9.37821E+01  7.13802E+01  5.30534E+01  3.79341E+01
   2.49375E+01  1.39475E+01  7.17687E+00  5.27455E+00  4.98402E+00  5.11409E+00  5.42020E+00  5.87148E+00  6.53851E+00  7.70295E+00
   1.05241E+01  1.67723E+01  2.78063E+01  4.50041E+01  6.72579E+01  9.09522E+01  1.11518E+02  1.23251E+02  1.21899E+02  1.08686E+02
   8.95016E+01  7.03938E+01  5.41342E+01  3.98301E+01  2.65705E+01  1.46273E+01  6.45017E+00  3.84229E+00  3.73440E+00  4.47385E+00
   5.32213E+00  5.85242E+00  5.98007E+00  5.78584E+00  5.26715E+00  4.50162E+00  3.54848E+00  2.38814E+00  1.12745E+00 -1.41400E-01
  -1.35167E+00 -2.42771E+00 -3.34749E+00 -4.05996E+00 -4.56219E+00 -4.91481E+00 -5.37480E+00 -6.16924E+00 -7.28959E+00 -8.59034E+00
  -9.66472E+00 -1.01297E+01 -9.97803E+00 -9.62397E+00 -9.62830E+00 -1.02928E+01 -1.14528E+01 -1.26423E+01 -1.35174E+01 -1.41456E+01
  -1.48368E+01 -1.56986E+01 -1.67734E+01 -1.79031E+01 -1.87993E+01 -1.93352E+01 -1.93650E+01 -1.89901E+01 -1.86149E+01 -1.85867E+01
  -1.88037E+01 -1.87861E+01 -1.82038E+01 -1.70674E+01 -1.55491E+01 -1.37844E+01 -1.14373E+01 -8.16385E+00 -4.30178E+00 -7.24759E-01
   1.63478E+00  2.39418E+00  1.75967E+00  2.65971E-01 -1.53271E+00 -3.12386E+00 -4.22008E+00 -4.40000E+00 -3.35144E+00 -1.08281E+00
   1.97452E+00  5.17843E+00  7.77580E+00  9.06488E+00  8.64490E+00  6.35724E+00  2.41251E+00 -2.46373E+00 -7.03234E+00 -9.98929E+00
  -1.03197E+01 -7.58190E+00 -2.07533E+00  5.02412E+00  1.19205E+01  1.67385E+01  1.77575E+01  1.43901E+01  7.75607E+00 -2.85356E-01
  -7.38175E+00 -1.19065E+01 -1.30930E+01 -1.04682E+01 -4.82079E+00  2.35058E+00  9.00691E+00  1.38086E+01  1.68379E+01  1.86461E+01
   1.97570E+01  2.05441E+01  2.14380E+01  2.29668E+01  2.50927E+01  2.70598E+01  2.82817E+01  2.85134E+01  2.77499E+01  2.63868E+01
   2.50253E+01  2.43977E+01  2.50922E+01  2.72327E+01  3.04500E+01  3.38334E+01  3.66419E+01  3.85513E+01  3.99576E+01  4.21135E+01
   4.61918E+01  5.34198E+01  6.43625E+01  7.98937E+01  1.00227E+02  1.25102E+02  1.53529E+02  1.82362E+02  2.08287E+02  2.27039E+02
   2.31717E+02  2.17294E+02  1.87156E+02  1.50724E+02  1.17117E+02  9.04301E+01  6.83999E+01  4.87487E+01  3.14387E+01  2.04850E+01
   1.55787E+01  1.25346E+01  1.02058E+01  8.24515E+00  6.35852E+00  4.30256E+00  2.12144E+00 -7.43058E-02 -2.14701E+00 -4.02614E+00
  -5.71330E+00 -7.24647E+00 -8.64011E+00 -9.91509E+00 -1.11325E+01 -1.23561E+01 -1.36091E+01 -1.48379E+01 -1.59760E+01 -1.69968E+01
  -1.78975E+01 -1.86766E+01 -1.93620E+01 -2.00081E+01 -2.06771E+01 -2.13807E+01 -2.20994E+01 -2.28125E+01 -2.34978E+01 -2.41335E+01
  -2.47073E+01 -2.52061E+01 -2.56462E+01 -2.60529E+01 -2.64383E+01 -2.68054E+01 -2.71543E+01 -2.74870E+01 -2.78142E+01 -2.81310E+01
  -2.84317E+01 -2.87154E+01 -2.89806E+01 -2.92263E+01 -2.94519E+01 -2.96563E+01 -2.98384E+01 -2.99976E+01 -3.01334E+01 -3.02452E+01
  -3.03322E+01 -3.03930E+01 -3.04265E+01 -3.04316E+01 -3.04069E+01 -3.03497E+01 -3.02574E+01 -3.01267E+01 -2.99542E+01 -2.97358E+01
  -2.94662E+01 -2.91396E+01 -2.87491E+01 -2.82876E+01 -2.77470E+01 -2.71180E+01 -2.63901E+01 -2.55511E+01 -2.45857E+01 -2.34714E+01
  -2.21668E+01 -2.06472E+01 -1.89204E+01 -1.70294E+01 -1.51071E+01 -1.33131E+01 -1.17839E+01 -1.06181E+01 -9.74441E+00 -8.90694E+00
  -7.80242E+00 -6.22300E+00 -4.17030E+00 -1.77520E+00  8.10620E-01  3.36113E+00  5.64762E+00  7.47502E+00  8.75310E+00  9.61173E+00
   1.01642E+01  1.04389E+01  1.04337E+01  1.01464E+01  9.68666E+00  9.13763E+00  8.48345E+00  7.72988E+00  6.89738E+00  6.01216E+00
   5.10286E+00  4.19861E+00  3.32777E+00  2.51725E+00  1.79202E+00  1.17473E+00  6.85276E-01  3.40563E-01  1.54310E-01  1.37110E-01
   2.96429E-01  6.36527E-01  1.15825E+00  1.85892E+00  2.73227E+00  3.76856E+00  4.95453E+00  6.27335E+00  7.70459E+00  9.22450E+00
   1.08064E+01  1.24211E+01  1.40379E+01  1.56249E+01  1.71498E+01  1.85812E+01  1.98894E+01  2.10477E+01  2.20329E+01  2.28265E+01
   2.34146E+01  2.37890E+01  2.39473E+01  2.38924E+01  2.36327E+01  2.31811E+01  2.25545E+01  2.17728E+01  2.08587E+01  1.98359E+01
   1.87288E+01  1.75613E+01  1.63561E+01  1.51347E+01  1.39162E+01  1.27176E+01  1.15532E+01  1.04347E+01  9.37111E+00  8.36948E+00
   7.43454E+00  6.56904E+00  5.77401E+00  5.04904E+00  4.39266E+00  3.80256E+00  3.27577E+00  2.80875E+00  2.39760E+00  2.03830E+00
   1.72687E+00  1.45942E+00  1.23213E+00  1.04123E+00  8.83179E-01  7.54686E-01  6.52783E-01  5.74744E-01  5.17995E-01  4.80119E-01
   4.58929E-01  4.52509E-01  4.59176E-01  4.77375E-01  5.05608E-01  5.42487E-01  5.86797E-01  6.37513E-01  6.93719E-01  7.54516E-01
   8.19017E-01  8.86416E-01  9.56050E-01  1.02742E+00  1.10018E+00  1.17397E+00  1.24843E+00  1.32326E+00  1.39828E+00  1.47337E+00
   1.54836E+00  1.62305E+00  1.69724E+00  1.77086E+00  1.84386E+00  1.91622E+00  1.98785E+00  2.05863E+00  2.12849E+00  2.19743E+00
   2.26551E+00  2.33275E+00  2.39909E+00  2.46448E+00  2.52893E+00  2.59251E+00  2.65531E+00  2.71734E+00  2.77855E+00  2.83894E+00
   2.89858E+00  2.95759E+00  3.01604E+00  3.07394E+00  3.13126E+00  3.18805E+00  3.24443E+00  3.30052E+00  3.35635E+00  3.41192E+00
   3.46724E+00  3.52240E+00  3.57751E+00  3.63267E+00  3.68790E+00  3.74316E+00  3.79850E+00  3.85401E+00
 NY background values follow
     9.213E+00    9.093E+00    8.972E+00    8.850E+00    8.727E+00    8.603E+00    8.478E+00    8.353E+00    8.227E+00    8.100E+00
     7.972E+00    7.843E+00    7.714E+00    7.584E+00    7.454E+00    7.323E+00    7.191E+00    7.059E+00    6.927E+00    6.794E+00
     6.660E+00    6.527E+00    6.392E+00    6.258E+00    6.123E+00    5.988E+00    5.853E+00    5.718E+00    5.583E+00    5.447E+00
     5.312E+00    5.176E+00    5.040E+00    4.905E+00    4.769E+00    4.634E+00    4.498E+00    4.363E+00    4.228E+00    4.093E+00
     3.959E+00    3.825E+00    3.691E+00    3.557E+00    3.424E+00    3.292E+00    3.160E+00    3.028E+00    2.897E+00    2.766E+00
     2.635E+00    2.506E+00    2.376E+00    2.247E+00    2.119E+00    1.991E+00    1.863E+00    1.736E+00    1.609E+00    1.483E+00
     1.357E+00    1.232E+00    1.107E+00    9.823E-01    8.582E-01    7.346E-01    6.114E-01    4.886E-01    3.663E-01    2.444E-01
     1.229E-01    1.798E-03   -1.189E-01   -2.391E-01   -3.589E-01   -4.783E-01   -5.973E-01   -7.159E-01   -8.341E-01   -9.518E-01
    -1.069E+00   -1.186E+00   -1.303E+00   -1.419E+00   -1.535E+00   -1.650E+00   -1.765E+00   -1.880E+00   -1.994E+00   -2.108E+00
    -2.221E+00   -2.334E+00   -2.447E+00   -2.559E+00   -2.671E+00   -2.783E+00   -2.894E+00   -3.005E+00   -3.115E+00   -3.225E+00
    -3.335E+00   -3.444E+00   -3.553E+00   -3.661E+00   -3.769E+00   -3.877E+00   -3.984E+00   -4.091E+00   -4.198E+00   -4.304E+00
    -4.410E+00   -4.515E+00   -4.620E+00   -4.725E+00   -4.829E+00   -4.933E+00   -5.036E+00   -5.139E+00   -5.242E+00   -5.344E+00
    -5.446E+00   -5.547E+00   -5.649E+00   -5.749E+00   -5.850E+00   -5.950E+00   -6.049E+00   -6.148E+00   -6.247E+00   -6.345E+00
    -6.443E+00   -6.541E+00   -6.638E+00   -6.735E+00   -6.831E+00   -6.927E+00   -7.023E+00   -7.118E+00   -7.213E+00   -7.307E+00
    -7.401E+00   -7.494E+00   -7.586E+00   -7.677E+00   -7.768E+00   -7.857E+00   -7.946E+00   -8.033E+00   -8.119E+00   -8.204E+00
    -8.288E+00   -8.371E+00   -8.452E+00   -8.532E+00   -8.610E+00   -8.686E+00   -8.761E+00   -8.835E+00   -8.906E+00   -8.976E+00
    -9.043E+00   -9.109E+00   -9.173E+00   -9.234E+00   -9.294E+00   -9.351E+00   -9.406E+00   -9.459E+00   -9.509E+00   -9.556E+00
    -9.602E+00   -9.644E+00   -9.684E+00   -9.721E+00   -9.755E+00   -9.787E+00   -9.815E+00   -9.841E+00   -9.863E+00   -9.882E+00
    -9.898E+00   -9.911E+00   -9.921E+00   -9.927E+00   -9.931E+00   -9.933E+00   -9.932E+00   -9.929E+00   -9.925E+00   -9.919E+00
    -9.912E+00   -9.905E+00   -9.896E+00   -9.888E+00   -9.879E+00   -9.870E+00   -9.862E+00   -9.854E+00   -9.848E+00   -9.842E+00
    -9.838E+00   -9.836E+00   -9.836E+00   -9.838E+00   -9.843E+00   -9.850E+00   -9.860E+00   -9.874E+00   -9.891E+00   -9.912E+00
    -9.937E+00   -9.967E+00   -1.000E+01   -1.004E+01   -1.008E+01   -1.013E+01   -1.019E+01   -1.025E+01   -1.032E+01   -1.039E+01
    -1.047E+01   -1.056E+01   -1.065E+01   -1.075E+01   -1.086E+01   -1.098E+01   -1.111E+01   -1.124E+01   -1.139E+01   -1.154E+01
    -1.169E+01   -1.186E+01   -1.204E+01   -1.222E+01   -1.241E+01   -1.260E+01   -1.281E+01   -1.302E+01   -1.324E+01   -1.346E+01
    -1.369E+01   -1.393E+01   -1.417E+01   -1.442E+01   -1.468E+01   -1.494E+01   -1.520E+01   -1.548E+01   -1.575E+01   -1.603E+01
    -1.632E+01   -1.661E+01   -1.691E+01   -1.721E+01   -1.752E+01   -1.783E+01   -1.814E+01   -1.846E+01   -1.878E+01   -1.910E+01
    -1.943E+01   -1.976E+01   -2.010E+01   -2.043E+01   -2.078E+01   -2.112E+01   -2.146E+01   -2.181E+01   -2.216E+01   -2.251E+01
    -2.287E+01   -2.322E+01   -2.358E+01   -2.394E+01   -2.430E+01   -2.466E+01   -2.502E+01   -2.538E+01   -2.574E+01   -2.610E+01
    -2.646E+01   -2.682E+01   -2.718E+01   -2.753E+01   -2.789E+01   -2.824E+01   -2.859E+01   -2.894E+01   -2.928E+01   -2.962E+01
    -2.996E+01   -3.029E+01   -3.062E+01   -3.095E+01   -3.127E+01   -3.158E+01   -3.189E+01   -3.220E+01   -3.250E+01   -3.279E+01
    -3.307E+01   -3.335E+01   -3.363E+01   -3.389E+01   -3.415E+01   -3.440E+01   -3.464E+01   -3.488E+01   -3.510E+01   -3.532E+01
    -3.553E+01   -3.573E+01   -3.592E+01   -3.609E+01   -3.626E+01   -3.642E+01   -3.657E+01   -3.670E+01   -3.683E+01   -3.694E+01
    -3.704E+01   -3.713E+01   -3.722E+01   -3.729E+01   -3.735E+01   -3.740E+01   -3.744E+01   -3.747E+01   -3.749E+01   -3.750E+01
    -3.750E+01   -3.749E+01   -3.747E+01   -3.745E+01   -3.741E+01   -3.736E+01   -3.731E+01   -3.725E+01   -3.718E+01   -3.710E+01
    -3.701E+01   -3.691E+01   -3.681E+01   -3.669E+01   -3.657E+01   -3.644E+01   -3.631E+01   -3.617E+01   -3.602E+01   -3.586E+01
    -3.569E+01   -3.552E+01   -3.534E+01   -3.516E+01   -3.497E+01   -3.477E+01   -3.456E+01   -3.435E+01   -3.414E+01   -3.391E+01
    -3.368E+01   -3.345E+01   -3.321E+01   -3.296E+01   -3.271E+01   -3.246E+01   -3.220E+01   -3.193E+01   -3.166E+01   -3.139E+01
    -3.111E+01   -3.082E+01   -3.054E+01   -3.024E+01   -2.995E+01   -2.965E+01   -2.935E+01   -2.904E+01   -2.873E+01   -2.842E+01
    -2.810E+01   -2.778E+01   -2.746E+01   -2.713E+01   -2.681E+01   -2.648E+01   -2.615E+01   -2.581E+01   -2.548E+01   -2.514E+01
    -2.480E+01   -2.446E+01   -2.412E+01   -2.378E+01   -2.344E+01   -2.309E+01   -2.275E+01   -2.240E+01   -2.206E+01   -2.171E+01
    -2.136E+01   -2.102E+01   -2.067E+01   -2.032E+01   -1.998E+01   -1.963E+01   -1.928E+01   -1.894E+01   -1.860E+01   -1.826E+01
    -1.791E+01   -1.757E+01   -1.724E+01   -1.690E+01   -1.656E+01   -1.623E+01   -1.589E+01   -1.556E+01   -1.524E+01   -1.491E+01
    -1.458E+01   -1.426E+01   -1.394E+01   -1.362E+01   -1.331E+01   -1.299E+01   -1.268E+01   -1.237E+01   -1.207E+01   -1.177E+01
    -1.147E+01   -1.117E+01   -1.088E+01   -1.059E+01   -1.030E+01   -1.002E+01   -9.738E+00   -9.462E+00   -9.190E+00   -8.922E+00
    -8.658E+00   -8.398E+00   -8.141E+00   -7.890E+00   -7.642E+00   -7.399E+00   -7.160E+00   -6.926E+00   -6.696E+00   -6.472E+00
    -6.252E+00   -6.037E+00   -5.827E+00   -5.622E+00   -5.422E+00   -5.228E+00   -5.037E+00   -4.852E+00   -4.671E+00   -4.494E+00
    -4.322E+00   -4.154E+00   -3.990E+00   -3.830E+00   -3.674E+00   -3.521E+00   -3.372E+00   -3.227E+00   -3.085E+00   -2.946E+00
    -2.811E+00   -2.678E+00   -2.548E+00   -2.422E+00   -2.297E+00   -2.176E+00   -2.057E+00   -1.940E+00   -1.825E+00   -1.713E+00
    -1.602E+00   -1.494E+00   -1.387E+00   -1.282E+00   -1.178E+00   -1.076E+00   -9.750E-01   -8.753E-01   -7.767E-01   -6.791E-01
    -5.823E-01   -4.862E-01   -3.908E-01   -2.959E-01   -2.014E-01   -1.072E-01   -1.312E-02    8.087E-02
 Asp      Conc. = 4.69E+02
