 LCModel (Version 6.3-1L) Copyright: S.W. Provencher.          Ref.: Magn. Reson. Med. 30:672-679 (1993).                
 Slice#1 Row#10 Col#11  PD_05_press_2_raw_act
 36 lines in following concentration table = NCONC+1
    Conc.  %SD /Cr+PCr  Metabolite                                         
   14.347 338%   0.545 Ala                                                 
   15.632 121%   0.593 Asp                                                 
    0.000 999%   0.000 Cr                                                  
   26.342 100%   1.000 PCr                                                 
    6.295 179%   0.239 GABA                                                
    6.017 188%   0.228 Glc                                                 
    7.195 999%   0.273 Gln                                                 
   54.014 196%   2.051 Glu                                                 
   23.182  46%   0.880 GPC                                                 
    0.000 999%   0.000 PCh                                                 
    0.000 999%   0.000 GSH                                                 
  125.661  91%   4.770 Ins                                                 
    0.000 999%   0.000 Lac                                                 
  102.567  42%   3.894 NAA                                                 
   48.493  88%   1.841 NAAG                                                
    1.968 188% 7.5E-02 Scyllo                                              
    8.291 225%   0.315 Tau                                                 
    5.232 359%   0.199 -CrCH2                                              
   23.182  46%   0.880 GPC+PCh                                             
  151.060  29%   5.735 NAA+NAAG                                            
   26.342 100%   1.000 Cr+PCr                                              
   61.209 217%   2.324 Glu+Gln                                             
 3.58E+03  17% 136.029 Lip13a                                              
    0.000 999%   0.000 Lip13b                                              
 1.30E+03  23%  49.494 Lip09                                               
 1.45E+03  18%  55.026 MM09                                                
  705.554  41%  26.785 Lip20                                               
 1.08E+03  27%  41.093 MM20                                                
  808.337  36%  30.687 MM12                                                
    0.000 999%   0.000 MM14                                                
 1.54E+03  16%  58.409 MM17                                                
 3.58E+03  17% 136.029 Lip13a+Lip13b                                       
 4.39E+03  12% 166.716 MM14+Lip13a+Lip13b+MM12                             
 2.75E+03  10% 104.520 MM09+Lip09                                          
 1.79E+03  15%  67.877 MM20+Lip20                                          
   6 lines in following misc. output table
  FWHM = 0.046 ppm    S/N =   4                                            
  Data shift =-0.015 ppm                                                   
  Ph: -16 deg      18.8 deg/ppm                                            
  alphaB,S = 8.5E+01,   1.0E+01                                            
   14 spline knots.   Ns = 5(1)                                            
   2 inflections.     1 extrema                                            
  498 points on ppm-axis = NY
      4.000000     3.992357     3.984714     3.977070     3.969427     3.961784     3.954141     3.946497     3.938854     3.931211
      3.923568     3.915925     3.908281     3.900638     3.892995     3.885352     3.877708     3.870065     3.862422     3.854779
      3.847136     3.839492     3.831849     3.824206     3.816563     3.808919     3.801276     3.793633     3.785990     3.778347
      3.770703     3.763060     3.755417     3.747774     3.740130     3.732487     3.724844     3.717201     3.709558     3.701914
      3.694271     3.686628     3.678985     3.671341     3.663698     3.656055     3.648412     3.640769     3.633125     3.625482
      3.617839     3.610196     3.602552     3.594909     3.587266     3.579623     3.571980     3.564336     3.556693     3.549050
      3.541407     3.533763     3.526120     3.518477     3.510834     3.503191     3.495547     3.487904     3.480261     3.472618
      3.464974     3.457331     3.449688     3.442045     3.434402     3.426758     3.419115     3.411472     3.403829     3.396185
      3.388542     3.380899     3.373256     3.365613     3.357969     3.350326     3.342683     3.335040     3.327396     3.319753
      3.312110     3.304467     3.296824     3.289180     3.281537     3.273894     3.266251     3.258607     3.250964     3.243321
      3.235678     3.228034     3.220391     3.212748     3.205105     3.197462     3.189818     3.182175     3.174532     3.166889
      3.159245     3.151602     3.143959     3.136316     3.128673     3.121029     3.113386     3.105743     3.098100     3.090456
      3.082813     3.075170     3.067527     3.059884     3.052240     3.044597     3.036954     3.029311     3.021667     3.014024
      3.006381     2.998738     2.991095     2.983451     2.975808     2.968165     2.960522     2.952878     2.945235     2.937592
      2.929949     2.922306     2.914662     2.907019     2.899376     2.891733     2.884089     2.876446     2.868803     2.861160
      2.853517     2.845873     2.838230     2.830587     2.822944     2.815300     2.807657     2.800014     2.792371     2.784728
      2.777084     2.769441     2.761798     2.754155     2.746511     2.738868     2.731225     2.723582     2.715939     2.708295
      2.700652     2.693009     2.685366     2.677722     2.670079     2.662436     2.654793     2.647150     2.639506     2.631863
      2.624220     2.616577     2.608933     2.601290     2.593647     2.586004     2.578361     2.570717     2.563074     2.555431
      2.547788     2.540144     2.532501     2.524858     2.517215     2.509572     2.501928     2.494285     2.486642     2.478999
      2.471355     2.463712     2.456069     2.448426     2.440783     2.433139     2.425496     2.417853     2.410210     2.402566
      2.394923     2.387280     2.379637     2.371994     2.364350     2.356707     2.349064     2.341421     2.333777     2.326134
      2.318491     2.310848     2.303205     2.295561     2.287918     2.280275     2.272632     2.264988     2.257345     2.249702
      2.242059     2.234416     2.226772     2.219129     2.211486     2.203843     2.196199     2.188556     2.180913     2.173270
      2.165627     2.157983     2.150340     2.142697     2.135054     2.127410     2.119767     2.112124     2.104481     2.096838
      2.089194     2.081551     2.073908     2.066265     2.058621     2.050978     2.043335     2.035692     2.028049     2.020405
      2.012762     2.005119     1.997476     1.989833     1.982190     1.974546     1.966903     1.959260     1.951617     1.943974
      1.936331     1.928688     1.921045     1.913402     1.905759     1.898115     1.890472     1.882829     1.875186     1.867543
      1.859900     1.852257     1.844614     1.836971     1.829327     1.821684     1.814041     1.806398     1.798755     1.791112
      1.783469     1.775826     1.768183     1.760540     1.752896     1.745253     1.737610     1.729967     1.722324     1.714681
      1.707038     1.699395     1.691752     1.684108     1.676465     1.668822     1.661179     1.653536     1.645893     1.638250
      1.630607     1.622964     1.615321     1.607677     1.600034     1.592391     1.584748     1.577105     1.569462     1.561819
      1.554176     1.546533     1.538890     1.531246     1.523603     1.515960     1.508317     1.500674     1.493031     1.485388
      1.477745     1.470102     1.462458     1.454815     1.447172     1.439529     1.431886     1.424243     1.416600     1.408957
      1.401314     1.393671     1.386027     1.378384     1.370741     1.363098     1.355455     1.347812     1.340169     1.332526
      1.324883     1.317240     1.309596     1.301953     1.294310     1.286667     1.279024     1.271381     1.263738     1.256095
      1.248452     1.240808     1.233165     1.225522     1.217879     1.210236     1.202593     1.194950     1.187307     1.179664
      1.172021     1.164377     1.156734     1.149091     1.141448     1.133805     1.126162     1.118519     1.110876     1.103233
      1.095590     1.087946     1.080303     1.072660     1.065017     1.057374     1.049731     1.042088     1.034445     1.026802
      1.019158     1.011515     1.003872     0.996229     0.988586     0.980943     0.973300     0.965657     0.958014     0.950371
      0.942727     0.935084     0.927441     0.919798     0.912155     0.904512     0.896869     0.889226     0.881583     0.873940
      0.866296     0.858653     0.851010     0.843367     0.835724     0.828081     0.820438     0.812795     0.805152     0.797508
      0.789865     0.782222     0.774579     0.766936     0.759293     0.751650     0.744007     0.736364     0.728721     0.721077
      0.713434     0.705791     0.698148     0.690505     0.682862     0.675219     0.667576     0.659933     0.652290     0.644646
      0.637003     0.629360     0.621717     0.614074     0.606431     0.598788     0.591145     0.583502     0.575858     0.568215
      0.560572     0.552929     0.545286     0.537643     0.530000     0.522357     0.514714     0.507071     0.499427     0.491784
      0.484141     0.476498     0.468855     0.461212     0.453569     0.445925     0.438282     0.430639     0.422996     0.415353
      0.407710     0.400067     0.392424     0.384780     0.377137     0.369494     0.361851     0.354208     0.346565     0.338922
      0.331278     0.323635     0.315992     0.308349     0.300706     0.293063     0.285420     0.277777     0.270133     0.262490
      0.254847     0.247204     0.239561     0.231918     0.224275     0.216631     0.208988     0.201345
 NY phased data points follow
   3.76327E+00  4.81382E+00  6.93508E+00  4.59650E+00  2.99058E+00  1.62532E+00  7.14519E+00  6.06901E+00  5.98369E+00  1.24988E+00
   1.24971E+00  2.82698E+00  6.79504E+00  4.33715E+00  6.73459E-01  2.83422E+00  5.29397E-01  7.10103E+00  2.94560E+00  4.73397E+00
   3.70902E+00  2.16725E+00 -1.32816E-01  1.29799E+00  4.17690E+00  6.69762E-01  5.17564E+00  3.32912E+00  6.47493E-01  2.56677E+00
   6.17500E-01  7.65783E-01  2.55612E+00  1.34772E+00  3.67024E+00  6.08732E+00  1.27583E+00  2.95318E+00  5.79255E+00  3.15235E+00
   1.50176E+00  6.57611E+00  1.89866E+00  4.73143E-01  2.23650E+00  4.27737E+00  5.06494E+00  5.03433E+00  1.93812E+00  2.50273E+00
   6.05412E+00  2.57684E+00  3.38309E+00  5.02539E+00  3.32053E+00 -5.72355E-01  2.58659E+00 -5.87994E-01  3.13865E-01  4.49319E+00
   5.24856E+00  5.43762E+00  1.89489E+00  1.23913E+00  3.18518E+00  2.95529E+00 -5.31620E-01  2.94363E+00  3.93047E+00  4.28179E+00
   2.50976E+00  1.46548E+00  2.64236E+00  2.34408E+00  3.26977E+00  2.80962E+00  1.33774E+00 -1.64873E+00  1.68712E-01  2.46653E+00
   3.63480E+00  3.76846E+00  2.79729E+00  7.98144E-01  1.09860E+00 -1.08535E+00  2.23969E+00  2.85501E+00  3.09076E+00  5.22763E-01
   2.16601E+00 -7.85371E-01  1.62949E+00  2.59818E+00  3.45045E+00  6.94051E-01  8.44048E-01  1.06432E+00  1.47030E+00  3.43075E+00
   2.55692E+00  4.13865E+00  4.07855E+00  4.60825E+00  3.35647E+00  3.98455E+00  7.35506E+00  1.74369E+00 -9.77560E-01  3.93729E-01
   1.07049E+00  1.99208E+00  6.21844E-01  5.49646E+00  1.91450E+00  3.23102E+00  5.81530E+00  1.21467E+00  8.87343E-01  3.94907E-01
   7.91832E+00 -1.92572E+00  5.86487E+00  2.66488E+00  1.15427E+00  2.54127E+00  1.32295E+00  2.46390E+00  6.54688E+00  2.36776E+00
   6.07770E+00  2.28341E+00  4.09332E+00 -3.85911E+00  1.32482E+00  2.88093E+00  2.42504E+00  1.68296E+00  1.47894E+00  7.11523E-01
   1.62893E+00  3.85458E+00  1.84647E+00 -1.25922E+00  9.39519E-01  2.89015E+00  1.01360E+00  1.93720E+00  5.34770E+00  1.63289E-01
   1.07689E+00 -2.88865E+00 -3.81275E+00  2.50095E-01 -6.35565E-01  1.21822E+00  1.83760E+00 -2.84615E-01  1.47480E+00  1.27295E+00
  -9.37026E-01 -6.22430E-01  2.65198E+00 -1.02597E-01  2.02553E+00  1.75882E+00  7.06631E+00  2.31257E+00 -1.44382E-01  1.95603E+00
  -7.60101E-01  1.76351E+00 -2.69082E-01  2.35629E+00  1.66949E+00  3.78830E+00  2.36261E+00  2.23847E+00  3.17490E+00  1.56722E+00
   1.69082E+00  3.65520E+00  2.27554E+00  2.06395E+00  6.12828E-01  2.35057E+00  3.46790E+00  1.68657E+00 -1.01355E+00  2.91448E+00
   1.74444E+00  1.71340E+00  4.39044E+00  5.12399E+00 -2.05515E+00  3.05578E+00  9.27689E-01  1.12139E+00 -2.09971E+00  3.34255E+00
   2.49467E+00  3.49553E+00 -8.57520E-01 -1.74036E+00  1.91171E+00  2.56260E+00  1.69278E+00  3.83404E+00  1.71312E+00  1.17079E+00
   2.52809E+00  2.22605E+00  3.71385E+00  4.21276E+00  3.44945E+00  3.72825E+00  2.22496E+00  2.62943E+00  6.73208E+00  5.94710E+00
   8.32587E-01  4.46536E+00  4.26487E+00  1.77240E+00  4.75035E+00  1.36126E+00  1.63714E+00  6.14904E+00  6.82116E+00  1.16642E+00
   2.00087E+00  4.98600E+00  3.92996E+00  7.97043E-01  3.78432E+00 -8.40032E-01  4.99477E+00  3.39880E+00  4.82216E+00  2.09458E+00
   4.53285E+00  4.03623E+00  5.53611E-01  5.75319E+00  1.06330E+00  6.56356E+00  3.13847E+00  4.94922E+00  3.88712E+00  5.19632E-01
   7.10181E+00  5.99639E+00  2.22669E+00  8.28878E+00  7.56548E+00  9.58342E+00  6.86934E+00  6.65551E+00  9.70689E+00  8.28888E+00
   1.08731E+01  1.01011E+01  7.62275E+00  8.92168E+00  9.10113E+00  4.65647E+00  5.07649E+00  1.52697E+00 -6.93310E-01  3.57640E+00
   8.93846E+00  6.18388E+00  4.27266E+00  3.96743E+00  3.89107E+00  7.59525E+00  3.84789E+00  1.30785E+00  3.67345E+00  6.54500E+00
   7.07552E+00  2.79972E+00  2.80600E+00  4.27607E+00  4.42745E+00  4.12077E+00  4.96541E+00  4.55365E+00  6.94004E+00  6.01108E+00
   5.51673E+00  5.37572E+00  2.78426E+00  5.76066E+00  3.37456E+00  1.54556E+00  8.17199E+00  4.63390E+00  4.06400E+00  5.37914E+00
   2.96639E+00  1.04935E-01  7.13343E+00  6.05355E+00  9.04156E-01  5.25112E+00  7.12862E+00  2.09602E+00  3.00061E+00  3.69258E+00
   5.94180E+00  3.32891E+00  7.24484E+00  7.20477E+00  5.42715E+00  7.66178E+00  4.07889E+00  7.17910E+00  1.95564E+00  5.74811E+00
   3.16310E-01  3.26218E+00 -1.18009E+00 -4.86149E-01  1.72892E+00  1.61797E+00  5.82374E-01 -5.64274E-01  1.90942E-01 -1.34067E-01
   5.37885E+00  1.06710E+00 -1.24528E+00  2.04628E-01  4.11900E+00  2.31777E+00  1.32985E+00  2.97744E+00  3.75501E+00  3.18391E+00
   5.89832E+00  1.89272E+00  6.35758E+00  5.81889E+00  7.45878E+00  7.42810E+00  8.57310E+00  7.72365E+00  1.11102E+01  1.10678E+01
   1.29492E+01  1.42678E+01  1.40645E+01  1.33151E+01  1.59239E+01  1.26610E+01  1.17259E+01  1.67494E+01  1.28782E+01  1.32033E+01
   1.25384E+01  1.61023E+01  1.35354E+01  1.18790E+01  1.62372E+01  1.65877E+01  1.40535E+01  1.84387E+01  1.38501E+01  1.38752E+01
   1.25604E+01  1.49824E+01  1.26866E+01  1.65849E+01  1.37952E+01  1.39122E+01  9.91642E+00  1.00850E+01  1.39967E+01  1.26890E+01
   1.10763E+01  1.32051E+01  1.25941E+01  1.31547E+01  1.06414E+01  9.20454E+00  1.46112E+01  1.38458E+01  8.56449E+00  8.77498E+00
   1.05860E+01  6.29929E+00  9.18230E+00  7.26218E+00  9.39262E+00  1.09719E+01  1.20659E+01  8.03728E+00  1.20145E+01  9.12852E+00
   8.26216E+00  9.66426E+00  9.39482E+00  1.06963E+01  6.62720E+00  1.05650E+01  5.11366E+00  5.85268E+00  4.47010E+00  7.22165E+00
   5.01616E+00  4.81319E+00  4.70038E+00  4.08964E+00  6.02715E+00  4.42544E+00  3.34229E+00  7.48477E-01  2.55768E+00  1.27260E+00
   1.68270E+00 -5.99060E-01  2.27502E+00  2.39142E-01  3.13202E+00  1.28602E+00  2.29423E+00  5.47916E-02  2.46821E+00 -3.86968E-01
   1.21856E+00  1.48632E+00  5.90674E-01  2.83735E+00 -9.50379E-01 -3.43181E+00  5.87066E-01 -4.04770E+00 -1.63794E+00 -2.46304E+00
  -3.02671E-01 -2.87224E+00 -2.09810E+00 -3.07583E+00 -1.68558E+00 -4.18309E+00 -5.82403E+00 -5.97091E+00 -5.87328E+00 -3.20683E+00
  -7.21854E+00 -3.47793E+00 -4.19428E+00 -1.03609E+01 -3.01944E+00 -8.58986E+00 -6.22820E+00 -5.10674E+00 -4.87078E+00 -4.75467E+00
  -8.58913E+00 -4.84775E+00 -7.01468E+00 -1.03710E+01 -8.83509E+00 -5.32359E+00 -4.34045E+00 -2.86927E+00 -8.50704E+00 -8.48927E+00
  -7.60423E+00 -6.45583E+00 -7.58516E+00 -1.03861E+01 -6.12207E+00 -1.24687E+01 -5.47383E+00 -6.19921E-01 -6.93074E+00 -6.02106E+00
  -7.25704E+00 -6.57193E+00 -4.30788E+00 -6.06027E+00 -5.76278E+00 -8.87061E+00 -4.97215E+00 -7.89442E+00 -7.14736E+00 -8.37120E+00
  -6.97606E+00 -6.92892E+00 -6.27132E+00 -7.09486E+00 -5.07047E+00 -5.79466E+00 -5.12923E+00 -3.18491E+00
 NY points of the fit to the data follow
   3.87208E+00  3.73409E+00  3.65690E+00  3.62435E+00  3.60961E+00  3.63690E+00  3.73750E+00  3.87664E+00  3.99771E+00  4.07432E+00
   4.10630E+00  4.09408E+00  4.00286E+00  3.81668E+00  3.62820E+00  3.53207E+00  3.47596E+00  3.42171E+00  3.38372E+00  3.35032E+00
   3.30871E+00  3.27557E+00  3.27645E+00  3.30693E+00  3.32763E+00  3.30656E+00  3.24313E+00  3.15917E+00  3.07079E+00  2.99415E+00
   2.96335E+00  3.00846E+00  3.11446E+00  3.22988E+00  3.32174E+00  3.38626E+00  3.39391E+00  3.31529E+00  3.17658E+00  3.04990E+00
   2.96968E+00  2.89849E+00  2.81481E+00  2.78838E+00  2.92400E+00  3.22032E+00  3.54832E+00  3.78197E+00  3.90984E+00  3.95018E+00
   3.84217E+00  3.51614E+00  3.04943E+00  2.66891E+00  2.50539E+00  2.49008E+00  2.54183E+00  2.63841E+00  2.76796E+00  2.89152E+00
   2.97135E+00  3.00410E+00  2.98960E+00  2.90012E+00  2.73552E+00  2.56555E+00  2.45097E+00  2.40590E+00  2.43224E+00  2.50713E+00
   2.59561E+00  2.65859E+00  2.68426E+00  2.68843E+00  2.68293E+00  2.65762E+00  2.59069E+00  2.50581E+00  2.44602E+00  2.39842E+00
   2.34985E+00  2.31091E+00  2.29717E+00  2.30189E+00  2.29357E+00  2.24019E+00  2.13866E+00  2.01957E+00  1.91177E+00  1.81565E+00
   1.74067E+00  1.73275E+00  1.81611E+00  1.93941E+00  2.03870E+00  2.08513E+00  2.08475E+00  2.03401E+00  1.96836E+00  2.13269E+00
   2.66843E+00  3.35744E+00  3.94370E+00  4.33799E+00  4.58239E+00  4.61860E+00  4.15069E+00  3.17908E+00  2.34609E+00  2.07776E+00
   2.03147E+00  2.01915E+00  2.02282E+00  2.03367E+00  2.05089E+00  2.06928E+00  2.08587E+00  2.10010E+00  2.11476E+00  2.13209E+00
   2.15132E+00  2.16606E+00  2.18149E+00  2.28616E+00  2.54154E+00  2.86252E+00  3.13348E+00  3.31728E+00  3.43473E+00  3.46746E+00
   3.30599E+00  2.93214E+00  2.58210E+00  2.44671E+00  2.40876E+00  2.38258E+00  2.36413E+00  2.35505E+00  2.35104E+00  2.34348E+00
   2.32838E+00  2.31133E+00  2.29937E+00  2.28997E+00  2.27854E+00  2.26687E+00  2.25861E+00  2.25110E+00  2.23574E+00  2.21036E+00
   2.17685E+00  2.13847E+00  2.10182E+00  2.06762E+00  2.03601E+00  2.01228E+00  1.99454E+00  1.96950E+00  1.92803E+00  1.87127E+00
   1.80130E+00  1.73020E+00  1.66604E+00  1.60744E+00  1.57166E+00  1.56625E+00  1.55427E+00  1.50184E+00  1.41595E+00  1.32054E+00
   1.24343E+00  1.19511E+00  1.14604E+00  1.08148E+00  1.01556E+00  9.55989E-01  9.00407E-01  8.49600E-01  8.00253E-01  7.62038E-01
   7.53523E-01  7.56779E-01  7.36613E-01  6.96704E-01  6.69776E-01  6.82035E-01  7.32994E-01  7.81643E-01  8.01752E-01  8.07259E-01
   8.30092E-01  8.70835E-01  8.91928E-01  8.77236E-01  8.55144E-01  8.36962E-01  8.18683E-01  8.15140E-01  8.29813E-01  8.43738E-01
   8.52957E-01  8.74561E-01  9.26430E-01  9.98259E-01  1.05369E+00  1.08688E+00  1.09536E+00  1.06011E+00  9.89704E-01  9.17780E-01
   8.75606E-01  8.80805E-01  9.69438E-01  1.15571E+00  1.39259E+00  1.60484E+00  1.76583E+00  1.89298E+00  1.94993E+00  1.87311E+00
   1.70622E+00  1.59227E+00  1.61995E+00  1.74145E+00  1.91255E+00  2.13738E+00  2.41662E+00  2.68394E+00  2.84818E+00  2.91609E+00
   2.96269E+00  3.02765E+00  3.11406E+00  3.22514E+00  3.35913E+00  3.51900E+00  3.69053E+00  3.84986E+00  3.99098E+00  4.10634E+00
   4.20854E+00  4.33354E+00  4.49062E+00  4.66389E+00  4.84399E+00  5.03788E+00  5.24214E+00  5.42842E+00  5.55411E+00  5.62165E+00
   5.66991E+00  5.71225E+00  5.88127E+00  6.30105E+00  6.84134E+00  7.24721E+00  7.55594E+00  8.17149E+00  9.09595E+00  9.71298E+00
   9.64080E+00  9.26533E+00  9.04156E+00  8.55596E+00  7.24538E+00  5.48348E+00  4.31222E+00  3.89999E+00  3.66466E+00  3.47711E+00
   3.32889E+00  3.20882E+00  3.11668E+00  3.05347E+00  3.00857E+00  2.97425E+00  2.94876E+00  2.93317E+00  2.92735E+00  2.93854E+00
   2.98135E+00  3.06231E+00  3.17426E+00  3.30747E+00  3.46003E+00  3.63111E+00  3.81419E+00  4.00085E+00  4.19120E+00  4.38922E+00
   4.59201E+00  4.79318E+00  4.98853E+00  5.17252E+00  5.34041E+00  5.48431E+00  5.59408E+00  5.66759E+00  5.70937E+00  5.71960E+00
   5.69652E+00  5.64011E+00  5.55279E+00  5.43707E+00  5.29277E+00  5.12021E+00  4.92424E+00  4.70999E+00  4.48220E+00  4.24598E+00
   4.00606E+00  3.76682E+00  3.53238E+00  3.30645E+00  3.09235E+00  2.89296E+00  2.71068E+00  2.54757E+00  2.40536E+00  2.28539E+00
   2.18872E+00  2.11629E+00  2.07060E+00  2.06538E+00  2.10281E+00  2.15161E+00  2.18430E+00  2.20347E+00  2.22524E+00  2.25383E+00
   2.27122E+00  2.29517E+00  2.41681E+00  2.68418E+00  3.03073E+00  3.39971E+00  3.79076E+00  4.21410E+00  4.65603E+00  5.06956E+00
   5.44648E+00  5.85132E+00  6.32036E+00  6.83449E+00  7.38358E+00  7.96210E+00  8.56503E+00  9.18697E+00  9.82186E+00  1.04629E+01
   1.11026E+01  1.17328E+01  1.23447E+01  1.29294E+01  1.34777E+01  1.39806E+01  1.44298E+01  1.48176E+01  1.51372E+01  1.53834E+01
   1.55524E+01  1.56421E+01  1.56524E+01  1.55851E+01  1.54439E+01  1.52346E+01  1.49645E+01  1.46424E+01  1.42787E+01  1.38842E+01
   1.34709E+01  1.30504E+01  1.26345E+01  1.22345E+01  1.18603E+01  1.15210E+01  1.12238E+01  1.09744E+01  1.07762E+01  1.06306E+01
   1.05368E+01  1.04922E+01  1.04917E+01  1.05288E+01  1.05954E+01  1.06824E+01  1.07798E+01  1.08774E+01  1.09652E+01  1.10339E+01
   1.10751E+01  1.10821E+01  1.10496E+01  1.09743E+01  1.08549E+01  1.06919E+01  1.04875E+01  1.02454E+01  9.97047E+00  9.66827E+00
   9.34477E+00  9.00589E+00  8.65718E+00  8.30351E+00  7.94884E+00  7.59613E+00  7.24728E+00  6.90312E+00  6.56354E+00  6.22768E+00
   5.89409E+00  5.56100E+00  5.22650E+00  4.88875E+00  4.54617E+00  4.19758E+00  3.84229E+00  3.48017E+00  3.11164E+00  2.73765E+00
   2.35957E+00  1.97918E+00  1.59853E+00  1.21982E+00  8.45316E-01  4.77219E-01  1.17605E-01 -2.31639E-01 -5.68887E-01 -8.92795E-01
  -1.20234E+00 -1.49679E+00 -1.77571E+00 -2.03893E+00 -2.28652E+00 -2.51876E+00 -2.73610E+00 -2.93913E+00 -3.12853E+00 -3.30504E+00
  -3.46946E+00 -3.62260E+00 -3.76526E+00 -3.89825E+00 -4.02231E+00 -4.13817E+00 -4.24651E+00 -4.34797E+00 -4.44315E+00 -4.53259E+00
  -4.61678E+00 -4.69617E+00 -4.77119E+00 -4.84221E+00 -4.90958E+00 -4.97360E+00 -5.03456E+00 -5.09270E+00 -5.14826E+00 -5.20145E+00
  -5.25246E+00 -5.30145E+00 -5.34859E+00 -5.39400E+00 -5.43783E+00 -5.48019E+00 -5.52119E+00 -5.56091E+00 -5.59946E+00 -5.63690E+00
  -5.67333E+00 -5.70880E+00 -5.74338E+00 -5.77713E+00 -5.81009E+00 -5.84232E+00 -5.87386E+00 -5.90476E+00 -5.93506E+00 -5.96478E+00
  -5.99396E+00 -6.02263E+00 -6.05083E+00 -6.07858E+00 -6.10590E+00 -6.13281E+00 -6.15934E+00 -6.18550E+00 -6.21133E+00 -6.23682E+00
  -6.26200E+00 -6.28688E+00 -6.31148E+00 -6.33582E+00 -6.35989E+00 -6.38372E+00 -6.40731E+00 -6.43067E+00
 NY background values follow
     3.604E+00    3.584E+00    3.565E+00    3.545E+00    3.525E+00    3.505E+00    3.485E+00    3.466E+00    3.446E+00    3.426E+00
     3.406E+00    3.386E+00    3.367E+00    3.347E+00    3.327E+00    3.307E+00    3.287E+00    3.268E+00    3.248E+00    3.228E+00
     3.208E+00    3.188E+00    3.168E+00    3.149E+00    3.129E+00    3.109E+00    3.089E+00    3.069E+00    3.049E+00    3.030E+00
     3.010E+00    2.990E+00    2.970E+00    2.950E+00    2.930E+00    2.911E+00    2.891E+00    2.871E+00    2.851E+00    2.831E+00
     2.811E+00    2.791E+00    2.772E+00    2.752E+00    2.732E+00    2.712E+00    2.692E+00    2.672E+00    2.652E+00    2.632E+00
     2.613E+00    2.593E+00    2.573E+00    2.553E+00    2.533E+00    2.513E+00    2.493E+00    2.473E+00    2.454E+00    2.434E+00
     2.414E+00    2.394E+00    2.374E+00    2.354E+00    2.334E+00    2.314E+00    2.294E+00    2.275E+00    2.255E+00    2.235E+00
     2.215E+00    2.195E+00    2.175E+00    2.155E+00    2.135E+00    2.115E+00    2.096E+00    2.076E+00    2.056E+00    2.036E+00
     2.016E+00    1.996E+00    1.976E+00    1.956E+00    1.936E+00    1.916E+00    1.896E+00    1.877E+00    1.857E+00    1.837E+00
     1.817E+00    1.797E+00    1.777E+00    1.757E+00    1.737E+00    1.717E+00    1.697E+00    1.677E+00    1.657E+00    1.638E+00
     1.618E+00    1.598E+00    1.578E+00    1.558E+00    1.538E+00    1.518E+00    1.498E+00    1.478E+00    1.458E+00    1.438E+00
     1.418E+00    1.398E+00    1.378E+00    1.359E+00    1.339E+00    1.319E+00    1.299E+00    1.279E+00    1.259E+00    1.239E+00
     1.219E+00    1.199E+00    1.179E+00    1.159E+00    1.139E+00    1.119E+00    1.099E+00    1.079E+00    1.059E+00    1.040E+00
     1.020E+00    9.997E-01    9.797E-01    9.598E-01    9.399E-01    9.199E-01    9.000E-01    8.800E-01    8.601E-01    8.402E-01
     8.202E-01    8.003E-01    7.803E-01    7.604E-01    7.404E-01    7.205E-01    7.006E-01    6.806E-01    6.607E-01    6.407E-01
     6.208E-01    6.008E-01    5.809E-01    5.609E-01    5.410E-01    5.211E-01    5.011E-01    4.812E-01    4.612E-01    4.413E-01
     4.213E-01    4.014E-01    3.815E-01    3.615E-01    3.416E-01    3.216E-01    3.017E-01    2.817E-01    2.618E-01    2.418E-01
     2.219E-01    2.020E-01    1.820E-01    1.621E-01    1.421E-01    1.222E-01    1.022E-01    8.231E-02    6.236E-02    4.242E-02
     2.248E-02    2.540E-03   -1.740E-02   -3.734E-02   -5.728E-02   -7.722E-02   -9.716E-02   -1.171E-01   -1.370E-01   -1.570E-01
    -1.769E-01   -1.969E-01   -2.168E-01   -2.367E-01   -2.567E-01   -2.766E-01   -2.965E-01   -3.165E-01   -3.364E-01   -3.563E-01
    -3.763E-01   -3.962E-01   -4.161E-01   -4.361E-01   -4.560E-01   -4.759E-01   -4.959E-01   -5.158E-01   -5.357E-01   -5.557E-01
    -5.756E-01   -5.955E-01   -6.154E-01   -6.354E-01   -6.553E-01   -6.752E-01   -6.951E-01   -7.151E-01   -7.350E-01   -7.549E-01
    -7.748E-01   -7.947E-01   -8.147E-01   -8.346E-01   -8.545E-01   -8.744E-01   -8.943E-01   -9.142E-01   -9.342E-01   -9.541E-01
    -9.740E-01   -9.939E-01   -1.014E+00   -1.034E+00   -1.054E+00   -1.074E+00   -1.093E+00   -1.113E+00   -1.133E+00   -1.153E+00
    -1.173E+00   -1.193E+00   -1.213E+00   -1.233E+00   -1.253E+00   -1.273E+00   -1.292E+00   -1.312E+00   -1.332E+00   -1.352E+00
    -1.372E+00   -1.392E+00   -1.412E+00   -1.432E+00   -1.452E+00   -1.471E+00   -1.491E+00   -1.511E+00   -1.531E+00   -1.551E+00
    -1.571E+00   -1.591E+00   -1.611E+00   -1.631E+00   -1.650E+00   -1.670E+00   -1.690E+00   -1.710E+00   -1.730E+00   -1.750E+00
    -1.770E+00   -1.789E+00   -1.809E+00   -1.829E+00   -1.849E+00   -1.869E+00   -1.889E+00   -1.909E+00   -1.928E+00   -1.948E+00
    -1.968E+00   -1.988E+00   -2.008E+00   -2.028E+00   -2.048E+00   -2.067E+00   -2.087E+00   -2.107E+00   -2.127E+00   -2.147E+00
    -2.167E+00   -2.186E+00   -2.206E+00   -2.226E+00   -2.246E+00   -2.266E+00   -2.286E+00   -2.305E+00   -2.325E+00   -2.345E+00
    -2.365E+00   -2.385E+00   -2.404E+00   -2.424E+00   -2.444E+00   -2.464E+00   -2.484E+00   -2.504E+00   -2.523E+00   -2.543E+00
    -2.563E+00   -2.583E+00   -2.603E+00   -2.622E+00   -2.642E+00   -2.662E+00   -2.682E+00   -2.701E+00   -2.721E+00   -2.741E+00
    -2.761E+00   -2.781E+00   -2.800E+00   -2.820E+00   -2.840E+00   -2.860E+00   -2.879E+00   -2.899E+00   -2.919E+00   -2.939E+00
    -2.959E+00   -2.978E+00   -2.998E+00   -3.018E+00   -3.038E+00   -3.057E+00   -3.077E+00   -3.097E+00   -3.117E+00   -3.136E+00
    -3.156E+00   -3.176E+00   -3.195E+00   -3.215E+00   -3.235E+00   -3.255E+00   -3.274E+00   -3.294E+00   -3.314E+00   -3.334E+00
    -3.353E+00   -3.373E+00   -3.393E+00   -3.412E+00   -3.432E+00   -3.452E+00   -3.471E+00   -3.491E+00   -3.511E+00   -3.531E+00
    -3.550E+00   -3.570E+00   -3.590E+00   -3.609E+00   -3.629E+00   -3.649E+00   -3.668E+00   -3.688E+00   -3.708E+00   -3.727E+00
    -3.747E+00   -3.767E+00   -3.786E+00   -3.806E+00   -3.826E+00   -3.845E+00   -3.865E+00   -3.885E+00   -3.904E+00   -3.924E+00
    -3.943E+00   -3.963E+00   -3.983E+00   -4.002E+00   -4.022E+00   -4.042E+00   -4.061E+00   -4.081E+00   -4.100E+00   -4.120E+00
    -4.140E+00   -4.159E+00   -4.179E+00   -4.198E+00   -4.218E+00   -4.238E+00   -4.257E+00   -4.277E+00   -4.296E+00   -4.316E+00
    -4.336E+00   -4.355E+00   -4.375E+00   -4.394E+00   -4.414E+00   -4.433E+00   -4.453E+00   -4.472E+00   -4.492E+00   -4.512E+00
    -4.531E+00   -4.551E+00   -4.570E+00   -4.590E+00   -4.609E+00   -4.629E+00   -4.648E+00   -4.668E+00   -4.687E+00   -4.707E+00
    -4.726E+00   -4.746E+00   -4.765E+00   -4.785E+00   -4.804E+00   -4.824E+00   -4.843E+00   -4.863E+00   -4.882E+00   -4.902E+00
    -4.921E+00   -4.941E+00   -4.960E+00   -4.980E+00   -4.999E+00   -5.019E+00   -5.038E+00   -5.058E+00   -5.077E+00   -5.097E+00
    -5.116E+00   -5.135E+00   -5.155E+00   -5.174E+00   -5.194E+00   -5.213E+00   -5.233E+00   -5.252E+00   -5.271E+00   -5.291E+00
    -5.310E+00   -5.330E+00   -5.349E+00   -5.368E+00   -5.388E+00   -5.407E+00   -5.427E+00   -5.446E+00   -5.465E+00   -5.485E+00
    -5.504E+00   -5.523E+00   -5.543E+00   -5.562E+00   -5.582E+00   -5.601E+00   -5.620E+00   -5.640E+00   -5.659E+00   -5.678E+00
    -5.698E+00   -5.717E+00   -5.736E+00   -5.756E+00   -5.775E+00   -5.794E+00   -5.813E+00   -5.833E+00   -5.852E+00   -5.871E+00
    -5.891E+00   -5.910E+00   -5.929E+00   -5.949E+00   -5.968E+00   -5.987E+00   -6.006E+00   -6.026E+00   -6.045E+00   -6.064E+00
    -6.083E+00   -6.103E+00   -6.122E+00   -6.141E+00   -6.160E+00   -6.180E+00   -6.199E+00   -6.218E+00
 Ala      Conc. = 1.43E+01
