 LCModel (Version 6.3-1L) Copyright: S.W. Provencher.          Ref.: Magn. Reson. Med. 30:672-679 (1993).                
 Slice#3 Row#4 Col#2  PD_05_press_2_raw_act
 36 lines in following concentration table = NCONC+1
    Conc.  %SD /Cr+PCr  Metabolite                                         
   58.577 185% 9.0E-02 Ala                                                 
  123.425 104%   0.190 Asp                                                 
  111.253 170%   0.171 Cr                                                  
  539.117  37%   0.829 PCr                                                 
   57.686 134% 8.9E-02 GABA                                                
   58.997 134% 9.1E-02 Glc                                                 
  108.044 196%   0.166 Gln                                                 
  821.639  29%   1.263 Glu                                                 
  188.337  13%   0.290 GPC                                                 
    0.000 999%   0.000 PCh                                                 
  483.971  18%   0.744 GSH                                                 
  540.730  51%   0.831 Ins                                                 
  367.038  37%   0.564 Lac                                                 
 1.02E+03   8%   1.573 NAA                                                 
    0.000 999%   0.000 NAAG                                                
   25.467  86% 3.9E-02 Scyllo                                              
  131.251  96%   0.202 Tau                                                 
  137.379  84%   0.211 -CrCH2                                              
  188.337  13%   0.290 GPC+PCh                                             
 1.02E+03   8%   1.573 NAA+NAAG                                            
  650.370  11%   1.000 Cr+PCr                                              
  929.684  33%   1.429 Glu+Gln                                             
    0.000 999%   0.000 Lip13a                                              
  883.146  23%   1.358 Lip13b                                              
  239.613  54%   0.368 Lip09                                               
 1.08E+03  22%   1.667 MM09                                                
  104.147  85%   0.160 Lip20                                               
    0.000 999%   0.000 MM20                                                
    0.000 999%   0.000 MM12                                                
 3.28E+03  17%   5.047 MM14                                                
 2.51E+03  18%   3.856+MM17                                                
  883.146  23%   1.358 Lip13a+Lip13b                                       
 4.17E+03  14%   6.405 MM14+Lip13a+Lip13b+MM12                             
 1.32E+03  19%   2.036 MM09+Lip09                                          
  104.147  85%   0.160 MM20+Lip20                                          
   6 lines in following misc. output table
  FWHM = 0.038 ppm    S/N =   4                                            
  Data shift = 0.031 ppm                                                   
  Ph: -15 deg     -25.7 deg/ppm                                            
  alphaB,S = 4.3E-01,   6.4E+00                                            
   14 spline knots.   Ns = 5(1)                                            
  ( 7) 1 infls.   ( 4) 2 extrs.                                            
  498 points on ppm-axis = NY
      4.000000     3.992357     3.984714     3.977070     3.969427     3.961784     3.954141     3.946497     3.938854     3.931211
      3.923568     3.915925     3.908281     3.900638     3.892995     3.885352     3.877708     3.870065     3.862422     3.854779
      3.847136     3.839492     3.831849     3.824206     3.816563     3.808919     3.801276     3.793633     3.785990     3.778347
      3.770703     3.763060     3.755417     3.747774     3.740130     3.732487     3.724844     3.717201     3.709558     3.701914
      3.694271     3.686628     3.678985     3.671341     3.663698     3.656055     3.648412     3.640769     3.633125     3.625482
      3.617839     3.610196     3.602552     3.594909     3.587266     3.579623     3.571980     3.564336     3.556693     3.549050
      3.541407     3.533763     3.526120     3.518477     3.510834     3.503191     3.495547     3.487904     3.480261     3.472618
      3.464974     3.457331     3.449688     3.442045     3.434402     3.426758     3.419115     3.411472     3.403829     3.396185
      3.388542     3.380899     3.373256     3.365613     3.357969     3.350326     3.342683     3.335040     3.327396     3.319753
      3.312110     3.304467     3.296824     3.289180     3.281537     3.273894     3.266251     3.258607     3.250964     3.243321
      3.235678     3.228034     3.220391     3.212748     3.205105     3.197462     3.189818     3.182175     3.174532     3.166889
      3.159245     3.151602     3.143959     3.136316     3.128673     3.121029     3.113386     3.105743     3.098100     3.090456
      3.082813     3.075170     3.067527     3.059884     3.052240     3.044597     3.036954     3.029311     3.021667     3.014024
      3.006381     2.998738     2.991095     2.983451     2.975808     2.968165     2.960522     2.952878     2.945235     2.937592
      2.929949     2.922306     2.914662     2.907019     2.899376     2.891733     2.884089     2.876446     2.868803     2.861160
      2.853517     2.845873     2.838230     2.830587     2.822944     2.815300     2.807657     2.800014     2.792371     2.784728
      2.777084     2.769441     2.761798     2.754155     2.746511     2.738868     2.731225     2.723582     2.715939     2.708295
      2.700652     2.693009     2.685366     2.677722     2.670079     2.662436     2.654793     2.647150     2.639506     2.631863
      2.624220     2.616577     2.608933     2.601290     2.593647     2.586004     2.578361     2.570717     2.563074     2.555431
      2.547788     2.540144     2.532501     2.524858     2.517215     2.509572     2.501928     2.494285     2.486642     2.478999
      2.471355     2.463712     2.456069     2.448426     2.440783     2.433139     2.425496     2.417853     2.410210     2.402566
      2.394923     2.387280     2.379637     2.371994     2.364350     2.356707     2.349064     2.341421     2.333777     2.326134
      2.318491     2.310848     2.303205     2.295561     2.287918     2.280275     2.272632     2.264988     2.257345     2.249702
      2.242059     2.234416     2.226772     2.219129     2.211486     2.203843     2.196199     2.188556     2.180913     2.173270
      2.165627     2.157983     2.150340     2.142697     2.135054     2.127410     2.119767     2.112124     2.104481     2.096838
      2.089194     2.081551     2.073908     2.066265     2.058621     2.050978     2.043335     2.035692     2.028049     2.020405
      2.012762     2.005119     1.997476     1.989833     1.982190     1.974546     1.966903     1.959260     1.951617     1.943974
      1.936331     1.928688     1.921045     1.913402     1.905759     1.898115     1.890472     1.882829     1.875186     1.867543
      1.859900     1.852257     1.844614     1.836971     1.829327     1.821684     1.814041     1.806398     1.798755     1.791112
      1.783469     1.775826     1.768183     1.760540     1.752896     1.745253     1.737610     1.729967     1.722324     1.714681
      1.707038     1.699395     1.691752     1.684108     1.676465     1.668822     1.661179     1.653536     1.645893     1.638250
      1.630607     1.622964     1.615321     1.607677     1.600034     1.592391     1.584748     1.577105     1.569462     1.561819
      1.554176     1.546533     1.538890     1.531246     1.523603     1.515960     1.508317     1.500674     1.493031     1.485388
      1.477745     1.470102     1.462458     1.454815     1.447172     1.439529     1.431886     1.424243     1.416600     1.408957
      1.401314     1.393671     1.386027     1.378384     1.370741     1.363098     1.355455     1.347812     1.340169     1.332526
      1.324883     1.317240     1.309596     1.301953     1.294310     1.286667     1.279024     1.271381     1.263738     1.256095
      1.248452     1.240808     1.233165     1.225522     1.217879     1.210236     1.202593     1.194950     1.187307     1.179664
      1.172021     1.164377     1.156734     1.149091     1.141448     1.133805     1.126162     1.118519     1.110876     1.103233
      1.095590     1.087946     1.080303     1.072660     1.065017     1.057374     1.049731     1.042088     1.034445     1.026802
      1.019158     1.011515     1.003872     0.996229     0.988586     0.980943     0.973300     0.965657     0.958014     0.950371
      0.942727     0.935084     0.927441     0.919798     0.912155     0.904512     0.896869     0.889226     0.881583     0.873940
      0.866296     0.858653     0.851010     0.843367     0.835724     0.828081     0.820438     0.812795     0.805152     0.797508
      0.789865     0.782222     0.774579     0.766936     0.759293     0.751650     0.744007     0.736364     0.728721     0.721077
      0.713434     0.705791     0.698148     0.690505     0.682862     0.675219     0.667576     0.659933     0.652290     0.644646
      0.637003     0.629360     0.621717     0.614074     0.606431     0.598788     0.591145     0.583502     0.575858     0.568215
      0.560572     0.552929     0.545286     0.537643     0.530000     0.522357     0.514714     0.507071     0.499427     0.491784
      0.484141     0.476498     0.468855     0.461212     0.453569     0.445925     0.438282     0.430639     0.422996     0.415353
      0.407710     0.400067     0.392424     0.384780     0.377137     0.369494     0.361851     0.354208     0.346565     0.338922
      0.331278     0.323635     0.315992     0.308349     0.300706     0.293063     0.285420     0.277777     0.270133     0.262490
      0.254847     0.247204     0.239561     0.231918     0.224275     0.216631     0.208988     0.201345
 NY phased data points follow
  -6.20359E+01 -6.07961E+01 -4.92806E+01 -4.72437E+01 -4.78459E+01 -4.56137E+01 -4.74192E+01 -3.61924E+01 -3.17480E+01 -1.92855E+01
  -2.13402E+01 -2.56330E+01 -3.11408E+01 -3.09473E+01 -3.14770E+01 -2.77969E+01 -2.87695E+01 -2.78974E+01 -2.57355E+01 -2.17728E+01
  -2.13659E+01 -2.35503E+01 -2.88532E+01 -2.26620E+01 -2.36247E+01 -2.55625E+01 -1.92861E+01 -1.18332E+01 -1.80826E+01 -4.78323E+00
  -2.69396E+00 -9.95616E-01 -7.02033E+00 -8.19276E+00 -1.36608E+01 -9.11957E+00 -1.12786E+01 -6.33409E+00 -8.23623E+00 -1.10161E+01
  -8.18165E+00 -5.48506E+00 -9.51815E+00 -6.10957E+00 -2.19261E+00 -4.49223E+00 -9.98759E+00  5.27960E+00  5.18463E-01  3.77468E+00
  -1.12897E+00 -2.75989E+00  1.71525E+00 -3.24421E+00 -5.78692E+00  8.08111E+00 -2.35338E+00 -3.86657E+00  4.48440E+00  4.40186E+00
   1.50781E+00  4.89493E+00 -1.00947E+00  1.08381E+01 -3.24210E+00  5.71038E+00  5.30702E+00  8.32361E+00 -2.06102E+00 -1.64601E+00
   4.00314E+00  1.81050E+01  4.05798E+00  1.56891E+01  1.69255E+01  1.54084E+01  8.17459E+00  1.04085E+01  1.28439E+01  1.22911E+01
   1.10525E+01  1.23928E+01  1.72116E+01  1.91792E+01  2.17664E+01  2.20004E+01  1.52497E+01  2.16289E+01  9.72705E+00  1.39878E+01
   1.02181E+01  1.47407E+01  1.84599E+01  2.61427E+01  1.33171E+01  1.85028E+01  2.07806E+01  2.67017E+01  2.19087E+01  3.11069E+01
   3.07236E+01  4.00347E+01  4.24776E+01  4.11681E+01  4.44095E+01  4.20359E+01  4.24197E+01  3.67145E+01  2.84475E+01  2.17016E+01
   2.47733E+01  2.69191E+01  2.38545E+01  2.19892E+01  2.54156E+01  3.01304E+01  2.79297E+01  2.96440E+01  3.33959E+01  2.09254E+01
   2.53904E+01  3.10301E+01  2.71358E+01  3.14377E+01  4.04479E+01  5.12315E+01  5.99795E+01  5.08799E+01  6.65932E+01  5.21813E+01
   5.18137E+01  3.81318E+01  3.53370E+01  4.17631E+01  3.31754E+01  3.79891E+01  2.67233E+01  2.80570E+01  3.27846E+01  3.45231E+01
   3.19075E+01  2.34701E+01  3.67373E+01  3.86454E+01  3.67168E+01  3.53706E+01  3.33113E+01  3.61713E+01  2.70811E+01  3.74557E+01
   4.00762E+01  3.17755E+01  3.82243E+01  4.15937E+01  2.98731E+01  4.30616E+01  4.07585E+01  3.66209E+01  3.88504E+01  3.45729E+01
   3.84222E+01  2.83870E+01  2.72715E+01  4.52727E+01  3.58031E+01  3.38455E+01  3.94179E+01  4.00563E+01  3.94299E+01  4.33247E+01
   5.22233E+01  4.59069E+01  3.31766E+01  4.27141E+01  3.50075E+01  3.81860E+01  4.29250E+01  4.43599E+01  3.21062E+01  4.18357E+01
   3.36447E+01  3.81727E+01  3.12395E+01  3.34762E+01  3.32087E+01  3.37897E+01  3.31992E+01  4.37494E+01  4.40774E+01  3.84744E+01
   3.85965E+01  4.67061E+01  4.34834E+01  4.30839E+01  3.88681E+01  4.90565E+01  3.68260E+01  4.82480E+01  3.93224E+01  4.19808E+01
   3.41748E+01  4.88369E+01  4.28529E+01  4.21230E+01  5.25388E+01  4.31087E+01  4.78628E+01  3.72837E+01  4.28240E+01  4.05652E+01
   4.20162E+01  4.17311E+01  3.66178E+01  5.17724E+01  3.85391E+01  5.21797E+01  5.10854E+01  5.09919E+01  5.41636E+01  4.43992E+01
   4.18555E+01  3.97930E+01  3.28465E+01  4.68705E+01  3.68657E+01  4.75376E+01  4.40790E+01  4.62014E+01  4.82821E+01  4.64035E+01
   3.70957E+01  4.20378E+01  4.14171E+01  3.59636E+01  4.77856E+01  3.80416E+01  4.24374E+01  4.71807E+01  4.44171E+01  4.66161E+01
   4.24579E+01  4.33914E+01  3.76270E+01  4.20067E+01  3.99702E+01  4.83137E+01  5.16354E+01  5.68052E+01  4.72281E+01  5.18750E+01
   4.92960E+01  4.58749E+01  4.90771E+01  4.83293E+01  4.71465E+01  4.42724E+01  4.25146E+01  5.75314E+01  7.96497E+01  8.31152E+01
   1.00620E+02  9.79353E+01  9.22991E+01  8.64828E+01  7.11043E+01  6.78311E+01  6.06160E+01  5.98497E+01  6.18919E+01  6.36414E+01
   6.04086E+01  5.52323E+01  5.16422E+01  5.37177E+01  5.70792E+01  6.58307E+01  5.63611E+01  6.13801E+01  6.25190E+01  5.80342E+01
   5.53698E+01  5.67083E+01  6.45967E+01  5.76121E+01  5.87775E+01  5.79009E+01  5.96819E+01  5.88559E+01  6.34714E+01  5.66616E+01
   6.49831E+01  6.89395E+01  6.38315E+01  6.03125E+01  6.30025E+01  6.96057E+01  6.34502E+01  6.59594E+01  6.21885E+01  6.54328E+01
   6.48079E+01  6.20792E+01  6.96178E+01  6.56568E+01  6.54492E+01  5.86018E+01  6.32648E+01  5.30066E+01  6.57291E+01  6.82686E+01
   7.75212E+01  7.50257E+01  6.51091E+01  7.17491E+01  7.20123E+01  7.42676E+01  6.14893E+01  6.96478E+01  5.64525E+01  6.70596E+01
   6.75177E+01  6.78868E+01  5.64555E+01  5.94630E+01  6.22716E+01  6.13717E+01  5.97400E+01  5.52892E+01  6.02115E+01  5.76788E+01
   5.73716E+01  6.78656E+01  5.49523E+01  5.29032E+01  6.12938E+01  5.34088E+01  6.36075E+01  4.83853E+01  6.26963E+01  5.22850E+01
   5.36239E+01  5.48891E+01  5.67121E+01  5.36014E+01  5.57748E+01  4.93013E+01  5.00518E+01  4.86518E+01  4.98667E+01  4.52337E+01
   4.15283E+01  4.50553E+01  4.39751E+01  3.37816E+01  3.24172E+01  4.67339E+01  4.74425E+01  4.77171E+01  4.17240E+01  4.44297E+01
   3.71521E+01  3.05068E+01  3.59074E+01  2.11140E+01  2.79812E+01  3.00260E+01  1.93184E+01  2.13033E+01  1.36696E+01  1.81190E+01
   1.27183E+01  1.92044E+01  1.44912E+01  1.29731E+01  1.92322E+01  2.41704E+01  1.60416E+01  1.55981E+01  1.37980E+01  1.18489E+01
   2.53956E+01  1.76405E+01  1.33440E+01  1.63292E+01  2.02821E+01  2.25965E+01  2.33386E+01  1.37569E+01  2.41086E+01  2.73446E+01
   1.39569E+01  2.59284E+01  2.31017E+01  2.40159E+01  2.45736E+01  2.34650E+01  2.83205E+01  2.47279E+01  1.87606E+01  3.40818E+01
   2.52666E+01  2.91408E+01  3.25524E+01  3.53308E+01  2.83392E+01  3.94800E+01  2.45164E+01  2.76080E+01  2.58244E+01  4.28729E+01
   3.71999E+01  3.39920E+01  2.53355E+01  3.55350E+01  4.87818E+01  3.18269E+01  3.79667E+01  3.38574E+01  3.51806E+01  3.46000E+01
   2.87314E+01  4.10137E+01  3.83329E+01  3.18968E+01  2.83485E+01  2.58997E+01  3.30736E+01  4.43799E+01  3.18018E+01  2.77874E+01
   3.42349E+01  3.50486E+01  3.31000E+01  3.28503E+01  3.54658E+01  3.54954E+01  3.27106E+01  2.51802E+01  3.78187E+01  2.67769E+01
   2.76883E+01  3.36889E+01  2.94028E+01  3.54515E+01  3.18868E+01  3.06584E+01  3.46583E+01  3.76060E+01  3.13173E+01  3.37312E+01
   3.31876E+01  3.79767E+01  3.94978E+01  3.60328E+01  3.71103E+01  3.26001E+01  3.24504E+01  2.71312E+01  3.85453E+01  3.37109E+01
   3.60804E+01  3.12278E+01  4.11546E+01  4.06655E+01  4.06011E+01  2.83882E+01  3.64522E+01  4.47388E+01  3.74742E+01  4.19076E+01
   3.44997E+01  3.96879E+01  3.46127E+01  2.79121E+01  3.36061E+01  3.83142E+01  3.08282E+01  3.43405E+01  3.30670E+01  4.31710E+01
   3.29730E+01  3.91371E+01  3.79060E+01  3.65190E+01  3.30616E+01  2.63989E+01  3.36832E+01  3.47363E+01  3.77130E+01  3.24148E+01
   2.48325E+01  3.18879E+01  3.19858E+01  2.93717E+01  3.73025E+01  3.57550E+01  3.41871E+01  2.99731E+01
 NY points of the fit to the data follow
  -4.86697E+01 -4.78897E+01 -4.69443E+01 -4.60319E+01 -4.56628E+01 -4.31928E+01 -3.86633E+01 -3.40010E+01 -2.91105E+01 -2.55517E+01
  -2.37605E+01 -2.41417E+01 -2.58629E+01 -2.77025E+01 -2.92697E+01 -3.02506E+01 -3.05311E+01 -3.03557E+01 -2.97358E+01 -2.87811E+01
  -2.79967E+01 -2.73020E+01 -2.65144E+01 -2.56191E+01 -2.57232E+01 -2.64042E+01 -2.29536E+01 -1.76151E+01 -1.29016E+01 -8.29749E+00
  -5.02597E+00 -3.31697E+00 -4.52874E+00 -6.87429E+00 -9.05969E+00 -1.11610E+01 -1.26006E+01 -1.31471E+01 -1.30872E+01 -1.24175E+01
  -1.14418E+01 -1.05336E+01 -9.74066E+00 -8.77393E+00 -7.04724E+00 -4.77459E+00 -2.53084E+00 -7.29557E-01  2.99147E-01  4.62173E-01
  -1.48809E-01 -1.03688E+00 -1.73812E+00 -1.95257E+00 -1.83970E+00 -1.43042E+00 -5.53857E-01  5.78601E-01  1.89391E+00  3.17860E+00
   4.20024E+00  4.88393E+00  5.13958E+00  5.20936E+00  5.20988E+00  5.40764E+00  5.86909E+00  6.36381E+00  7.09541E+00  8.01149E+00
   8.79259E+00  9.56572E+00  1.04967E+01  1.14058E+01  1.21148E+01  1.26212E+01  1.29008E+01  1.29588E+01  1.29605E+01  1.30952E+01
   1.33444E+01  1.36495E+01  1.45444E+01  1.57874E+01  1.66970E+01  1.71905E+01  1.72391E+01  1.70443E+01  1.67500E+01  1.66203E+01
   1.67654E+01  1.71547E+01  1.76744E+01  1.82924E+01  1.88614E+01  1.95016E+01  1.99860E+01  1.95694E+01  1.85610E+01  2.28627E+01
   3.07258E+01  3.75884E+01  4.34329E+01  4.62007E+01  4.59158E+01  4.20084E+01  3.67427E+01  3.21553E+01  2.88277E+01  2.68503E+01
   2.61694E+01  2.61138E+01  2.62249E+01  2.64122E+01  2.66751E+01  2.69863E+01  2.72022E+01  2.73365E+01  2.74677E+01  2.75435E+01
   2.75481E+01  2.68525E+01  2.55130E+01  3.07485E+01  4.04394E+01  4.88957E+01  5.59870E+01  5.92639E+01  5.87421E+01  5.43543E+01
   4.91282E+01  4.43855E+01  4.04464E+01  3.73607E+01  3.47677E+01  3.25818E+01  3.08564E+01  3.02517E+01  3.11160E+01  3.26546E+01
   3.44670E+01  3.59875E+01  3.69035E+01  3.72104E+01  3.70111E+01  3.67138E+01  3.64537E+01  3.62511E+01  3.61333E+01  3.60696E+01
   3.60162E+01  3.58934E+01  3.58350E+01  3.59086E+01  3.60803E+01  3.63717E+01  3.67661E+01  3.69489E+01  3.67582E+01  3.64548E+01
   3.61199E+01  3.61484E+01  3.65292E+01  3.69959E+01  3.75365E+01  3.79226E+01  3.81022E+01  3.80658E+01  3.79222E+01  3.78470E+01
   3.78720E+01  3.79693E+01  3.79386E+01  3.74913E+01  3.71242E+01  3.70466E+01  3.72104E+01  3.74569E+01  3.75106E+01  3.76536E+01
   3.78307E+01  3.78770E+01  3.78799E+01  3.76909E+01  3.72250E+01  3.70463E+01  3.73971E+01  3.84744E+01  4.02543E+01  4.21482E+01
   4.36524E+01  4.44651E+01  4.44807E+01  4.36821E+01  4.19816E+01  4.04108E+01  3.95556E+01  3.93147E+01  3.97233E+01  4.04987E+01
   4.17994E+01  4.31899E+01  4.44194E+01  4.53434E+01  4.56914E+01  4.58226E+01  4.52171E+01  4.40057E+01  4.28857E+01  4.16075E+01
   4.04941E+01  3.98283E+01  4.08116E+01  4.33593E+01  4.58329E+01  4.78791E+01  4.90407E+01  4.90286E+01  4.73344E+01  4.39034E+01
   4.03180E+01  3.81086E+01  3.73882E+01  3.81536E+01  4.02781E+01  4.30489E+01  4.57909E+01  4.73319E+01  4.73702E+01  4.67215E+01
   4.58976E+01  4.53136E+01  4.52253E+01  4.62120E+01  4.83094E+01  5.01581E+01  5.11320E+01  5.10546E+01  5.02019E+01  4.84031E+01
   4.60204E+01  4.44788E+01  4.43307E+01  4.52179E+01  4.67988E+01  4.88773E+01  5.07084E+01  5.17299E+01  5.17404E+01  5.12433E+01
   5.06436E+01  5.02274E+01  5.02274E+01  5.06892E+01  5.09331E+01  4.87544E+01  4.90317E+01  6.09322E+01  7.55140E+01  8.73481E+01
   9.63070E+01  9.88348E+01  9.50527E+01  8.50599E+01  7.45942E+01  6.60634E+01  6.00990E+01  5.67119E+01  5.54991E+01  5.49438E+01
   5.46858E+01  5.46689E+01  5.48454E+01  5.51559E+01  5.55352E+01  5.58933E+01  5.61622E+01  5.62850E+01  5.63006E+01  5.62687E+01
   5.62217E+01  5.62127E+01  5.62725E+01  5.64169E+01  5.66240E+01  5.68733E+01  5.71626E+01  5.74829E+01  5.78197E+01  5.81863E+01
   5.85898E+01  5.90320E+01  5.95174E+01  6.00468E+01  6.06212E+01  6.12335E+01  6.18775E+01  6.25431E+01  6.32157E+01  6.38802E+01
   6.45226E+01  6.51246E+01  6.56685E+01  6.61371E+01  6.65152E+01  6.67904E+01  6.69537E+01  6.70009E+01  6.69322E+01  6.67514E+01
   6.64670E+01  6.60917E+01  6.56416E+01  6.51354E+01  6.45934E+01  6.40364E+01  6.34850E+01  6.29582E+01  6.24729E+01  6.20424E+01
   6.16750E+01  6.13695E+01  6.11400E+01  6.11785E+01  6.13526E+01  6.13337E+01  6.11492E+01  6.07915E+01  6.02805E+01  5.96575E+01
   5.88931E+01  5.81917E+01  5.78239E+01  5.76256E+01  5.74607E+01  5.72405E+01  5.68309E+01  5.61735E+01  5.52163E+01  5.40748E+01
   5.28523E+01  5.16116E+01  5.03956E+01  5.01607E+01  5.14239E+01  5.18851E+01  5.11557E+01  4.96898E+01  4.73413E+01  4.46278E+01
   4.11508E+01  3.85753E+01  3.86221E+01  4.01520E+01  4.22275E+01  4.42681E+01  4.53387E+01  4.50629E+01  4.31846E+01  4.04301E+01
   3.73912E+01  3.44553E+01  3.19174E+01  2.99145E+01  2.83300E+01  2.70783E+01  2.60972E+01  2.53309E+01  2.47296E+01  2.42516E+01
   2.38645E+01  2.35442E+01  2.32740E+01  2.30429E+01  2.28442E+01  2.26735E+01  2.25287E+01  2.24082E+01  2.23115E+01  2.22385E+01
   2.21894E+01  2.21649E+01  2.21659E+01  2.21933E+01  2.22486E+01  2.23335E+01  2.24501E+01  2.26005E+01  2.27872E+01  2.30127E+01
   2.32797E+01  2.35907E+01  2.39480E+01  2.43534E+01  2.48079E+01  2.53116E+01  2.58634E+01  2.64608E+01  2.70994E+01  2.77730E+01
   2.84734E+01  2.91907E+01  2.99131E+01  3.06276E+01  3.13200E+01  3.19757E+01  3.25805E+01  3.31210E+01  3.35855E+01  3.39643E+01
   3.42507E+01  3.44409E+01  3.45350E+01  3.45360E+01  3.44507E+01  3.42881E+01  3.40598E+01  3.37791E+01  3.34602E+01  3.31172E+01
   3.27642E+01  3.24138E+01  3.20774E+01  3.17645E+01  3.14826E+01  3.12371E+01  3.10316E+01  3.08677E+01  3.07455E+01  3.06639E+01
   3.06209E+01  3.06135E+01  3.06384E+01  3.06919E+01  3.07706E+01  3.08708E+01  3.09892E+01  3.11227E+01  3.12682E+01  3.14232E+01
   3.15855E+01  3.17530E+01  3.19239E+01  3.20967E+01  3.22699E+01  3.24422E+01  3.26127E+01  3.27804E+01  3.29444E+01  3.31039E+01
   3.32581E+01  3.34065E+01  3.35483E+01  3.36832E+01  3.38112E+01  3.39323E+01  3.40465E+01  3.41540E+01  3.42548E+01  3.43491E+01
   3.44371E+01  3.45187E+01  3.45942E+01  3.46638E+01  3.47276E+01  3.47858E+01  3.48385E+01  3.48860E+01  3.49283E+01  3.49657E+01
   3.49985E+01  3.50267E+01  3.50505E+01  3.50702E+01  3.50860E+01  3.50980E+01  3.51065E+01  3.51115E+01  3.51135E+01  3.51124E+01
   3.51087E+01  3.51024E+01  3.50938E+01  3.50830E+01  3.50703E+01  3.50559E+01  3.50400E+01  3.50228E+01  3.50045E+01  3.49853E+01
   3.49655E+01  3.49452E+01  3.49247E+01  3.49041E+01  3.48838E+01  3.48638E+01  3.48445E+01  3.48260E+01
 NY background values follow
    -4.917E+01   -4.819E+01   -4.721E+01   -4.623E+01   -4.525E+01   -4.428E+01   -4.331E+01   -4.234E+01   -4.138E+01   -4.042E+01
    -3.946E+01   -3.850E+01   -3.755E+01   -3.661E+01   -3.566E+01   -3.472E+01   -3.379E+01   -3.285E+01   -3.193E+01   -3.100E+01
    -3.009E+01   -2.917E+01   -2.827E+01   -2.736E+01   -2.646E+01   -2.557E+01   -2.469E+01   -2.380E+01   -2.293E+01   -2.206E+01
    -2.120E+01   -2.034E+01   -1.949E+01   -1.865E+01   -1.781E+01   -1.698E+01   -1.616E+01   -1.534E+01   -1.453E+01   -1.373E+01
    -1.294E+01   -1.215E+01   -1.137E+01   -1.060E+01   -9.841E+00   -9.088E+00   -8.343E+00   -7.606E+00   -6.878E+00   -6.159E+00
    -5.447E+00   -4.744E+00   -4.049E+00   -3.362E+00   -2.683E+00   -2.011E+00   -1.348E+00   -6.925E-01   -4.471E-02    5.955E-01
     1.228E+00    1.853E+00    2.471E+00    3.081E+00    3.684E+00    4.280E+00    4.868E+00    5.450E+00    6.024E+00    6.592E+00
     7.152E+00    7.706E+00    8.253E+00    8.794E+00    9.327E+00    9.854E+00    1.037E+01    1.089E+01    1.140E+01    1.190E+01
     1.239E+01    1.288E+01    1.337E+01    1.384E+01    1.431E+01    1.478E+01    1.524E+01    1.569E+01    1.614E+01    1.658E+01
     1.702E+01    1.745E+01    1.788E+01    1.830E+01    1.872E+01    1.913E+01    1.953E+01    1.993E+01    2.033E+01    2.072E+01
     2.110E+01    2.148E+01    2.186E+01    2.223E+01    2.259E+01    2.295E+01    2.331E+01    2.366E+01    2.401E+01    2.435E+01
     2.469E+01    2.502E+01    2.535E+01    2.568E+01    2.600E+01    2.632E+01    2.663E+01    2.694E+01    2.724E+01    2.755E+01
     2.784E+01    2.814E+01    2.843E+01    2.871E+01    2.899E+01    2.927E+01    2.955E+01    2.982E+01    3.009E+01    3.035E+01
     3.062E+01    3.088E+01    3.113E+01    3.138E+01    3.163E+01    3.188E+01    3.212E+01    3.236E+01    3.260E+01    3.283E+01
     3.306E+01    3.329E+01    3.352E+01    3.374E+01    3.396E+01    3.418E+01    3.439E+01    3.460E+01    3.481E+01    3.501E+01
     3.521E+01    3.541E+01    3.561E+01    3.580E+01    3.599E+01    3.617E+01    3.636E+01    3.654E+01    3.671E+01    3.689E+01
     3.706E+01    3.722E+01    3.739E+01    3.755E+01    3.770E+01    3.786E+01    3.801E+01    3.816E+01    3.830E+01    3.844E+01
     3.858E+01    3.872E+01    3.885E+01    3.898E+01    3.910E+01    3.922E+01    3.934E+01    3.946E+01    3.957E+01    3.968E+01
     3.978E+01    3.989E+01    3.998E+01    4.008E+01    4.017E+01    4.026E+01    4.035E+01    4.044E+01    4.052E+01    4.060E+01
     4.068E+01    4.076E+01    4.084E+01    4.092E+01    4.099E+01    4.107E+01    4.114E+01    4.122E+01    4.130E+01    4.137E+01
     4.145E+01    4.153E+01    4.161E+01    4.169E+01    4.177E+01    4.185E+01    4.194E+01    4.203E+01    4.212E+01    4.221E+01
     4.231E+01    4.240E+01    4.251E+01    4.261E+01    4.272E+01    4.283E+01    4.295E+01    4.307E+01    4.320E+01    4.333E+01
     4.347E+01    4.361E+01    4.376E+01    4.391E+01    4.407E+01    4.423E+01    4.440E+01    4.458E+01    4.477E+01    4.495E+01
     4.515E+01    4.535E+01    4.556E+01    4.576E+01    4.598E+01    4.619E+01    4.641E+01    4.664E+01    4.686E+01    4.709E+01
     4.732E+01    4.755E+01    4.779E+01    4.802E+01    4.825E+01    4.849E+01    4.872E+01    4.895E+01    4.918E+01    4.941E+01
     4.964E+01    4.987E+01    5.009E+01    5.031E+01    5.053E+01    5.075E+01    5.096E+01    5.116E+01    5.136E+01    5.156E+01
     5.175E+01    5.194E+01    5.212E+01    5.229E+01    5.246E+01    5.262E+01    5.277E+01    5.291E+01    5.305E+01    5.317E+01
     5.329E+01    5.340E+01    5.350E+01    5.359E+01    5.367E+01    5.374E+01    5.380E+01    5.385E+01    5.389E+01    5.391E+01
     5.393E+01    5.394E+01    5.394E+01    5.393E+01    5.390E+01    5.387E+01    5.382E+01    5.377E+01    5.370E+01    5.362E+01
     5.353E+01    5.343E+01    5.332E+01    5.319E+01    5.306E+01    5.291E+01    5.275E+01    5.258E+01    5.240E+01    5.221E+01
     5.200E+01    5.179E+01    5.156E+01    5.131E+01    5.106E+01    5.079E+01    5.051E+01    5.022E+01    4.992E+01    4.960E+01
     4.927E+01    4.893E+01    4.857E+01    4.821E+01    4.782E+01    4.743E+01    4.702E+01    4.660E+01    4.616E+01    4.572E+01
     4.526E+01    4.479E+01    4.431E+01    4.382E+01    4.332E+01    4.282E+01    4.230E+01    4.178E+01    4.126E+01    4.072E+01
     4.019E+01    3.965E+01    3.910E+01    3.855E+01    3.800E+01    3.745E+01    3.689E+01    3.634E+01    3.579E+01    3.523E+01
     3.468E+01    3.414E+01    3.359E+01    3.305E+01    3.251E+01    3.198E+01    3.145E+01    3.093E+01    3.041E+01    2.991E+01
     2.941E+01    2.892E+01    2.844E+01    2.797E+01    2.751E+01    2.707E+01    2.663E+01    2.621E+01    2.580E+01    2.541E+01
     2.503E+01    2.466E+01    2.432E+01    2.398E+01    2.367E+01    2.337E+01    2.309E+01    2.282E+01    2.257E+01    2.233E+01
     2.211E+01    2.190E+01    2.170E+01    2.153E+01    2.136E+01    2.121E+01    2.107E+01    2.095E+01    2.084E+01    2.074E+01
     2.066E+01    2.059E+01    2.053E+01    2.048E+01    2.045E+01    2.043E+01    2.042E+01    2.042E+01    2.043E+01    2.046E+01
     2.049E+01    2.054E+01    2.059E+01    2.066E+01    2.074E+01    2.082E+01    2.092E+01    2.103E+01    2.114E+01    2.127E+01
     2.140E+01    2.154E+01    2.169E+01    2.185E+01    2.202E+01    2.220E+01    2.238E+01    2.257E+01    2.277E+01    2.297E+01
     2.319E+01    2.340E+01    2.363E+01    2.386E+01    2.409E+01    2.433E+01    2.458E+01    2.482E+01    2.507E+01    2.533E+01
     2.559E+01    2.585E+01    2.611E+01    2.638E+01    2.664E+01    2.691E+01    2.718E+01    2.745E+01    2.772E+01    2.799E+01
     2.825E+01    2.852E+01    2.879E+01    2.905E+01    2.931E+01    2.957E+01    2.983E+01    3.009E+01    3.034E+01    3.058E+01
     3.083E+01    3.106E+01    3.130E+01    3.152E+01    3.175E+01    3.196E+01    3.217E+01    3.238E+01    3.257E+01    3.276E+01
     3.294E+01    3.311E+01    3.328E+01    3.343E+01    3.358E+01    3.372E+01    3.385E+01    3.397E+01    3.409E+01    3.420E+01
     3.430E+01    3.439E+01    3.448E+01    3.456E+01    3.463E+01    3.470E+01    3.476E+01    3.481E+01    3.486E+01    3.491E+01
     3.495E+01    3.498E+01    3.501E+01    3.504E+01    3.506E+01    3.508E+01    3.509E+01    3.510E+01    3.511E+01    3.511E+01
     3.511E+01    3.511E+01    3.510E+01    3.510E+01    3.509E+01    3.507E+01    3.506E+01    3.505E+01    3.503E+01    3.502E+01
     3.500E+01    3.498E+01    3.496E+01    3.494E+01    3.492E+01    3.491E+01    3.489E+01    3.487E+01
 Ala      Conc. = 5.86E+01
