 LCModel (Version 6.3-1L) Copyright: S.W. Provencher.          Ref.: Magn. Reson. Med. 30:672-679 (1993).                
 Slice#1 Row#12 Col#9  PD_05_press_2_raw_act
 36 lines in following concentration table = NCONC+1
    Conc.  %SD /Cr+PCr  Metabolite                                         
    1.351 999%   0.184 Ala                                                 
   11.731  84%   1.602 Asp                                                 
    0.000 999%   0.000 Cr                                                  
    7.325 345%   1.000 PCr                                                 
    7.498  79%   1.024 GABA                                                
    7.081  84%   0.967 Glc                                                 
  636.904  34%  86.952 Gln                                                 
  495.940  48%  67.707 Glu                                                 
   22.322  42%   3.048 GPC                                                 
    0.000 999%   0.000 PCh                                                 
    0.000 999%   0.000 GSH                                                 
  112.904  96%  15.414 Ins                                                 
    0.000 999%   0.000 Lac                                                 
  171.902  18%  23.469 NAA                                                 
    0.000 999%   0.000 NAAG                                                
    2.322  85%   0.317 Scyllo                                              
   12.440  79%   1.698 Tau                                                 
    0.734 360%   0.100 -CrCH2                                              
   22.322  42%   3.048 GPC+PCh                                             
  171.902  18%  23.469 NAA+NAAG                                            
    7.325 345%   1.000 Cr+PCr                                              
 1.13E+03  34% 154.659 Glu+Gln                                             
    0.000 999%   0.000 Lip13a                                              
   64.015 102%   8.739 Lip13b                                              
   17.073 102%   2.331 Lip09                                               
  262.069  22%  35.778 MM09                                                
    9.606 102%   1.311 Lip20                                               
  497.944  20%  67.981 MM20                                                
   67.634  43%   9.234 MM12                                                
  477.570  17%  65.199 MM14                                                
  184.782  31%  25.227 MM17                                                
   64.015 102%   8.739 Lip13a+Lip13b                                       
  609.218  14%  83.172 MM14+Lip13a+Lip13b+MM12                             
  279.142  19%  38.109 MM09+Lip09                                          
  507.550  20%  69.292 MM20+Lip20                                          
   6 lines in following misc. output table
  FWHM = 0.107 ppm    S/N =   2                                            
  Data shift =-0.023 ppm                                                   
  Ph:  44 deg     -13.2 deg/ppm                                            
  alphaB,S = 8.5E+01,   2.0E+02                                            
   14 spline knots.   Ns =10(1)                                            
   2 inflections.     1 extrema                                            
  498 points on ppm-axis = NY
      4.000000     3.992357     3.984714     3.977070     3.969427     3.961784     3.954141     3.946497     3.938854     3.931211
      3.923568     3.915925     3.908281     3.900638     3.892995     3.885352     3.877708     3.870065     3.862422     3.854779
      3.847136     3.839492     3.831849     3.824206     3.816563     3.808919     3.801276     3.793633     3.785990     3.778347
      3.770703     3.763060     3.755417     3.747774     3.740130     3.732487     3.724844     3.717201     3.709558     3.701914
      3.694271     3.686628     3.678985     3.671341     3.663698     3.656055     3.648412     3.640769     3.633125     3.625482
      3.617839     3.610196     3.602552     3.594909     3.587266     3.579623     3.571980     3.564336     3.556693     3.549050
      3.541407     3.533763     3.526120     3.518477     3.510834     3.503191     3.495547     3.487904     3.480261     3.472618
      3.464974     3.457331     3.449688     3.442045     3.434402     3.426758     3.419115     3.411472     3.403829     3.396185
      3.388542     3.380899     3.373256     3.365613     3.357969     3.350326     3.342683     3.335040     3.327396     3.319753
      3.312110     3.304467     3.296824     3.289180     3.281537     3.273894     3.266251     3.258607     3.250964     3.243321
      3.235678     3.228034     3.220391     3.212748     3.205105     3.197462     3.189818     3.182175     3.174532     3.166889
      3.159245     3.151602     3.143959     3.136316     3.128673     3.121029     3.113386     3.105743     3.098100     3.090456
      3.082813     3.075170     3.067527     3.059884     3.052240     3.044597     3.036954     3.029311     3.021667     3.014024
      3.006381     2.998738     2.991095     2.983451     2.975808     2.968165     2.960522     2.952878     2.945235     2.937592
      2.929949     2.922306     2.914662     2.907019     2.899376     2.891733     2.884089     2.876446     2.868803     2.861160
      2.853517     2.845873     2.838230     2.830587     2.822944     2.815300     2.807657     2.800014     2.792371     2.784728
      2.777084     2.769441     2.761798     2.754155     2.746511     2.738868     2.731225     2.723582     2.715939     2.708295
      2.700652     2.693009     2.685366     2.677722     2.670079     2.662436     2.654793     2.647150     2.639506     2.631863
      2.624220     2.616577     2.608933     2.601290     2.593647     2.586004     2.578361     2.570717     2.563074     2.555431
      2.547788     2.540144     2.532501     2.524858     2.517215     2.509572     2.501928     2.494285     2.486642     2.478999
      2.471355     2.463712     2.456069     2.448426     2.440783     2.433139     2.425496     2.417853     2.410210     2.402566
      2.394923     2.387280     2.379637     2.371994     2.364350     2.356707     2.349064     2.341421     2.333777     2.326134
      2.318491     2.310848     2.303205     2.295561     2.287918     2.280275     2.272632     2.264988     2.257345     2.249702
      2.242059     2.234416     2.226772     2.219129     2.211486     2.203843     2.196199     2.188556     2.180913     2.173270
      2.165627     2.157983     2.150340     2.142697     2.135054     2.127410     2.119767     2.112124     2.104481     2.096838
      2.089194     2.081551     2.073908     2.066265     2.058621     2.050978     2.043335     2.035692     2.028049     2.020405
      2.012762     2.005119     1.997476     1.989833     1.982190     1.974546     1.966903     1.959260     1.951617     1.943974
      1.936331     1.928688     1.921045     1.913402     1.905759     1.898115     1.890472     1.882829     1.875186     1.867543
      1.859900     1.852257     1.844614     1.836971     1.829327     1.821684     1.814041     1.806398     1.798755     1.791112
      1.783469     1.775826     1.768183     1.760540     1.752896     1.745253     1.737610     1.729967     1.722324     1.714681
      1.707038     1.699395     1.691752     1.684108     1.676465     1.668822     1.661179     1.653536     1.645893     1.638250
      1.630607     1.622964     1.615321     1.607677     1.600034     1.592391     1.584748     1.577105     1.569462     1.561819
      1.554176     1.546533     1.538890     1.531246     1.523603     1.515960     1.508317     1.500674     1.493031     1.485388
      1.477745     1.470102     1.462458     1.454815     1.447172     1.439529     1.431886     1.424243     1.416600     1.408957
      1.401314     1.393671     1.386027     1.378384     1.370741     1.363098     1.355455     1.347812     1.340169     1.332526
      1.324883     1.317240     1.309596     1.301953     1.294310     1.286667     1.279024     1.271381     1.263738     1.256095
      1.248452     1.240808     1.233165     1.225522     1.217879     1.210236     1.202593     1.194950     1.187307     1.179664
      1.172021     1.164377     1.156734     1.149091     1.141448     1.133805     1.126162     1.118519     1.110876     1.103233
      1.095590     1.087946     1.080303     1.072660     1.065017     1.057374     1.049731     1.042088     1.034445     1.026802
      1.019158     1.011515     1.003872     0.996229     0.988586     0.980943     0.973300     0.965657     0.958014     0.950371
      0.942727     0.935084     0.927441     0.919798     0.912155     0.904512     0.896869     0.889226     0.881583     0.873940
      0.866296     0.858653     0.851010     0.843367     0.835724     0.828081     0.820438     0.812795     0.805152     0.797508
      0.789865     0.782222     0.774579     0.766936     0.759293     0.751650     0.744007     0.736364     0.728721     0.721077
      0.713434     0.705791     0.698148     0.690505     0.682862     0.675219     0.667576     0.659933     0.652290     0.644646
      0.637003     0.629360     0.621717     0.614074     0.606431     0.598788     0.591145     0.583502     0.575858     0.568215
      0.560572     0.552929     0.545286     0.537643     0.530000     0.522357     0.514714     0.507071     0.499427     0.491784
      0.484141     0.476498     0.468855     0.461212     0.453569     0.445925     0.438282     0.430639     0.422996     0.415353
      0.407710     0.400067     0.392424     0.384780     0.377137     0.369494     0.361851     0.354208     0.346565     0.338922
      0.331278     0.323635     0.315992     0.308349     0.300706     0.293063     0.285420     0.277777     0.270133     0.262490
      0.254847     0.247204     0.239561     0.231918     0.224275     0.216631     0.208988     0.201345
 NY phased data points follow
   5.13256E-01 -6.78937E-01  3.31047E-01  1.14690E+00  1.97945E+00  1.23576E-01  8.94495E-01  5.65466E-01  2.73368E-02  2.70589E+00
  -1.94953E-01 -9.05920E-01  1.08557E+00  3.15301E+00 -1.97312E+00  1.32382E+00  6.37484E-01  3.89332E-01  2.25901E-02  3.24822E+00
   5.70839E-01  5.14495E-02  1.25003E+00  2.34946E+00 -4.50473E-01  2.51877E-01  1.42523E+00  1.38926E+00  5.16955E-01  8.40182E-01
   2.62637E-01 -3.31017E+00 -1.65286E+00  9.76781E-01  8.52051E-01  1.83398E+00  1.92009E+00  2.82734E+00  1.76808E+00 -3.13498E-01
   2.24312E+00  2.18365E+00  2.48108E+00  1.43543E+00  1.35629E+00  9.62444E-01  2.50990E+00  1.56038E+00  1.33299E+00  8.34666E-01
  -1.02832E-01  1.65350E+00 -8.32762E-01 -5.19177E-01  2.48627E+00  5.23781E-01  2.92138E+00  2.34613E+00 -5.02171E-02  2.42813E-01
  -7.30161E-01 -6.35909E-02 -9.83859E-01 -9.02481E-01  5.41147E-01  9.73434E-01  2.63736E+00  1.84972E+00  6.75086E-01  1.24507E+00
   2.05010E+00 -1.05529E+00  2.53843E+00  7.37141E-02 -8.77977E-01  7.19951E-01  6.90256E-01 -6.87751E-01  1.80368E+00 -6.66540E-01
   1.46422E+00 -3.66311E-01  2.84929E+00  1.24435E+00  1.17637E-01 -1.55288E+00 -5.53590E-01  1.22374E+00 -2.30116E+00 -1.17600E+00
   7.02123E-01 -9.96545E-01 -8.22609E-01  1.28471E+00  5.73093E-01  2.75282E+00  2.87370E+00  5.58854E-01  1.81998E+00  1.36751E+00
  -4.72237E-01  2.89107E+00  1.63263E+00  2.29796E+00  5.08324E-01  1.82317E+00  4.22846E-01 -5.57514E-01  4.12116E-01  1.76322E+00
   3.06737E-01  1.00832E+00  3.67863E+00 -2.30018E-01 -3.60277E-01  1.84284E+00 -7.28820E-01 -2.42974E+00  2.33048E+00 -1.83255E+00
  -1.31308E+00  7.74438E-01  1.04896E+00 -9.54830E-02  1.46080E+00  1.21428E+00  1.61616E+00  1.30474E+00 -1.76552E-01  1.60318E+00
   1.52225E+00 -5.29753E-01  8.77761E-01  1.63175E+00 -3.41876E-02 -1.48912E+00 -2.90292E+00  4.34470E-01  1.08908E-01 -2.03090E-01
   1.99954E+00  9.92462E-01  1.42152E+00 -3.53006E-01  9.47240E-01 -2.91732E+00  2.81122E-01  1.97043E-01  8.31959E-01  1.57168E+00
   3.04616E-01  4.13022E-01  1.40860E+00 -5.79186E-01  1.99765E+00 -3.04544E+00 -3.81342E-01 -1.22506E+00 -7.81840E-01  1.69928E+00
   4.47969E-01 -8.60895E-01  2.07918E+00  9.10741E-01 -1.44331E+00  2.03294E+00  3.15062E+00  1.18007E+00  4.07010E-01  3.55839E-01
  -1.35745E+00 -1.33241E+00 -1.57648E+00  1.50862E+00 -1.54863E+00  6.89942E-01 -1.87428E-01 -6.11456E-01 -9.58235E-01 -9.67092E-01
  -1.70053E+00  3.39936E-01 -1.40468E+00 -6.69639E-01 -4.69059E-01  8.48728E-01  5.02916E-01 -1.20116E+00  1.28958E+00 -1.72467E+00
   3.46276E-01 -6.10757E-01 -1.13461E+00  1.16723E+00  1.25361E+00 -1.09548E+00  3.45673E-01 -2.84702E+00  1.83917E-01  2.45661E-01
   1.45412E+00 -1.45436E+00  6.99598E-01 -5.63225E-01  5.10462E-01 -1.20864E+00 -2.74478E+00 -1.08692E+00 -2.44011E-01  9.90020E-01
   1.31885E+00 -2.01959E+00  2.33879E-01  5.42274E-02  1.79386E+00 -9.30291E-01  4.10979E-01  2.81879E-01 -1.75739E-01 -8.83938E-01
  -1.23274E+00  9.49285E-01  2.34362E+00  2.39082E+00  2.13735E+00  1.97638E+00  1.01275E-01  9.29755E-01  1.11339E+00  1.73790E+00
   1.39949E+00  1.69461E+00  1.92325E+00  2.34819E+00  3.37346E+00  1.27448E+00  8.11397E-01  1.97704E+00  2.64581E+00  4.49405E+00
   1.88711E+00  2.33359E+00  1.85761E+00  1.99554E+00  9.26259E-01  2.07900E+00  1.79655E+00  2.56679E+00  3.94074E+00 -1.86902E+00
   6.61506E-01  1.22313E+00  2.90451E+00  5.84419E-01  4.13566E+00  3.59734E+00 -4.25540E-02  5.45564E+00  3.99505E+00  4.05105E+00
   3.95226E+00  4.11392E+00  7.04783E+00  8.17574E+00  3.78367E+00  5.83123E+00  3.38659E+00  4.57863E+00  3.92319E+00  2.33526E+00
   3.81488E+00  1.91154E+00 -5.07270E-01  5.34874E-01  3.46391E+00  1.86139E+00  2.36179E+00  4.19771E+00  1.76548E+00  3.99774E+00
   1.24385E+00  1.30531E+00  2.47793E+00 -2.20902E-01 -1.21376E+00  1.12724E+00  2.20162E+00  2.71631E+00  2.77316E+00  2.29292E+00
  -1.08681E-01  1.74343E+00  3.98002E-01  2.13409E+00  1.66010E+00  1.53453E+00  1.20590E+00  1.85911E+00  4.05826E+00  4.83923E-01
   1.98048E+00 -5.96863E-01  1.53018E+00  1.31234E+00  1.56838E+00  3.32418E+00  9.48563E-01  3.08473E+00  1.71843E+00  5.30271E-01
  -2.85949E-01  1.29290E+00  1.12780E+00 -5.22148E-01  1.18292E+00  2.72598E-01  2.25610E+00  1.28125E+00  7.48954E-01  1.72185E+00
   2.92885E-01  7.54535E-01  2.10305E+00  9.66466E-01  5.38862E+00  5.08182E-01  2.96366E+00 -7.72779E-01  2.73346E+00  3.02667E+00
   6.10299E+00  1.12335E+00  4.85432E+00  4.03784E+00  5.17577E+00  3.26841E+00  3.20373E+00  5.36585E+00  2.72077E+00  2.25059E+00
   3.10708E+00  7.05718E-01  3.59487E+00  3.05428E+00  1.77020E+00  5.90324E+00  2.38349E+00  1.97983E+00  3.84193E+00  3.03578E+00
   3.85088E+00  2.40321E+00  3.24976E+00  1.99310E+00  1.94252E+00  2.18546E+00  2.94847E+00  2.34137E+00 -1.80385E-01 -5.70924E-01
   1.00509E+00  2.11778E-01  1.30225E+00  2.46394E+00  4.80366E-01  2.68172E+00 -2.60975E+00  1.86337E+00 -3.72495E-01 -5.71316E-02
   1.65177E+00  5.79560E-01 -1.29624E+00 -1.66406E+00  8.72593E-01 -2.49754E+00 -1.09820E+00  4.40452E-01 -1.64260E+00  6.47872E-01
   8.30615E-01 -6.64620E-01 -1.86258E+00 -1.54398E+00 -3.15307E-01 -2.13055E+00  2.17821E+00 -2.11522E-01 -5.07618E-01  1.45351E+00
  -1.33742E+00  3.15558E-01 -2.07100E-01  2.21685E+00  1.70781E+00  5.29763E-01 -8.39489E-01  1.08781E+00  8.27750E-01  1.23007E+00
   3.01597E+00  2.88881E-02 -1.44999E+00  6.64632E-01 -1.98851E+00  3.53510E+00  3.02891E+00  2.31563E+00  2.88678E+00 -6.46361E-01
   1.40856E+00 -8.06234E-01  1.68376E+00  2.85699E+00 -5.34872E-01  1.57759E+00  1.02536E+00  1.42557E+00  2.54011E+00  1.15032E+00
  -7.90297E-02  3.41661E+00  1.59087E+00  2.07511E+00  1.78218E-01  2.46854E+00 -7.67591E-01  8.71460E-01  7.79296E-01  1.59712E+00
  -3.84340E-01 -1.53486E+00  7.05282E-01  9.65924E-01  9.36403E-01 -4.44411E-01  7.27268E-01  2.88796E+00 -7.11710E-02 -1.32064E-01
   1.81105E+00  2.02899E+00  2.29806E+00  3.99944E-01  1.48110E+00 -1.09829E-01  4.94555E-01  2.17565E+00  2.32990E+00  9.22620E-01
  -6.86596E-01  2.85065E+00 -1.26083E+00 -7.12728E-01 -3.17402E-01 -1.98322E-01  1.33456E+00 -2.20965E+00 -6.13041E-01  1.56035E-01
   7.49281E-01 -1.87860E+00 -3.54539E-01 -1.95701E+00 -2.95709E+00 -3.31668E-02  8.57730E-01 -7.98164E-01 -9.77489E-01 -1.42932E+00
   3.10689E-01  1.61465E+00 -4.52973E-02 -1.06747E+00 -9.87595E-01 -4.53858E-01 -1.01585E-01 -1.50458E+00  3.67399E+00 -2.37189E+00
  -1.68958E+00 -6.27297E-02  8.08791E-01 -1.25196E+00 -1.23971E+00 -1.49055E+00 -2.04942E-01 -2.76869E-02  1.33346E+00  7.00016E-01
   2.18466E+00 -9.05476E-02  1.04431E+00  1.78456E-01 -6.81522E-01 -4.34618E-01 -2.82234E+00  1.74321E+00
 NY points of the fit to the data follow
   7.18251E-01  6.89962E-01  6.62700E-01  6.36376E-01  6.16136E-01  6.07545E-01  6.06127E-01  6.11425E-01  6.26236E-01  6.46986E-01
   6.69825E-01  6.93739E-01  7.19503E-01  7.49270E-01  7.87117E-01  8.40446E-01  9.12506E-01  9.84875E-01  1.02855E+00  1.02418E+00
   9.68060E-01  8.73965E-01  7.81749E-01  7.46957E-01  7.92997E-01  9.07595E-01  1.04963E+00  1.17145E+00  1.23714E+00  1.24062E+00
   1.20784E+00  1.17057E+00  1.15197E+00  1.15673E+00  1.17380E+00  1.19652E+00  1.23480E+00  1.30220E+00  1.38111E+00  1.41643E+00
   1.37819E+00  1.27016E+00  1.11153E+00  9.57931E-01  9.03060E-01  9.82123E-01  1.12675E+00  1.27434E+00  1.37413E+00  1.39283E+00
   1.32305E+00  1.21070E+00  1.11138E+00  1.02780E+00  9.51771E-01  8.76896E-01  7.97326E-01  7.15412E-01  6.43816E-01  5.98335E-01
   5.82846E-01  5.84427E-01  5.90189E-01  5.94143E-01  5.94912E-01  5.92457E-01  5.87733E-01  5.81361E-01  5.73089E-01  5.61787E-01
   5.47910E-01  5.36979E-01  5.33277E-01  5.35606E-01  5.40786E-01  5.43848E-01  5.42848E-01  5.36140E-01  5.21954E-01  4.99698E-01
   4.69636E-01  4.33855E-01  3.94700E-01  3.55592E-01  3.21098E-01  2.91149E-01  2.65251E-01  2.44296E-01  2.27663E-01  2.13585E-01
   2.01399E-01  1.92449E-01  1.96352E-01  2.37944E-01  3.25775E-01  4.52078E-01  6.02418E-01  7.61142E-01  9.16467E-01  1.05645E+00
   1.17270E+00  1.26535E+00  1.33996E+00  1.39738E+00  1.43091E+00  1.43300E+00  1.40256E+00  1.34490E+00  1.26596E+00  1.16593E+00
   1.04023E+00  8.87554E-01  7.14817E-01  5.46508E-01  4.26074E-01  3.81440E-01  3.73838E-01  3.79313E-01  3.94128E-01  4.15478E-01
   4.41201E-01  4.68600E-01  4.95830E-01  5.21769E-01  5.45494E-01  5.66434E-01  5.84620E-01  5.99593E-01  6.10063E-01  6.14939E-01
   6.13781E-01  6.06820E-01  5.94221E-01  5.76093E-01  5.52218E-01  5.22490E-01  4.88431E-01  4.53456E-01  4.22799E-01  4.00153E-01
   3.81412E-01  3.63384E-01  3.45809E-01  3.28692E-01  3.11776E-01  2.94827E-01  2.77665E-01  2.60321E-01  2.43146E-01  2.26079E-01
   2.08994E-01  1.90740E-01  1.69838E-01  1.46118E-01  1.20589E-01  9.63191E-02  7.54608E-02  5.78450E-02  4.25155E-02  2.77579E-02
   1.21091E-02 -4.83032E-03 -2.26272E-02 -4.02765E-02 -5.70226E-02 -7.32480E-02 -9.10450E-02 -1.12230E-01 -1.34813E-01 -1.55697E-01
  -1.72949E-01 -1.88219E-01 -2.05936E-01 -2.29390E-01 -2.55653E-01 -2.78583E-01 -2.94271E-01 -3.01702E-01 -3.03685E-01 -3.01309E-01
  -2.93682E-01 -2.80281E-01 -2.60735E-01 -2.35352E-01 -2.08167E-01 -1.86566E-01 -1.77863E-01 -1.92480E-01 -2.33670E-01 -2.95823E-01
  -3.67414E-01 -4.36688E-01 -4.83296E-01 -4.88211E-01 -4.40270E-01 -3.34202E-01 -1.72436E-01  2.47843E-02  2.28549E-01  4.05438E-01
   5.05495E-01  4.92273E-01  3.86029E-01  2.29250E-01  6.80895E-02 -5.89123E-02 -1.23279E-01 -1.25576E-01 -9.14470E-02 -6.61447E-02
  -7.35450E-02 -1.18065E-01 -1.90966E-01 -2.67798E-01 -3.05461E-01 -2.76140E-01 -1.69085E-01  3.19592E-02  3.19812E-01  6.40003E-01
   9.33101E-01  1.11500E+00  1.09974E+00  9.31797E-01  7.49018E-01  6.04763E-01  5.13413E-01  4.96497E-01  5.82713E-01  7.35975E-01
   9.31586E-01  1.16729E+00  1.42382E+00  1.63263E+00  1.73215E+00  1.72791E+00  1.67074E+00  1.59474E+00  1.51445E+00  1.44899E+00
   1.40096E+00  1.36692E+00  1.34232E+00  1.32439E+00  1.32414E+00  1.35500E+00  1.41320E+00  1.46183E+00  1.44862E+00  1.38822E+00
   1.38325E+00  1.53291E+00  1.86667E+00  2.36993E+00  2.96942E+00  3.54078E+00  4.04622E+00  4.47331E+00  4.79899E+00  5.02628E+00
   5.17656E+00  5.23880E+00  5.18575E+00  5.02553E+00  4.78833E+00  4.50406E+00  4.18805E+00  3.83439E+00  3.42178E+00  2.93462E+00
   2.39199E+00  1.87682E+00  1.52014E+00  1.35385E+00  1.26054E+00  1.19646E+00  1.15270E+00  1.11794E+00  1.08715E+00  1.06408E+00
   1.04626E+00  1.03067E+00  1.01491E+00  9.97504E-01  9.79370E-01  9.66602E-01  9.64197E-01  9.72148E-01  9.89247E-01  1.01464E+00
   1.04685E+00  1.08361E+00  1.12202E+00  1.16010E+00  1.19751E+00  1.23333E+00  1.26645E+00  1.29590E+00  1.32074E+00  1.33989E+00
   1.35232E+00  1.35755E+00  1.35559E+00  1.34644E+00  1.33040E+00  1.30831E+00  1.28116E+00  1.25028E+00  1.21724E+00  1.18383E+00
   1.15194E+00  1.12353E+00  1.10056E+00  1.08497E+00  1.07863E+00  1.08337E+00  1.10075E+00  1.13212E+00  1.17840E+00  1.24001E+00
   1.31695E+00  1.40888E+00  1.51510E+00  1.63447E+00  1.76535E+00  1.90576E+00  2.05343E+00  2.20547E+00  2.35849E+00  2.50875E+00
   2.65236E+00  2.78550E+00  2.90445E+00  3.00576E+00  3.08644E+00  3.14414E+00  3.17726E+00  3.18506E+00  3.16769E+00  3.12613E+00
   3.06191E+00  2.97789E+00  2.87836E+00  2.76857E+00  2.65448E+00  2.54246E+00  2.43889E+00  2.34954E+00  2.27807E+00  2.22496E+00
   2.18764E+00  2.16050E+00  2.13551E+00  2.10347E+00  2.05563E+00  1.98542E+00  1.88972E+00  1.76951E+00  1.62960E+00  1.47764E+00
   1.32260E+00  1.17315E+00  1.03640E+00  9.17028E-01  8.17109E-01  7.36432E-01  6.73116E-01  6.24334E-01  5.86981E-01  5.58152E-01
   5.35437E-01  5.17016E-01  5.01648E-01  4.88571E-01  4.77396E-01  4.67997E-01  4.60432E-01  4.54872E-01  4.51560E-01  4.50786E-01
   4.52864E-01  4.58135E-01  4.66957E-01  4.79704E-01  4.96760E-01  5.18515E-01  5.45361E-01  5.77680E-01  6.15833E-01  6.60138E-01
   7.10842E-01  7.68099E-01  8.31936E-01  9.02223E-01  9.78639E-01  1.06064E+00  1.14744E+00  1.23799E+00  1.33097E+00  1.42484E+00
   1.51781E+00  1.60793E+00  1.69313E+00  1.77131E+00  1.84041E+00  1.89851E+00  1.94391E+00  1.97524E+00  1.99149E+00  1.99210E+00
   1.97696E+00  1.94643E+00  1.90132E+00  1.84285E+00  1.77255E+00  1.69225E+00  1.60393E+00  1.50965E+00  1.41147E+00  1.31136E+00
   1.21113E+00  1.11240E+00  1.01653E+00  9.24625E-01  8.37536E-01  7.55853E-01  6.79934E-01  6.09936E-01  5.45842E-01  4.87493E-01
   4.34629E-01  3.86913E-01  3.43964E-01  3.05376E-01  2.70740E-01  2.39652E-01  2.11729E-01  1.86617E-01  1.63990E-01  1.43553E-01
   1.25044E-01  1.08228E-01  9.29003E-02  7.88823E-02  6.60193E-02  5.41763E-02  4.32359E-02  3.30952E-02  2.36657E-02  1.48719E-02
   6.64765E-03 -1.06548E-03 -8.31967E-03 -1.51604E-02 -2.16268E-02 -2.77518E-02 -3.35654E-02 -3.90950E-02 -4.43656E-02 -4.93984E-02
  -5.42122E-02 -5.88234E-02 -6.32475E-02 -6.74994E-02 -7.15927E-02 -7.55385E-02 -7.93465E-02 -8.30250E-02 -8.65830E-02 -9.00290E-02
  -9.33708E-02 -9.66142E-02 -9.97649E-02 -1.02828E-01 -1.05810E-01 -1.08716E-01 -1.11551E-01 -1.14317E-01 -1.17017E-01 -1.19655E-01
  -1.22234E-01 -1.24759E-01 -1.27231E-01 -1.29652E-01 -1.32024E-01 -1.34349E-01 -1.36631E-01 -1.38870E-01 -1.41069E-01 -1.43226E-01
  -1.45343E-01 -1.47422E-01 -1.49465E-01 -1.51471E-01 -1.53440E-01 -1.55371E-01 -1.57264E-01 -1.59120E-01
 NY background values follow
     3.042E-01    3.032E-01    3.021E-01    3.011E-01    3.001E-01    2.991E-01    2.980E-01    2.970E-01    2.960E-01    2.950E-01
     2.939E-01    2.929E-01    2.919E-01    2.909E-01    2.898E-01    2.888E-01    2.878E-01    2.868E-01    2.857E-01    2.847E-01
     2.837E-01    2.827E-01    2.816E-01    2.806E-01    2.796E-01    2.786E-01    2.775E-01    2.765E-01    2.755E-01    2.745E-01
     2.734E-01    2.724E-01    2.714E-01    2.704E-01    2.693E-01    2.683E-01    2.673E-01    2.663E-01    2.652E-01    2.642E-01
     2.632E-01    2.621E-01    2.611E-01    2.601E-01    2.591E-01    2.580E-01    2.570E-01    2.560E-01    2.550E-01    2.539E-01
     2.529E-01    2.519E-01    2.509E-01    2.498E-01    2.488E-01    2.478E-01    2.468E-01    2.457E-01    2.447E-01    2.437E-01
     2.426E-01    2.416E-01    2.406E-01    2.396E-01    2.385E-01    2.375E-01    2.365E-01    2.355E-01    2.344E-01    2.334E-01
     2.324E-01    2.313E-01    2.303E-01    2.293E-01    2.283E-01    2.272E-01    2.262E-01    2.252E-01    2.242E-01    2.231E-01
     2.221E-01    2.211E-01    2.200E-01    2.190E-01    2.180E-01    2.170E-01    2.159E-01    2.149E-01    2.139E-01    2.128E-01
     2.118E-01    2.108E-01    2.098E-01    2.087E-01    2.077E-01    2.067E-01    2.056E-01    2.046E-01    2.036E-01    2.026E-01
     2.015E-01    2.005E-01    1.995E-01    1.984E-01    1.974E-01    1.964E-01    1.954E-01    1.943E-01    1.933E-01    1.923E-01
     1.912E-01    1.902E-01    1.892E-01    1.882E-01    1.871E-01    1.861E-01    1.851E-01    1.840E-01    1.830E-01    1.820E-01
     1.809E-01    1.799E-01    1.789E-01    1.779E-01    1.768E-01    1.758E-01    1.748E-01    1.737E-01    1.727E-01    1.717E-01
     1.707E-01    1.696E-01    1.686E-01    1.676E-01    1.665E-01    1.655E-01    1.645E-01    1.634E-01    1.624E-01    1.614E-01
     1.604E-01    1.593E-01    1.583E-01    1.573E-01    1.562E-01    1.552E-01    1.542E-01    1.531E-01    1.521E-01    1.511E-01
     1.501E-01    1.490E-01    1.480E-01    1.470E-01    1.459E-01    1.449E-01    1.439E-01    1.428E-01    1.418E-01    1.408E-01
     1.397E-01    1.387E-01    1.377E-01    1.367E-01    1.356E-01    1.346E-01    1.336E-01    1.325E-01    1.315E-01    1.305E-01
     1.294E-01    1.284E-01    1.274E-01    1.263E-01    1.253E-01    1.243E-01    1.232E-01    1.222E-01    1.212E-01    1.202E-01
     1.191E-01    1.181E-01    1.171E-01    1.160E-01    1.150E-01    1.140E-01    1.129E-01    1.119E-01    1.109E-01    1.098E-01
     1.088E-01    1.078E-01    1.067E-01    1.057E-01    1.047E-01    1.036E-01    1.026E-01    1.016E-01    1.006E-01    9.952E-02
     9.849E-02    9.746E-02    9.642E-02    9.539E-02    9.436E-02    9.333E-02    9.229E-02    9.126E-02    9.023E-02    8.920E-02
     8.817E-02    8.713E-02    8.610E-02    8.507E-02    8.404E-02    8.300E-02    8.197E-02    8.094E-02    7.991E-02    7.887E-02
     7.784E-02    7.681E-02    7.578E-02    7.474E-02    7.371E-02    7.268E-02    7.165E-02    7.061E-02    6.958E-02    6.855E-02
     6.751E-02    6.648E-02    6.545E-02    6.442E-02    6.338E-02    6.235E-02    6.132E-02    6.028E-02    5.925E-02    5.822E-02
     5.718E-02    5.615E-02    5.512E-02    5.408E-02    5.305E-02    5.202E-02    5.099E-02    4.995E-02    4.892E-02    4.789E-02
     4.685E-02    4.582E-02    4.479E-02    4.375E-02    4.272E-02    4.169E-02    4.065E-02    3.962E-02    3.858E-02    3.755E-02
     3.652E-02    3.548E-02    3.445E-02    3.342E-02    3.238E-02    3.135E-02    3.032E-02    2.928E-02    2.825E-02    2.722E-02
     2.618E-02    2.515E-02    2.411E-02    2.308E-02    2.205E-02    2.101E-02    1.998E-02    1.894E-02    1.791E-02    1.688E-02
     1.584E-02    1.481E-02    1.377E-02    1.274E-02    1.171E-02    1.067E-02    9.639E-03    8.605E-03    7.571E-03    6.536E-03
     5.502E-03    4.468E-03    3.434E-03    2.400E-03    1.366E-03    3.314E-04   -7.029E-04   -1.737E-03   -2.771E-03   -3.806E-03
    -4.840E-03   -5.874E-03   -6.909E-03   -7.943E-03   -8.977E-03   -1.001E-02   -1.105E-02   -1.208E-02   -1.312E-02   -1.415E-02
    -1.518E-02   -1.622E-02   -1.725E-02   -1.829E-02   -1.932E-02   -2.036E-02   -2.139E-02   -2.243E-02   -2.346E-02   -2.449E-02
    -2.553E-02   -2.656E-02   -2.760E-02   -2.863E-02   -2.967E-02   -3.070E-02   -3.174E-02   -3.277E-02   -3.381E-02   -3.484E-02
    -3.588E-02   -3.691E-02   -3.795E-02   -3.898E-02   -4.002E-02   -4.105E-02   -4.209E-02   -4.312E-02   -4.415E-02   -4.519E-02
    -4.622E-02   -4.726E-02   -4.829E-02   -4.933E-02   -5.036E-02   -5.140E-02   -5.243E-02   -5.347E-02   -5.450E-02   -5.554E-02
    -5.657E-02   -5.761E-02   -5.864E-02   -5.968E-02   -6.071E-02   -6.175E-02   -6.278E-02   -6.382E-02   -6.485E-02   -6.589E-02
    -6.692E-02   -6.796E-02   -6.899E-02   -7.003E-02   -7.106E-02   -7.210E-02   -7.313E-02   -7.417E-02   -7.520E-02   -7.624E-02
    -7.727E-02   -7.831E-02   -7.934E-02   -8.038E-02   -8.141E-02   -8.245E-02   -8.349E-02   -8.452E-02   -8.556E-02   -8.659E-02
    -8.763E-02   -8.866E-02   -8.970E-02   -9.073E-02   -9.177E-02   -9.280E-02   -9.384E-02   -9.487E-02   -9.591E-02   -9.694E-02
    -9.798E-02   -9.901E-02   -1.000E-01   -1.011E-01   -1.021E-01   -1.032E-01   -1.042E-01   -1.052E-01   -1.063E-01   -1.073E-01
    -1.083E-01   -1.094E-01   -1.104E-01   -1.114E-01   -1.125E-01   -1.135E-01   -1.145E-01   -1.156E-01   -1.166E-01   -1.176E-01
    -1.187E-01   -1.197E-01   -1.208E-01   -1.218E-01   -1.228E-01   -1.239E-01   -1.249E-01   -1.259E-01   -1.270E-01   -1.280E-01
    -1.290E-01   -1.301E-01   -1.311E-01   -1.321E-01   -1.332E-01   -1.342E-01   -1.352E-01   -1.363E-01   -1.373E-01   -1.384E-01
    -1.394E-01   -1.404E-01   -1.415E-01   -1.425E-01   -1.435E-01   -1.446E-01   -1.456E-01   -1.466E-01   -1.477E-01   -1.487E-01
    -1.497E-01   -1.508E-01   -1.518E-01   -1.528E-01   -1.539E-01   -1.549E-01   -1.559E-01   -1.570E-01   -1.580E-01   -1.591E-01
    -1.601E-01   -1.611E-01   -1.622E-01   -1.632E-01   -1.642E-01   -1.653E-01   -1.663E-01   -1.673E-01   -1.684E-01   -1.694E-01
    -1.704E-01   -1.715E-01   -1.725E-01   -1.735E-01   -1.746E-01   -1.756E-01   -1.767E-01   -1.777E-01   -1.787E-01   -1.798E-01
    -1.808E-01   -1.818E-01   -1.829E-01   -1.839E-01   -1.849E-01   -1.860E-01   -1.870E-01   -1.880E-01   -1.891E-01   -1.901E-01
    -1.911E-01   -1.922E-01   -1.932E-01   -1.942E-01   -1.953E-01   -1.963E-01   -1.974E-01   -1.984E-01   -1.994E-01   -2.005E-01
    -2.015E-01   -2.025E-01   -2.036E-01   -2.046E-01   -2.056E-01   -2.067E-01   -2.077E-01   -2.087E-01
 Ala      Conc. = 1.35E+00
