 LCModel (Version 6.3-1L) Copyright: S.W. Provencher.          Ref.: Magn. Reson. Med. 30:672-679 (1993).                
 Slice#2 Row#9 Col#11  PD_05_press_2_raw_act
 36 lines in following concentration table = NCONC+1
    Conc.  %SD /Cr+PCr  Metabolite                                         
   42.809 446% 5.6E-02 Ala                                                 
   30.152 609% 3.9E-02 Asp                                                 
    0.000 999%   0.000 Cr                                                  
  769.030   9%   1.000 PCr                                                 
   95.184 125%   0.124 GABA                                                
  104.075 111%   0.135 Glc                                                 
 1.33E+03  34%   1.736 Gln                                                 
  860.988  59%   1.120 Glu                                                 
  241.823  11%   0.314 GPC                                                 
    0.000 999%   0.000 PCh                                                 
  162.892  64%   0.212 GSH                                                 
  989.620  31%   1.287 Ins                                                 
    0.000 999%   0.000 Lac                                                 
 1.85E+03   9%   2.406 NAA                                                 
   21.429 916% 2.8E-02 NAAG                                                
   58.831  47% 7.6E-02 Scyllo                                              
  205.029  83%   0.267 Tau                                                 
  483.713  24%   0.629 -CrCH2                                              
  241.823  11%   0.314 GPC+PCh                                             
 1.87E+03   5%   2.434 NAA+NAAG                                            
  769.030   9%   1.000 Cr+PCr                                              
 2.20E+03  37%   2.855 Glu+Gln                                             
  699.518  32%   0.910 Lip13a                                              
    0.000 999%   0.000 Lip13b                                              
    0.000 999%   0.000 Lip09                                               
  837.242  17%   1.089 MM09                                                
  116.664  62%   0.152 Lip20                                               
 1.38E+03  17%   1.796 MM20                                                
  253.172  23%   0.329 MM12                                                
 1.10E+03  16%   1.429 MM14                                                
  556.306  21%   0.723 MM17                                                
  699.518  32%   0.910 Lip13a+Lip13b                                       
 2.05E+03  12%   2.668 MM14+Lip13a+Lip13b+MM12                             
  837.242  17%   1.089 MM09+Lip09                                          
 1.50E+03  16%   1.947 MM20+Lip20                                          
   6 lines in following misc. output table
  FWHM = 0.076 ppm    S/N =   6                                            
  Data shift = 0.023 ppm                                                   
  Ph: -31 deg      -9.7 deg/ppm                                            
  alphaB,S = 8.5E+01,   3.3E+02                                            
   14 spline knots.   Ns = 9(1)                                            
   2 inflections.     1 extrema                                            
  498 points on ppm-axis = NY
      4.000000     3.992357     3.984714     3.977070     3.969427     3.961784     3.954141     3.946497     3.938854     3.931211
      3.923568     3.915925     3.908281     3.900638     3.892995     3.885352     3.877708     3.870065     3.862422     3.854779
      3.847136     3.839492     3.831849     3.824206     3.816563     3.808919     3.801276     3.793633     3.785990     3.778347
      3.770703     3.763060     3.755417     3.747774     3.740130     3.732487     3.724844     3.717201     3.709558     3.701914
      3.694271     3.686628     3.678985     3.671341     3.663698     3.656055     3.648412     3.640769     3.633125     3.625482
      3.617839     3.610196     3.602552     3.594909     3.587266     3.579623     3.571980     3.564336     3.556693     3.549050
      3.541407     3.533763     3.526120     3.518477     3.510834     3.503191     3.495547     3.487904     3.480261     3.472618
      3.464974     3.457331     3.449688     3.442045     3.434402     3.426758     3.419115     3.411472     3.403829     3.396185
      3.388542     3.380899     3.373256     3.365613     3.357969     3.350326     3.342683     3.335040     3.327396     3.319753
      3.312110     3.304467     3.296824     3.289180     3.281537     3.273894     3.266251     3.258607     3.250964     3.243321
      3.235678     3.228034     3.220391     3.212748     3.205105     3.197462     3.189818     3.182175     3.174532     3.166889
      3.159245     3.151602     3.143959     3.136316     3.128673     3.121029     3.113386     3.105743     3.098100     3.090456
      3.082813     3.075170     3.067527     3.059884     3.052240     3.044597     3.036954     3.029311     3.021667     3.014024
      3.006381     2.998738     2.991095     2.983451     2.975808     2.968165     2.960522     2.952878     2.945235     2.937592
      2.929949     2.922306     2.914662     2.907019     2.899376     2.891733     2.884089     2.876446     2.868803     2.861160
      2.853517     2.845873     2.838230     2.830587     2.822944     2.815300     2.807657     2.800014     2.792371     2.784728
      2.777084     2.769441     2.761798     2.754155     2.746511     2.738868     2.731225     2.723582     2.715939     2.708295
      2.700652     2.693009     2.685366     2.677722     2.670079     2.662436     2.654793     2.647150     2.639506     2.631863
      2.624220     2.616577     2.608933     2.601290     2.593647     2.586004     2.578361     2.570717     2.563074     2.555431
      2.547788     2.540144     2.532501     2.524858     2.517215     2.509572     2.501928     2.494285     2.486642     2.478999
      2.471355     2.463712     2.456069     2.448426     2.440783     2.433139     2.425496     2.417853     2.410210     2.402566
      2.394923     2.387280     2.379637     2.371994     2.364350     2.356707     2.349064     2.341421     2.333777     2.326134
      2.318491     2.310848     2.303205     2.295561     2.287918     2.280275     2.272632     2.264988     2.257345     2.249702
      2.242059     2.234416     2.226772     2.219129     2.211486     2.203843     2.196199     2.188556     2.180913     2.173270
      2.165627     2.157983     2.150340     2.142697     2.135054     2.127410     2.119767     2.112124     2.104481     2.096838
      2.089194     2.081551     2.073908     2.066265     2.058621     2.050978     2.043335     2.035692     2.028049     2.020405
      2.012762     2.005119     1.997476     1.989833     1.982190     1.974546     1.966903     1.959260     1.951617     1.943974
      1.936331     1.928688     1.921045     1.913402     1.905759     1.898115     1.890472     1.882829     1.875186     1.867543
      1.859900     1.852257     1.844614     1.836971     1.829327     1.821684     1.814041     1.806398     1.798755     1.791112
      1.783469     1.775826     1.768183     1.760540     1.752896     1.745253     1.737610     1.729967     1.722324     1.714681
      1.707038     1.699395     1.691752     1.684108     1.676465     1.668822     1.661179     1.653536     1.645893     1.638250
      1.630607     1.622964     1.615321     1.607677     1.600034     1.592391     1.584748     1.577105     1.569462     1.561819
      1.554176     1.546533     1.538890     1.531246     1.523603     1.515960     1.508317     1.500674     1.493031     1.485388
      1.477745     1.470102     1.462458     1.454815     1.447172     1.439529     1.431886     1.424243     1.416600     1.408957
      1.401314     1.393671     1.386027     1.378384     1.370741     1.363098     1.355455     1.347812     1.340169     1.332526
      1.324883     1.317240     1.309596     1.301953     1.294310     1.286667     1.279024     1.271381     1.263738     1.256095
      1.248452     1.240808     1.233165     1.225522     1.217879     1.210236     1.202593     1.194950     1.187307     1.179664
      1.172021     1.164377     1.156734     1.149091     1.141448     1.133805     1.126162     1.118519     1.110876     1.103233
      1.095590     1.087946     1.080303     1.072660     1.065017     1.057374     1.049731     1.042088     1.034445     1.026802
      1.019158     1.011515     1.003872     0.996229     0.988586     0.980943     0.973300     0.965657     0.958014     0.950371
      0.942727     0.935084     0.927441     0.919798     0.912155     0.904512     0.896869     0.889226     0.881583     0.873940
      0.866296     0.858653     0.851010     0.843367     0.835724     0.828081     0.820438     0.812795     0.805152     0.797508
      0.789865     0.782222     0.774579     0.766936     0.759293     0.751650     0.744007     0.736364     0.728721     0.721077
      0.713434     0.705791     0.698148     0.690505     0.682862     0.675219     0.667576     0.659933     0.652290     0.644646
      0.637003     0.629360     0.621717     0.614074     0.606431     0.598788     0.591145     0.583502     0.575858     0.568215
      0.560572     0.552929     0.545286     0.537643     0.530000     0.522357     0.514714     0.507071     0.499427     0.491784
      0.484141     0.476498     0.468855     0.461212     0.453569     0.445925     0.438282     0.430639     0.422996     0.415353
      0.407710     0.400067     0.392424     0.384780     0.377137     0.369494     0.361851     0.354208     0.346565     0.338922
      0.331278     0.323635     0.315992     0.308349     0.300706     0.293063     0.285420     0.277777     0.270133     0.262490
      0.254847     0.247204     0.239561     0.231918     0.224275     0.216631     0.208988     0.201345
 NY phased data points follow
   7.75154E+00  1.52297E+01  1.88377E+01  2.00035E+01  1.15358E+01  9.19777E+00  1.56588E+01  1.60849E+01  1.56052E+01  1.00750E+01
   6.36483E+00  9.71672E+00  8.23643E+00  1.02510E+01  1.20718E+01  1.82605E+01  1.21835E+01  1.48227E+01  4.82044E+00  9.27057E+00
   1.46060E+01  5.38325E+00  2.01063E+01  8.24929E+00  1.03722E+01  6.54381E+00  1.20284E+01  9.98200E+00  8.80509E+00  1.21702E+01
   1.27127E+01  7.43709E+00  1.60209E+01  1.17862E+01  1.24988E+01  1.13805E+01  8.15582E+00  9.01765E+00  8.49397E+00  1.23841E+01
   1.38339E+01  1.39004E+01  1.31852E+01  1.75184E+01  1.29187E+01  8.42892E+00  1.35726E+01  1.58092E+01  8.01446E+00  1.14187E+01
   1.06253E+01  1.08869E+01  1.20271E+01  1.47659E+01  6.83059E+00  8.77087E+00  1.44089E+01  7.51566E+00  1.82835E+01  6.73110E+00
   1.09479E+01  5.18913E+00  1.27350E+01 -2.55169E+00  6.55384E+00  1.13500E+01  1.12096E+01  1.22258E+01  1.04711E+01  1.11924E+01
   4.67821E+00  7.23059E+00  3.96021E+00  7.66852E+00  1.59809E+01  1.01813E+01  7.13143E+00  5.19140E+00  7.90612E+00  9.69762E+00
   1.10994E+01  1.12161E+01  1.00190E+01  1.15939E+01  1.41743E+01  6.57707E+00  1.25514E+01  5.62915E+00  8.10213E+00  3.22074E+00
   9.61486E+00  3.01932E+00  8.82294E+00  6.22149E+00  1.35321E+01  9.40570E+00  1.22525E+01  1.51213E+01  1.86095E+01  1.94991E+01
   2.38818E+01  1.28423E+01  2.11675E+01  2.62017E+01  2.05050E+01  2.24703E+01  1.77130E+01  1.46803E+01  1.37158E+01  1.39070E+01
   7.08643E+00  1.37152E+01  1.13333E+01  9.10191E+00  1.23754E+01  9.71348E+00  1.12826E+01  6.77690E+00  4.20978E+00  8.86120E+00
   1.13709E+01  9.73801E+00  1.33261E+01  1.56218E+01  1.83324E+01  1.77045E+01  1.76994E+01  2.64062E+01  2.45474E+01  3.12916E+01
   3.04320E+01  2.20910E+01  1.76531E+01  1.55315E+01  1.61449E+01  8.52604E+00  1.07398E+01  8.32502E+00  1.47000E+01  1.92232E+00
   4.81780E+00  7.10231E+00  7.82176E+00  5.33560E+00  7.75778E+00  4.03684E+00  5.94108E+00  6.54335E+00  5.62215E+00  8.80496E+00
   5.03496E+00  5.26208E+00  7.15876E+00  6.86344E+00  4.93078E+00  6.11096E+00  2.88981E+00  6.96660E+00  7.20679E+00  2.55153E+00
   5.72658E+00  4.81077E+00  9.38822E+00  2.30633E+00  7.22748E+00  1.54707E+00  3.15212E+00  1.75874E+00  8.36843E+00  1.77237E+00
   2.57030E+00 -2.59088E+00 -4.12807E+00 -2.36452E+00 -2.39053E+00 -5.16485E+00 -3.22635E+00 -7.41346E+00 -7.04303E+00 -6.22955E+00
  -5.43077E+00  3.10917E+00  9.36919E-01  1.52570E+00 -2.68375E-01  8.00348E-01  5.06219E+00  4.77864E-01  3.65319E-01  3.17569E+00
   1.62529E+00  3.53349E+00  3.57115E+00  5.77780E+00  1.17624E+00  6.48495E+00  1.45313E+00 -2.71563E+00  4.36735E+00 -3.05587E+00
   4.50553E+00  2.10676E+00  7.65886E-01  2.17770E+00  2.44960E+00  5.98911E+00  7.59792E+00  2.51920E+00  5.64135E+00 -5.45152E-01
   3.84652E+00  5.49462E+00  6.15039E+00  2.89116E+00  8.24665E+00  1.36547E+01  9.78770E+00  1.01123E+01  1.17180E+01  7.60914E+00
   1.29944E+01  1.33983E+01  6.56501E+00  4.79135E+00  4.68985E+00  6.82161E+00  7.99478E+00  8.65212E+00  1.26495E+01  8.41787E+00
   5.08352E+00  9.00678E+00  6.17363E+00  9.30423E+00  6.68831E+00  7.33268E+00  8.20208E+00  3.70327E+00  7.96821E+00  8.59581E+00
   3.04105E+00  1.19038E+01  8.32820E+00  6.35913E+00  6.61806E+00  7.35436E+00  4.86998E+00  9.50362E+00  1.53443E+01  1.38867E+01
   1.21285E+01  1.68954E+01  1.41968E+01  1.59925E+01  1.87358E+01  3.06182E+01  3.52339E+01  3.39697E+01  4.02139E+01  5.05344E+01
   5.15797E+01  5.80674E+01  5.68887E+01  4.80834E+01  4.24233E+01  3.04415E+01  2.93281E+01  2.21787E+01  1.93930E+01  1.50298E+01
   1.60990E+01  1.15706E+01  1.24804E+01  8.48721E+00  5.43106E+00  6.66799E+00  4.57623E+00  2.72182E+00  8.24800E+00  5.07482E+00
   9.59697E+00  6.88868E+00  5.47770E+00  5.37439E+00  8.90701E+00  1.64259E+00  5.90852E+00  6.73796E+00  8.30243E+00  3.80739E+00
   9.88014E+00  3.36957E+00  8.20960E+00  5.79494E+00  1.09932E+01  4.63939E+00  7.72813E+00  5.01778E+00  3.14703E+00  8.12695E+00
   7.43376E+00  5.21988E+00  2.02350E+00  5.05207E+00  2.90291E+00  1.22895E+01  1.43186E+01  8.92768E+00  1.35215E+01  1.09481E+01
   8.97494E+00  7.49465E+00  1.22544E+01  1.12784E+01  1.03839E+01  1.12245E+01  3.32098E+00  6.10275E+00  5.60518E+00  9.42307E+00
   1.09128E+01  5.74649E+00  1.12310E+01  4.17721E+00  6.52675E+00  3.60068E+00  1.00059E+01  1.02039E+01  1.06919E+01  1.09701E+01
   1.22690E+01  1.16010E+01  1.18891E+01  1.40517E+01  7.79441E+00  1.28759E+01  9.49261E+00  1.52953E+01  1.22127E+01  1.24452E+01
   6.05428E+00  9.31355E+00  1.14794E+01  1.10862E+01  7.75732E+00  8.65976E+00  1.06730E+01  7.43981E+00  9.91663E+00  1.31148E+01
   1.12367E+01  7.43422E+00  8.68698E+00  1.16855E+01  6.58794E+00  1.06735E+01  8.18467E+00  3.33808E+00  8.17846E+00 -4.72332E-01
   7.01563E+00  5.90650E+00  2.28688E+00  6.76342E+00  1.04211E+01  4.40274E+00  6.59224E+00  7.92884E+00  6.45846E+00  8.39807E+00
   9.99520E+00  2.50762E+00  4.09964E+00 -1.01196E+00  1.26456E-01  4.49259E+00  1.70625E+00  9.26608E-01  8.70392E-01  6.02058E+00
   5.12388E+00  2.63972E+00  8.72884E-01  9.87070E-01  8.39467E-01  5.15841E+00  7.39901E+00  1.47016E+00  3.25102E-02  4.96849E+00
   2.39407E+00  2.92972E+00  2.24261E+00  4.97328E-01  2.51673E+00  1.94811E+00  4.03335E+00  1.22040E+01 -1.05591E-01  6.50521E+00
   5.18132E+00  4.28257E+00  5.85208E+00  1.16451E+01  1.27032E+00  1.14974E+00 -2.54912E+00  2.57128E-01  1.14083E+01  2.57107E+00
   1.74555E+00 -3.75722E+00  6.80360E+00  5.24181E+00  5.16775E+00  7.99117E-01 -3.45714E-01  2.50136E+00  9.74769E-01 -3.11115E-01
   4.86727E+00  5.63855E-01  2.26047E+00 -5.07671E-01 -1.67350E+00  6.90550E-02  5.35561E-01 -5.80900E-01 -1.28008E+00  2.09656E+00
   9.16391E-01  1.25889E-01 -2.06706E+00  2.17681E+00  8.70386E-01 -1.87770E+00 -1.15113E+00 -2.75040E+00  3.35786E+00  3.03985E+00
  -2.41751E-01 -5.94673E+00 -9.17559E-01 -2.08777E+00 -1.24473E+00 -2.38437E+00 -2.37010E+00 -1.86011E+00 -6.33142E-01  4.89981E+00
  -5.25353E+00 -2.13247E+00  4.54770E-01  6.04524E-01 -1.53847E+00  2.90522E+00  2.36317E-01 -9.19954E+00  4.25603E+00  1.86376E+00
   9.13749E-01  1.84988E+00 -1.96766E+00 -1.29100E+00  2.67288E+00 -9.64534E-01  6.27647E+00  3.55821E+00  1.02536E+00 -1.94369E+00
   3.68057E+00  9.70103E-01 -6.75318E-01  1.30909E+00 -1.30745E-01 -3.25111E+00 -8.09598E-02 -1.87412E+00 -8.59492E-01 -6.75726E-01
   2.91403E+00 -3.18189E+00 -7.03101E-01 -6.64615E-01  5.48412E+00  2.18452E+00  9.08249E-01 -3.35686E+00  2.58081E+00  2.97842E+00
   4.69468E+00  6.19230E+00  4.46891E+00  2.70457E+00  9.75559E-01 -3.05566E+00 -1.34356E+00 -3.88824E+00
 NY points of the fit to the data follow
   1.03728E+01  1.02484E+01  1.02891E+01  1.04896E+01  1.08576E+01  1.13260E+01  1.18443E+01  1.23995E+01  1.29253E+01  1.33265E+01
   1.35230E+01  1.34738E+01  1.31920E+01  1.27464E+01  1.22250E+01  1.17089E+01  1.12416E+01  1.08063E+01  1.03777E+01  9.96843E+00
   9.62607E+00  9.39919E+00  9.27500E+00  9.30704E+00  9.49401E+00  9.79319E+00  1.01844E+01  1.06405E+01  1.11512E+01  1.17159E+01
   1.23209E+01  1.28670E+01  1.32293E+01  1.33062E+01  1.30694E+01  1.25617E+01  1.18941E+01  1.11716E+01  1.05422E+01  1.01266E+01
   1.00017E+01  1.01822E+01  1.06090E+01  1.12271E+01  1.19166E+01  1.25824E+01  1.31521E+01  1.35279E+01  1.36344E+01  1.34370E+01
   1.29624E+01  1.22814E+01  1.15211E+01  1.08152E+01  1.02319E+01  9.76729E+00  9.41543E+00  9.18384E+00  9.10689E+00  9.19458E+00
   9.36698E+00  9.50082E+00  9.52483E+00  9.45020E+00  9.31386E+00  9.15807E+00  9.03805E+00  8.99461E+00  9.02291E+00  9.09461E+00
   9.20544E+00  9.34755E+00  9.49087E+00  9.61141E+00  9.67565E+00  9.66172E+00  9.57617E+00  9.47697E+00  9.39332E+00  9.30693E+00
   9.21348E+00  9.11107E+00  9.00692E+00  8.92632E+00  8.85160E+00  8.74208E+00  8.57724E+00  8.34160E+00  8.02695E+00  7.66240E+00
   7.31260E+00  7.02684E+00  6.88067E+00  7.14763E+00  8.03826E+00  9.41255E+00  1.11406E+01  1.31302E+01  1.52161E+01  1.72690E+01
   1.92118E+01  2.09219E+01  2.21931E+01  2.27764E+01  2.24904E+01  2.13410E+01  1.95366E+01  1.73950E+01  1.52006E+01  1.31086E+01
   1.11758E+01  9.42072E+00  7.97705E+00  7.12435E+00  6.80705E+00  6.65013E+00  6.56614E+00  6.62980E+00  7.17403E+00  8.36600E+00
   1.00489E+01  1.20700E+01  1.42980E+01  1.66228E+01  1.89749E+01  2.12590E+01  2.32727E+01  2.47244E+01  2.53139E+01  2.48631E+01
   2.34293E+01  2.12819E+01  1.87842E+01  1.62383E+01  1.37983E+01  1.15254E+01  9.49347E+00  7.90161E+00  7.04947E+00  6.75586E+00
   6.64847E+00  6.61377E+00  6.60453E+00  6.59222E+00  6.56781E+00  6.52382E+00  6.44501E+00  6.33398E+00  6.19946E+00  6.05035E+00
   5.90597E+00  5.77634E+00  5.64275E+00  5.48986E+00  5.31859E+00  5.14258E+00  4.99018E+00  4.86653E+00  4.74744E+00  4.61727E+00
   4.47456E+00  4.32856E+00  4.19869E+00  4.09832E+00  4.01964E+00  3.93209E+00  3.79609E+00  3.57828E+00  3.27482E+00  2.94054E+00
   2.62620E+00  2.34334E+00  2.05617E+00  1.75345E+00  1.47784E+00  1.27054E+00  1.16370E+00  1.13863E+00  1.14621E+00  1.16849E+00
   1.21935E+00  1.31044E+00  1.46049E+00  1.68874E+00  1.98944E+00  2.32841E+00  2.67641E+00  2.99325E+00  3.28955E+00  3.59234E+00
   3.86794E+00  4.07018E+00  4.18834E+00  4.26331E+00  4.36665E+00  4.57039E+00  4.92525E+00  5.41838E+00  5.99483E+00  6.60052E+00
   7.13846E+00  7.42839E+00  7.44365E+00  7.18938E+00  6.62221E+00  5.75176E+00  4.68099E+00  3.56451E+00  2.58403E+00  1.87480E+00
   1.57310E+00  1.76653E+00  2.43444E+00  3.40332E+00  4.44712E+00  5.42787E+00  6.25788E+00  6.83061E+00  7.09372E+00  7.04749E+00
   6.71641E+00  6.20777E+00  5.79662E+00  5.60162E+00  5.61794E+00  5.83751E+00  6.19801E+00  6.58961E+00  6.92243E+00  7.15363E+00
   7.31575E+00  7.46322E+00  7.63400E+00  7.77890E+00  7.86740E+00  7.97333E+00  8.14717E+00  8.37062E+00  8.61007E+00  8.80268E+00
   8.85984E+00  8.72623E+00  8.41539E+00  8.02144E+00  7.69681E+00  7.54096E+00  7.56354E+00  7.76592E+00  8.21004E+00  8.88597E+00
   9.83777E+00  1.15838E+01  1.48009E+01  1.91271E+01  2.40665E+01  2.93003E+01  3.45448E+01  3.96123E+01  4.43674E+01  4.85181E+01
   5.15300E+01  5.27575E+01  5.17091E+01  4.83434E+01  4.31667E+01  3.70120E+01  3.06838E+01  2.46753E+01  1.91696E+01  1.42385E+01
   1.01530E+01  7.55770E+00  6.57343E+00  6.17639E+00  5.93968E+00  5.77583E+00  5.64038E+00  5.50468E+00  5.36748E+00  5.22684E+00
   5.08352E+00  4.94234E+00  4.81189E+00  4.69846E+00  4.61191E+00  4.55950E+00  4.54064E+00  4.55219E+00  4.59050E+00  4.65037E+00
   4.72886E+00  4.82395E+00  4.93345E+00  5.05782E+00  5.19741E+00  5.35135E+00  5.51945E+00  5.70041E+00  5.89059E+00  6.08483E+00
   6.27851E+00  6.46653E+00  6.64326E+00  6.80356E+00  6.94331E+00  7.05826E+00  7.14616E+00  7.20601E+00  7.23855E+00  7.24573E+00
   7.23113E+00  7.19946E+00  7.15671E+00  7.10946E+00  7.06517E+00  7.03129E+00  7.01572E+00  7.02704E+00  7.07478E+00  7.15697E+00
   7.26585E+00  7.39683E+00  7.54598E+00  7.70863E+00  7.87909E+00  8.04909E+00  8.21689E+00  8.38438E+00  8.54873E+00  8.70947E+00
   8.86994E+00  9.03356E+00  9.20197E+00  9.37249E+00  9.53803E+00  9.68819E+00  9.81190E+00  9.89963E+00  9.94358E+00  9.93072E+00
   9.86045E+00  9.74572E+00  9.59854E+00  9.42728E+00  9.23823E+00  9.03928E+00  8.84624E+00  8.66773E+00  8.49944E+00  8.33874E+00
   8.18433E+00  8.03462E+00  7.88802E+00  7.74245E+00  7.59595E+00  7.44638E+00  7.29201E+00  7.13122E+00  6.96306E+00  6.78688E+00
   6.60276E+00  6.41111E+00  6.21300E+00  6.00976E+00  5.80328E+00  5.59547E+00  5.38864E+00  5.18492E+00  4.98668E+00  4.79601E+00
   4.61508E+00  4.44571E+00  4.28974E+00  4.14857E+00  4.02369E+00  3.91617E+00  3.82716E+00  3.75743E+00  3.70782E+00  3.67885E+00
   3.67115E+00  3.68499E+00  3.72073E+00  3.77834E+00  3.85775E+00  3.95847E+00  4.07985E+00  4.22070E+00  4.37953E+00  4.55416E+00
   4.74205E+00  4.93988E+00  5.14400E+00  5.34998E+00  5.55314E+00  5.74825E+00  5.93005E+00  6.09307E+00  6.23222E+00  6.34257E+00
   6.41998E+00  6.46089E+00  6.46290E+00  6.42451E+00  6.34554E+00  6.22679E+00  6.07038E+00  5.87925E+00  5.65743E+00  5.40945E+00
   5.14049E+00  4.85579E+00  4.56081E+00  4.26064E+00  3.96025E+00  3.66387E+00  3.37538E+00  3.09775E+00  2.83350E+00  2.58429E+00
   2.35135E+00  2.13515E+00  1.93588E+00  1.75311E+00  1.58630E+00  1.43451E+00  1.29683E+00  1.17205E+00  1.05911E+00  9.56772E-01
   8.64040E-01  7.79788E-01  7.03146E-01  6.33143E-01  5.69070E-01  5.10126E-01  4.55782E-01  4.05400E-01  3.58592E-01  3.14840E-01
   2.73863E-01  2.35253E-01  1.98829E-01  1.64266E-01  1.31442E-01  1.00080E-01  7.01072E-02  4.12985E-02  1.36275E-02 -1.30990E-02
  -3.88909E-02 -6.39247E-02 -8.81858E-02 -1.11821E-01 -1.34795E-01 -1.57248E-01 -1.79143E-01 -2.00611E-01 -2.21601E-01 -2.42224E-01
  -2.62424E-01 -2.82314E-01 -3.01840E-01 -3.21109E-01 -3.40050E-01 -3.58763E-01 -3.77178E-01 -3.95400E-01 -4.13362E-01 -4.31159E-01
  -4.48712E-01 -4.66110E-01 -4.83283E-01 -5.00325E-01 -5.17161E-01 -5.33877E-01 -5.50389E-01 -5.66784E-01 -5.82986E-01 -5.99086E-01
  -6.15003E-01 -6.30815E-01 -6.46436E-01 -6.61950E-01 -6.77280E-01 -6.92506E-01 -7.07542E-01 -7.22458E-01 -7.37167E-01 -7.51747E-01
  -7.66115E-01 -7.80340E-01 -7.94326E-01 -8.08134E-01 -8.21668E-01 -8.34994E-01 -8.48010E-01 -8.60765E-01
 NY background values follow
     7.143E+00    7.128E+00    7.113E+00    7.098E+00    7.083E+00    7.068E+00    7.053E+00    7.039E+00    7.024E+00    7.009E+00
     6.994E+00    6.979E+00    6.964E+00    6.949E+00    6.934E+00    6.919E+00    6.904E+00    6.889E+00    6.874E+00    6.859E+00
     6.844E+00    6.829E+00    6.814E+00    6.800E+00    6.785E+00    6.770E+00    6.755E+00    6.740E+00    6.725E+00    6.710E+00
     6.695E+00    6.679E+00    6.664E+00    6.649E+00    6.634E+00    6.619E+00    6.604E+00    6.589E+00    6.574E+00    6.559E+00
     6.544E+00    6.529E+00    6.514E+00    6.499E+00    6.484E+00    6.469E+00    6.454E+00    6.438E+00    6.423E+00    6.408E+00
     6.393E+00    6.378E+00    6.363E+00    6.348E+00    6.333E+00    6.317E+00    6.302E+00    6.287E+00    6.272E+00    6.257E+00
     6.242E+00    6.226E+00    6.211E+00    6.196E+00    6.181E+00    6.166E+00    6.150E+00    6.135E+00    6.120E+00    6.105E+00
     6.090E+00    6.074E+00    6.059E+00    6.044E+00    6.029E+00    6.014E+00    5.998E+00    5.983E+00    5.968E+00    5.953E+00
     5.937E+00    5.922E+00    5.907E+00    5.891E+00    5.876E+00    5.861E+00    5.846E+00    5.830E+00    5.815E+00    5.800E+00
     5.784E+00    5.769E+00    5.754E+00    5.738E+00    5.723E+00    5.708E+00    5.693E+00    5.677E+00    5.662E+00    5.647E+00
     5.631E+00    5.616E+00    5.600E+00    5.585E+00    5.570E+00    5.554E+00    5.539E+00    5.524E+00    5.508E+00    5.493E+00
     5.478E+00    5.462E+00    5.447E+00    5.431E+00    5.416E+00    5.401E+00    5.385E+00    5.370E+00    5.354E+00    5.339E+00
     5.324E+00    5.308E+00    5.293E+00    5.277E+00    5.262E+00    5.246E+00    5.231E+00    5.216E+00    5.200E+00    5.185E+00
     5.169E+00    5.154E+00    5.138E+00    5.123E+00    5.107E+00    5.092E+00    5.076E+00    5.061E+00    5.045E+00    5.030E+00
     5.014E+00    4.999E+00    4.984E+00    4.968E+00    4.953E+00    4.937E+00    4.922E+00    4.906E+00    4.891E+00    4.875E+00
     4.859E+00    4.844E+00    4.828E+00    4.813E+00    4.797E+00    4.782E+00    4.766E+00    4.751E+00    4.735E+00    4.720E+00
     4.704E+00    4.689E+00    4.673E+00    4.658E+00    4.642E+00    4.626E+00    4.611E+00    4.595E+00    4.580E+00    4.564E+00
     4.549E+00    4.533E+00    4.517E+00    4.502E+00    4.486E+00    4.471E+00    4.455E+00    4.440E+00    4.424E+00    4.408E+00
     4.393E+00    4.377E+00    4.362E+00    4.346E+00    4.330E+00    4.315E+00    4.299E+00    4.284E+00    4.268E+00    4.252E+00
     4.237E+00    4.221E+00    4.206E+00    4.190E+00    4.174E+00    4.159E+00    4.143E+00    4.127E+00    4.112E+00    4.096E+00
     4.081E+00    4.065E+00    4.049E+00    4.034E+00    4.018E+00    4.002E+00    3.987E+00    3.971E+00    3.955E+00    3.940E+00
     3.924E+00    3.908E+00    3.893E+00    3.877E+00    3.861E+00    3.846E+00    3.830E+00    3.814E+00    3.799E+00    3.783E+00
     3.767E+00    3.752E+00    3.736E+00    3.720E+00    3.705E+00    3.689E+00    3.673E+00    3.658E+00    3.642E+00    3.626E+00
     3.611E+00    3.595E+00    3.579E+00    3.564E+00    3.548E+00    3.532E+00    3.517E+00    3.501E+00    3.485E+00    3.469E+00
     3.454E+00    3.438E+00    3.422E+00    3.407E+00    3.391E+00    3.375E+00    3.360E+00    3.344E+00    3.328E+00    3.312E+00
     3.297E+00    3.281E+00    3.265E+00    3.250E+00    3.234E+00    3.218E+00    3.202E+00    3.187E+00    3.171E+00    3.155E+00
     3.140E+00    3.124E+00    3.108E+00    3.092E+00    3.077E+00    3.061E+00    3.045E+00    3.030E+00    3.014E+00    2.998E+00
     2.982E+00    2.967E+00    2.951E+00    2.935E+00    2.920E+00    2.904E+00    2.888E+00    2.872E+00    2.857E+00    2.841E+00
     2.825E+00    2.810E+00    2.794E+00    2.778E+00    2.762E+00    2.747E+00    2.731E+00    2.715E+00    2.699E+00    2.684E+00
     2.668E+00    2.652E+00    2.637E+00    2.621E+00    2.605E+00    2.589E+00    2.574E+00    2.558E+00    2.542E+00    2.526E+00
     2.511E+00    2.495E+00    2.479E+00    2.464E+00    2.448E+00    2.432E+00    2.416E+00    2.401E+00    2.385E+00    2.369E+00
     2.353E+00    2.338E+00    2.322E+00    2.306E+00    2.291E+00    2.275E+00    2.259E+00    2.243E+00    2.228E+00    2.212E+00
     2.196E+00    2.180E+00    2.165E+00    2.149E+00    2.133E+00    2.118E+00    2.102E+00    2.086E+00    2.070E+00    2.055E+00
     2.039E+00    2.023E+00    2.008E+00    1.992E+00    1.976E+00    1.960E+00    1.945E+00    1.929E+00    1.913E+00    1.898E+00
     1.882E+00    1.866E+00    1.850E+00    1.835E+00    1.819E+00    1.803E+00    1.788E+00    1.772E+00    1.756E+00    1.741E+00
     1.725E+00    1.709E+00    1.693E+00    1.678E+00    1.662E+00    1.646E+00    1.631E+00    1.615E+00    1.599E+00    1.584E+00
     1.568E+00    1.552E+00    1.537E+00    1.521E+00    1.505E+00    1.490E+00    1.474E+00    1.458E+00    1.443E+00    1.427E+00
     1.411E+00    1.396E+00    1.380E+00    1.364E+00    1.349E+00    1.333E+00    1.317E+00    1.302E+00    1.286E+00    1.270E+00
     1.255E+00    1.239E+00    1.223E+00    1.208E+00    1.192E+00    1.176E+00    1.161E+00    1.145E+00    1.129E+00    1.114E+00
     1.098E+00    1.082E+00    1.067E+00    1.051E+00    1.036E+00    1.020E+00    1.004E+00    9.887E-01    9.731E-01    9.574E-01
     9.418E-01    9.262E-01    9.106E-01    8.950E-01    8.794E-01    8.638E-01    8.482E-01    8.326E-01    8.170E-01    8.014E-01
     7.858E-01    7.702E-01    7.546E-01    7.390E-01    7.234E-01    7.078E-01    6.923E-01    6.767E-01    6.611E-01    6.455E-01
     6.300E-01    6.144E-01    5.988E-01    5.833E-01    5.677E-01    5.521E-01    5.366E-01    5.210E-01    5.055E-01    4.899E-01
     4.744E-01    4.589E-01    4.433E-01    4.278E-01    4.122E-01    3.967E-01    3.812E-01    3.657E-01    3.501E-01    3.346E-01
     3.191E-01    3.036E-01    2.881E-01    2.726E-01    2.571E-01    2.416E-01    2.261E-01    2.106E-01    1.951E-01    1.796E-01
     1.641E-01    1.486E-01    1.331E-01    1.177E-01    1.022E-01    8.673E-02    7.126E-02    5.580E-02    4.034E-02    2.488E-02
     9.426E-03   -6.025E-03   -2.147E-02   -3.692E-02   -5.236E-02   -6.779E-02   -8.323E-02   -9.866E-02   -1.141E-01   -1.295E-01
    -1.449E-01   -1.603E-01   -1.758E-01   -1.912E-01   -2.066E-01   -2.220E-01   -2.374E-01   -2.528E-01   -2.682E-01   -2.835E-01
    -2.989E-01   -3.143E-01   -3.297E-01   -3.451E-01   -3.604E-01   -3.758E-01   -3.911E-01   -4.065E-01   -4.219E-01   -4.372E-01
    -4.526E-01   -4.679E-01   -4.832E-01   -4.986E-01   -5.139E-01   -5.292E-01   -5.445E-01   -5.599E-01
 Ala      Conc. = 4.28E+01
