 LCModel (Version 6.3-1L) Copyright: S.W. Provencher.          Ref.: Magn. Reson. Med. 30:672-679 (1993).                
 Slice#1 Row#6 Col#7  PD_05_press_2_raw_act
 36 lines in following concentration table = NCONC+1
    Conc.  %SD /Cr+PCr  Metabolite                                         
    0.000 999%   0.000 Ala                                                 
   34.132 999% 1.0E-02 Asp                                                 
 3.32E+03   8%   1.000 Cr                                                  
    0.000 999%   0.000 PCr                                                 
  237.853 153% 7.2E-02 GABA                                                
  271.248 133% 8.2E-02 Glc                                                 
 2.10E+03 113%   0.632 Gln                                                 
 1.85E+03 148%   0.558 Glu                                                 
 1.06E+03  11%   0.320 GPC                                                 
    0.000 999%   0.000 PCh                                                 
 2.14E+03  23%   0.643 GSH                                                 
 1.03E+04  12%   3.086 Ins                                                 
 8.48E+03  22%   2.552 Lac                                                 
 4.22E+03   8%   1.270 NAA                                                 
    0.000 999%   0.000 NAAG                                                
  229.403  42% 6.9E-02 Scyllo                                              
  316.667 174% 9.5E-02 Tau                                                 
    0.000 999%   0.000 -CrCH2                                              
 1.06E+03  11%   0.320 GPC+PCh                                             
 4.22E+03   8%   1.270 NAA+NAAG                                            
 3.32E+03   8%   1.000 Cr+PCr                                              
 3.96E+03 106%   1.190 Glu+Gln                                             
 2.24E+04   8%   6.745 Lip13a                                              
    0.000 999%   0.000 Lip13b                                              
 4.74E+03  16%   1.428 Lip09                                               
  348.459 146%   0.105 MM09                                                
 3.07E+03  19%   0.922 Lip20                                               
    0.000 999%   0.000 MM20                                                
  104.582 306% 3.1E-02 MM12                                                
 8.09E+03  10%   2.433+MM14                                                
    0.000 999%   0.000 MM17                                                
 2.24E+04   8%   6.745 Lip13a+Lip13b                                       
 3.06E+04   5%   9.210 MM14+Lip13a+Lip13b+MM12                             
 5.09E+03  12%   1.532 MM09+Lip09                                          
 3.07E+03  19%   0.922 MM20+Lip20                                          
   6 lines in following misc. output table
  FWHM = 0.122 ppm    S/N =   6                                            
  Data shift = 0.069 ppm                                                   
  Ph:  -2 deg       5.2 deg/ppm                                            
  alphaB,S = 8.5E+01,   1.0E+02                                            
    7 spline knots.   Ns = 9(2)                                            
   4 inflections.     1 extrema                                            
  498 points on ppm-axis = NY
      4.000000     3.992357     3.984714     3.977070     3.969427     3.961784     3.954141     3.946497     3.938854     3.931211
      3.923568     3.915925     3.908281     3.900638     3.892995     3.885352     3.877708     3.870065     3.862422     3.854779
      3.847136     3.839492     3.831849     3.824206     3.816563     3.808919     3.801276     3.793633     3.785990     3.778347
      3.770703     3.763060     3.755417     3.747774     3.740130     3.732487     3.724844     3.717201     3.709558     3.701914
      3.694271     3.686628     3.678985     3.671341     3.663698     3.656055     3.648412     3.640769     3.633125     3.625482
      3.617839     3.610196     3.602552     3.594909     3.587266     3.579623     3.571980     3.564336     3.556693     3.549050
      3.541407     3.533763     3.526120     3.518477     3.510834     3.503191     3.495547     3.487904     3.480261     3.472618
      3.464974     3.457331     3.449688     3.442045     3.434402     3.426758     3.419115     3.411472     3.403829     3.396185
      3.388542     3.380899     3.373256     3.365613     3.357969     3.350326     3.342683     3.335040     3.327396     3.319753
      3.312110     3.304467     3.296824     3.289180     3.281537     3.273894     3.266251     3.258607     3.250964     3.243321
      3.235678     3.228034     3.220391     3.212748     3.205105     3.197462     3.189818     3.182175     3.174532     3.166889
      3.159245     3.151602     3.143959     3.136316     3.128673     3.121029     3.113386     3.105743     3.098100     3.090456
      3.082813     3.075170     3.067527     3.059884     3.052240     3.044597     3.036954     3.029311     3.021667     3.014024
      3.006381     2.998738     2.991095     2.983451     2.975808     2.968165     2.960522     2.952878     2.945235     2.937592
      2.929949     2.922306     2.914662     2.907019     2.899376     2.891733     2.884089     2.876446     2.868803     2.861160
      2.853517     2.845873     2.838230     2.830587     2.822944     2.815300     2.807657     2.800014     2.792371     2.784728
      2.777084     2.769441     2.761798     2.754155     2.746511     2.738868     2.731225     2.723582     2.715939     2.708295
      2.700652     2.693009     2.685366     2.677722     2.670079     2.662436     2.654793     2.647150     2.639506     2.631863
      2.624220     2.616577     2.608933     2.601290     2.593647     2.586004     2.578361     2.570717     2.563074     2.555431
      2.547788     2.540144     2.532501     2.524858     2.517215     2.509572     2.501928     2.494285     2.486642     2.478999
      2.471355     2.463712     2.456069     2.448426     2.440783     2.433139     2.425496     2.417853     2.410210     2.402566
      2.394923     2.387280     2.379637     2.371994     2.364350     2.356707     2.349064     2.341421     2.333777     2.326134
      2.318491     2.310848     2.303205     2.295561     2.287918     2.280275     2.272632     2.264988     2.257345     2.249702
      2.242059     2.234416     2.226772     2.219129     2.211486     2.203843     2.196199     2.188556     2.180913     2.173270
      2.165627     2.157983     2.150340     2.142697     2.135054     2.127410     2.119767     2.112124     2.104481     2.096838
      2.089194     2.081551     2.073908     2.066265     2.058621     2.050978     2.043335     2.035692     2.028049     2.020405
      2.012762     2.005119     1.997476     1.989833     1.982190     1.974546     1.966903     1.959260     1.951617     1.943974
      1.936331     1.928688     1.921045     1.913402     1.905759     1.898115     1.890472     1.882829     1.875186     1.867543
      1.859900     1.852257     1.844614     1.836971     1.829327     1.821684     1.814041     1.806398     1.798755     1.791112
      1.783469     1.775826     1.768183     1.760540     1.752896     1.745253     1.737610     1.729967     1.722324     1.714681
      1.707038     1.699395     1.691752     1.684108     1.676465     1.668822     1.661179     1.653536     1.645893     1.638250
      1.630607     1.622964     1.615321     1.607677     1.600034     1.592391     1.584748     1.577105     1.569462     1.561819
      1.554176     1.546533     1.538890     1.531246     1.523603     1.515960     1.508317     1.500674     1.493031     1.485388
      1.477745     1.470102     1.462458     1.454815     1.447172     1.439529     1.431886     1.424243     1.416600     1.408957
      1.401314     1.393671     1.386027     1.378384     1.370741     1.363098     1.355455     1.347812     1.340169     1.332526
      1.324883     1.317240     1.309596     1.301953     1.294310     1.286667     1.279024     1.271381     1.263738     1.256095
      1.248452     1.240808     1.233165     1.225522     1.217879     1.210236     1.202593     1.194950     1.187307     1.179664
      1.172021     1.164377     1.156734     1.149091     1.141448     1.133805     1.126162     1.118519     1.110876     1.103233
      1.095590     1.087946     1.080303     1.072660     1.065017     1.057374     1.049731     1.042088     1.034445     1.026802
      1.019158     1.011515     1.003872     0.996229     0.988586     0.980943     0.973300     0.965657     0.958014     0.950371
      0.942727     0.935084     0.927441     0.919798     0.912155     0.904512     0.896869     0.889226     0.881583     0.873940
      0.866296     0.858653     0.851010     0.843367     0.835724     0.828081     0.820438     0.812795     0.805152     0.797508
      0.789865     0.782222     0.774579     0.766936     0.759293     0.751650     0.744007     0.736364     0.728721     0.721077
      0.713434     0.705791     0.698148     0.690505     0.682862     0.675219     0.667576     0.659933     0.652290     0.644646
      0.637003     0.629360     0.621717     0.614074     0.606431     0.598788     0.591145     0.583502     0.575858     0.568215
      0.560572     0.552929     0.545286     0.537643     0.530000     0.522357     0.514714     0.507071     0.499427     0.491784
      0.484141     0.476498     0.468855     0.461212     0.453569     0.445925     0.438282     0.430639     0.422996     0.415353
      0.407710     0.400067     0.392424     0.384780     0.377137     0.369494     0.361851     0.354208     0.346565     0.338922
      0.331278     0.323635     0.315992     0.308349     0.300706     0.293063     0.285420     0.277777     0.270133     0.262490
      0.254847     0.247204     0.239561     0.231918     0.224275     0.216631     0.208988     0.201345
 NY phased data points follow
   6.37920E+01  5.48785E+01  6.11715E+01  4.27638E+01  6.69895E+01  2.77396E+01  5.86949E+01  4.06784E+01  4.67783E+01  2.32934E+01
   4.79101E+01  3.29008E+01  4.82171E+01  3.93291E+01  3.61520E+01  2.65452E+01  4.91126E+01  2.16045E+01  5.00412E+01  4.16091E+01
   5.54747E+01  2.52549E+01  4.28418E+01  3.28042E+01  4.18059E+01  2.58988E+01  1.62854E+01  1.24956E+01  2.87770E+01  2.96156E+01
   5.09647E+01  1.74449E+01  3.25149E+01  2.08411E+01  3.32156E+01  4.15976E+01  4.98597E+01  4.74171E+01  3.18802E+01  2.70285E+01
   4.34641E+01  4.24316E+01  2.48783E+01  3.14507E+01  3.29219E+01  4.82909E+01  3.53981E+01  2.50591E+01  3.03479E+01  3.51542E+01
   3.67607E+01  3.13203E+01  3.49270E+01  1.88845E+01  1.62642E+01 -1.21153E+00  1.41185E+01 -2.70356E+00  2.51899E+01  1.33189E+01
   2.59325E+01  1.85320E+01  2.86698E+01  1.71996E+01  1.34271E+01  1.93520E+01  1.44005E+01  1.59395E+01  3.43960E+01  1.47281E+01
   1.42471E+01  4.49788E+00 -7.33724E+00  7.68749E+00  5.95086E+00  3.23344E+00  1.53544E+01  2.56885E+00  1.47975E+01  3.78039E+01
   9.49176E+00  8.95670E+00  6.93555E+00  5.11880E+00  7.34553E+00  1.82368E+01  1.08713E+01  1.21240E+01  1.00475E+01  2.69783E+01
   3.15523E+01  2.72624E+01  5.56569E+01  4.76010E+01  4.77963E+01  5.13616E+01  5.77035E+01  9.69729E+00  1.18495E+01  1.74796E+01
   3.13629E+01  2.69453E+01  7.87843E+00  1.06858E+01  2.55272E+01  2.20618E+01  4.22852E+00  7.18580E+00  5.61066E+00  1.30768E+01
   2.26190E+01  1.12825E+01  1.33499E+01  7.17638E+00  3.90326E+01  3.20179E+01  3.92071E+01  5.46216E+01  7.09693E+01  4.95308E+01
   4.94171E+01  4.38128E+01  2.66268E+01  5.17814E+00  4.46522E+01  2.92894E+01  2.69454E+01  2.51605E+01  1.51236E+01  2.71166E+01
   3.26631E+01 -3.80880E+00  1.00749E+01  5.33395E+00  1.68151E+01  2.24070E+00  2.45524E+01  2.26488E+01 -1.92383E+00  8.63952E+00
   1.43217E+00  1.08617E+01  7.02774E+00  4.10816E+00  9.45830E+00 -4.37080E+00 -1.54321E+00 -5.92592E-01  3.04524E+00 -7.23523E+00
   1.14983E+01  4.52920E+00  8.43598E+00  5.29705E+00 -2.22013E+00 -1.95271E-01  2.01943E+01 -4.24372E+00  2.92760E+00 -2.80775E+00
   2.20969E+01 -1.68086E+01 -8.54072E+00 -5.21030E+00  6.61202E+00  1.01646E+01 -1.07256E+01 -1.18813E+01  1.22235E+01 -1.45421E+01
   4.46306E+00 -1.52585E+01 -4.06375E+00 -1.85100E+00 -8.05439E+00 -5.31522E+00 -5.17551E+00 -1.60228E+01 -2.33395E-01  1.07830E+01
  -2.28406E+00  4.51844E+00 -1.01580E+00  3.58308E+00  8.62387E+00 -4.25340E+00  2.29383E+01 -2.44324E+00  9.24812E-01  4.84079E+00
   1.44312E+01 -1.57784E+01 -7.68511E+00 -1.12383E+01  4.55302E-01 -2.40387E+00  1.35124E+01 -1.56972E+01  6.31437E+00 -1.43784E+01
   3.20718E+00 -4.21840E+00 -1.43664E+01 -1.48830E+01  2.15235E+01  6.02465E+00  6.08906E+00  2.87821E+00  1.17326E+01  3.19907E+00
  -8.04346E+00 -2.45479E+01  1.12165E+01  1.20650E-01  3.38345E+00 -6.21296E+00  9.15032E+00  9.42628E+00  2.14318E+00  1.02102E+01
   1.39197E+01  2.64908E+00 -9.79797E+00 -1.06525E+00  1.58120E+01  7.33922E+00  1.29797E+01  4.03727E+00  1.65273E+01  1.43022E+01
   4.20771E+00 -6.57188E-01  3.95674E-01 -3.06015E+00  1.76536E+00  7.53946E+00  5.30461E+00 -4.60358E-01 -3.49315E+00  2.25227E+01
   1.61820E+01  1.51576E+01  7.85959E+00  1.06831E+01  4.43950E+01  1.82313E+01  4.80625E+01  5.38652E+01  5.71993E+01  7.85955E+01
   1.00822E+02  1.25673E+02  1.04790E+02  8.84857E+01  6.80009E+01  3.63460E+01  4.69714E+01  5.66672E+01  6.00787E+01  5.56675E+01
   5.12697E+01  4.27437E+01  3.29738E+01  1.27999E+01  1.70221E+01  1.71970E+01  2.24067E+01 -6.97206E+00  2.35014E+01 -1.95877E+00
   1.79072E+01  8.50456E+00  1.80150E+01  5.14876E+00  1.12148E+01  6.04305E-02 -7.81235E+00  6.19807E+00  5.53007E-01 -1.22206E+01
   1.45833E+01  9.31418E+00  7.75322E+00 -4.72498E-01  1.22421E+01  9.43868E-01  1.32310E+01  1.37596E+01  1.94110E+01  5.46318E+00
   9.76572E+00 -7.44235E+00  3.10629E+00 -4.02791E+00  1.16407E+01  2.27570E+01  2.52189E+01 -1.86601E+00  1.33083E+01 -9.21716E+00
   1.16041E+01 -9.54474E+00 -6.12418E+00  1.13821E+01  3.42115E+00  9.50152E+00  1.52458E+01  7.32909E+00  1.26674E+01  7.48177E+00
   3.07846E+01  2.84190E+01  2.85245E+01  3.71787E+01  3.50917E+01  3.07637E+01  5.10251E+01  4.76851E+01  5.77549E+01  6.06286E+01
   5.88037E+01  6.40985E+01  8.40602E+01  1.14656E+02  9.64327E+01  1.14704E+02  1.18325E+02  1.25431E+02  1.34113E+02  1.43739E+02
   1.28342E+02  1.44312E+02  1.50470E+02  1.52591E+02  1.72184E+02  1.43320E+02  1.54396E+02  1.58926E+02  1.47592E+02  1.51459E+02
   1.36190E+02  1.32565E+02  1.22098E+02  1.28515E+02  1.29716E+02  1.18371E+02  1.32951E+02  1.01908E+02  1.09886E+02  8.49179E+01
   9.44804E+01  1.01628E+02  9.34541E+01  9.84893E+01  7.05602E+01  7.76357E+01  7.66584E+01  9.19005E+01  8.97367E+01  7.54660E+01
   6.70576E+01  5.20814E+01  5.83875E+01  4.04546E+01  4.81884E+01  5.17728E+01  4.90123E+01  3.19940E+01  2.00917E+01  2.18642E+01
   2.92396E+01  1.77321E+01  3.81868E+01  5.60602E+00 -2.39493E+00  2.01886E+01  1.05186E+01  1.52778E+01  9.85782E+00  2.14955E+00
   8.35995E+00 -4.63701E-01  1.52280E+01  1.52219E+01  2.05184E+01  2.84350E+01  1.84499E+01  1.99740E+01  1.85300E+01  1.76781E+01
   4.13369E+01  1.27803E+01  3.08038E+01  1.79880E+01  1.48807E+01  1.67282E+01  1.30552E+01  2.83919E+01  3.14753E+01  1.79999E+01
   2.60761E+01  2.25285E+01  2.94488E+01  1.94228E+01  1.64852E+01  7.93114E+00  1.25357E+01 -1.61454E+00  1.40995E+01  2.97772E+01
   9.95478E+00 -5.25237E+00  4.86559E+00  1.02870E+01  5.87092E+00 -8.22343E+00  2.68891E+00 -5.32117E+00 -6.16920E+00 -7.37704E+00
   3.89220E+00  2.17735E+01 -3.82479E+00  1.13933E+01  1.27933E+01 -3.75161E+00  8.36361E+00 -8.19579E+00  3.67697E+00  4.95108E+00
  -1.03714E+01 -2.16993E+01 -6.24214E+00  9.64488E+00  6.19417E+00 -1.59177E+01  1.33175E+00  2.21686E+01 -1.04208E+01 -9.83102E+00
  -2.85023E+00  2.48623E+00  9.00303E+00 -2.63524E+01 -4.31157E+00  1.53228E+01  4.20646E+00  3.03519E+00  9.16766E+00  2.07350E+01
  -2.96003E+00 -2.82113E+00  1.58905E+00 -1.20783E+01 -9.64443E+00  1.17255E+01 -4.70329E+00 -1.88139E+01  3.00007E-01  5.66968E+00
   1.17323E+01  1.30447E+01 -2.77638E+00 -3.69010E+00  6.21544E+00  2.07135E+01  1.04548E+01  7.36869E+00 -6.80798E+00  3.44643E+00
  -2.64481E+00 -3.29804E-01  9.68544E+00  6.27382E-01 -4.64002E+00  9.00487E+00  7.19166E+00 -3.48877E+00  7.99170E+00 -1.32384E+00
  -4.92444E+00 -3.35307E+00 -4.20528E+00  3.01811E-01 -1.80182E+01 -9.11528E+00  1.55527E+01  2.01961E+01  3.43248E+00  2.05079E+01
  -6.94419E+00 -1.40276E+01 -9.30497E+00 -1.40073E+01 -2.20335E-01 -1.28481E+01  1.66995E+01  1.62854E+01
 NY points of the fit to the data follow
   4.89720E+01  4.46158E+01  5.38525E+01  4.52887E+01  5.24120E+01  4.16446E+01  4.64367E+01  3.74475E+01  4.19274E+01  3.37899E+01
   3.82726E+01  3.17009E+01  3.65667E+01  3.01417E+01  3.49216E+01  2.98680E+01  3.55834E+01  3.15974E+01  3.88621E+01  3.46844E+01
   4.24804E+01  3.63032E+01  4.23525E+01  3.45333E+01  3.82008E+01  3.16674E+01  3.47834E+01  2.89926E+01  3.24076E+01  2.88090E+01
   3.32494E+01  3.07510E+01  3.47990E+01  3.36634E+01  3.76026E+01  3.79340E+01  4.12669E+01  4.10394E+01  4.22475E+01  3.95462E+01
   3.77322E+01  3.36321E+01  3.16546E+01  2.95829E+01  2.97501E+01  2.90382E+01  2.98122E+01  2.89781E+01  2.92045E+01  2.72817E+01
   2.70018E+01  2.35751E+01  2.30224E+01  1.93690E+01  1.95305E+01  1.70628E+01  1.86074E+01  1.78387E+01  2.08332E+01  1.99237E+01
   2.29062E+01  2.07683E+01  2.29363E+01  1.98073E+01  2.08624E+01  1.80777E+01  1.88765E+01  1.71921E+01  1.85269E+01  1.67884E+01
   1.75123E+01  1.51789E+01  1.54769E+01  1.25617E+01  1.22989E+01  8.91144E+00  8.27041E+00  4.94966E+00  4.51439E+00  2.24721E+00
   2.65049E+00  1.74050E+00  3.17213E+00  3.01785E+00  5.01671E+00  8.19822E+00  1.03661E+01  1.44225E+01  1.67571E+01  2.27056E+01
   2.61322E+01  3.28765E+01  3.69317E+01  4.11244E+01  4.35612E+01  4.12741E+01  4.14193E+01  3.49260E+01  3.44185E+01  2.96245E+01
   2.97296E+01  2.59936E+01  2.61215E+01  2.16706E+01  2.13458E+01  1.58296E+01  1.52441E+01  1.02982E+01  1.04808E+01  1.04799E+01
   1.42394E+01  1.54827E+01  2.23320E+01  2.48811E+01  3.54943E+01  3.66177E+01  4.96787E+01  4.55443E+01  5.82966E+01  4.58908E+01
   5.52683E+01  3.96111E+01  4.60972E+01  3.39426E+01  3.99355E+01  2.90418E+01  3.43579E+01  2.38792E+01  2.78390E+01  1.83852E+01
   2.03290E+01  1.26714E+01  1.28915E+01  7.32468E+00  6.81819E+00  3.15575E+00  2.64726E+00  1.26873E+00  1.30711E+00  7.39759E-01
   7.57706E-01  2.78213E-01  7.09956E-02 -1.03886E+00 -1.51894E+00 -2.26259E+00 -2.38374E+00 -2.43717E+00 -2.20931E+00 -2.65073E+00
  -2.44796E+00 -2.73023E+00 -2.45560E+00 -2.44613E+00 -2.37893E+00 -2.34968E+00 -2.76882E+00 -3.06235E+00 -3.80393E+00 -4.12959E+00
  -4.69610E+00 -4.92741E+00 -5.55266E+00 -5.88372E+00 -6.50297E+00 -6.87471E+00 -7.32679E+00 -7.94021E+00 -7.98381E+00 -8.94005E+00
  -8.44302E+00 -9.50617E+00 -8.47416E+00 -9.25846E+00 -7.55941E+00 -8.07944E+00 -5.83081E+00 -6.11664E+00 -3.58816E+00 -4.02848E+00
  -1.94005E+00 -2.67470E+00 -1.48602E+00 -2.65372E+00 -1.92213E+00 -2.63325E+00 -1.69824E+00 -1.25561E+00  1.68107E-01  1.55545E+00
   2.99576E+00  4.10745E+00  4.66715E+00  4.54763E+00  4.51800E+00  3.25354E+00  3.00830E+00  1.52447E+00  1.94991E+00  6.05233E-01
   2.14762E+00  1.12357E+00  4.00126E+00  2.58849E+00  5.71215E+00  3.45848E+00  5.93486E+00  2.91743E+00  4.76110E+00  2.06396E+00
   4.01302E+00  2.52910E+00  4.94310E+00  4.26529E+00  6.84277E+00  6.46740E+00  8.41565E+00  7.67871E+00  8.58229E+00  8.02639E+00
   8.58772E+00  8.41255E+00  9.21847E+00  9.95742E+00  1.08770E+01  1.15197E+01  1.21464E+01  1.19742E+01  1.21616E+01  1.09878E+01
   1.11628E+01  9.71769E+00  1.02299E+01  9.39757E+00  1.04514E+01  1.02422E+01  1.15294E+01  1.15824E+01  1.29215E+01  1.30003E+01
   1.47073E+01  1.66528E+01  2.38701E+01  2.74765E+01  3.65094E+01  4.10456E+01  5.25518E+01  5.73258E+01  6.96292E+01  7.28902E+01
   8.17813E+01  8.14685E+01  8.15485E+01  7.78698E+01  7.19581E+01  6.80349E+01  6.40959E+01  6.08956E+01  5.78500E+01  5.44516E+01
   4.96566E+01  4.55595E+01  3.86005E+01  3.44064E+01  2.74338E+01  2.41410E+01  1.90864E+01  1.68145E+01  1.34610E+01  1.21732E+01
   1.07066E+01  9.97029E+00  8.97342E+00  8.47429E+00  7.69478E+00  7.17473E+00  5.92945E+00  5.59016E+00  4.98963E+00  5.11130E+00
   5.58806E+00  5.83571E+00  6.04082E+00  6.29118E+00  6.54192E+00  6.83517E+00  7.13198E+00  7.46365E+00  7.79311E+00  8.14697E+00
   8.50055E+00  8.88520E+00  9.27441E+00  9.70347E+00  1.01438E+01  1.06248E+01  1.11276E+01  1.16723E+01  1.22467E+01  1.28703E+01
   1.35368E+01  1.42638E+01  1.50542E+01  1.59266E+01  1.68897E+01  1.79654E+01  1.91692E+01  2.05262E+01  2.20587E+01  2.37964E+01
   2.57667E+01  2.80003E+01  3.05285E+01  3.33809E+01  3.65853E+01  4.01659E+01  4.41413E+01  4.85227E+01  5.33137E+01  5.85082E+01
   6.40912E+01  7.00376E+01  7.63162E+01  8.28921E+01  8.97349E+01  9.68310E+01  1.04210E+02  1.12008E+02  1.20680E+02  1.30867E+02
   1.38013E+02  1.45234E+02  1.50518E+02  1.54551E+02  1.56594E+02  1.54408E+02  1.51885E+02  1.45503E+02  1.40941E+02  1.28748E+02
   1.25237E+02  1.15350E+02  1.16951E+02  1.15434E+02  1.20368E+02  1.21263E+02  1.26288E+02  1.21375E+02  1.23028E+02  1.11859E+02
   1.10489E+02  1.01123E+02  1.00217E+02  9.44361E+01  9.39385E+01  8.88472E+01  8.74767E+01  8.11108E+01  7.75192E+01  6.93779E+01
   6.43302E+01  5.64924E+01  5.12696E+01  4.42977E+01  4.00318E+01  3.57615E+01  3.28981E+01  3.02800E+01  2.78454E+01  2.54300E+01
   2.34940E+01  2.10045E+01  1.91680E+01  1.72006E+01  1.58281E+01  1.51106E+01  1.45600E+01  1.41678E+01  1.39390E+01  1.38619E+01
   1.39230E+01  1.41091E+01  1.44075E+01  1.48059E+01  1.52918E+01  1.58526E+01  1.64752E+01  1.71457E+01  1.78495E+01  1.85709E+01
   1.92936E+01  2.00006E+01  2.06745E+01  2.12978E+01  2.18534E+01  2.23249E+01  2.26972E+01  2.29570E+01  2.30932E+01  2.30976E+01
   2.29648E+01  2.26927E+01  2.22827E+01  2.17394E+01  2.10706E+01  2.02871E+01  1.94020E+01  1.84303E+01  1.73884E+01  1.62934E+01
   1.51627E+01  1.40129E+01  1.28601E+01  1.17186E+01  1.06014E+01  9.51945E+00  8.48174E+00  7.49524E+00  6.56497E+00  5.69418E+00
   4.88454E+00  4.13627E+00  3.44847E+00  2.81924E+00  2.24607E+00  1.72587E+00  1.25533E+00  8.30832E-01  4.48842E-01  1.05743E-01
  -2.01814E-01 -4.77133E-01 -7.23183E-01 -9.42854E-01 -1.13868E+00 -1.31307E+00 -1.46812E+00 -1.60576E+00 -1.72771E+00 -1.83556E+00
  -1.93067E+00 -2.01433E+00 -2.08757E+00 -2.15144E+00 -2.20678E+00 -2.25444E+00 -2.29508E+00 -2.32937E+00 -2.35784E+00 -2.38103E+00
  -2.39936E+00 -2.41331E+00 -2.42318E+00 -2.42937E+00 -2.43209E+00 -2.43170E+00 -2.42839E+00 -2.42244E+00 -2.41400E+00 -2.40328E+00
  -2.39041E+00 -2.37559E+00 -2.35892E+00 -2.34056E+00 -2.32058E+00 -2.29911E+00 -2.27620E+00 -2.25200E+00 -2.22653E+00 -2.19989E+00
  -2.17211E+00 -2.14326E+00 -2.11337E+00 -2.08250E+00 -2.05067E+00 -2.01792E+00 -1.98423E+00 -1.94966E+00 -1.91418E+00 -1.87784E+00
  -1.84060E+00 -1.80244E+00 -1.76335E+00 -1.72330E+00 -1.68224E+00 -1.64014E+00 -1.59691E+00 -1.55246E+00 -1.50669E+00 -1.45948E+00
  -1.41067E+00 -1.36006E+00 -1.30739E+00 -1.25235E+00 -1.19454E+00 -1.13345E+00 -1.06841E+00 -9.98450E-01
 NY background values follow
    -9.297E+00   -9.277E+00   -9.257E+00   -9.237E+00   -9.216E+00   -9.196E+00   -9.176E+00   -9.156E+00   -9.136E+00   -9.116E+00
    -9.096E+00   -9.076E+00   -9.056E+00   -9.035E+00   -9.015E+00   -8.995E+00   -8.975E+00   -8.955E+00   -8.935E+00   -8.915E+00
    -8.895E+00   -8.875E+00   -8.854E+00   -8.834E+00   -8.814E+00   -8.794E+00   -8.774E+00   -8.754E+00   -8.734E+00   -8.714E+00
    -8.693E+00   -8.673E+00   -8.653E+00   -8.633E+00   -8.613E+00   -8.593E+00   -8.573E+00   -8.552E+00   -8.532E+00   -8.512E+00
    -8.492E+00   -8.472E+00   -8.452E+00   -8.432E+00   -8.412E+00   -8.391E+00   -8.371E+00   -8.351E+00   -8.331E+00   -8.311E+00
    -8.291E+00   -8.271E+00   -8.250E+00   -8.230E+00   -8.210E+00   -8.190E+00   -8.170E+00   -8.150E+00   -8.129E+00   -8.109E+00
    -8.089E+00   -8.069E+00   -8.049E+00   -8.029E+00   -8.008E+00   -7.988E+00   -7.968E+00   -7.948E+00   -7.928E+00   -7.908E+00
    -7.887E+00   -7.867E+00   -7.847E+00   -7.827E+00   -7.807E+00   -7.787E+00   -7.766E+00   -7.746E+00   -7.726E+00   -7.706E+00
    -7.686E+00   -7.665E+00   -7.645E+00   -7.625E+00   -7.605E+00   -7.585E+00   -7.564E+00   -7.544E+00   -7.524E+00   -7.504E+00
    -7.484E+00   -7.463E+00   -7.443E+00   -7.423E+00   -7.403E+00   -7.382E+00   -7.362E+00   -7.342E+00   -7.322E+00   -7.301E+00
    -7.281E+00   -7.261E+00   -7.241E+00   -7.221E+00   -7.200E+00   -7.180E+00   -7.160E+00   -7.140E+00   -7.119E+00   -7.099E+00
    -7.079E+00   -7.059E+00   -7.038E+00   -7.018E+00   -6.998E+00   -6.977E+00   -6.957E+00   -6.937E+00   -6.917E+00   -6.896E+00
    -6.876E+00   -6.856E+00   -6.835E+00   -6.815E+00   -6.795E+00   -6.775E+00   -6.754E+00   -6.734E+00   -6.714E+00   -6.693E+00
    -6.673E+00   -6.653E+00   -6.632E+00   -6.612E+00   -6.592E+00   -6.571E+00   -6.551E+00   -6.531E+00   -6.510E+00   -6.490E+00
    -6.470E+00   -6.449E+00   -6.429E+00   -6.409E+00   -6.388E+00   -6.368E+00   -6.347E+00   -6.327E+00   -6.307E+00   -6.286E+00
    -6.266E+00   -6.246E+00   -6.225E+00   -6.205E+00   -6.184E+00   -6.164E+00   -6.143E+00   -6.123E+00   -6.103E+00   -6.082E+00
    -6.062E+00   -6.041E+00   -6.021E+00   -6.000E+00   -5.980E+00   -5.959E+00   -5.939E+00   -5.919E+00   -5.898E+00   -5.878E+00
    -5.857E+00   -5.837E+00   -5.816E+00   -5.796E+00   -5.775E+00   -5.754E+00   -5.734E+00   -5.713E+00   -5.693E+00   -5.672E+00
    -5.652E+00   -5.631E+00   -5.611E+00   -5.590E+00   -5.569E+00   -5.549E+00   -5.528E+00   -5.508E+00   -5.487E+00   -5.466E+00
    -5.446E+00   -5.425E+00   -5.405E+00   -5.384E+00   -5.363E+00   -5.343E+00   -5.322E+00   -5.301E+00   -5.280E+00   -5.260E+00
    -5.239E+00   -5.218E+00   -5.198E+00   -5.177E+00   -5.156E+00   -5.135E+00   -5.115E+00   -5.094E+00   -5.073E+00   -5.052E+00
    -5.032E+00   -5.011E+00   -4.990E+00   -4.969E+00   -4.948E+00   -4.928E+00   -4.907E+00   -4.886E+00   -4.865E+00   -4.844E+00
    -4.823E+00   -4.802E+00   -4.781E+00   -4.761E+00   -4.740E+00   -4.719E+00   -4.698E+00   -4.677E+00   -4.656E+00   -4.635E+00
    -4.614E+00   -4.593E+00   -4.572E+00   -4.551E+00   -4.530E+00   -4.509E+00   -4.488E+00   -4.467E+00   -4.446E+00   -4.425E+00
    -4.404E+00   -4.383E+00   -4.361E+00   -4.340E+00   -4.319E+00   -4.298E+00   -4.277E+00   -4.256E+00   -4.235E+00   -4.213E+00
    -4.192E+00   -4.171E+00   -4.150E+00   -4.129E+00   -4.107E+00   -4.086E+00   -4.065E+00   -4.044E+00   -4.022E+00   -4.001E+00
    -3.980E+00   -3.958E+00   -3.937E+00   -3.916E+00   -3.894E+00   -3.873E+00   -3.852E+00   -3.830E+00   -3.809E+00   -3.788E+00
    -3.766E+00   -3.745E+00   -3.723E+00   -3.702E+00   -3.680E+00   -3.659E+00   -3.638E+00   -3.616E+00   -3.595E+00   -3.573E+00
    -3.552E+00   -3.530E+00   -3.509E+00   -3.487E+00   -3.465E+00   -3.444E+00   -3.422E+00   -3.401E+00   -3.379E+00   -3.358E+00
    -3.336E+00   -3.314E+00   -3.293E+00   -3.271E+00   -3.249E+00   -3.228E+00   -3.206E+00   -3.184E+00   -3.163E+00   -3.141E+00
    -3.119E+00   -3.098E+00   -3.076E+00   -3.054E+00   -3.032E+00   -3.011E+00   -2.989E+00   -2.967E+00   -2.945E+00   -2.924E+00
    -2.902E+00   -2.880E+00   -2.858E+00   -2.836E+00   -2.815E+00   -2.793E+00   -2.771E+00   -2.749E+00   -2.727E+00   -2.705E+00
    -2.684E+00   -2.662E+00   -2.640E+00   -2.618E+00   -2.596E+00   -2.574E+00   -2.552E+00   -2.530E+00   -2.508E+00   -2.486E+00
    -2.464E+00   -2.442E+00   -2.420E+00   -2.398E+00   -2.376E+00   -2.354E+00   -2.332E+00   -2.310E+00   -2.288E+00   -2.266E+00
    -2.244E+00   -2.222E+00   -2.200E+00   -2.178E+00   -2.156E+00   -2.134E+00   -2.112E+00   -2.090E+00   -2.068E+00   -2.046E+00
    -2.024E+00   -2.002E+00   -1.979E+00   -1.957E+00   -1.935E+00   -1.913E+00   -1.891E+00   -1.869E+00   -1.847E+00   -1.824E+00
    -1.802E+00   -1.780E+00   -1.758E+00   -1.736E+00   -1.713E+00   -1.691E+00   -1.669E+00   -1.647E+00   -1.625E+00   -1.602E+00
    -1.580E+00   -1.558E+00   -1.536E+00   -1.513E+00   -1.491E+00   -1.469E+00   -1.447E+00   -1.424E+00   -1.402E+00   -1.380E+00
    -1.357E+00   -1.335E+00   -1.313E+00   -1.290E+00   -1.268E+00   -1.246E+00   -1.223E+00   -1.201E+00   -1.179E+00   -1.156E+00
    -1.134E+00   -1.112E+00   -1.089E+00   -1.067E+00   -1.045E+00   -1.022E+00   -9.999E-01   -9.775E-01   -9.551E-01   -9.327E-01
    -9.103E-01   -8.879E-01   -8.655E-01   -8.431E-01   -8.206E-01   -7.982E-01   -7.758E-01   -7.534E-01   -7.309E-01   -7.085E-01
    -6.860E-01   -6.636E-01   -6.411E-01   -6.187E-01   -5.962E-01   -5.737E-01   -5.513E-01   -5.288E-01   -5.063E-01   -4.838E-01
    -4.614E-01   -4.389E-01   -4.164E-01   -3.939E-01   -3.714E-01   -3.489E-01   -3.264E-01   -3.039E-01   -2.814E-01   -2.589E-01
    -2.363E-01   -2.138E-01   -1.913E-01   -1.688E-01   -1.462E-01   -1.237E-01   -1.012E-01   -7.865E-02   -5.611E-02   -3.357E-02
    -1.103E-02    1.152E-02    3.406E-02    5.661E-02    7.917E-02    1.017E-01    1.243E-01    1.468E-01    1.694E-01    1.920E-01
     2.145E-01    2.371E-01    2.597E-01    2.822E-01    3.048E-01    3.274E-01    3.499E-01    3.725E-01    3.951E-01    4.177E-01
     4.403E-01    4.628E-01    4.854E-01    5.080E-01    5.306E-01    5.532E-01    5.758E-01    5.983E-01    6.209E-01    6.435E-01
     6.661E-01    6.887E-01    7.113E-01    7.339E-01    7.565E-01    7.791E-01    8.017E-01    8.243E-01    8.469E-01    8.695E-01
     8.920E-01    9.146E-01    9.372E-01    9.598E-01    9.824E-01    1.005E+00    1.028E+00    1.050E+00    1.073E+00    1.095E+00
     1.118E+00    1.141E+00    1.163E+00    1.186E+00    1.208E+00    1.231E+00    1.254E+00    1.276E+00
 Asp      Conc. = 3.41E+01
