 LCModel (Version 6.3-1L) Copyright: S.W. Provencher.          Ref.: Magn. Reson. Med. 30:672-679 (1993).                
 Slice#1 Row#1 Col#1  PD_05_press_2_raw_act
 36 lines in following concentration table = NCONC+1
    Conc.  %SD /Cr+PCr  Metabolite                                         
    0.000 999%   0.000 Ala                                                 
    0.000 999%   0.000 Asp                                                 
    0.000 999%   0.000 Cr                                                  
    0.000 999%   0.000 PCr                                                 
    0.000 999%   0.000 GABA                                                
 8.80E-03 999%   0.000 Glc                                                 
  108.081 999%   0.000 Gln                                                 
    0.000 999%   0.000 Glu                                                 
    0.000 999%   0.000 GPC                                                 
    0.000 999%   0.000 PCh                                                 
    0.000 999%   0.000 GSH                                                 
  862.838  56%   0.000 Ins                                                 
 1.12E+04   7%   0.000 Lac                                                 
    0.000 999%   0.000 NAA                                                 
    0.000 999%   0.000 NAAG                                                
 3.64E-02 999%   0.000 Scyllo                                              
 4.68E-02 999%   0.000 Tau                                                 
 5.81E-02 999%   0.000 -CrCH2                                              
    0.000 999%   0.000 GPC+PCh                                             
    0.000 999%   0.000 NAA+NAAG                                            
    0.000 999%   0.000 Cr+PCr                                              
  108.081 999%   0.000 Glu+Gln                                             
    0.000 999%   0.000 Lip13a                                              
    0.000 999%   0.000 Lip13b                                              
    0.000 999%   0.000 Lip09                                               
 2.80E+03  10%   0.000 MM09                                                
   40.094 279%   0.000 Lip20                                               
 4.21E+03  10%   0.000 MM20                                                
  841.459  10%   0.000 MM12                                                
 2.10E+03  10%   0.000 MM14                                                
 1.05E+03  10%   0.000 MM17                                                
    0.000 999%   0.000 Lip13a+Lip13b                                       
 2.95E+03  10%   0.000 MM14+Lip13a+Lip13b+MM12                             
 2.80E+03  10%   0.000 MM09+Lip09                                          
 4.25E+03  10%   0.000 MM20+Lip20                                          
   6 lines in following misc. output table
  FWHM = 0.168 ppm    S/N =   4                                            
  Data shift =-0.015 ppm                                                   
  Ph: -66 deg      17.4 deg/ppm                                            
  alphaB,S = 8.5E+01,   2.0E+02                                            
    7 spline knots.   Ns = 9(2)                                            
  (12) 2 infls.   ( 9) 1 extrs.                                            
  498 points on ppm-axis = NY
      4.000000     3.992357     3.984714     3.977070     3.969427     3.961784     3.954141     3.946497     3.938854     3.931211
      3.923568     3.915925     3.908281     3.900638     3.892995     3.885352     3.877708     3.870065     3.862422     3.854779
      3.847136     3.839492     3.831849     3.824206     3.816563     3.808919     3.801276     3.793633     3.785990     3.778347
      3.770703     3.763060     3.755417     3.747774     3.740130     3.732487     3.724844     3.717201     3.709558     3.701914
      3.694271     3.686628     3.678985     3.671341     3.663698     3.656055     3.648412     3.640769     3.633125     3.625482
      3.617839     3.610196     3.602552     3.594909     3.587266     3.579623     3.571980     3.564336     3.556693     3.549050
      3.541407     3.533763     3.526120     3.518477     3.510834     3.503191     3.495547     3.487904     3.480261     3.472618
      3.464974     3.457331     3.449688     3.442045     3.434402     3.426758     3.419115     3.411472     3.403829     3.396185
      3.388542     3.380899     3.373256     3.365613     3.357969     3.350326     3.342683     3.335040     3.327396     3.319753
      3.312110     3.304467     3.296824     3.289180     3.281537     3.273894     3.266251     3.258607     3.250964     3.243321
      3.235678     3.228034     3.220391     3.212748     3.205105     3.197462     3.189818     3.182175     3.174532     3.166889
      3.159245     3.151602     3.143959     3.136316     3.128673     3.121029     3.113386     3.105743     3.098100     3.090456
      3.082813     3.075170     3.067527     3.059884     3.052240     3.044597     3.036954     3.029311     3.021667     3.014024
      3.006381     2.998738     2.991095     2.983451     2.975808     2.968165     2.960522     2.952878     2.945235     2.937592
      2.929949     2.922306     2.914662     2.907019     2.899376     2.891733     2.884089     2.876446     2.868803     2.861160
      2.853517     2.845873     2.838230     2.830587     2.822944     2.815300     2.807657     2.800014     2.792371     2.784728
      2.777084     2.769441     2.761798     2.754155     2.746511     2.738868     2.731225     2.723582     2.715939     2.708295
      2.700652     2.693009     2.685366     2.677722     2.670079     2.662436     2.654793     2.647150     2.639506     2.631863
      2.624220     2.616577     2.608933     2.601290     2.593647     2.586004     2.578361     2.570717     2.563074     2.555431
      2.547788     2.540144     2.532501     2.524858     2.517215     2.509572     2.501928     2.494285     2.486642     2.478999
      2.471355     2.463712     2.456069     2.448426     2.440783     2.433139     2.425496     2.417853     2.410210     2.402566
      2.394923     2.387280     2.379637     2.371994     2.364350     2.356707     2.349064     2.341421     2.333777     2.326134
      2.318491     2.310848     2.303205     2.295561     2.287918     2.280275     2.272632     2.264988     2.257345     2.249702
      2.242059     2.234416     2.226772     2.219129     2.211486     2.203843     2.196199     2.188556     2.180913     2.173270
      2.165627     2.157983     2.150340     2.142697     2.135054     2.127410     2.119767     2.112124     2.104481     2.096838
      2.089194     2.081551     2.073908     2.066265     2.058621     2.050978     2.043335     2.035692     2.028049     2.020405
      2.012762     2.005119     1.997476     1.989833     1.982190     1.974546     1.966903     1.959260     1.951617     1.943974
      1.936331     1.928688     1.921045     1.913402     1.905759     1.898115     1.890472     1.882829     1.875186     1.867543
      1.859900     1.852257     1.844614     1.836971     1.829327     1.821684     1.814041     1.806398     1.798755     1.791112
      1.783469     1.775826     1.768183     1.760540     1.752896     1.745253     1.737610     1.729967     1.722324     1.714681
      1.707038     1.699395     1.691752     1.684108     1.676465     1.668822     1.661179     1.653536     1.645893     1.638250
      1.630607     1.622964     1.615321     1.607677     1.600034     1.592391     1.584748     1.577105     1.569462     1.561819
      1.554176     1.546533     1.538890     1.531246     1.523603     1.515960     1.508317     1.500674     1.493031     1.485388
      1.477745     1.470102     1.462458     1.454815     1.447172     1.439529     1.431886     1.424243     1.416600     1.408957
      1.401314     1.393671     1.386027     1.378384     1.370741     1.363098     1.355455     1.347812     1.340169     1.332526
      1.324883     1.317240     1.309596     1.301953     1.294310     1.286667     1.279024     1.271381     1.263738     1.256095
      1.248452     1.240808     1.233165     1.225522     1.217879     1.210236     1.202593     1.194950     1.187307     1.179664
      1.172021     1.164377     1.156734     1.149091     1.141448     1.133805     1.126162     1.118519     1.110876     1.103233
      1.095590     1.087946     1.080303     1.072660     1.065017     1.057374     1.049731     1.042088     1.034445     1.026802
      1.019158     1.011515     1.003872     0.996229     0.988586     0.980943     0.973300     0.965657     0.958014     0.950371
      0.942727     0.935084     0.927441     0.919798     0.912155     0.904512     0.896869     0.889226     0.881583     0.873940
      0.866296     0.858653     0.851010     0.843367     0.835724     0.828081     0.820438     0.812795     0.805152     0.797508
      0.789865     0.782222     0.774579     0.766936     0.759293     0.751650     0.744007     0.736364     0.728721     0.721077
      0.713434     0.705791     0.698148     0.690505     0.682862     0.675219     0.667576     0.659933     0.652290     0.644646
      0.637003     0.629360     0.621717     0.614074     0.606431     0.598788     0.591145     0.583502     0.575858     0.568215
      0.560572     0.552929     0.545286     0.537643     0.530000     0.522357     0.514714     0.507071     0.499427     0.491784
      0.484141     0.476498     0.468855     0.461212     0.453569     0.445925     0.438282     0.430639     0.422996     0.415353
      0.407710     0.400067     0.392424     0.384780     0.377137     0.369494     0.361851     0.354208     0.346565     0.338922
      0.331278     0.323635     0.315992     0.308349     0.300706     0.293063     0.285420     0.277777     0.270133     0.262490
      0.254847     0.247204     0.239561     0.231918     0.224275     0.216631     0.208988     0.201345
 NY phased data points follow
  -6.91552E+00  6.99527E+00 -1.21003E+00  7.23456E+00 -4.03334E+00 -1.53424E+01 -6.28175E+00  6.09874E+00 -3.46722E+00 -9.84830E+00
  -9.86473E+00 -7.87097E+00 -2.53734E-01 -3.18499E-01  1.00677E+01 -2.36902E+00 -1.30378E+01  5.86412E-01 -2.28069E+00 -4.01507E+00
   6.81767E+00  7.33200E+00  2.24338E+00 -5.69619E+00 -5.72543E+00  4.96892E+00 -7.49893E-01  3.91718E+00 -8.58437E-01 -5.55540E+00
   2.44782E-01 -1.84347E+00 -4.21106E+00  1.87187E+00  1.47048E-01 -2.88860E+00 -1.59864E+00  1.55450E+00 -6.69146E+00  1.23256E+00
  -1.10640E+00  5.78857E-01 -2.77391E+00 -4.60675E-01  7.49367E-01 -1.59427E-01  3.77392E+00 -3.95624E+00 -4.14896E+00  3.49488E+00
   5.18648E+00  9.32377E+00  3.79171E+00 -8.56276E+00 -1.64919E+00  2.36638E+00 -2.68492E+00  4.70598E+00 -9.48334E+00 -5.57152E+00
   5.19422E+00  5.93560E+00 -7.32139E+00 -5.06521E+00  2.51481E+00  8.36821E-01 -8.53652E+00 -1.70481E+00 -1.98051E+00 -3.15677E+00
  -5.44601E+00 -3.35005E+00  7.84218E+00 -7.26256E+00  8.29428E-02  4.17924E+00 -8.88871E-01  9.54128E-01  8.53911E-01 -7.20950E+00
   4.15039E+00 -3.47809E+00  1.46053E+00 -5.42733E+00 -3.04529E+00 -4.03952E+00 -1.86022E+00 -2.65272E+00  6.24847E+00 -2.40512E+00
   4.59783E-01 -1.05334E+00 -2.16515E+00 -1.47311E+00 -8.07094E+00 -4.21385E+00 -9.93632E-01  2.31757E+00 -7.73512E+00 -4.63212E+00
  -1.26833E+01 -1.24735E-01 -3.66465E+00 -3.10589E-01 -3.97474E+00 -9.10526E-01 -4.02338E+00 -7.34093E+00  5.58961E+00  6.00660E+00
   1.87171E+00 -1.75071E+00 -5.21109E+00 -4.45765E+00 -4.03062E+00 -6.40199E+00  6.40344E+00 -5.35767E-01  2.28895E+00 -5.93377E-01
  -1.42815E+00 -2.09387E+00 -5.64969E-01  3.59104E+00  6.00763E-01 -1.41554E+00 -9.34553E+00  3.23801E+00 -1.10719E+00  3.99684E+00
   3.15222E+00  1.17682E+01  6.97716E+00 -4.32528E+00  3.06001E-01  6.10664E+00 -5.22192E+00 -4.73754E+00  1.25035E+00  1.74975E+00
   1.24144E+01 -5.26597E-01 -1.71236E+00  1.26555E+01 -2.42893E+00  7.13999E+00  3.44450E+00  4.12086E+00  3.19388E+00 -1.04090E+00
   1.09127E+00  4.36192E-01 -5.23080E+00  2.93942E+00  4.80889E+00 -9.09257E-01  5.31346E+00  8.77344E+00 -6.22089E-01  2.46323E+00
   3.44900E+00 -4.62481E+00 -8.70475E+00  4.45786E+00 -5.56993E+00 -4.13105E+00  2.77582E+00  2.66714E+00  7.57479E+00  6.12257E+00
   2.21951E+00 -2.03547E+00 -2.35724E+00  7.77550E-02 -5.58123E+00 -9.35607E+00 -2.82484E+00 -1.37521E+00 -8.64675E+00  2.49685E+00
  -5.54674E-01 -1.85447E+00  1.32055E+00  2.06947E+00 -4.52231E-01 -5.49395E+00 -3.96557E+00  1.74188E+00  7.57947E+00  1.69694E-01
  -3.27496E+00  8.79579E+00  2.60899E+00  6.01983E+00  3.18341E+00 -3.20910E+00  5.78947E+00  3.18539E+00  4.22632E+00  3.19867E+00
   1.39668E+01  1.09351E+01  8.70003E+00  6.58495E+00  1.19455E+01  6.55344E+00  1.48533E+01  9.23937E+00  1.40344E+01  1.08693E+01
   1.15158E+01  8.73776E+00  9.54701E+00  1.11248E+01  7.90459E+00  5.05051E+00  4.13065E+00  2.20411E-01 -2.16085E+00  7.86060E+00
   1.16720E+01  1.57319E+01  2.02196E+01  1.11390E+01  1.25726E+01  1.16382E+01  1.01828E+01  1.19209E+01  1.54141E+01  1.78728E+01
   8.76293E+00  1.35672E+01  7.98413E+00  1.35466E+00  7.97736E+00  1.13518E+01  1.88778E+01  1.67540E+01  1.89055E+01  1.63287E+01
   1.27489E+01  1.54718E+01  1.66226E+01  1.41140E+01  1.80684E+01  1.13117E+01  1.57240E+01  5.85770E+00  1.97901E+01  1.10700E+01
   1.23059E+01  8.96470E+00  9.93685E+00  1.85621E+01  1.37835E+01  9.57723E+00  2.59381E+00  1.21774E+01  7.54439E+00 -2.27263E+00
   8.14597E+00  1.07304E+01  1.15553E+01  8.93739E+00  8.25163E-01 -3.63605E+00  7.71607E+00 -3.09784E+00  3.02778E+00  1.07168E+01
   1.18647E+01  4.50502E+00  6.33094E+00  5.33867E+00  1.33372E+01  8.06366E+00  6.26679E+00  3.62187E+00  3.13437E+00  1.10995E+01
   7.16268E+00  8.76498E+00  1.87676E+00  1.85942E-01  7.52490E+00  7.83756E+00  4.37635E+00  6.85041E+00  9.57749E-01  1.15918E+00
  -1.67030E+00  7.59381E+00  2.73242E+00  5.45481E+00  5.34688E+00  3.15678E+00  8.58874E+00  7.21309E+00  2.44386E+00  4.52260E+00
   9.43118E+00  6.18152E+00  2.09515E+00  3.29686E-01  2.02859E+00  9.53178E+00  7.92619E+00 -3.15734E-01  9.00967E+00  6.01460E+00
   1.25337E+01  8.51204E+00  5.13416E+00  1.77292E+01  1.82154E+01  1.13197E+01  1.33252E+01  1.30541E+01  2.35176E+01  1.03629E+01
   1.86348E+01  2.34223E+01  1.73109E+01  3.02960E+01  4.11266E+01  3.48299E+01  4.04450E+01  3.58679E+01  4.79069E+01  4.56618E+01
   3.59393E+01  5.27731E+01  4.02336E+01  4.42262E+01  4.17476E+01  4.33116E+01  4.31684E+01  4.35295E+01  3.90263E+01  3.56706E+01
   2.15775E+01  2.37543E+01  2.28798E+01  2.47424E+01  2.33133E+01  4.23031E+01  1.27766E+01  1.20466E+01  1.24127E+01  1.57414E+01
   1.36945E+01  1.16655E+01  9.87595E+00  7.44159E+00  1.97642E+00  7.95209E+00  6.78437E+00  1.06819E+01  9.41059E+00  9.88838E+00
   9.59916E+00  3.79082E+00  1.31858E+01  1.26876E+01 -2.75983E-01  9.32345E+00  6.65228E+00  3.44737E+00  5.53694E+00  5.55311E+00
  -8.89165E+00  7.46430E+00  8.68172E+00  1.01425E+00  7.79249E+00 -1.67249E+00  8.03007E+00  1.07957E+01  1.09438E+01  8.37752E+00
   1.54047E+01  2.54264E+01  1.05993E+01  1.56115E+01  5.16262E+00  3.58680E+00  6.27888E+00  5.57388E+00  1.05107E+01  6.07975E+00
  -1.19753E+00  9.77416E-01  8.44523E+00 -3.61660E-01  4.56757E+00 -4.37418E+00  6.60510E+00  1.49416E+00 -7.21204E-01 -1.30614E+00
  -2.92938E+00 -9.92565E-01 -4.57657E+00 -7.43070E-02 -2.05541E+00 -1.23852E+00 -3.21427E+00 -6.64072E+00 -3.88915E+00 -9.12004E+00
  -9.96161E-02 -2.18153E+00  1.23099E+00 -1.97123E+00 -1.67482E+00 -3.85912E-01 -6.26807E-02 -2.89940E+00  1.15805E+00  6.92313E+00
  -9.74414E+00 -5.87812E+00  4.52915E+00  4.59372E+00 -5.91038E+00  5.44722E+00  1.05761E+00 -1.24109E+01  3.34459E+00 -7.51989E+00
  -6.95117E+00  5.39107E+00  2.30923E+00  8.26762E+00 -9.08484E-01 -8.62203E+00 -3.68135E+00  9.66067E-01  1.91009E+00 -2.89566E+00
   3.64458E+00 -2.24887E+00  1.99049E+00  7.68502E-01 -2.67952E+00 -2.65153E+00 -3.23119E+00 -2.00893E+00  9.03280E+00 -4.35025E+00
   1.22386E+00 -5.59052E+00  6.25862E+00  8.17671E-01 -1.60129E+00  1.16593E+00 -7.12282E+00 -1.17786E+00  1.83538E+00 -3.85565E+00
  -1.84577E+00  2.91788E+00 -7.23899E+00 -4.16658E+00  1.34114E+01  2.79314E+00 -2.91538E+00 -3.24346E+00 -3.74724E+00  1.19053E-02
   1.92770E+00 -4.63351E+00 -6.72505E-01 -4.54355E-01  4.22917E+00  1.33642E+00 -8.93305E+00  6.47749E-01 -6.35928E-01  9.58188E-01
  -7.16467E+00  2.42863E+00  9.22708E-01 -7.27820E+00 -9.32292E+00  4.37590E+00  4.46983E+00 -1.00826E+00 -1.09338E+01  5.35953E+00
  -1.47890E+00  4.84341E-01  5.80894E+00  6.93057E+00 -4.36378E-01 -1.22025E+01 -1.27030E+01  2.22809E+00
 NY points of the fit to the data follow
  -2.89556E+00 -5.66628E-02 -2.70826E+00 -4.68193E-01 -2.33907E+00 -7.80280E-01 -2.24036E+00 -1.08794E+00 -2.16366E+00 -1.45766E+00
  -2.10248E+00 -1.65948E+00 -1.78968E+00 -1.34079E+00 -1.36993E+00 -1.03957E+00 -1.03504E+00 -8.66182E-01 -8.65581E-01 -8.84964E-01
  -8.93278E-01 -8.97208E-01 -8.77064E-01 -8.78764E-01 -8.36493E-01 -8.33192E-01 -7.62648E-01 -7.44314E-01 -6.06766E-01 -5.32251E-01
  -3.88201E-01 -3.55834E-01 -2.46043E-01 -2.32209E-01 -1.46212E-01 -1.49390E-01 -1.14524E-01 -1.64834E-01 -1.93211E-01 -2.83528E-01
  -3.30187E-01 -3.86834E-01 -4.31755E-01 -4.58571E-01 -5.20857E-01 -5.46507E-01 -6.52507E-01 -7.02246E-01 -8.43147E-01 -8.88330E-01
  -1.05343E+00 -1.10198E+00 -1.27830E+00 -1.30080E+00 -1.45279E+00 -1.45081E+00 -1.56933E+00 -1.53112E+00 -1.63235E+00 -1.59346E+00
  -1.69018E+00 -1.66942E+00 -1.74713E+00 -1.73205E+00 -1.80941E+00 -1.82664E+00 -1.90043E+00 -1.92158E+00 -1.98450E+00 -2.00980E+00
  -2.08714E+00 -2.15819E+00 -2.24416E+00 -2.33070E+00 -2.39836E+00 -2.47644E+00 -2.51279E+00 -2.57995E+00 -2.57064E+00 -2.63555E+00
  -2.58573E+00 -2.63514E+00 -2.55372E+00 -2.60591E+00 -2.50833E+00 -2.57235E+00 -2.44686E+00 -2.49268E+00 -2.32837E+00 -2.34820E+00
  -2.14903E+00 -2.13879E+00 -1.91310E+00 -1.87703E+00 -1.63735E+00 -1.59595E+00 -1.36018E+00 -1.31368E+00 -1.08251E+00 -1.02673E+00
  -8.04442E-01 -7.35209E-01 -5.26522E-01 -4.42432E-01 -2.44106E-01 -1.43770E-01  4.34983E-02  1.52295E-01  3.18273E-01  4.27691E-01
   5.77376E-01  6.87986E-01  8.24902E-01  9.28151E-01  1.04479E+00  1.13832E+00  1.23235E+00  1.30500E+00  1.37069E+00  1.41119E+00
   1.44288E+00  1.45449E+00  1.45481E+00  1.43636E+00  1.40531E+00  1.35808E+00  1.29844E+00  1.22626E+00  1.14056E+00  1.04438E+00
   9.36985E-01  8.21874E-01  6.99167E-01  5.72022E-01  4.41140E-01  3.09417E-01  1.78090E-01  4.93906E-02 -7.49284E-02 -1.93449E-01
  -3.04377E-01 -4.06539E-01 -4.98579E-01 -5.79729E-01 -6.49363E-01 -7.07101E-01 -7.52844E-01 -7.86470E-01 -8.08349E-01 -8.18645E-01
  -8.18161E-01 -8.07232E-01 -7.86833E-01 -7.57306E-01 -7.19730E-01 -6.74601E-01 -6.22952E-01 -5.65278E-01 -5.02416E-01 -4.34834E-01
  -3.63205E-01 -2.87987E-01 -2.09691E-01 -1.28697E-01 -4.52705E-02  4.02713E-02  1.27759E-01  2.16848E-01  3.07553E-01  3.99679E-01
   4.93135E-01  5.87884E-01  6.83834E-01  7.80896E-01  8.78888E-01  9.77264E-01  1.07637E+00  1.17738E+00  1.27625E+00  1.38280E+00
   1.48361E+00  1.59794E+00  1.70332E+00  1.83070E+00  1.94039E+00  2.07867E+00  2.19218E+00  2.34237E+00  2.45654E+00  2.61463E+00
   2.72571E+00  2.88505E+00  2.99307E+00  3.17204E+00  3.28136E+00  3.47806E+00  3.59082E+00  3.80672E+00  3.92746E+00  4.16845E+00
   4.30053E+00  4.56376E+00  4.70660E+00  4.98269E+00  5.13410E+00  5.41835E+00  5.57936E+00  5.87111E+00  6.04471E+00  6.34616E+00
   6.53368E+00  6.83780E+00  7.03754E+00  7.34138E+00  7.55212E+00  7.85111E+00  8.06904E+00  8.35542E+00  8.57708E+00  8.85957E+00
   9.08885E+00  9.37315E+00  9.61221E+00  9.90034E+00  1.01419E+01  1.04358E+01  1.06873E+01  1.09998E+01  1.12654E+01  1.15943E+01
   1.18738E+01  1.22194E+01  1.25179E+01  1.28871E+01  1.32036E+01  1.35848E+01  1.39036E+01  1.42724E+01  1.45661E+01  1.48902E+01
   1.51239E+01  1.53645E+01  1.55058E+01  1.56263E+01  1.56427E+01  1.56147E+01  1.54853E+01  1.52947E+01  1.50146E+01  1.46643E+01
   1.42420E+01  1.37508E+01  1.32120E+01  1.26191E+01  1.20053E+01  1.13561E+01  1.07139E+01  1.00557E+01  9.42919E+00  8.81011E+00
   8.24087E+00  7.69344E+00  7.20591E+00  6.74910E+00  6.35231E+00  5.99188E+00  5.69122E+00  5.42733E+00  5.21880E+00  5.04703E+00
   4.92542E+00  4.83927E+00  4.79850E+00  4.79151E+00  4.82413E+00  4.88851E+00  4.98764E+00  5.11534E+00  5.27147E+00  5.45180E+00
   5.65337E+00  5.87239E+00  6.10459E+00  6.34506E+00  6.58895E+00  6.83121E+00  7.06727E+00  7.29253E+00  7.50307E+00  7.69541E+00
   7.86721E+00  8.01702E+00  8.14466E+00  8.25080E+00  8.33730E+00  8.40690E+00  8.46360E+00  8.51207E+00  8.55779E+00  8.60638E+00
   8.66383E+00  8.73611E+00  8.82943E+00  8.94966E+00  9.10244E+00  9.29279E+00  9.52552E+00  9.80515E+00  1.01362E+01  1.05230E+01
   1.09696E+01  1.14801E+01  1.20589E+01  1.27110E+01  1.34414E+01  1.42560E+01  1.51603E+01  1.61605E+01  1.72632E+01  1.84757E+01
   1.98060E+01  2.12628E+01  2.28565E+01  2.46009E+01  2.65163E+01  2.86359E+01  3.10175E+01  3.37740E+01  3.71479E+01  4.09902E+01
   4.16413E+01  4.37378E+01  4.26190E+01  4.33281E+01  4.04525E+01  3.95840E+01  3.50503E+01  3.56836E+01  2.98956E+01  3.02989E+01
   2.44660E+01  2.59976E+01  2.05068E+01  2.42195E+01  1.86514E+01  2.34339E+01  1.66773E+01  2.01654E+01  1.33610E+01  1.65620E+01
   1.01456E+01  1.35779E+01  8.26278E+00  1.26143E+01  8.65680E+00  1.28681E+01  9.95964E+00  1.41033E+01  1.17208E+01  1.49582E+01
   1.29863E+01  1.49437E+01  1.34066E+01  1.44283E+01  1.25116E+01  1.23751E+01  1.10516E+01  1.04879E+01  9.73243E+00  9.04448E+00
   7.68480E+00  6.81475E+00  5.72513E+00  4.31165E+00  3.53476E+00  2.23371E+00  2.17838E+00  2.53997E+00  3.04273E+00  3.60981E+00
   4.20423E+00  4.80211E+00  5.38472E+00  5.93589E+00  6.44041E+00  6.88392E+00  7.25288E+00  7.53535E+00  7.72117E+00  7.80240E+00
   7.77337E+00  7.63117E+00  7.37587E+00  7.01082E+00  6.54253E+00  5.98034E+00  5.33592E+00  4.62295E+00  3.85665E+00  3.05322E+00
   2.22917E+00  1.40054E+00  5.82339E-01 -2.11849E-01 -9.70108E-01 -1.68248E+00 -2.34119E+00 -2.94073E+00 -3.47778E+00 -3.95093E+00
  -4.36037E+00 -4.70772E+00 -4.99578E+00 -5.22837E+00 -5.40986E+00 -5.54495E+00 -5.63839E+00 -5.69491E+00 -5.71911E+00 -5.71542E+00
  -5.68788E+00 -5.64011E+00 -5.57526E+00 -5.49618E+00 -5.40537E+00 -5.30507E+00 -5.19710E+00 -5.08299E+00 -4.96396E+00 -4.84114E+00
  -4.71547E+00 -4.58777E+00 -4.45863E+00 -4.32852E+00 -4.19781E+00 -4.06690E+00 -3.93609E+00 -3.80564E+00 -3.67570E+00 -3.54635E+00
  -3.41770E+00 -3.28990E+00 -3.16304E+00 -3.03719E+00 -2.91232E+00 -2.78843E+00 -2.66556E+00 -2.54376E+00 -2.42306E+00 -2.30343E+00
  -2.18481E+00 -2.06719E+00 -1.95058E+00 -1.83502E+00 -1.72048E+00 -1.60690E+00 -1.49423E+00 -1.38246E+00 -1.27160E+00 -1.16167E+00
  -1.05260E+00 -9.44348E-01 -8.36856E-01 -7.30144E-01 -6.24210E-01 -5.19048E-01 -4.14580E-01 -3.10767E-01 -2.07569E-01 -1.05020E-01
  -3.09373E-03  9.82284E-02  1.99035E-01  2.99345E-01  3.99191E-01  4.98540E-01  5.97440E-01  6.95928E-01  7.94091E-01  8.91938E-01
   9.89494E-01  1.08675E+00  1.18379E+00  1.28065E+00  1.37743E+00  1.47415E+00  1.57084E+00  1.66754E+00  1.76437E+00  1.86142E+00
   1.95880E+00  2.05659E+00  2.15489E+00  2.25386E+00  2.35373E+00  2.45474E+00  2.55717E+00  2.66138E+00
 NY background values follow
    -6.316E+00   -6.326E+00   -6.337E+00   -6.347E+00   -6.357E+00   -6.367E+00   -6.377E+00   -6.387E+00   -6.396E+00   -6.406E+00
    -6.415E+00   -6.424E+00   -6.433E+00   -6.442E+00   -6.450E+00   -6.459E+00   -6.467E+00   -6.475E+00   -6.483E+00   -6.491E+00
    -6.499E+00   -6.506E+00   -6.513E+00   -6.521E+00   -6.528E+00   -6.535E+00   -6.541E+00   -6.548E+00   -6.554E+00   -6.560E+00
    -6.567E+00   -6.572E+00   -6.578E+00   -6.584E+00   -6.589E+00   -6.595E+00   -6.600E+00   -6.605E+00   -6.610E+00   -6.614E+00
    -6.619E+00   -6.623E+00   -6.627E+00   -6.632E+00   -6.635E+00   -6.639E+00   -6.643E+00   -6.646E+00   -6.650E+00   -6.653E+00
    -6.656E+00   -6.658E+00   -6.661E+00   -6.664E+00   -6.666E+00   -6.668E+00   -6.670E+00   -6.672E+00   -6.674E+00   -6.675E+00
    -6.677E+00   -6.678E+00   -6.679E+00   -6.680E+00   -6.681E+00   -6.682E+00   -6.682E+00   -6.683E+00   -6.683E+00   -6.683E+00
    -6.683E+00   -6.683E+00   -6.682E+00   -6.682E+00   -6.681E+00   -6.680E+00   -6.679E+00   -6.678E+00   -6.676E+00   -6.675E+00
    -6.673E+00   -6.672E+00   -6.670E+00   -6.667E+00   -6.665E+00   -6.663E+00   -6.660E+00   -6.658E+00   -6.655E+00   -6.652E+00
    -6.649E+00   -6.645E+00   -6.642E+00   -6.638E+00   -6.634E+00   -6.631E+00   -6.626E+00   -6.622E+00   -6.618E+00   -6.613E+00
    -6.609E+00   -6.604E+00   -6.599E+00   -6.594E+00   -6.589E+00   -6.583E+00   -6.578E+00   -6.572E+00   -6.566E+00   -6.560E+00
    -6.554E+00   -6.547E+00   -6.541E+00   -6.534E+00   -6.528E+00   -6.521E+00   -6.514E+00   -6.506E+00   -6.499E+00   -6.492E+00
    -6.484E+00   -6.476E+00   -6.468E+00   -6.460E+00   -6.452E+00   -6.443E+00   -6.435E+00   -6.426E+00   -6.417E+00   -6.408E+00
    -6.399E+00   -6.390E+00   -6.381E+00   -6.371E+00   -6.361E+00   -6.351E+00   -6.341E+00   -6.331E+00   -6.321E+00   -6.310E+00
    -6.300E+00   -6.289E+00   -6.278E+00   -6.267E+00   -6.256E+00   -6.245E+00   -6.233E+00   -6.222E+00   -6.210E+00   -6.198E+00
    -6.186E+00   -6.174E+00   -6.161E+00   -6.149E+00   -6.136E+00   -6.123E+00   -6.110E+00   -6.097E+00   -6.084E+00   -6.071E+00
    -6.057E+00   -6.044E+00   -6.030E+00   -6.016E+00   -6.002E+00   -5.988E+00   -5.973E+00   -5.959E+00   -5.944E+00   -5.929E+00
    -5.915E+00   -5.899E+00   -5.884E+00   -5.869E+00   -5.853E+00   -5.838E+00   -5.822E+00   -5.806E+00   -5.790E+00   -5.774E+00
    -5.758E+00   -5.741E+00   -5.724E+00   -5.708E+00   -5.691E+00   -5.674E+00   -5.657E+00   -5.639E+00   -5.622E+00   -5.604E+00
    -5.586E+00   -5.569E+00   -5.551E+00   -5.532E+00   -5.514E+00   -5.496E+00   -5.477E+00   -5.458E+00   -5.440E+00   -5.421E+00
    -5.401E+00   -5.382E+00   -5.363E+00   -5.343E+00   -5.324E+00   -5.304E+00   -5.284E+00   -5.264E+00   -5.244E+00   -5.223E+00
    -5.203E+00   -5.182E+00   -5.161E+00   -5.140E+00   -5.119E+00   -5.098E+00   -5.077E+00   -5.056E+00   -5.034E+00   -5.012E+00
    -4.990E+00   -4.968E+00   -4.946E+00   -4.924E+00   -4.902E+00   -4.879E+00   -4.857E+00   -4.834E+00   -4.811E+00   -4.788E+00
    -4.765E+00   -4.741E+00   -4.718E+00   -4.694E+00   -4.671E+00   -4.647E+00   -4.623E+00   -4.599E+00   -4.574E+00   -4.550E+00
    -4.526E+00   -4.501E+00   -4.476E+00   -4.451E+00   -4.426E+00   -4.401E+00   -4.376E+00   -4.350E+00   -4.325E+00   -4.299E+00
    -4.273E+00   -4.248E+00   -4.221E+00   -4.195E+00   -4.169E+00   -4.143E+00   -4.116E+00   -4.089E+00   -4.062E+00   -4.035E+00
    -4.008E+00   -3.981E+00   -3.954E+00   -3.926E+00   -3.899E+00   -3.871E+00   -3.843E+00   -3.815E+00   -3.787E+00   -3.759E+00
    -3.731E+00   -3.702E+00   -3.674E+00   -3.645E+00   -3.616E+00   -3.587E+00   -3.558E+00   -3.529E+00   -3.499E+00   -3.470E+00
    -3.440E+00   -3.411E+00   -3.381E+00   -3.351E+00   -3.321E+00   -3.291E+00   -3.260E+00   -3.230E+00   -3.199E+00   -3.168E+00
    -3.138E+00   -3.107E+00   -3.076E+00   -3.044E+00   -3.013E+00   -2.982E+00   -2.950E+00   -2.919E+00   -2.887E+00   -2.855E+00
    -2.823E+00   -2.791E+00   -2.758E+00   -2.726E+00   -2.694E+00   -2.661E+00   -2.628E+00   -2.595E+00   -2.562E+00   -2.529E+00
    -2.496E+00   -2.463E+00   -2.429E+00   -2.396E+00   -2.362E+00   -2.328E+00   -2.294E+00   -2.260E+00   -2.226E+00   -2.192E+00
    -2.158E+00   -2.123E+00   -2.088E+00   -2.054E+00   -2.019E+00   -1.984E+00   -1.949E+00   -1.914E+00   -1.878E+00   -1.843E+00
    -1.808E+00   -1.772E+00   -1.736E+00   -1.700E+00   -1.664E+00   -1.628E+00   -1.592E+00   -1.556E+00   -1.519E+00   -1.483E+00
    -1.446E+00   -1.409E+00   -1.373E+00   -1.336E+00   -1.299E+00   -1.261E+00   -1.224E+00   -1.187E+00   -1.149E+00   -1.112E+00
    -1.074E+00   -1.036E+00   -9.980E-01   -9.599E-01   -9.218E-01   -8.835E-01   -8.451E-01   -8.066E-01   -7.680E-01   -7.293E-01
    -6.905E-01   -6.516E-01   -6.126E-01   -5.735E-01   -5.342E-01   -4.949E-01   -4.554E-01   -4.159E-01   -3.762E-01   -3.365E-01
    -2.966E-01   -2.567E-01   -2.166E-01   -1.764E-01   -1.361E-01   -9.576E-02   -5.527E-02   -1.469E-02    2.600E-02    6.679E-02
     1.077E-01    1.487E-01    1.898E-01    2.310E-01    2.723E-01    3.137E-01    3.551E-01    3.967E-01    4.384E-01    4.802E-01
     5.221E-01    5.641E-01    6.062E-01    6.484E-01    6.907E-01    7.331E-01    7.756E-01    8.182E-01    8.609E-01    9.036E-01
     9.465E-01    9.895E-01    1.033E+00    1.076E+00    1.119E+00    1.162E+00    1.206E+00    1.249E+00    1.293E+00    1.337E+00
     1.381E+00    1.424E+00    1.468E+00    1.513E+00    1.557E+00    1.601E+00    1.646E+00    1.690E+00    1.735E+00    1.779E+00
     1.824E+00    1.869E+00    1.914E+00    1.959E+00    2.004E+00    2.049E+00    2.095E+00    2.140E+00    2.185E+00    2.231E+00
     2.277E+00    2.322E+00    2.368E+00    2.414E+00    2.460E+00    2.506E+00    2.553E+00    2.599E+00    2.645E+00    2.692E+00
     2.738E+00    2.785E+00    2.832E+00    2.878E+00    2.925E+00    2.972E+00    3.019E+00    3.066E+00    3.114E+00    3.161E+00
     3.208E+00    3.256E+00    3.303E+00    3.351E+00    3.399E+00    3.447E+00    3.495E+00    3.543E+00    3.591E+00    3.639E+00
     3.687E+00    3.735E+00    3.784E+00    3.832E+00    3.881E+00    3.929E+00    3.978E+00    4.027E+00    4.076E+00    4.125E+00
     4.174E+00    4.223E+00    4.272E+00    4.321E+00    4.371E+00    4.420E+00    4.470E+00    4.519E+00    4.569E+00    4.618E+00
     4.668E+00    4.718E+00    4.768E+00    4.818E+00    4.868E+00    4.918E+00    4.969E+00    5.019E+00    5.069E+00    5.120E+00
     5.170E+00    5.221E+00    5.272E+00    5.322E+00    5.373E+00    5.424E+00    5.475E+00    5.526E+00
 Glc      Conc. = 8.80E-03
