 LCModel (Version 6.3-1L) Copyright: S.W. Provencher.          Ref.: Magn. Reson. Med. 30:672-679 (1993).                
 Slice#2 Row#7 Col#11  PD_05_press_2_raw_act
 36 lines in following concentration table = NCONC+1
    Conc.  %SD /Cr+PCr  Metabolite                                         
   84.493 193%   0.127 Ala                                                 
    0.000 999%   0.000 Asp                                                 
  509.063  61%   0.768 Cr                                                  
  153.915 205%   0.232 PCr                                                 
    0.000 999%   0.000 GABA                                                
   81.554 230%   0.123 Glc                                                 
  615.435  56%   0.928 Gln                                                 
 2.08E+03  19%   3.134 Glu                                                 
  159.251 123%   0.240 GPC                                                 
   49.582 400% 7.5E-02 PCh                                                 
  197.644  56%   0.298 GSH                                                 
  799.671  45%   1.206 Ins                                                 
  258.197  70%   0.389 Lac                                                 
 4.26E+03   7%   6.423 NAA                                                 
  837.112  34%   1.263 NAAG                                                
  106.557  35%   0.161 Scyllo                                              
  860.328  31%   1.298 Tau                                                 
  553.307  25%   0.835 -CrCH2                                              
  208.833  15%   0.315 GPC+PCh                                             
 5.10E+03   3%   7.686 NAA+NAAG                                            
  662.978  12%   1.000 Cr+PCr                                              
 2.69E+03  20%   4.062 Glu+Gln                                             
 4.21E+03  18%   6.350 Lip13a                                              
    0.000 999%   0.000 Lip13b                                              
 1.17E+03  44%   1.764 Lip09                                               
 2.08E+03  25%   3.131 MM09                                                
  985.163  38%   1.486 Lip20                                               
 5.35E+03  11%   8.077 MM20                                                
  413.515 100%   0.624 MM12                                                
    0.000 999%   0.000 MM14                                                
 1.15E+03  27%   1.740 MM17                                                
 4.21E+03  18%   6.350 Lip13a+Lip13b                                       
 4.62E+03  12%   6.974 MM14+Lip13a+Lip13b+MM12                             
 3.25E+03   9%   4.895 MM09+Lip09                                          
 6.34E+03   9%   9.563 MM20+Lip20                                          
   6 lines in following misc. output table
  FWHM = 0.054 ppm    S/N =  16                                            
  Data shift = 0.015 ppm                                                   
  Ph: -62 deg     -20.4 deg/ppm                                            
  alphaB,S = 8.5E+01,   1.0E+02                                            
   14 spline knots.   Ns = 7(1)                                            
   2 inflections.     1 extrema                                            
  498 points on ppm-axis = NY
      4.000000     3.992357     3.984714     3.977070     3.969427     3.961784     3.954141     3.946497     3.938854     3.931211
      3.923568     3.915925     3.908281     3.900638     3.892995     3.885352     3.877708     3.870065     3.862422     3.854779
      3.847136     3.839492     3.831849     3.824206     3.816563     3.808919     3.801276     3.793633     3.785990     3.778347
      3.770703     3.763060     3.755417     3.747774     3.740130     3.732487     3.724844     3.717201     3.709558     3.701914
      3.694271     3.686628     3.678985     3.671341     3.663698     3.656055     3.648412     3.640769     3.633125     3.625482
      3.617839     3.610196     3.602552     3.594909     3.587266     3.579623     3.571980     3.564336     3.556693     3.549050
      3.541407     3.533763     3.526120     3.518477     3.510834     3.503191     3.495547     3.487904     3.480261     3.472618
      3.464974     3.457331     3.449688     3.442045     3.434402     3.426758     3.419115     3.411472     3.403829     3.396185
      3.388542     3.380899     3.373256     3.365613     3.357969     3.350326     3.342683     3.335040     3.327396     3.319753
      3.312110     3.304467     3.296824     3.289180     3.281537     3.273894     3.266251     3.258607     3.250964     3.243321
      3.235678     3.228034     3.220391     3.212748     3.205105     3.197462     3.189818     3.182175     3.174532     3.166889
      3.159245     3.151602     3.143959     3.136316     3.128673     3.121029     3.113386     3.105743     3.098100     3.090456
      3.082813     3.075170     3.067527     3.059884     3.052240     3.044597     3.036954     3.029311     3.021667     3.014024
      3.006381     2.998738     2.991095     2.983451     2.975808     2.968165     2.960522     2.952878     2.945235     2.937592
      2.929949     2.922306     2.914662     2.907019     2.899376     2.891733     2.884089     2.876446     2.868803     2.861160
      2.853517     2.845873     2.838230     2.830587     2.822944     2.815300     2.807657     2.800014     2.792371     2.784728
      2.777084     2.769441     2.761798     2.754155     2.746511     2.738868     2.731225     2.723582     2.715939     2.708295
      2.700652     2.693009     2.685366     2.677722     2.670079     2.662436     2.654793     2.647150     2.639506     2.631863
      2.624220     2.616577     2.608933     2.601290     2.593647     2.586004     2.578361     2.570717     2.563074     2.555431
      2.547788     2.540144     2.532501     2.524858     2.517215     2.509572     2.501928     2.494285     2.486642     2.478999
      2.471355     2.463712     2.456069     2.448426     2.440783     2.433139     2.425496     2.417853     2.410210     2.402566
      2.394923     2.387280     2.379637     2.371994     2.364350     2.356707     2.349064     2.341421     2.333777     2.326134
      2.318491     2.310848     2.303205     2.295561     2.287918     2.280275     2.272632     2.264988     2.257345     2.249702
      2.242059     2.234416     2.226772     2.219129     2.211486     2.203843     2.196199     2.188556     2.180913     2.173270
      2.165627     2.157983     2.150340     2.142697     2.135054     2.127410     2.119767     2.112124     2.104481     2.096838
      2.089194     2.081551     2.073908     2.066265     2.058621     2.050978     2.043335     2.035692     2.028049     2.020405
      2.012762     2.005119     1.997476     1.989833     1.982190     1.974546     1.966903     1.959260     1.951617     1.943974
      1.936331     1.928688     1.921045     1.913402     1.905759     1.898115     1.890472     1.882829     1.875186     1.867543
      1.859900     1.852257     1.844614     1.836971     1.829327     1.821684     1.814041     1.806398     1.798755     1.791112
      1.783469     1.775826     1.768183     1.760540     1.752896     1.745253     1.737610     1.729967     1.722324     1.714681
      1.707038     1.699395     1.691752     1.684108     1.676465     1.668822     1.661179     1.653536     1.645893     1.638250
      1.630607     1.622964     1.615321     1.607677     1.600034     1.592391     1.584748     1.577105     1.569462     1.561819
      1.554176     1.546533     1.538890     1.531246     1.523603     1.515960     1.508317     1.500674     1.493031     1.485388
      1.477745     1.470102     1.462458     1.454815     1.447172     1.439529     1.431886     1.424243     1.416600     1.408957
      1.401314     1.393671     1.386027     1.378384     1.370741     1.363098     1.355455     1.347812     1.340169     1.332526
      1.324883     1.317240     1.309596     1.301953     1.294310     1.286667     1.279024     1.271381     1.263738     1.256095
      1.248452     1.240808     1.233165     1.225522     1.217879     1.210236     1.202593     1.194950     1.187307     1.179664
      1.172021     1.164377     1.156734     1.149091     1.141448     1.133805     1.126162     1.118519     1.110876     1.103233
      1.095590     1.087946     1.080303     1.072660     1.065017     1.057374     1.049731     1.042088     1.034445     1.026802
      1.019158     1.011515     1.003872     0.996229     0.988586     0.980943     0.973300     0.965657     0.958014     0.950371
      0.942727     0.935084     0.927441     0.919798     0.912155     0.904512     0.896869     0.889226     0.881583     0.873940
      0.866296     0.858653     0.851010     0.843367     0.835724     0.828081     0.820438     0.812795     0.805152     0.797508
      0.789865     0.782222     0.774579     0.766936     0.759293     0.751650     0.744007     0.736364     0.728721     0.721077
      0.713434     0.705791     0.698148     0.690505     0.682862     0.675219     0.667576     0.659933     0.652290     0.644646
      0.637003     0.629360     0.621717     0.614074     0.606431     0.598788     0.591145     0.583502     0.575858     0.568215
      0.560572     0.552929     0.545286     0.537643     0.530000     0.522357     0.514714     0.507071     0.499427     0.491784
      0.484141     0.476498     0.468855     0.461212     0.453569     0.445925     0.438282     0.430639     0.422996     0.415353
      0.407710     0.400067     0.392424     0.384780     0.377137     0.369494     0.361851     0.354208     0.346565     0.338922
      0.331278     0.323635     0.315992     0.308349     0.300706     0.293063     0.285420     0.277777     0.270133     0.262490
      0.254847     0.247204     0.239561     0.231918     0.224275     0.216631     0.208988     0.201345
 NY phased data points follow
   6.70556E+00  2.38935E+00  5.28832E-01 -3.55967E+00  4.33068E+00 -3.08408E+00 -1.40523E+01 -6.18306E+00  1.89793E-01  5.97956E+00
   6.01968E+00  4.40403E+00  7.83547E-01  9.28698E+00  2.73610E+00  3.64780E+00  6.60116E+00  6.96981E+00  1.35797E+01 -4.97222E+00
   2.89912E+00  8.45296E+00  2.92042E+00  5.57198E+00  3.81320E+00  6.12426E-01  1.19809E+01  4.15701E+00  1.24409E+01  1.18249E+00
  -3.02098E-02  4.86746E+00  4.64420E+00  6.12053E+00  6.16547E+00  8.50766E+00  8.29241E+00 -1.47743E+00  1.67012E+00  2.69040E+00
   9.46528E+00  1.26450E+01  8.93943E+00  6.24019E+00  1.59938E+01  1.00633E+01  1.41050E+01  2.00727E+00  1.50434E+01  1.64123E+01
   5.50915E+00  4.38288E+00  5.56604E+00  2.88907E+00  9.46323E+00  2.22086E+00  9.12814E+00  8.45816E+00  7.26012E+00  1.02562E+01
   3.30343E+00  4.24618E+00  3.56080E+00 -4.17222E+00  6.38208E+00  2.93108E+00  8.95101E+00  2.53058E+00  1.32638E+01  1.03058E+01
   1.14267E+01  4.90609E+00  7.49016E+00  1.39521E+01  8.73944E+00  8.31608E+00  7.87843E+00  1.33415E+01 -5.41812E+00  1.27777E+01
   1.78507E+00  7.33734E+00  6.66718E+00  3.26665E+00  7.07164E+00  1.09187E+01  3.06032E+00  1.17185E+01  1.32711E+01  1.05314E+01
   1.24877E+01  1.07990E+01  9.66889E+00  5.85504E+00  9.87651E+00  1.43402E+01  6.14800E+00  5.01055E+00  1.23507E+01  1.01249E+01
   1.89486E+01  1.57810E+01  3.80619E+01  2.82822E+01  1.74306E+01  1.68856E+01  1.99853E+01  1.66939E+01  2.01247E+01  4.30198E+00
   2.11507E+01  7.50798E+00  1.43697E+01  8.44112E+00  1.26770E+01  3.17376E+00  1.26949E+01  8.48164E+00  1.14114E+01  1.12730E+01
   1.16463E+01  1.09163E+01  7.11359E+00  9.84232E+00  1.57715E+01  2.58935E+01  3.72579E+01  3.11479E+01  2.38524E+01  3.18617E+01
   2.41507E+01  2.29219E+01  1.51578E+01  2.30390E+01  1.23843E+01  1.80103E+01  1.98822E+01  1.13736E+01  9.97725E+00  1.54382E+01
   1.02833E+01  9.35569E+00  7.04542E+00  1.24151E+01  6.20910E+00  6.80897E+00  1.13625E+01  6.33919E+00  1.68094E+01  1.14034E+01
   9.09673E+00  1.48282E+01  8.80840E+00  4.54655E+00  9.93408E+00  8.60854E+00  1.71891E+01  1.26359E+01  1.25611E+01  4.65218E+00
   3.78671E+00  8.01034E+00  4.50363E+00  9.23059E-01  5.16216E+00  1.44258E+01  2.59159E+00  6.94888E-02 -4.15067E+00 -5.17901E+00
  -6.53860E+00 -1.98801E+00 -1.08293E+01 -2.31225E+00 -1.03880E+01 -1.79984E+01 -1.01704E+01 -1.82688E+01 -6.48355E+00 -6.90595E+00
  -4.34563E+00 -1.14594E+01  8.88849E-01 -4.89913E+00 -4.98703E+00  2.77354E-01 -9.60084E+00 -7.42094E+00 -1.69722E+00  5.87391E+00
   5.66665E+00  1.20796E+01  4.13309E+00  1.34694E+01 -2.70731E+00 -1.41180E+00 -5.30943E+00 -4.50346E+00 -1.04657E+01  3.01310E+00
   1.75043E+00 -3.56560E+00  7.82011E+00  9.58011E+00  1.13945E+01  1.06048E+01  9.33743E+00  8.97381E+00  6.69628E+00  6.65117E+00
  -1.30633E+00  1.13433E-02  1.37126E+01  2.02610E+01  2.29113E+01  2.48453E+01  2.47446E+01  1.77944E+01  2.17006E+01  2.11170E+01
   9.87483E+00  6.07391E+00 -1.12443E+00  6.04163E+00  4.45557E+00  1.28336E+01  9.33541E+00  1.38916E+01  1.70781E+01  1.79609E+01
   1.70370E+01  1.57978E+01  2.61918E+01  1.76526E+01  2.67151E+01  1.94204E+01  2.48087E+01  1.71786E+01  2.58134E+01  2.03303E+01
   1.97325E+01  1.24321E+01  1.48417E+01  1.47185E+01  1.62414E+01  2.42483E+01  2.24035E+01  2.68893E+01  2.93276E+01  3.50217E+01
   3.31331E+01  4.04246E+01  3.41254E+01  5.94436E+01  6.57388E+01  7.04255E+01  9.08143E+01  1.15923E+02  1.38040E+02  1.63738E+02
   1.90199E+02  1.85871E+02  1.63049E+02  1.40183E+02  1.12498E+02  8.37561E+01  6.29629E+01  3.91938E+01  3.75687E+01  2.77675E+01
   1.83528E+01  1.90676E+01  2.58998E+01  2.11710E+01  1.04595E+01  1.27977E+01  1.00887E+01  1.38330E+01  1.39897E+01  1.07359E+01
   9.03927E+00  1.21190E+01  1.14191E+01  1.17471E+01  5.32096E+00 -7.47438E-03  7.13788E+00  7.92233E+00  1.02176E+01  1.54511E+01
   1.03517E+01  1.04688E+01  6.18143E+00  1.15293E+01  1.62157E+01  2.36227E+01  1.95583E+01  1.22463E+01  7.96754E+00  1.20955E+01
   6.27724E+00  1.63471E+01  1.51009E+01  9.66940E+00  9.32364E+00  1.79125E+01  1.83015E+01  1.46938E+01  1.75081E+01  1.02885E+01
   9.33220E+00  1.97277E+01  9.97770E+00  6.60122E+00  1.89728E+01  1.66555E+01  1.71865E+01  2.51877E+01  1.36461E+01  1.22315E+01
   1.28887E+01  9.80851E+00  9.01472E+00  1.53986E+01  8.19974E+00  2.32158E+00  7.50003E+00  1.96948E+00  5.61395E+00  1.14443E+01
   1.28624E+01  8.72835E+00  3.71249E+00  9.79239E+00  1.32465E+01  1.63321E+01  1.33100E+01  9.86587E+00  1.60498E+01  2.09002E+01
   2.12952E+01  1.79513E+01  1.50209E+01  2.63282E+01  2.42844E+01  3.00180E+01  2.82970E+01  2.92550E+01  3.43159E+01  2.64766E+01
   2.46290E+01  2.07680E+01  2.57007E+01  3.03363E+01  2.45368E+01  2.55498E+01  3.20403E+01  1.88330E+01  2.39617E+01  2.99934E+01
   3.55922E+01  2.06633E+01  2.77855E+01  2.60454E+01  2.33690E+01  1.48851E+01  1.76043E+01  1.82120E+01  2.79742E+01  1.92402E+01
   1.90606E+01  1.22462E+01  1.84973E+01  1.66252E+01  1.84328E+01  1.10103E+01  1.14952E+01  1.66758E+01  1.85460E+01  1.19299E+01
   9.94936E+00  1.58879E+01  8.67992E+00  1.52294E+01  1.36760E+01  2.10041E+01  1.77625E+01  1.17312E+01  1.54374E+01  2.08297E+01
   2.11421E+01  2.41966E+01  1.66108E+01  2.37673E+01  2.21669E+01  1.39338E+01  2.08152E+01  2.25458E+01  2.76852E+01  2.78970E+01
   1.90092E+01  2.20531E+01  2.67821E+01  2.29847E+01  2.08315E+01  3.19972E+01  2.32981E+01  2.42153E+01  2.76005E+01  2.73769E+01
   2.84617E+01  3.35275E+01  1.74973E+01  2.85667E+01  1.76775E+01  1.92029E+01  2.18972E+01  1.50005E+01  1.77127E+01  2.10982E+01
   1.07081E+01  1.53803E+01  1.68306E+01  1.26852E+01  2.32821E+01  6.25844E+00  1.02697E+01  9.16171E+00  2.15700E+01  1.17353E+01
   1.14183E+01  6.84562E+00  1.17048E+01  2.10442E+01  6.37712E+00  6.22597E+00  4.20475E+00  6.36047E+00  1.28091E+01  6.38811E+00
   5.43833E+00  1.73478E+01  1.31596E+01  5.85183E+00  1.11095E+01  1.32694E+01  4.67839E+00  5.92985E+00  6.05644E+00  1.21549E+01
   8.05828E+00  4.97652E+00  5.63156E+00  9.49130E+00  8.25467E+00  7.88368E+00  6.16368E+00  7.27992E+00  7.74316E-01  1.55444E+01
   4.14012E+00  4.69974E+00  1.47312E+00  4.46407E+00  4.70494E+00  7.30326E+00  6.14790E+00  9.80427E+00  5.69062E+00  1.16408E+01
   6.49813E+00  5.93944E+00  8.25516E-01  6.61898E+00  3.88905E+00  6.35932E+00  6.07399E+00  5.07603E+00  6.85279E+00 -2.42089E+00
  -4.40251E+00  3.90738E+00  6.43698E+00  1.18725E+01  6.48213E+00  6.55675E+00  3.71388E+00  5.17556E+00  1.05839E+01  1.00385E+01
   6.24099E-01  3.72956E-01  4.47996E+00 -8.82886E+00  2.27022E+00  9.40494E+00  5.40507E+00 -1.60250E+00
 NY points of the fit to the data follow
   3.44027E+00  2.95792E+00  2.49877E+00  2.03850E+00  1.40214E+00  4.06412E-01 -7.62564E-01 -1.37791E+00 -7.46601E-01  1.33773E+00
   4.28261E+00  6.96800E+00  8.60078E+00  9.12394E+00  8.86522E+00  8.12059E+00  7.18773E+00  6.29028E+00  5.50349E+00  4.97029E+00
   4.82550E+00  4.96566E+00  5.15510E+00  5.31433E+00  5.22750E+00  4.90282E+00  4.54673E+00  4.44716E+00  4.96433E+00  6.23993E+00
   8.09055E+00  1.00563E+01  1.15725E+01  1.21775E+01  1.16073E+01  9.92490E+00  7.68646E+00  5.49124E+00  3.81577E+00  3.03960E+00
   3.09778E+00  3.71517E+00  4.69424E+00  5.97913E+00  7.52587E+00  9.06906E+00  1.02511E+01  1.07255E+01  1.03282E+01  9.26349E+00
   7.89979E+00  6.53429E+00  5.38754E+00  4.55930E+00  4.08449E+00  3.97493E+00  4.22446E+00  4.75912E+00  5.40062E+00  5.95642E+00
   6.28875E+00  6.34546E+00  6.25541E+00  6.13765E+00  6.08637E+00  6.16294E+00  6.28593E+00  6.33800E+00  6.37041E+00  6.44477E+00
   6.55466E+00  6.85406E+00  7.44011E+00  8.20345E+00  8.90819E+00  9.24406E+00  8.92179E+00  7.92638E+00  6.68701E+00  5.68328E+00
   5.20550E+00  5.32770E+00  6.09765E+00  7.33275E+00  8.74141E+00  1.00421E+01  1.07979E+01  1.07677E+01  1.01457E+01  9.25302E+00
   8.21166E+00  7.08089E+00  5.93564E+00  4.83766E+00  4.06773E+00  4.05983E+00  5.08229E+00  6.81798E+00  9.35088E+00  1.28558E+01
   1.70782E+01  2.14330E+01  2.48443E+01  2.62241E+01  2.53866E+01  2.30620E+01  2.00663E+01  1.69550E+01  1.41353E+01  1.17771E+01
   9.88567E+00  8.45802E+00  7.63943E+00  7.18135E+00  6.86212E+00  6.64566E+00  6.48457E+00  6.40228E+00  6.40346E+00  6.56725E+00
   7.18082E+00  8.25356E+00  1.01281E+01  1.34285E+01  1.81247E+01  2.34258E+01  2.80074E+01  3.04631E+01  3.02427E+01  2.79962E+01
   2.47414E+01  2.11856E+01  1.77572E+01  1.47352E+01  1.22358E+01  1.02541E+01  9.05089E+00  8.52536E+00  8.35882E+00  8.41863E+00
   8.58288E+00  8.73363E+00  8.79802E+00  8.75918E+00  8.62257E+00  8.42147E+00  8.19326E+00  7.95145E+00  7.71372E+00  7.48285E+00
   7.23191E+00  6.96591E+00  6.71161E+00  6.50994E+00  6.38600E+00  6.36968E+00  6.36419E+00  6.12072E+00  5.52141E+00  4.59521E+00
   3.63070E+00  3.10132E+00  3.18128E+00  3.60371E+00  3.92359E+00  3.77550E+00  3.07246E+00  2.04205E+00  9.67543E-01  3.63889E-03
  -8.56838E-01 -1.64852E+00 -2.53865E+00 -3.57471E+00 -4.51860E+00 -5.07241E+00 -5.07454E+00 -4.65121E+00 -4.18833E+00 -3.96730E+00
  -3.94746E+00 -3.84322E+00 -3.49052E+00 -3.05676E+00 -2.61395E+00 -2.01098E+00 -1.01890E+00  6.36470E-01  2.84946E+00  5.15587E+00
   7.08067E+00  8.32017E+00  8.92433E+00  9.08279E+00  8.95218E+00  8.67769E+00  8.32400E+00  8.02493E+00  7.97915E+00  8.35894E+00
   9.25917E+00  1.05677E+01  1.20045E+01  1.30561E+01  1.32699E+01  1.22699E+01  1.00603E+01  7.09278E+00  4.01940E+00  1.52046E+00
   1.84995E-01  3.58248E-01  2.29312E+00  5.87216E+00  1.02875E+01  1.42074E+01  1.63601E+01  1.61522E+01  1.37902E+01  9.81908E+00
   5.31237E+00  1.55960E+00 -3.94996E-01  3.37047E-02  2.58131E+00  6.36201E+00  1.04384E+01  1.39477E+01  1.64636E+01  1.78862E+01
   1.84591E+01  1.85287E+01  1.84268E+01  1.84903E+01  1.89228E+01  1.96663E+01  2.05523E+01  2.13857E+01  2.18956E+01  2.19501E+01
   2.16396E+01  2.12934E+01  2.13200E+01  2.19798E+01  2.32375E+01  2.47900E+01  2.63527E+01  2.77261E+01  2.89780E+01  3.05116E+01
   3.24756E+01  3.57393E+01  4.12175E+01  4.98890E+01  6.16757E+01  7.47735E+01  9.18821E+01  1.15135E+02  1.42612E+02  1.68318E+02
   1.83571E+02  1.82000E+02  1.65147E+02  1.39784E+02  1.11936E+02  8.57047E+01  6.33772E+01  4.61209E+01  3.34728E+01  2.51411E+01
   2.16102E+01  1.99324E+01  1.88407E+01  1.80268E+01  1.73194E+01  1.65767E+01  1.57892E+01  1.49910E+01  1.42235E+01  1.35263E+01
   1.29349E+01  1.24654E+01  1.21039E+01  1.18178E+01  1.15749E+01  1.13531E+01  1.11371E+01  1.09401E+01  1.07942E+01  1.07317E+01
   1.07674E+01  1.08991E+01  1.11055E+01  1.13590E+01  1.16299E+01  1.19024E+01  1.21706E+01  1.24370E+01  1.27114E+01  1.30030E+01
   1.33104E+01  1.36260E+01  1.39314E+01  1.42065E+01  1.44336E+01  1.45995E+01  1.46970E+01  1.47237E+01  1.46775E+01  1.45637E+01
   1.43891E+01  1.41610E+01  1.38887E+01  1.35827E+01  1.32541E+01  1.29145E+01  1.25759E+01  1.22506E+01  1.19516E+01  1.16941E+01
   1.14952E+01  1.13522E+01  1.12778E+01  1.12777E+01  1.13037E+01  1.12846E+01  1.11614E+01  1.09190E+01  1.06304E+01  1.04015E+01
   1.03095E+01  1.04315E+01  1.08240E+01  1.14990E+01  1.24079E+01  1.34424E+01  1.44976E+01  1.55064E+01  1.64665E+01  1.74254E+01
   1.84457E+01  1.95533E+01  2.07548E+01  2.20955E+01  2.34737E+01  2.46636E+01  2.54131E+01  2.55751E+01  2.52603E+01  2.47542E+01
   2.43299E+01  2.42479E+01  2.46697E+01  2.56114E+01  2.69093E+01  2.82138E+01  2.91859E+01  2.96581E+01  2.95864E+01  2.90787E+01
   2.82572E+01  2.72396E+01  2.61268E+01  2.49632E+01  2.38164E+01  2.27455E+01  2.17232E+01  2.07406E+01  1.98019E+01  1.89142E+01
   1.80845E+01  1.73191E+01  1.66230E+01  1.60000E+01  1.54527E+01  1.49829E+01  1.45911E+01  1.42775E+01  1.40418E+01  1.38841E+01
   1.38040E+01  1.38013E+01  1.38757E+01  1.40272E+01  1.42560E+01  1.45621E+01  1.49452E+01  1.54044E+01  1.59380E+01  1.65433E+01
   1.72163E+01  1.79514E+01  1.87408E+01  1.95749E+01  2.04417E+01  2.13271E+01  2.22153E+01  2.30885E+01  2.39278E+01  2.47134E+01
   2.54257E+01  2.60458E+01  2.65566E+01  2.69429E+01  2.71926E+01  2.72972E+01  2.72520E+01  2.70569E+01  2.67157E+01  2.62361E+01
   2.56292E+01  2.49095E+01  2.40936E+01  2.31999E+01  2.22472E+01  2.12545E+01  2.02399E+01  1.92207E+01  1.82121E+01  1.72274E+01
   1.62776E+01  1.53712E+01  1.45147E+01  1.37124E+01  1.29669E+01  1.22787E+01  1.16474E+01  1.10711E+01  1.05472E+01  1.00729E+01
   9.64456E+00  9.25868E+00  8.91142E+00  8.59917E+00  8.31847E+00  8.06621E+00  7.83936E+00  7.63515E+00  7.45100E+00  7.28469E+00
   7.13429E+00  6.99811E+00  6.87457E+00  6.76223E+00  6.65981E+00  6.56630E+00  6.48080E+00  6.40256E+00  6.33078E+00  6.26476E+00
   6.20392E+00  6.14782E+00  6.09609E+00  6.04835E+00  6.00416E+00  5.96318E+00  5.92513E+00  5.88986E+00  5.85716E+00  5.82682E+00
   5.79856E+00  5.77222E+00  5.74768E+00  5.72489E+00  5.70373E+00  5.68405E+00  5.66566E+00  5.64850E+00  5.63254E+00  5.61776E+00
   5.60405E+00  5.59132E+00  5.57943E+00  5.56841E+00  5.55824E+00  5.54894E+00  5.54037E+00  5.53247E+00  5.52516E+00  5.51850E+00
   5.51250E+00  5.50714E+00  5.50230E+00  5.49795E+00  5.49408E+00  5.49075E+00  5.48796E+00  5.48568E+00  5.48382E+00  5.48236E+00
   5.48135E+00  5.48085E+00  5.48085E+00  5.48131E+00  5.48216E+00  5.48345E+00  5.48525E+00  5.48764E+00
 NY background values follow
     2.659E+00    2.666E+00    2.672E+00    2.678E+00    2.685E+00    2.691E+00    2.698E+00    2.704E+00    2.711E+00    2.717E+00
     2.724E+00    2.730E+00    2.737E+00    2.743E+00    2.749E+00    2.756E+00    2.762E+00    2.769E+00    2.775E+00    2.782E+00
     2.788E+00    2.795E+00    2.801E+00    2.808E+00    2.814E+00    2.820E+00    2.827E+00    2.833E+00    2.840E+00    2.846E+00
     2.853E+00    2.859E+00    2.866E+00    2.872E+00    2.878E+00    2.885E+00    2.891E+00    2.898E+00    2.904E+00    2.911E+00
     2.917E+00    2.924E+00    2.930E+00    2.937E+00    2.943E+00    2.950E+00    2.956E+00    2.962E+00    2.969E+00    2.975E+00
     2.982E+00    2.988E+00    2.995E+00    3.001E+00    3.008E+00    3.014E+00    3.021E+00    3.027E+00    3.033E+00    3.040E+00
     3.046E+00    3.053E+00    3.059E+00    3.066E+00    3.072E+00    3.079E+00    3.085E+00    3.092E+00    3.098E+00    3.104E+00
     3.111E+00    3.117E+00    3.124E+00    3.130E+00    3.137E+00    3.143E+00    3.150E+00    3.156E+00    3.163E+00    3.169E+00
     3.175E+00    3.182E+00    3.188E+00    3.195E+00    3.201E+00    3.208E+00    3.214E+00    3.221E+00    3.227E+00    3.233E+00
     3.240E+00    3.246E+00    3.253E+00    3.259E+00    3.266E+00    3.272E+00    3.279E+00    3.285E+00    3.292E+00    3.298E+00
     3.304E+00    3.311E+00    3.317E+00    3.324E+00    3.330E+00    3.337E+00    3.343E+00    3.350E+00    3.356E+00    3.362E+00
     3.369E+00    3.375E+00    3.382E+00    3.388E+00    3.395E+00    3.401E+00    3.408E+00    3.414E+00    3.420E+00    3.427E+00
     3.433E+00    3.440E+00    3.446E+00    3.453E+00    3.459E+00    3.465E+00    3.472E+00    3.478E+00    3.485E+00    3.491E+00
     3.498E+00    3.504E+00    3.510E+00    3.517E+00    3.523E+00    3.530E+00    3.536E+00    3.543E+00    3.549E+00    3.555E+00
     3.562E+00    3.568E+00    3.575E+00    3.581E+00    3.588E+00    3.594E+00    3.600E+00    3.607E+00    3.613E+00    3.620E+00
     3.626E+00    3.633E+00    3.639E+00    3.645E+00    3.652E+00    3.658E+00    3.665E+00    3.671E+00    3.678E+00    3.684E+00
     3.690E+00    3.697E+00    3.703E+00    3.710E+00    3.716E+00    3.722E+00    3.729E+00    3.735E+00    3.742E+00    3.748E+00
     3.754E+00    3.761E+00    3.767E+00    3.774E+00    3.780E+00    3.786E+00    3.793E+00    3.799E+00    3.806E+00    3.812E+00
     3.818E+00    3.825E+00    3.831E+00    3.838E+00    3.844E+00    3.850E+00    3.857E+00    3.863E+00    3.870E+00    3.876E+00
     3.882E+00    3.889E+00    3.895E+00    3.902E+00    3.908E+00    3.914E+00    3.921E+00    3.927E+00    3.934E+00    3.940E+00
     3.946E+00    3.953E+00    3.959E+00    3.965E+00    3.972E+00    3.978E+00    3.985E+00    3.991E+00    3.997E+00    4.004E+00
     4.010E+00    4.016E+00    4.023E+00    4.029E+00    4.036E+00    4.042E+00    4.048E+00    4.055E+00    4.061E+00    4.067E+00
     4.074E+00    4.080E+00    4.087E+00    4.093E+00    4.099E+00    4.106E+00    4.112E+00    4.118E+00    4.125E+00    4.131E+00
     4.137E+00    4.144E+00    4.150E+00    4.156E+00    4.163E+00    4.169E+00    4.175E+00    4.182E+00    4.188E+00    4.195E+00
     4.201E+00    4.207E+00    4.214E+00    4.220E+00    4.226E+00    4.233E+00    4.239E+00    4.245E+00    4.252E+00    4.258E+00
     4.264E+00    4.271E+00    4.277E+00    4.283E+00    4.290E+00    4.296E+00    4.302E+00    4.308E+00    4.315E+00    4.321E+00
     4.327E+00    4.334E+00    4.340E+00    4.346E+00    4.353E+00    4.359E+00    4.365E+00    4.372E+00    4.378E+00    4.384E+00
     4.391E+00    4.397E+00    4.403E+00    4.409E+00    4.416E+00    4.422E+00    4.428E+00    4.435E+00    4.441E+00    4.447E+00
     4.454E+00    4.460E+00    4.466E+00    4.472E+00    4.479E+00    4.485E+00    4.491E+00    4.498E+00    4.504E+00    4.510E+00
     4.516E+00    4.523E+00    4.529E+00    4.535E+00    4.541E+00    4.548E+00    4.554E+00    4.560E+00    4.567E+00    4.573E+00
     4.579E+00    4.585E+00    4.592E+00    4.598E+00    4.604E+00    4.610E+00    4.617E+00    4.623E+00    4.629E+00    4.635E+00
     4.642E+00    4.648E+00    4.654E+00    4.660E+00    4.667E+00    4.673E+00    4.679E+00    4.685E+00    4.692E+00    4.698E+00
     4.704E+00    4.710E+00    4.716E+00    4.723E+00    4.729E+00    4.735E+00    4.741E+00    4.748E+00    4.754E+00    4.760E+00
     4.766E+00    4.772E+00    4.779E+00    4.785E+00    4.791E+00    4.797E+00    4.803E+00    4.810E+00    4.816E+00    4.822E+00
     4.828E+00    4.834E+00    4.841E+00    4.847E+00    4.853E+00    4.859E+00    4.865E+00    4.872E+00    4.878E+00    4.884E+00
     4.890E+00    4.896E+00    4.902E+00    4.909E+00    4.915E+00    4.921E+00    4.927E+00    4.933E+00    4.939E+00    4.946E+00
     4.952E+00    4.958E+00    4.964E+00    4.970E+00    4.976E+00    4.983E+00    4.989E+00    4.995E+00    5.001E+00    5.007E+00
     5.013E+00    5.019E+00    5.026E+00    5.032E+00    5.038E+00    5.044E+00    5.050E+00    5.056E+00    5.062E+00    5.068E+00
     5.075E+00    5.081E+00    5.087E+00    5.093E+00    5.099E+00    5.105E+00    5.111E+00    5.117E+00    5.123E+00    5.130E+00
     5.136E+00    5.142E+00    5.148E+00    5.154E+00    5.160E+00    5.166E+00    5.172E+00    5.178E+00    5.184E+00    5.190E+00
     5.197E+00    5.203E+00    5.209E+00    5.215E+00    5.221E+00    5.227E+00    5.233E+00    5.239E+00    5.245E+00    5.251E+00
     5.257E+00    5.263E+00    5.269E+00    5.275E+00    5.281E+00    5.287E+00    5.293E+00    5.300E+00    5.306E+00    5.312E+00
     5.318E+00    5.324E+00    5.330E+00    5.336E+00    5.342E+00    5.348E+00    5.354E+00    5.360E+00    5.366E+00    5.372E+00
     5.378E+00    5.384E+00    5.390E+00    5.396E+00    5.402E+00    5.408E+00    5.414E+00    5.420E+00    5.426E+00    5.432E+00
     5.438E+00    5.444E+00    5.450E+00    5.456E+00    5.462E+00    5.468E+00    5.474E+00    5.480E+00    5.486E+00    5.492E+00
     5.498E+00    5.504E+00    5.509E+00    5.515E+00    5.521E+00    5.527E+00    5.533E+00    5.539E+00    5.545E+00    5.551E+00
     5.557E+00    5.563E+00    5.569E+00    5.575E+00    5.581E+00    5.587E+00    5.593E+00    5.599E+00    5.604E+00    5.610E+00
     5.616E+00    5.622E+00    5.628E+00    5.634E+00    5.640E+00    5.646E+00    5.652E+00    5.658E+00    5.663E+00    5.669E+00
     5.675E+00    5.681E+00    5.687E+00    5.693E+00    5.699E+00    5.705E+00    5.710E+00    5.716E+00    5.722E+00    5.728E+00
     5.734E+00    5.740E+00    5.746E+00    5.751E+00    5.757E+00    5.763E+00    5.769E+00    5.775E+00
 Ala      Conc. = 8.45E+01
