 LCModel (Version 6.3-1L) Copyright: S.W. Provencher.          Ref.: Magn. Reson. Med. 30:672-679 (1993).                
 Slice#1 Row#3 Col#3  PD_05_press_2_raw_act
 36 lines in following concentration table = NCONC+1
    Conc.  %SD /Cr+PCr  Metabolite                                         
    0.000 999%   0.000 Ala                                                 
  183.687  92%   0.227 Asp                                                 
  307.231 109%   0.379 Cr                                                  
  502.771  68%   0.621 PCr                                                 
  107.138  95%   0.132 GABA                                                
  104.424  99%   0.129 Glc                                                 
  252.692 153%   0.312 Gln                                                 
 1.08E+03  41%   1.336 Glu                                                 
  294.760  63%   0.364 GPC                                                 
    8.350 999% 1.0E-02 PCh                                                 
  211.423  64%   0.261 GSH                                                 
  927.655  47%   1.145 Ins                                                 
    0.000 999%   0.000 Lac                                                 
 1.41E+03  10%   1.747 NAA                                                 
    0.000 999%   0.000 NAAG                                                
   55.988  53% 6.9E-02 Scyllo                                              
  259.956  63%   0.321 Tau                                                 
  260.300  59%   0.321 -CrCH2                                              
  303.111  13%   0.374 GPC+PCh                                             
 1.41E+03  10%   1.747 NAA+NAAG                                            
  810.002  13%   1.000 Cr+PCr                                              
 1.33E+03  44%   1.648 Glu+Gln                                             
 9.27E+03  16%  11.446 Lip13a                                              
  499.943  69%   0.617 Lip13b                                              
 2.97E+03  24%   3.665 Lip09                                               
 2.54E+03  22%   3.134 MM09                                                
 1.20E+03  59%   1.479 Lip20                                               
 2.34E+03  35%   2.888 MM20                                                
  946.281  45%   1.168 MM12                                                
    0.000 999%   0.000 MM14                                                
 3.30E+03  19%   4.074 MM17                                                
 9.77E+03  15%  12.063 Lip13a+Lip13b                                       
 1.07E+04  13%  13.231 MM14+Lip13a+Lip13b+MM12                             
 5.51E+03  11%   6.799 MM09+Lip09                                          
 3.54E+03  21%   4.367 MM20+Lip20                                          
   6 lines in following misc. output table
  FWHM = 0.046 ppm    S/N =   4                                            
  Data shift = 0.015 ppm                                                   
  Ph: -80 deg     -23.5 deg/ppm                                            
  alphaB,S = 8.5E+01,   3.6E+01                                            
   14 spline knots.   Ns = 6(1)                                            
  ( 9) 3 infls.   ( 9) 1 extrs.                                            
  498 points on ppm-axis = NY
      4.000000     3.992357     3.984714     3.977070     3.969427     3.961784     3.954141     3.946497     3.938854     3.931211
      3.923568     3.915925     3.908281     3.900638     3.892995     3.885352     3.877708     3.870065     3.862422     3.854779
      3.847136     3.839492     3.831849     3.824206     3.816563     3.808919     3.801276     3.793633     3.785990     3.778347
      3.770703     3.763060     3.755417     3.747774     3.740130     3.732487     3.724844     3.717201     3.709558     3.701914
      3.694271     3.686628     3.678985     3.671341     3.663698     3.656055     3.648412     3.640769     3.633125     3.625482
      3.617839     3.610196     3.602552     3.594909     3.587266     3.579623     3.571980     3.564336     3.556693     3.549050
      3.541407     3.533763     3.526120     3.518477     3.510834     3.503191     3.495547     3.487904     3.480261     3.472618
      3.464974     3.457331     3.449688     3.442045     3.434402     3.426758     3.419115     3.411472     3.403829     3.396185
      3.388542     3.380899     3.373256     3.365613     3.357969     3.350326     3.342683     3.335040     3.327396     3.319753
      3.312110     3.304467     3.296824     3.289180     3.281537     3.273894     3.266251     3.258607     3.250964     3.243321
      3.235678     3.228034     3.220391     3.212748     3.205105     3.197462     3.189818     3.182175     3.174532     3.166889
      3.159245     3.151602     3.143959     3.136316     3.128673     3.121029     3.113386     3.105743     3.098100     3.090456
      3.082813     3.075170     3.067527     3.059884     3.052240     3.044597     3.036954     3.029311     3.021667     3.014024
      3.006381     2.998738     2.991095     2.983451     2.975808     2.968165     2.960522     2.952878     2.945235     2.937592
      2.929949     2.922306     2.914662     2.907019     2.899376     2.891733     2.884089     2.876446     2.868803     2.861160
      2.853517     2.845873     2.838230     2.830587     2.822944     2.815300     2.807657     2.800014     2.792371     2.784728
      2.777084     2.769441     2.761798     2.754155     2.746511     2.738868     2.731225     2.723582     2.715939     2.708295
      2.700652     2.693009     2.685366     2.677722     2.670079     2.662436     2.654793     2.647150     2.639506     2.631863
      2.624220     2.616577     2.608933     2.601290     2.593647     2.586004     2.578361     2.570717     2.563074     2.555431
      2.547788     2.540144     2.532501     2.524858     2.517215     2.509572     2.501928     2.494285     2.486642     2.478999
      2.471355     2.463712     2.456069     2.448426     2.440783     2.433139     2.425496     2.417853     2.410210     2.402566
      2.394923     2.387280     2.379637     2.371994     2.364350     2.356707     2.349064     2.341421     2.333777     2.326134
      2.318491     2.310848     2.303205     2.295561     2.287918     2.280275     2.272632     2.264988     2.257345     2.249702
      2.242059     2.234416     2.226772     2.219129     2.211486     2.203843     2.196199     2.188556     2.180913     2.173270
      2.165627     2.157983     2.150340     2.142697     2.135054     2.127410     2.119767     2.112124     2.104481     2.096838
      2.089194     2.081551     2.073908     2.066265     2.058621     2.050978     2.043335     2.035692     2.028049     2.020405
      2.012762     2.005119     1.997476     1.989833     1.982190     1.974546     1.966903     1.959260     1.951617     1.943974
      1.936331     1.928688     1.921045     1.913402     1.905759     1.898115     1.890472     1.882829     1.875186     1.867543
      1.859900     1.852257     1.844614     1.836971     1.829327     1.821684     1.814041     1.806398     1.798755     1.791112
      1.783469     1.775826     1.768183     1.760540     1.752896     1.745253     1.737610     1.729967     1.722324     1.714681
      1.707038     1.699395     1.691752     1.684108     1.676465     1.668822     1.661179     1.653536     1.645893     1.638250
      1.630607     1.622964     1.615321     1.607677     1.600034     1.592391     1.584748     1.577105     1.569462     1.561819
      1.554176     1.546533     1.538890     1.531246     1.523603     1.515960     1.508317     1.500674     1.493031     1.485388
      1.477745     1.470102     1.462458     1.454815     1.447172     1.439529     1.431886     1.424243     1.416600     1.408957
      1.401314     1.393671     1.386027     1.378384     1.370741     1.363098     1.355455     1.347812     1.340169     1.332526
      1.324883     1.317240     1.309596     1.301953     1.294310     1.286667     1.279024     1.271381     1.263738     1.256095
      1.248452     1.240808     1.233165     1.225522     1.217879     1.210236     1.202593     1.194950     1.187307     1.179664
      1.172021     1.164377     1.156734     1.149091     1.141448     1.133805     1.126162     1.118519     1.110876     1.103233
      1.095590     1.087946     1.080303     1.072660     1.065017     1.057374     1.049731     1.042088     1.034445     1.026802
      1.019158     1.011515     1.003872     0.996229     0.988586     0.980943     0.973300     0.965657     0.958014     0.950371
      0.942727     0.935084     0.927441     0.919798     0.912155     0.904512     0.896869     0.889226     0.881583     0.873940
      0.866296     0.858653     0.851010     0.843367     0.835724     0.828081     0.820438     0.812795     0.805152     0.797508
      0.789865     0.782222     0.774579     0.766936     0.759293     0.751650     0.744007     0.736364     0.728721     0.721077
      0.713434     0.705791     0.698148     0.690505     0.682862     0.675219     0.667576     0.659933     0.652290     0.644646
      0.637003     0.629360     0.621717     0.614074     0.606431     0.598788     0.591145     0.583502     0.575858     0.568215
      0.560572     0.552929     0.545286     0.537643     0.530000     0.522357     0.514714     0.507071     0.499427     0.491784
      0.484141     0.476498     0.468855     0.461212     0.453569     0.445925     0.438282     0.430639     0.422996     0.415353
      0.407710     0.400067     0.392424     0.384780     0.377137     0.369494     0.361851     0.354208     0.346565     0.338922
      0.331278     0.323635     0.315992     0.308349     0.300706     0.293063     0.285420     0.277777     0.270133     0.262490
      0.254847     0.247204     0.239561     0.231918     0.224275     0.216631     0.208988     0.201345
 NY phased data points follow
  -3.43029E+01 -3.16220E+01 -3.19245E+01 -2.78128E+01 -3.12746E+01 -1.65019E+01 -1.63667E+01 -8.29311E+00 -1.15428E+01 -2.58652E+01
  -1.04825E+01 -6.30139E+00  6.53923E+00 -1.34651E+01 -1.40243E+01 -3.68424E+01 -2.48979E+01 -1.99960E+01 -2.75051E+01 -1.92313E+01
  -1.44474E+01 -2.44217E+01 -3.57012E+01 -1.87532E+01 -2.12521E+01 -2.02403E+01 -1.61591E+01 -9.87697E+00 -1.52445E+01 -1.42941E+01
  -2.12350E+01 -1.73027E+01 -8.53003E+00 -1.32540E+01 -1.09185E+01 -1.72305E+01 -2.32867E+01 -2.87365E+01 -6.80311E+00 -2.06794E+01
  -2.04056E+01 -1.08916E+01 -1.67877E+01 -1.32265E+01 -2.23759E+01 -1.38653E+01 -4.24969E+00 -5.76291E+00 -9.61416E+00 -8.92556E+00
  -1.70821E+00 -1.28388E+01 -1.98124E+01 -1.04859E+01 -3.16645E+01 -6.70531E+00 -2.57755E+01 -2.14155E+01 -6.60351E+00 -1.38399E+01
  -7.72319E+00 -1.51825E+01 -1.34200E+01 -1.26938E+01 -1.75975E+01 -9.36722E+00 -2.80767E+01 -2.70957E+01 -1.12687E+01 -7.67109E+00
  -7.15270E+00 -1.35875E+01 -1.08361E+01 -1.98868E+01 -6.30412E+00 -9.36822E+00 -1.13604E+01 -1.45935E+01 -1.12643E+01 -7.86611E-01
  -1.60359E+01 -1.71382E+01 -1.75862E+01 -1.59663E+01 -1.43652E+01 -2.09893E+01 -7.96419E+00 -1.20117E+01 -1.30406E+01 -2.15495E+00
   1.82088E+00 -7.93837E+00 -9.77076E+00 -2.09244E+00 -1.21942E+01 -1.10851E+01 -5.97558E+00 -1.18351E+01 -4.09708E+00  7.15240E+00
   2.87887E+00  1.82815E+01  1.77380E+01  2.55411E+01  1.56190E+01 -1.05841E+00 -3.70476E-01 -1.22849E+00 -6.86232E+00 -6.13828E+00
   3.56422E-01 -8.77032E+00 -1.07661E+01  4.10987E+00 -2.20417E+01 -2.25759E+01 -2.07628E+01 -1.07673E+01 -2.10673E+01 -1.52366E+01
   1.35107E+00 -6.31946E+00 -4.53909E+00  1.29037E+00  8.78640E+00  1.64260E+01  1.09399E+01  2.70336E+01  2.78453E+01  9.65678E+00
   1.03849E+01  7.47653E+00 -1.22019E+01  5.10984E+00 -1.53255E+00 -1.27826E+01 -8.24560E+00 -1.86444E+01 -9.65897E+00 -1.23500E+01
  -1.32564E+01 -3.82600E+00 -8.82653E+00 -1.14082E+01 -1.95837E+00 -9.20708E+00 -8.69837E+00 -7.09852E+00 -7.01194E+00  3.59372E+00
  -1.64468E+01 -1.33396E+01 -7.33948E+00 -6.08352E+00  5.45451E+00 -3.85641E+00 -1.41029E+01 -7.18640E+00 -6.49607E+00 -1.57725E+01
  -6.40874E+00 -8.11195E+00 -2.17120E+01 -1.38635E+01 -1.53974E+01  3.79768E+00  9.56597E-01 -1.98787E+00 -4.32733E+00 -2.14891E-01
  -9.98143E+00 -6.80273E+00 -5.54957E+00 -4.92515E+00 -1.23900E+01 -4.72325E+00 -3.23496E+00 -1.49711E+01 -2.25952E+01 -1.15415E+01
  -1.27927E+01 -1.36196E+01 -1.27902E+01 -1.12557E+01 -2.19406E+01  5.13499E+00 -3.84158E+00 -1.35686E+01 -9.90855E-01  3.05506E+00
   2.59029E+00 -4.87509E+00  6.33245E+00  1.02495E+00  7.45505E-01  1.00204E+01  7.50834E-01 -1.23802E+01 -8.46398E+00  2.66931E+00
  -1.45795E+01 -1.48603E-01  5.06507E+00 -6.84678E+00  5.98154E+00  9.38755E-01  1.99400E+00  1.10821E+01 -1.00111E+01 -1.69446E+01
  -8.71201E+00 -1.54550E+00  5.45370E+00  1.15612E+01 -7.12265E+00  1.15942E+01  1.25836E+01  4.40673E+00 -3.38572E+00  4.81112E-01
  -5.20024E+00 -7.07974E+00 -1.33147E+00  1.25673E+00  2.44562E+00  1.53072E+01  8.98886E+00  6.00418E+00  8.33063E+00  5.27210E+00
   2.55352E+00  7.70366E+00 -3.67159E+00 -3.61876E+00  1.20677E+01  2.39007E+01  5.02591E+00 -3.85778E+00  9.28817E+00  1.15851E+01
   7.37350E+00  1.00591E+01  1.15326E+01  1.52262E+01  6.67091E+00  7.15535E-01  1.06040E+01  1.45839E+01  2.45931E+01  1.10087E+01
   1.50315E+01  7.93017E+00  1.22197E+01  2.91014E+00  1.72217E+01  2.45280E+01  3.30909E+01  3.78680E+01  4.47983E+01  6.37346E+01
   7.20021E+01  6.53404E+01  5.55038E+01  3.88368E+01  2.93358E+01  2.46974E+01  2.09804E+01  2.25224E+01  1.88769E+01  1.13369E+01
   1.51325E+01  9.44693E+00  1.20709E+01  1.47655E+01  1.76185E+01  6.62337E+00  9.87560E+00  3.17344E+00  6.88971E+00  8.11176E+00
   5.94324E+00  2.23345E+00  1.44346E+00  1.80023E+01  9.44183E+00 -1.97962E+00  1.56878E+01  1.32236E+01  1.69689E+01  2.17323E+01
  -3.26519E+00  1.22593E+01  2.24240E+01  1.89667E+01  8.26568E+00  2.03572E+01  2.30933E+01  2.44483E+01  2.97241E+01  2.47315E+01
   1.86100E+01  2.70989E+01  7.62038E+00  8.19257E+00  1.71334E+01  1.78912E+01  3.06957E+01  1.65665E+01  1.58387E+01  1.98157E+01
   2.22362E+01  3.23467E+01  2.78293E+01  4.40875E+01  4.38007E+01  2.90016E+01  2.64293E+01  2.50474E+01  2.33887E+01  3.22741E+01
   2.29008E+01  3.31925E+01  4.16195E+01  2.75153E+01  2.30061E+01  2.99170E+01  2.87300E+01  3.88671E+01  3.04305E+01  3.08710E+01
   2.39800E+01  1.29898E+01  2.54066E+01  2.07406E+01  1.66666E+01  1.42982E+01  2.41951E+01  1.41502E+01  2.17426E+01  1.97105E+01
   3.16116E+01  2.01747E+01  2.80176E+01  3.08566E+01  2.92738E+01  3.13078E+01  2.64872E+01  5.29048E+01  6.01013E+01  4.23853E+01
   4.64917E+01  4.83160E+01  6.14120E+01  4.92088E+01  4.38807E+01  5.66797E+01  4.81553E+01  4.76786E+01  3.96025E+01  4.69668E+01
   4.11031E+01  4.30388E+01  4.39578E+01  4.00129E+01  3.84933E+01  3.82228E+01  3.45253E+01  4.36023E+01  5.13565E+01  3.76935E+01
   4.11178E+01  5.36235E+01  3.16773E+01  5.49777E+01  4.23491E+01  3.84300E+01  2.83829E+01  4.51617E+01  4.03231E+01  4.26739E+01
   4.69412E+01  3.27915E+01  3.05696E+01  4.19303E+01  3.32781E+01  3.50076E+01  3.90854E+01  4.64172E+01  4.15323E+01  3.71080E+01
   4.57191E+01  4.14822E+01  3.22358E+01  4.90500E+01  2.55080E+01  4.13083E+01  4.68820E+01  3.81689E+01  2.70147E+01  3.86052E+01
   3.51001E+01  3.12530E+01  3.00126E+01  3.46737E+01  2.77584E+01  2.95660E+01  3.61525E+01  2.48339E+01  2.85063E+01  2.40914E+01
   2.52040E+01  2.31985E+01  1.74464E+01  3.12149E+01  3.31352E+01  2.53705E+01  2.70955E+01  2.15069E+01  2.35962E+01  1.46892E+01
   2.03135E+01  1.59324E+01  1.79616E+01  2.16957E+01  8.86659E+00  2.15748E+01  2.07564E+01  2.85070E+01  2.19962E+01  2.21075E+01
   1.77653E+01  2.94898E+01  2.21774E+01  1.71483E+01  2.98627E+01  1.65041E+01  1.20142E+01  1.83731E+01  1.06538E+01  1.07375E+01
   1.63269E+01  1.25955E+01  1.16969E+01  1.67153E+01  1.32641E+01  2.47116E+01  1.93159E+01  1.17669E+01  9.66558E+00  2.96308E+01
   8.35185E+00  1.30288E+01  8.88330E+00  1.38219E+01  1.01303E+01  7.99650E+00  1.17104E+01  1.29574E+01  3.16613E+00  3.21253E+00
   4.67116E+00  2.14694E+01  1.32548E+01  4.65007E+00  8.57881E+00  1.51076E+01  1.12414E+01  8.94009E+00  6.23218E+00  9.25848E+00
   1.00821E+01  1.99617E+01  2.05208E+01  6.10861E+00  2.07988E+01  5.04106E+00  4.26465E+00 -4.77861E+00  1.60267E+01  8.95462E+00
   2.65719E+00  2.75883E+01  6.10157E+00  8.94646E+00  1.08137E+01  1.32694E+01  1.08007E+01  1.19278E+01  8.04119E+00  2.63514E+00
   6.70121E+00  1.00383E+01  2.26312E+00  1.04827E+01 -1.04038E+00  8.80109E+00  1.36009E+01  6.40762E+00
 NY points of the fit to the data follow
  -2.21044E+01 -2.24043E+01 -2.24377E+01 -2.21594E+01 -2.13976E+01 -2.00191E+01 -1.79698E+01 -1.54167E+01 -1.26313E+01 -9.99834E+00
  -8.08177E+00 -7.49144E+00 -8.45847E+00 -1.05815E+01 -1.29732E+01 -1.49016E+01 -1.62578E+01 -1.71996E+01 -1.79917E+01 -1.86002E+01
  -1.88010E+01 -1.87209E+01 -1.86421E+01 -1.87371E+01 -1.88360E+01 -1.87696E+01 -1.85241E+01 -1.79520E+01 -1.67694E+01 -1.49003E+01
  -1.28033E+01 -1.12375E+01 -1.07347E+01 -1.13081E+01 -1.26234E+01 -1.42528E+01 -1.58484E+01 -1.71086E+01 -1.77841E+01 -1.79722E+01
  -1.78466E+01 -1.73770E+01 -1.64954E+01 -1.52511E+01 -1.37874E+01 -1.21418E+01 -1.04394E+01 -9.16485E+00 -8.92485E+00 -1.00086E+01
  -1.20052E+01 -1.40675E+01 -1.56020E+01 -1.64307E+01 -1.66729E+01 -1.65259E+01 -1.60796E+01 -1.54268E+01 -1.46841E+01 -1.40000E+01
  -1.35685E+01 -1.35737E+01 -1.40320E+01 -1.47184E+01 -1.53158E+01 -1.56040E+01 -1.55547E+01 -1.52538E+01 -1.48563E+01 -1.44644E+01
  -1.40186E+01 -1.35231E+01 -1.30461E+01 -1.26842E+01 -1.25029E+01 -1.25108E+01 -1.27594E+01 -1.32315E+01 -1.38199E+01 -1.43359E+01
  -1.44826E+01 -1.41467E+01 -1.35730E+01 -1.30315E+01 -1.26000E+01 -1.23475E+01 -1.24196E+01 -1.29460E+01 -1.38415E+01 -1.47312E+01
  -1.52179E+01 -1.52618E+01 -1.51316E+01 -1.50795E+01 -1.51000E+01 -1.49161E+01 -1.36992E+01 -1.05026E+01 -5.66389E+00  2.42709E-01
   7.04192E+00  1.40932E+01  1.92678E+01  1.99271E+01  1.53374E+01  7.85543E+00  8.87759E-01 -3.74343E+00 -6.31062E+00 -8.18991E+00
  -9.74499E+00 -1.04215E+01 -1.07257E+01 -1.09005E+01 -1.10140E+01 -1.11213E+01 -1.12107E+01 -1.12900E+01 -1.13616E+01 -1.13618E+01
  -1.09118E+01 -8.89739E+00 -5.01474E+00  2.05145E-01  6.40330E+00  1.33136E+01  1.95482E+01  2.26245E+01  2.07426E+01  1.47580E+01
   7.77018E+00  2.33024E+00 -9.94000E-01 -3.17297E+00 -5.30582E+00 -6.84196E+00 -7.64760E+00 -7.95934E+00 -7.81670E+00 -7.34677E+00
  -6.77615E+00 -6.31874E+00 -6.05815E+00 -5.99200E+00 -6.02933E+00 -6.08757E+00 -6.17718E+00 -6.30982E+00 -6.46088E+00 -6.59867E+00
  -6.68101E+00 -6.71764E+00 -6.71877E+00 -6.69663E+00 -6.65864E+00 -6.65536E+00 -6.74400E+00 -6.92219E+00 -7.17777E+00 -7.46151E+00
  -7.69778E+00 -7.77859E+00 -7.59317E+00 -7.15816E+00 -6.67750E+00 -6.41107E+00 -6.47942E+00 -6.78405E+00 -7.10905E+00 -7.35748E+00
  -7.57990E+00 -7.84511E+00 -8.14306E+00 -8.39542E+00 -8.59111E+00 -8.76042E+00 -8.82592E+00 -8.68000E+00 -8.36373E+00 -8.09919E+00
  -8.06241E+00 -8.19120E+00 -8.25840E+00 -8.07592E+00 -7.72424E+00 -7.38378E+00 -6.98150E+00 -6.34238E+00 -5.38553E+00 -4.30386E+00
  -3.45818E+00 -3.06039E+00 -3.11541E+00 -3.42767E+00 -3.74494E+00 -3.94878E+00 -4.03585E+00 -3.96175E+00 -3.64627E+00 -3.01161E+00
  -2.08363E+00 -1.06344E+00 -1.56087E-01  4.46714E-01  4.90401E-01 -1.19716E-01 -1.27929E+00 -2.70504E+00 -4.00094E+00 -4.70745E+00
  -4.38191E+00 -3.02163E+00 -9.36385E-01  1.42236E+00  3.59572E+00  4.89376E+00  4.63261E+00  2.71540E+00 -1.52664E-01 -2.84220E+00
  -4.61935E+00 -5.20834E+00 -4.44420E+00 -2.35138E+00  6.70460E-01  3.52415E+00  5.36317E+00  6.12861E+00  6.22872E+00  6.07359E+00
   5.83507E+00  5.71953E+00  6.03890E+00  6.81924E+00  7.72201E+00  8.49827E+00  9.05554E+00  9.32602E+00  9.31039E+00  9.06784E+00
   8.78318E+00  8.70909E+00  9.04190E+00  9.82625E+00  1.08959E+01  1.19886E+01  1.28717E+01  1.34366E+01  1.37084E+01  1.38701E+01
   1.41537E+01  1.46668E+01  1.54670E+01  1.66841E+01  1.93423E+01  2.48267E+01  3.25533E+01  4.16245E+01  5.16881E+01  6.15723E+01
   6.77079E+01  6.60961E+01  5.60529E+01  4.18951E+01  2.93726E+01  2.11978E+01  1.66544E+01  1.34500E+01  1.08117E+01  9.70340E+00
   9.23798E+00  9.03265E+00  9.05221E+00  9.19354E+00  9.32233E+00  9.35675E+00  9.27019E+00  9.09022E+00  8.86320E+00  8.64385E+00
   8.47363E+00  8.38781E+00  8.40546E+00  8.51397E+00  8.69571E+00  8.93725E+00  9.22001E+00  9.53242E+00  9.87305E+00  1.02469E+01
   1.06654E+01  1.11362E+01  1.16628E+01  1.22512E+01  1.29094E+01  1.36420E+01  1.44478E+01  1.53247E+01  1.62692E+01  1.72732E+01
   1.83269E+01  1.94207E+01  2.05404E+01  2.16694E+01  2.27885E+01  2.38771E+01  2.49148E+01  2.58814E+01  2.67572E+01  2.75235E+01
   2.81638E+01  2.86657E+01  2.90209E+01  2.92263E+01  2.92839E+01  2.92005E+01  2.89875E+01  2.86608E+01  2.82399E+01  2.77471E+01
   2.72061E+01  2.66413E+01  2.60765E+01  2.55346E+01  2.50365E+01  2.46008E+01  2.42427E+01  2.39745E+01  2.38055E+01  2.37421E+01
   2.37882E+01  2.39453E+01  2.42128E+01  2.45883E+01  2.50684E+01  2.56492E+01  2.63263E+01  2.70955E+01  2.79532E+01  2.88972E+01
   2.99274E+01  3.10468E+01  3.22607E+01  3.35769E+01  3.50033E+01  3.65455E+01  3.82017E+01  3.99576E+01  4.17814E+01  4.36210E+01
   4.54041E+01  4.70443E+01  4.84508E+01  4.95410E+01  5.02538E+01  5.05606E+01  5.04700E+01  5.00257E+01  4.92982E+01  4.83716E+01
   4.73299E+01  4.62453E+01  4.51712E+01  4.41400E+01  4.31656E+01  4.22482E+01  4.13809E+01  4.05550E+01  3.97644E+01  3.90073E+01
   3.82869E+01  3.76107E+01  3.69891E+01  3.64342E+01  3.59583E+01  3.55729E+01  3.52873E+01  3.51087E+01  3.50407E+01  3.50842E+01
   3.52361E+01  3.54897E+01  3.58349E+01  3.62576E+01  3.67409E+01  3.72654E+01  3.78092E+01  3.83496E+01  3.88631E+01  3.93270E+01
   3.97198E+01  4.00227E+01  4.02200E+01  4.03000E+01  4.02548E+01  4.00813E+01  3.97808E+01  3.93587E+01  3.88238E+01  3.81879E+01
   3.74644E+01  3.66684E+01  3.58151E+01  3.49193E+01  3.39944E+01  3.30526E+01  3.21040E+01  3.11568E+01  3.02174E+01  2.92901E+01
   2.83780E+01  2.74827E+01  2.66052E+01  2.57461E+01  2.49056E+01  2.40840E+01  2.32817E+01  2.24996E+01  2.17385E+01  2.10002E+01
   2.02861E+01  1.95980E+01  1.89377E+01  1.83069E+01  1.77072E+01  1.71399E+01  1.66060E+01  1.61062E+01  1.56406E+01  1.52092E+01
   1.48115E+01  1.44469E+01  1.41143E+01  1.38124E+01  1.35396E+01  1.32946E+01  1.30757E+01  1.28812E+01  1.27093E+01  1.25585E+01
   1.24270E+01  1.23134E+01  1.22161E+01  1.21339E+01  1.20652E+01  1.20091E+01  1.19642E+01  1.19296E+01  1.19045E+01  1.18880E+01
   1.18791E+01  1.18773E+01  1.18819E+01  1.18924E+01  1.19082E+01  1.19288E+01  1.19538E+01  1.19828E+01  1.20155E+01  1.20516E+01
   1.20907E+01  1.21327E+01  1.21771E+01  1.22239E+01  1.22729E+01  1.23239E+01  1.23767E+01  1.24312E+01  1.24871E+01  1.25445E+01
   1.26032E+01  1.26632E+01  1.27242E+01  1.27862E+01  1.28491E+01  1.29130E+01  1.29777E+01  1.30432E+01  1.31093E+01  1.31761E+01
   1.32434E+01  1.33114E+01  1.33799E+01  1.34489E+01  1.35184E+01  1.35883E+01  1.36586E+01  1.37294E+01  1.38006E+01  1.38723E+01
   1.39442E+01  1.40165E+01  1.40893E+01  1.41625E+01  1.42361E+01  1.43101E+01  1.43845E+01  1.44595E+01
 NY background values follow
    -2.076E+01   -2.069E+01   -2.062E+01   -2.055E+01   -2.048E+01   -2.042E+01   -2.035E+01   -2.028E+01   -2.021E+01   -2.014E+01
    -2.007E+01   -2.000E+01   -1.993E+01   -1.986E+01   -1.979E+01   -1.973E+01   -1.966E+01   -1.959E+01   -1.952E+01   -1.944E+01
    -1.937E+01   -1.930E+01   -1.923E+01   -1.916E+01   -1.909E+01   -1.902E+01   -1.895E+01   -1.888E+01   -1.881E+01   -1.874E+01
    -1.866E+01   -1.859E+01   -1.852E+01   -1.845E+01   -1.838E+01   -1.830E+01   -1.823E+01   -1.816E+01   -1.809E+01   -1.802E+01
    -1.794E+01   -1.787E+01   -1.780E+01   -1.772E+01   -1.765E+01   -1.758E+01   -1.750E+01   -1.743E+01   -1.736E+01   -1.728E+01
    -1.721E+01   -1.714E+01   -1.706E+01   -1.699E+01   -1.691E+01   -1.684E+01   -1.676E+01   -1.669E+01   -1.661E+01   -1.654E+01
    -1.646E+01   -1.639E+01   -1.631E+01   -1.624E+01   -1.616E+01   -1.609E+01   -1.601E+01   -1.594E+01   -1.586E+01   -1.579E+01
    -1.571E+01   -1.563E+01   -1.556E+01   -1.548E+01   -1.541E+01   -1.533E+01   -1.525E+01   -1.518E+01   -1.510E+01   -1.502E+01
    -1.495E+01   -1.487E+01   -1.479E+01   -1.472E+01   -1.464E+01   -1.456E+01   -1.448E+01   -1.441E+01   -1.433E+01   -1.425E+01
    -1.417E+01   -1.410E+01   -1.402E+01   -1.394E+01   -1.386E+01   -1.378E+01   -1.371E+01   -1.363E+01   -1.355E+01   -1.347E+01
    -1.339E+01   -1.331E+01   -1.323E+01   -1.316E+01   -1.308E+01   -1.300E+01   -1.292E+01   -1.284E+01   -1.276E+01   -1.268E+01
    -1.260E+01   -1.252E+01   -1.244E+01   -1.236E+01   -1.228E+01   -1.221E+01   -1.213E+01   -1.205E+01   -1.197E+01   -1.189E+01
    -1.181E+01   -1.173E+01   -1.165E+01   -1.157E+01   -1.149E+01   -1.141E+01   -1.132E+01   -1.124E+01   -1.116E+01   -1.108E+01
    -1.100E+01   -1.092E+01   -1.084E+01   -1.076E+01   -1.068E+01   -1.060E+01   -1.052E+01   -1.044E+01   -1.036E+01   -1.027E+01
    -1.019E+01   -1.011E+01   -1.003E+01   -9.950E+00   -9.868E+00   -9.787E+00   -9.705E+00   -9.624E+00   -9.542E+00   -9.460E+00
    -9.379E+00   -9.297E+00   -9.215E+00   -9.133E+00   -9.051E+00   -8.969E+00   -8.887E+00   -8.805E+00   -8.723E+00   -8.641E+00
    -8.559E+00   -8.477E+00   -8.394E+00   -8.312E+00   -8.230E+00   -8.147E+00   -8.065E+00   -7.983E+00   -7.900E+00   -7.818E+00
    -7.735E+00   -7.652E+00   -7.570E+00   -7.487E+00   -7.404E+00   -7.322E+00   -7.239E+00   -7.156E+00   -7.073E+00   -6.990E+00
    -6.907E+00   -6.824E+00   -6.741E+00   -6.658E+00   -6.575E+00   -6.492E+00   -6.409E+00   -6.326E+00   -6.243E+00   -6.160E+00
    -6.077E+00   -5.993E+00   -5.910E+00   -5.827E+00   -5.744E+00   -5.660E+00   -5.577E+00   -5.494E+00   -5.410E+00   -5.327E+00
    -5.244E+00   -5.160E+00   -5.077E+00   -4.993E+00   -4.910E+00   -4.826E+00   -4.743E+00   -4.659E+00   -4.576E+00   -4.492E+00
    -4.409E+00   -4.325E+00   -4.241E+00   -4.158E+00   -4.074E+00   -3.991E+00   -3.907E+00   -3.823E+00   -3.740E+00   -3.656E+00
    -3.572E+00   -3.489E+00   -3.405E+00   -3.321E+00   -3.238E+00   -3.154E+00   -3.070E+00   -2.987E+00   -2.903E+00   -2.819E+00
    -2.735E+00   -2.652E+00   -2.568E+00   -2.484E+00   -2.401E+00   -2.317E+00   -2.233E+00   -2.150E+00   -2.066E+00   -1.982E+00
    -1.899E+00   -1.815E+00   -1.731E+00   -1.648E+00   -1.564E+00   -1.480E+00   -1.397E+00   -1.313E+00   -1.230E+00   -1.146E+00
    -1.062E+00   -9.788E-01   -8.952E-01   -8.117E-01   -7.282E-01   -6.446E-01   -5.611E-01   -4.777E-01   -3.942E-01   -3.107E-01
    -2.273E-01   -1.439E-01   -6.050E-02    2.288E-02    1.062E-01    1.896E-01    2.729E-01    3.562E-01    4.395E-01    5.227E-01
     6.059E-01    6.891E-01    7.723E-01    8.554E-01    9.386E-01    1.022E+00    1.105E+00    1.188E+00    1.271E+00    1.354E+00
     1.437E+00    1.520E+00    1.603E+00    1.685E+00    1.768E+00    1.851E+00    1.934E+00    2.017E+00    2.099E+00    2.182E+00
     2.265E+00    2.347E+00    2.430E+00    2.512E+00    2.595E+00    2.677E+00    2.759E+00    2.842E+00    2.924E+00    3.006E+00
     3.089E+00    3.171E+00    3.253E+00    3.335E+00    3.417E+00    3.499E+00    3.581E+00    3.663E+00    3.745E+00    3.827E+00
     3.909E+00    3.990E+00    4.072E+00    4.154E+00    4.235E+00    4.317E+00    4.398E+00    4.480E+00    4.561E+00    4.642E+00
     4.724E+00    4.805E+00    4.886E+00    4.967E+00    5.048E+00    5.129E+00    5.210E+00    5.291E+00    5.372E+00    5.453E+00
     5.533E+00    5.614E+00    5.695E+00    5.775E+00    5.855E+00    5.936E+00    6.016E+00    6.096E+00    6.177E+00    6.257E+00
     6.337E+00    6.417E+00    6.497E+00    6.577E+00    6.657E+00    6.736E+00    6.816E+00    6.896E+00    6.975E+00    7.055E+00
     7.134E+00    7.213E+00    7.292E+00    7.372E+00    7.451E+00    7.530E+00    7.609E+00    7.688E+00    7.766E+00    7.845E+00
     7.924E+00    8.002E+00    8.081E+00    8.159E+00    8.237E+00    8.316E+00    8.394E+00    8.472E+00    8.550E+00    8.628E+00
     8.706E+00    8.783E+00    8.861E+00    8.939E+00    9.016E+00    9.093E+00    9.171E+00    9.248E+00    9.325E+00    9.402E+00
     9.479E+00    9.556E+00    9.633E+00    9.710E+00    9.786E+00    9.863E+00    9.939E+00    1.002E+01    1.009E+01    1.017E+01
     1.024E+01    1.032E+01    1.040E+01    1.047E+01    1.055E+01    1.062E+01    1.070E+01    1.077E+01    1.085E+01    1.092E+01
     1.100E+01    1.107E+01    1.115E+01    1.122E+01    1.130E+01    1.137E+01    1.145E+01    1.152E+01    1.160E+01    1.167E+01
     1.174E+01    1.182E+01    1.189E+01    1.197E+01    1.204E+01    1.211E+01    1.219E+01    1.226E+01    1.233E+01    1.241E+01
     1.248E+01    1.255E+01    1.262E+01    1.270E+01    1.277E+01    1.284E+01    1.291E+01    1.299E+01    1.306E+01    1.313E+01
     1.320E+01    1.327E+01    1.334E+01    1.342E+01    1.349E+01    1.356E+01    1.363E+01    1.370E+01    1.377E+01    1.384E+01
     1.391E+01    1.398E+01    1.405E+01    1.412E+01    1.419E+01    1.426E+01    1.433E+01    1.440E+01    1.447E+01    1.454E+01
     1.461E+01    1.468E+01    1.475E+01    1.482E+01    1.489E+01    1.496E+01    1.502E+01    1.509E+01    1.516E+01    1.523E+01
     1.530E+01    1.536E+01    1.543E+01    1.550E+01    1.557E+01    1.563E+01    1.570E+01    1.577E+01    1.584E+01    1.590E+01
     1.597E+01    1.604E+01    1.610E+01    1.617E+01    1.623E+01    1.630E+01    1.637E+01    1.643E+01    1.650E+01    1.656E+01
     1.663E+01    1.669E+01    1.676E+01    1.682E+01    1.689E+01    1.695E+01    1.702E+01    1.708E+01    1.714E+01    1.721E+01
     1.727E+01    1.734E+01    1.740E+01    1.746E+01    1.752E+01    1.759E+01    1.765E+01    1.771E+01
 Asp      Conc. = 1.84E+02
