 LCModel (Version 6.3-1L) Copyright: S.W. Provencher.          Ref.: Magn. Reson. Med. 30:672-679 (1993).                
 Slice#3 Row#9 Col#7  PD_05_press_2_raw_act
 36 lines in following concentration table = NCONC+1
    Conc.  %SD /Cr+PCr  Metabolite                                         
  234.259 150% 5.7E-02 Ala                                                 
    0.000 999%   0.000 Asp                                                 
 1.90E+03  31%   0.463 Cr                                                  
 2.19E+03  28%   0.537 PCr                                                 
  330.306 109% 8.1E-02 GABA                                                
    0.000 999%   0.000 Glc                                                 
 3.71E+03  19%   0.908 Gln                                                 
 5.45E+03  15%   1.333 Glu                                                 
  859.407   6%   0.210 GPC                                                 
    0.000 999%   0.000 PCh                                                 
 1.79E+03  10%   0.437 GSH                                                 
 2.50E+03  25%   0.611 Ins                                                 
  747.205  50%   0.183 Lac                                                 
 5.08E+03   3%   1.243 NAA                                                 
    0.000 999%   0.000 NAAG                                                
   75.542  78% 1.8E-02 Scyllo                                              
    0.000 999%   0.000 Tau                                                 
    0.000 999%   0.000 -CrCH2                                              
  859.407   6%   0.210 GPC+PCh                                             
 5.08E+03   3%   1.243 NAA+NAAG                                            
 4.09E+03   3%   1.000 Cr+PCr                                              
 9.17E+03  14%   2.241 Glu+Gln                                             
 2.85E+03  24%   0.697 Lip13a                                              
    0.000 999%   0.000 Lip13b                                              
    0.000 999%   0.000 Lip09                                               
 2.22E+03  18%   0.544 MM09                                                
  478.806  50%   0.117 Lip20                                               
 4.79E+03  15%   1.172 MM20                                                
  729.913  32%   0.178 MM12                                                
 6.02E+03   6%   1.473+MM14                                                
 2.16E+03  22%   0.529 MM17                                                
 2.85E+03  24%   0.697 Lip13a+Lip13b                                       
 9.61E+03   8%   2.349 MM14+Lip13a+Lip13b+MM12                             
 2.22E+03  18%   0.544 MM09+Lip09                                          
 5.27E+03  14%   1.289 MM20+Lip20                                          
   6 lines in following misc. output table
  FWHM = 0.061 ppm    S/N =  12                                            
  Data shift =-0.015 ppm                                                   
  Ph: -10 deg      -1.0 deg/ppm                                            
  alphaB,S = 8.8E-01,   5.1E+01                                            
   14 spline knots.   Ns = 9(1)                                            
  (18) 5 infls.   ( 9) 3 extrs.                                            
  498 points on ppm-axis = NY
      4.000000     3.992357     3.984714     3.977070     3.969427     3.961784     3.954141     3.946497     3.938854     3.931211
      3.923568     3.915925     3.908281     3.900638     3.892995     3.885352     3.877708     3.870065     3.862422     3.854779
      3.847136     3.839492     3.831849     3.824206     3.816563     3.808919     3.801276     3.793633     3.785990     3.778347
      3.770703     3.763060     3.755417     3.747774     3.740130     3.732487     3.724844     3.717201     3.709558     3.701914
      3.694271     3.686628     3.678985     3.671341     3.663698     3.656055     3.648412     3.640769     3.633125     3.625482
      3.617839     3.610196     3.602552     3.594909     3.587266     3.579623     3.571980     3.564336     3.556693     3.549050
      3.541407     3.533763     3.526120     3.518477     3.510834     3.503191     3.495547     3.487904     3.480261     3.472618
      3.464974     3.457331     3.449688     3.442045     3.434402     3.426758     3.419115     3.411472     3.403829     3.396185
      3.388542     3.380899     3.373256     3.365613     3.357969     3.350326     3.342683     3.335040     3.327396     3.319753
      3.312110     3.304467     3.296824     3.289180     3.281537     3.273894     3.266251     3.258607     3.250964     3.243321
      3.235678     3.228034     3.220391     3.212748     3.205105     3.197462     3.189818     3.182175     3.174532     3.166889
      3.159245     3.151602     3.143959     3.136316     3.128673     3.121029     3.113386     3.105743     3.098100     3.090456
      3.082813     3.075170     3.067527     3.059884     3.052240     3.044597     3.036954     3.029311     3.021667     3.014024
      3.006381     2.998738     2.991095     2.983451     2.975808     2.968165     2.960522     2.952878     2.945235     2.937592
      2.929949     2.922306     2.914662     2.907019     2.899376     2.891733     2.884089     2.876446     2.868803     2.861160
      2.853517     2.845873     2.838230     2.830587     2.822944     2.815300     2.807657     2.800014     2.792371     2.784728
      2.777084     2.769441     2.761798     2.754155     2.746511     2.738868     2.731225     2.723582     2.715939     2.708295
      2.700652     2.693009     2.685366     2.677722     2.670079     2.662436     2.654793     2.647150     2.639506     2.631863
      2.624220     2.616577     2.608933     2.601290     2.593647     2.586004     2.578361     2.570717     2.563074     2.555431
      2.547788     2.540144     2.532501     2.524858     2.517215     2.509572     2.501928     2.494285     2.486642     2.478999
      2.471355     2.463712     2.456069     2.448426     2.440783     2.433139     2.425496     2.417853     2.410210     2.402566
      2.394923     2.387280     2.379637     2.371994     2.364350     2.356707     2.349064     2.341421     2.333777     2.326134
      2.318491     2.310848     2.303205     2.295561     2.287918     2.280275     2.272632     2.264988     2.257345     2.249702
      2.242059     2.234416     2.226772     2.219129     2.211486     2.203843     2.196199     2.188556     2.180913     2.173270
      2.165627     2.157983     2.150340     2.142697     2.135054     2.127410     2.119767     2.112124     2.104481     2.096838
      2.089194     2.081551     2.073908     2.066265     2.058621     2.050978     2.043335     2.035692     2.028049     2.020405
      2.012762     2.005119     1.997476     1.989833     1.982190     1.974546     1.966903     1.959260     1.951617     1.943974
      1.936331     1.928688     1.921045     1.913402     1.905759     1.898115     1.890472     1.882829     1.875186     1.867543
      1.859900     1.852257     1.844614     1.836971     1.829327     1.821684     1.814041     1.806398     1.798755     1.791112
      1.783469     1.775826     1.768183     1.760540     1.752896     1.745253     1.737610     1.729967     1.722324     1.714681
      1.707038     1.699395     1.691752     1.684108     1.676465     1.668822     1.661179     1.653536     1.645893     1.638250
      1.630607     1.622964     1.615321     1.607677     1.600034     1.592391     1.584748     1.577105     1.569462     1.561819
      1.554176     1.546533     1.538890     1.531246     1.523603     1.515960     1.508317     1.500674     1.493031     1.485388
      1.477745     1.470102     1.462458     1.454815     1.447172     1.439529     1.431886     1.424243     1.416600     1.408957
      1.401314     1.393671     1.386027     1.378384     1.370741     1.363098     1.355455     1.347812     1.340169     1.332526
      1.324883     1.317240     1.309596     1.301953     1.294310     1.286667     1.279024     1.271381     1.263738     1.256095
      1.248452     1.240808     1.233165     1.225522     1.217879     1.210236     1.202593     1.194950     1.187307     1.179664
      1.172021     1.164377     1.156734     1.149091     1.141448     1.133805     1.126162     1.118519     1.110876     1.103233
      1.095590     1.087946     1.080303     1.072660     1.065017     1.057374     1.049731     1.042088     1.034445     1.026802
      1.019158     1.011515     1.003872     0.996229     0.988586     0.980943     0.973300     0.965657     0.958014     0.950371
      0.942727     0.935084     0.927441     0.919798     0.912155     0.904512     0.896869     0.889226     0.881583     0.873940
      0.866296     0.858653     0.851010     0.843367     0.835724     0.828081     0.820438     0.812795     0.805152     0.797508
      0.789865     0.782222     0.774579     0.766936     0.759293     0.751650     0.744007     0.736364     0.728721     0.721077
      0.713434     0.705791     0.698148     0.690505     0.682862     0.675219     0.667576     0.659933     0.652290     0.644646
      0.637003     0.629360     0.621717     0.614074     0.606431     0.598788     0.591145     0.583502     0.575858     0.568215
      0.560572     0.552929     0.545286     0.537643     0.530000     0.522357     0.514714     0.507071     0.499427     0.491784
      0.484141     0.476498     0.468855     0.461212     0.453569     0.445925     0.438282     0.430639     0.422996     0.415353
      0.407710     0.400067     0.392424     0.384780     0.377137     0.369494     0.361851     0.354208     0.346565     0.338922
      0.331278     0.323635     0.315992     0.308349     0.300706     0.293063     0.285420     0.277777     0.270133     0.262490
      0.254847     0.247204     0.239561     0.231918     0.224275     0.216631     0.208988     0.201345
 NY phased data points follow
   5.34252E+01  5.32070E+01  4.98955E+01  5.73439E+01  6.10761E+01  7.45202E+01  7.96215E+01  9.36730E+01  9.73462E+01  1.03303E+02
   1.24462E+02  1.18786E+02  1.10440E+02  1.03075E+02  9.09287E+01  8.91384E+01  8.25965E+01  6.20860E+01  6.76189E+01  5.78779E+01
   6.59418E+01  5.76666E+01  5.37203E+01  5.41673E+01  5.82987E+01  5.52897E+01  5.95909E+01  5.91636E+01  6.98430E+01  6.48618E+01
   6.80051E+01  6.87184E+01  6.11584E+01  6.60613E+01  5.57838E+01  6.21685E+01  5.27626E+01  5.17276E+01  5.13778E+01  5.08670E+01
   5.31103E+01  4.74088E+01  4.51360E+01  5.30388E+01  5.16836E+01  5.33601E+01  5.00220E+01  5.32164E+01  5.93932E+01  4.61976E+01
   4.82630E+01  4.44923E+01  3.42576E+01  3.56994E+01  3.71076E+01  4.11382E+01  3.11667E+01  4.23789E+01  4.67107E+01  2.89922E+01
   3.48397E+01  2.06353E+01  2.58555E+01  2.29571E+01  1.96805E+01  1.85859E+01  2.27714E+01  1.42079E+01  2.18516E+01  1.92060E+01
   1.67739E+01  1.74300E+01  1.20594E+01  2.30541E+01  1.98849E+01  2.11727E+01  9.90613E+00  1.45032E+01  2.08215E+01  1.86101E+01
   1.54144E+01  1.61824E+01  1.59785E+01  5.83416E+00  1.94221E+01  2.14065E+01  2.03713E+01  1.03451E+01  1.91782E+01  2.10104E+01
   2.28741E+01  1.65586E+01  2.18848E+01  1.94784E+01  2.82704E+01  2.43637E+01  2.95438E+01  3.28284E+01  4.10440E+01  4.21668E+01
   5.02913E+01  6.25987E+01  7.21216E+01  6.70368E+01  7.67935E+01  6.29907E+01  5.60107E+01  5.47339E+01  4.67337E+01  3.43726E+01
   3.28693E+01  2.78271E+01  3.15997E+01  2.52052E+01  2.59908E+01  1.45005E+01  2.06060E+01  2.12866E+01  2.75999E+01  2.97767E+01
   3.17037E+01  3.44123E+01  4.97557E+01  5.45844E+01  8.10798E+01  8.95847E+01  1.07280E+02  1.23242E+02  1.13850E+02  1.05974E+02
   9.03420E+01  8.61113E+01  6.96833E+01  5.34184E+01  5.04359E+01  3.08799E+01  3.29192E+01  2.52755E+01  3.06036E+01  2.27910E+01
   1.90870E+01  2.02728E+01  1.37207E+01  1.64848E+01  9.85130E+00  1.86435E+01  1.81885E+01  1.02559E+01  1.45386E+01  1.10696E+01
   1.42391E+01  7.27690E+00  2.51287E+01  3.33495E+00  1.06627E+01  8.84478E+00 -4.13712E+00  6.38646E+00  6.11681E+00 -8.45413E+00
   2.63508E+00 -3.92135E+00 -3.92388E+00 -1.67001E+00  6.34062E+00 -7.67729E+00  4.00588E+00  1.25858E+00  6.27734E+00  1.43323E+00
  -8.06541E+00 -1.09626E-01 -1.72793E+01 -1.59704E+01 -1.16616E+01 -9.17108E+00 -1.30571E+01 -1.04812E+01 -1.78183E+01 -2.04973E+01
  -1.96010E+01 -1.90406E+01 -2.20559E+01 -2.31750E+01 -1.93558E+01 -1.36774E+01 -9.63057E+00 -1.12983E+01  1.87332E-02 -1.59200E+00
   1.27451E+01  1.65210E+01  5.96219E+00  6.12146E+00  9.72155E+00  6.99976E+00  1.25166E+01  1.21753E+01 -4.14853E+00 -2.12770E+00
   2.56292E+00  8.94392E+00  8.63160E+00  1.92437E+01  1.56535E+01  7.75726E+00  9.87467E+00  6.62669E+00  4.22986E+00 -3.13888E+00
  -1.27599E+00  2.54258E+00  8.48350E+00  1.64850E+01  1.62535E+01  1.64211E+01  2.77868E+01  1.94514E+01  1.33457E+01  1.17214E+01
   8.39939E+00  5.44243E+00  1.82132E+00  6.08790E+00  9.65037E+00  1.22634E+01  1.43902E+01  2.55581E+01  2.01581E+01  1.42693E+01
   1.49822E+01  1.84676E+01  2.14065E+01  2.88793E+01  2.28301E+01  3.01760E+01  2.35551E+01  2.28950E+01  1.64653E+01  2.03823E+01
   2.29144E+01  1.71736E+01  1.36022E+01  1.90373E+01  2.10982E+01  1.88045E+01  2.63340E+01  2.53228E+01  1.97532E+01  1.85023E+01
   3.64961E+01  3.35653E+01  4.63232E+01  4.73883E+01  5.53367E+01  6.44086E+01  7.60580E+01  9.52910E+01  1.10821E+02  1.34003E+02
   1.56927E+02  1.50964E+02  1.56260E+02  1.25471E+02  1.10613E+02  8.47767E+01  7.22768E+01  6.17737E+01  4.91108E+01  4.16365E+01
   3.24469E+01  3.41592E+01  2.78797E+01  2.12258E+01  2.17350E+01  1.79897E+01  1.77121E+01  1.70913E+01  1.54588E+01  1.48215E+01
   1.47196E+01  7.23742E+00  1.26941E+01  1.64970E+01  1.54612E+01  1.31402E+01  1.29125E+01  9.50150E+00  1.17965E+01  1.71910E+01
   1.18118E+01  7.72342E+00  1.69055E+01  1.47838E+01  8.05681E+00  8.64404E+00  1.43316E+01  1.93085E+01  2.19574E+01  1.76704E+01
   1.28400E+01  1.64942E+01  6.69323E+00  1.82339E+01  1.38090E+01  1.76593E+01  1.42655E+01  2.58187E+01  1.80025E+01  2.71454E+01
   3.02340E+01  2.59710E+01  2.93037E+01  2.95399E+01  3.44381E+01  1.99038E+01  2.80432E+01  2.62273E+01  2.81172E+01  2.26168E+01
   3.41359E+01  3.47808E+01  3.21609E+01  3.50019E+01  3.46144E+01  3.64352E+01  4.63575E+01  5.23583E+01  5.04306E+01  4.57465E+01
   4.93224E+01  5.54420E+01  5.58348E+01  5.56707E+01  6.63883E+01  6.32527E+01  6.81297E+01  5.83697E+01  5.58631E+01  5.83577E+01
   5.33967E+01  5.04310E+01  5.38444E+01  4.87340E+01  4.30332E+01  4.27485E+01  4.95666E+01  4.31877E+01  3.06999E+01  3.66444E+01
   2.75681E+01  2.36782E+01  2.12555E+01  2.68425E+01  2.86432E+01  2.41809E+01  2.04063E+01  2.24575E+01  2.53723E+01  3.11767E+01
   1.77609E+01  2.54298E+01  1.90386E+01  1.77609E+01  1.89233E+01  2.10094E+01  1.38152E+01  1.59420E+01  1.22377E+01  1.54660E+01
   2.32501E+01  1.81060E+01  1.27792E+01  8.80343E+00  1.89393E+01  1.14401E+01  1.51217E+01  1.53401E+01  1.57777E+01  1.20917E+01
   1.15819E+01  8.20275E+00  9.86774E+00  5.08646E+00  3.04728E+00  5.15101E+00  1.37440E+01  1.41801E+01  7.79069E+00  1.35396E+01
   1.47329E+01  7.76573E+00  3.59761E+00  9.44172E+00  1.09837E+01  1.27242E+01  1.90666E+01  1.02686E+01  1.38523E+01  5.49961E+00
   8.49287E+00  1.19358E+01  1.20720E+01  4.60451E+00  7.28576E+00  1.31455E+01  1.18665E+01  4.39860E+00  1.53003E+01  2.38327E+00
   1.19722E+01  4.88210E+00  1.05726E+01  1.24515E+01  1.23786E+01  5.19441E+00  1.39537E+01  1.12691E+01  1.42009E+01  1.17177E+01
   7.52972E+00  1.15007E+01  7.83686E+00  1.02557E+01  1.37156E+01  1.19199E+01  1.26146E+01  9.27933E+00  9.14242E+00  1.80108E-01
   7.53470E+00  3.95481E+00  5.71281E+00  3.57773E+00 -2.04098E+00  5.46578E+00  1.22404E+01  3.10195E-02 -3.79424E-01  1.09624E+01
   6.25580E+00 -3.23331E+00  2.51712E+00  4.91710E-01  5.87301E+00 -1.01385E+00 -1.16595E+00  8.47830E+00 -1.26553E+00  1.00025E-01
  -2.23433E+00 -6.76624E+00 -2.25605E+00 -8.49892E+00  3.36493E+00  9.13842E+00  5.20176E+00  1.18763E+01 -2.37246E+00 -5.23222E-01
   6.90146E+00  6.76282E+00  1.11985E+01  6.43739E+00  3.52595E+00 -6.74094E-02 -2.93542E-01  2.63394E+00  6.85650E+00 -1.44557E+00
  -1.28602E+00 -2.61568E+00  1.30147E+00  2.18882E+00  2.93515E+00  1.93996E+00 -5.28992E+00  1.39163E+00 -3.71327E+00  4.55706E-01
   2.05445E+00  2.49551E+00 -2.80474E+00 -4.03023E-01  5.23200E+00  9.88023E+00  2.67587E+00 -9.31049E-01  4.32061E+00  2.09161E+00
  -3.28128E+00  8.50634E+00  7.40383E+00  2.39748E+00  1.12814E-01  5.20065E+00  8.16166E+00 -1.21593E+00
 NY points of the fit to the data follow
   4.99994E+01  5.31272E+01  5.56845E+01  5.84118E+01  6.21194E+01  6.78692E+01  7.57419E+01  8.54872E+01  9.63853E+01  1.06177E+02
   1.12111E+02  1.12340E+02  1.07212E+02  9.93287E+01  9.05715E+01  8.26522E+01  7.61235E+01  7.06115E+01  6.59677E+01  6.12064E+01
   5.79511E+01  5.53257E+01  5.15678E+01  5.15970E+01  5.39840E+01  5.57628E+01  5.74533E+01  6.08135E+01  6.59762E+01  7.03000E+01
   7.31225E+01  7.43533E+01  7.27124E+01  6.90750E+01  6.36097E+01  5.66724E+01  5.00249E+01  4.61856E+01  4.56302E+01  4.39282E+01
   4.21885E+01  4.33210E+01  4.41878E+01  4.44617E+01  4.53603E+01  4.70176E+01  4.86429E+01  4.89214E+01  4.79500E+01  4.56824E+01
   4.25169E+01  3.97144E+01  3.73615E+01  3.53260E+01  3.39868E+01  3.34888E+01  3.29883E+01  3.20418E+01  3.14753E+01  3.14481E+01
   3.12383E+01  3.04067E+01  2.93567E+01  2.83071E+01  2.73124E+01  2.65885E+01  2.62248E+01  2.62813E+01  2.64487E+01  2.64061E+01
   2.63391E+01  2.61260E+01  2.58033E+01  2.53839E+01  2.48606E+01  2.43731E+01  2.39023E+01  2.34174E+01  2.28772E+01  2.20881E+01
   2.15115E+01  2.09861E+01  2.03588E+01  1.97700E+01  1.92459E+01  1.86700E+01  1.78662E+01  1.70216E+01  1.62131E+01  1.56742E+01
   1.56204E+01  1.59244E+01  1.65345E+01  1.83930E+01  2.37567E+01  2.71783E+01  2.76391E+01  3.05245E+01  3.65240E+01  4.37552E+01
   5.23854E+01  6.28399E+01  7.24235E+01  7.68316E+01  7.49269E+01  6.77868E+01  5.88599E+01  5.08072E+01  4.35902E+01  3.74710E+01
   3.25489E+01  2.94542E+01  2.67101E+01  2.05002E+01  1.57803E+01  1.47964E+01  1.50194E+01  1.69977E+01  2.45559E+01  3.18026E+01
   3.38728E+01  3.91111E+01  4.96638E+01  6.26075E+01  7.75769E+01  9.48626E+01  1.11300E+02  1.20724E+02  1.19842E+02  1.09942E+02
   9.62753E+01  8.30743E+01  7.04509E+01  5.82175E+01  4.72227E+01  3.92231E+01  3.35632E+01  2.42108E+01  1.59500E+01  1.47451E+01
   1.54642E+01  1.59200E+01  1.56557E+01  1.45187E+01  1.35759E+01  1.30663E+01  1.25105E+01  1.21199E+01  1.16038E+01  1.06809E+01
   9.75928E+00  8.57953E+00  7.46633E+00  6.62373E+00  6.27307E+00  6.08342E+00  5.93405E+00  5.57203E+00  4.76769E+00  3.94465E+00
   3.22522E+00  2.66224E+00  2.42391E+00  2.57570E+00  2.82152E+00  2.58550E+00  1.79557E+00  6.59328E-01 -5.59410E-01 -1.29631E+00
  -2.03785E+00 -2.81128E+00 -3.63479E+00 -4.63032E+00 -5.41149E+00 -6.46579E+00 -7.31842E+00 -7.34656E+00 -7.25776E+00 -7.19704E+00
  -6.89459E+00 -6.60812E+00 -6.33245E+00 -5.91468E+00 -5.28910E+00 -4.50183E+00 -2.98730E+00 -7.44724E-01  1.37593E+00  3.71842E+00
   5.44525E+00  5.83422E+00  5.31422E+00  4.10848E+00  2.66798E+00  1.65657E+00  1.87147E+00  3.61779E+00  6.08136E+00  8.90430E+00
   1.17697E+01  1.32405E+01  1.48441E+01  1.67587E+01  1.62947E+01  1.34505E+01  1.01102E+01  7.06461E+00  2.05498E+00 -2.52924E+00
  -3.14185E+00 -3.49007E-01  4.14499E+00  8.97280E+00  1.38907E+01  1.82878E+01  1.95909E+01  1.69440E+01  1.17604E+01  6.34565E+00
   2.75257E+00 -2.64753E-01 -2.07863E+00 -5.72739E-02  4.88008E+00  9.57177E+00  1.18291E+01  1.34302E+01  1.55268E+01  1.66516E+01
   1.65851E+01  1.69400E+01  1.91668E+01  2.17753E+01  2.17837E+01  2.15817E+01  2.25235E+01  2.25695E+01  2.18435E+01  2.11500E+01
   2.03268E+01  1.92309E+01  1.80736E+01  1.75699E+01  1.77609E+01  1.87649E+01  2.02755E+01  2.11253E+01  2.19006E+01  2.31191E+01
   2.56209E+01  3.30944E+01  4.62778E+01  5.24987E+01  5.70365E+01  6.72694E+01  8.09408E+01  9.61161E+01  1.14765E+02  1.35986E+02
   1.51911E+02  1.55200E+02  1.45964E+02  1.27824E+02  1.09031E+02  9.19421E+01  7.63590E+01  6.33514E+01  5.36614E+01  4.76541E+01
   3.85934E+01  2.38930E+01  1.75703E+01  1.61427E+01  1.54745E+01  1.51021E+01  1.48475E+01  1.43376E+01  1.37240E+01  1.30870E+01
   1.25061E+01  1.20286E+01  1.17163E+01  1.14459E+01  1.11694E+01  1.09797E+01  1.08743E+01  1.08252E+01  1.08510E+01  1.09358E+01
   1.10931E+01  1.13385E+01  1.16121E+01  1.19353E+01  1.23313E+01  1.27808E+01  1.32774E+01  1.38378E+01  1.44668E+01  1.51426E+01
   1.58461E+01  1.65817E+01  1.73332E+01  1.80754E+01  1.88043E+01  1.95028E+01  2.01595E+01  2.07691E+01  2.13293E+01  2.18433E+01
   2.23206E+01  2.27767E+01  2.32326E+01  2.37125E+01  2.42500E+01  2.48852E+01  2.56620E+01  2.66439E+01  2.78763E+01  2.91320E+01
   3.05300E+01  3.23072E+01  3.43398E+01  3.64911E+01  3.87341E+01  4.10102E+01  4.33224E+01  4.54464E+01  4.71850E+01  4.87915E+01
   5.04926E+01  5.22153E+01  5.38311E+01  5.53739E+01  5.68092E+01  5.79392E+01  5.85184E+01  5.84704E+01  5.82477E+01  5.72671E+01
   5.54125E+01  5.36957E+01  5.19771E+01  4.99265E+01  4.76176E+01  4.49413E+01  4.22033E+01  3.87299E+01  3.42786E+01  2.99882E+01
   2.66985E+01  2.44963E+01  2.32051E+01  2.30261E+01  2.38097E+01  2.48661E+01  2.54430E+01  2.48934E+01  2.41849E+01  2.38744E+01
   2.32953E+01  2.25100E+01  2.16382E+01  2.09291E+01  2.03770E+01  1.91876E+01  1.78009E+01  1.67595E+01  1.58880E+01  1.51054E+01
   1.43853E+01  1.37179E+01  1.30998E+01  1.25301E+01  1.20093E+01  1.15384E+01  1.11185E+01  1.07506E+01  1.04351E+01  1.01724E+01
   9.96255E+00  9.80540E+00  9.70065E+00  9.64773E+00  9.64576E+00  9.69366E+00  9.79008E+00  9.93348E+00  1.01219E+01  1.03530E+01
   1.06235E+01  1.09299E+01  1.12677E+01  1.16319E+01  1.20165E+01  1.24148E+01  1.28192E+01  1.32213E+01  1.36124E+01  1.39835E+01
   1.43255E+01  1.46292E+01  1.48860E+01  1.50881E+01  1.52290E+01  1.53032E+01  1.53070E+01  1.52382E+01  1.50964E+01  1.48833E+01
   1.46021E+01  1.42577E+01  1.38562E+01  1.34050E+01  1.29122E+01  1.23865E+01  1.18367E+01  1.12715E+01  1.06992E+01  1.01273E+01
   9.56279E+00  9.01157E+00  8.47867E+00  7.96801E+00  7.48249E+00  7.02414E+00  6.59420E+00  6.19319E+00  5.82099E+00  5.47692E+00
   5.15992E+00  4.86867E+00  4.60172E+00  4.35748E+00  4.13427E+00  3.93037E+00  3.74410E+00  3.57394E+00  3.41847E+00  3.27634E+00
   3.14626E+00  3.02703E+00  2.91760E+00  2.81705E+00  2.72459E+00  2.63943E+00  2.56086E+00  2.48822E+00  2.42097E+00  2.35866E+00
   2.30090E+00  2.24726E+00  2.19737E+00  2.15089E+00  2.10756E+00  2.06721E+00  2.02959E+00  1.99447E+00  1.96160E+00  1.93083E+00
   1.90205E+00  1.87515E+00  1.85002E+00  1.82649E+00  1.80443E+00  1.78376E+00  1.76445E+00  1.74642E+00  1.72955E+00  1.71376E+00
   1.69898E+00  1.68519E+00  1.67238E+00  1.66050E+00  1.64946E+00  1.63919E+00  1.62967E+00  1.62091E+00  1.61289E+00  1.60556E+00
   1.59887E+00  1.59277E+00  1.58728E+00  1.58241E+00  1.57817E+00  1.57450E+00  1.57135E+00  1.56874E+00  1.56669E+00  1.56523E+00
   1.56437E+00  1.56407E+00  1.56432E+00  1.56517E+00  1.56668E+00  1.56891E+00  1.57188E+00  1.57560E+00
 NY background values follow
     3.872E+01    3.843E+01    3.814E+01    3.785E+01    3.757E+01    3.728E+01    3.699E+01    3.670E+01    3.641E+01    3.612E+01
     3.583E+01    3.554E+01    3.526E+01    3.497E+01    3.468E+01    3.439E+01    3.410E+01    3.381E+01    3.352E+01    3.324E+01
     3.295E+01    3.266E+01    3.237E+01    3.209E+01    3.180E+01    3.151E+01    3.123E+01    3.094E+01    3.066E+01    3.037E+01
     3.009E+01    2.980E+01    2.952E+01    2.923E+01    2.895E+01    2.867E+01    2.839E+01    2.810E+01    2.782E+01    2.754E+01
     2.726E+01    2.698E+01    2.670E+01    2.643E+01    2.615E+01    2.587E+01    2.559E+01    2.532E+01    2.504E+01    2.477E+01
     2.450E+01    2.422E+01    2.395E+01    2.368E+01    2.341E+01    2.314E+01    2.288E+01    2.261E+01    2.234E+01    2.208E+01
     2.181E+01    2.155E+01    2.129E+01    2.103E+01    2.077E+01    2.051E+01    2.025E+01    2.000E+01    1.974E+01    1.949E+01
     1.924E+01    1.899E+01    1.874E+01    1.849E+01    1.825E+01    1.800E+01    1.776E+01    1.752E+01    1.727E+01    1.704E+01
     1.680E+01    1.656E+01    1.633E+01    1.610E+01    1.587E+01    1.564E+01    1.541E+01    1.519E+01    1.496E+01    1.474E+01
     1.452E+01    1.430E+01    1.409E+01    1.387E+01    1.366E+01    1.345E+01    1.324E+01    1.303E+01    1.283E+01    1.263E+01
     1.243E+01    1.223E+01    1.203E+01    1.183E+01    1.164E+01    1.145E+01    1.126E+01    1.107E+01    1.089E+01    1.070E+01
     1.052E+01    1.034E+01    1.016E+01    9.986E+00    9.812E+00    9.640E+00    9.469E+00    9.300E+00    9.134E+00    8.969E+00
     8.806E+00    8.645E+00    8.486E+00    8.328E+00    8.173E+00    8.020E+00    7.868E+00    7.718E+00    7.571E+00    7.425E+00
     7.281E+00    7.139E+00    6.999E+00    6.861E+00    6.724E+00    6.590E+00    6.458E+00    6.327E+00    6.198E+00    6.072E+00
     5.947E+00    5.824E+00    5.703E+00    5.584E+00    5.468E+00    5.353E+00    5.240E+00    5.129E+00    5.020E+00    4.913E+00
     4.808E+00    4.705E+00    4.604E+00    4.505E+00    4.409E+00    4.314E+00    4.221E+00    4.131E+00    4.043E+00    3.956E+00
     3.872E+00    3.790E+00    3.710E+00    3.632E+00    3.557E+00    3.483E+00    3.412E+00    3.342E+00    3.275E+00    3.211E+00
     3.148E+00    3.087E+00    3.029E+00    2.973E+00    2.919E+00    2.868E+00    2.819E+00    2.772E+00    2.727E+00    2.684E+00
     2.644E+00    2.606E+00    2.570E+00    2.537E+00    2.506E+00    2.477E+00    2.450E+00    2.425E+00    2.402E+00    2.381E+00
     2.362E+00    2.345E+00    2.330E+00    2.316E+00    2.305E+00    2.295E+00    2.286E+00    2.280E+00    2.275E+00    2.271E+00
     2.269E+00    2.268E+00    2.269E+00    2.271E+00    2.275E+00    2.280E+00    2.286E+00    2.293E+00    2.301E+00    2.311E+00
     2.321E+00    2.333E+00    2.345E+00    2.358E+00    2.373E+00    2.388E+00    2.404E+00    2.420E+00    2.438E+00    2.456E+00
     2.475E+00    2.494E+00    2.514E+00    2.534E+00    2.555E+00    2.576E+00    2.597E+00    2.619E+00    2.641E+00    2.664E+00
     2.686E+00    2.709E+00    2.733E+00    2.756E+00    2.780E+00    2.803E+00    2.827E+00    2.852E+00    2.876E+00    2.900E+00
     2.925E+00    2.949E+00    2.974E+00    2.999E+00    3.024E+00    3.049E+00    3.074E+00    3.099E+00    3.123E+00    3.148E+00
     3.173E+00    3.198E+00    3.223E+00    3.247E+00    3.272E+00    3.296E+00    3.320E+00    3.345E+00    3.368E+00    3.392E+00
     3.416E+00    3.439E+00    3.462E+00    3.485E+00    3.508E+00    3.530E+00    3.552E+00    3.574E+00    3.595E+00    3.616E+00
     3.637E+00    3.657E+00    3.677E+00    3.697E+00    3.716E+00    3.735E+00    3.753E+00    3.771E+00    3.789E+00    3.806E+00
     3.822E+00    3.838E+00    3.854E+00    3.869E+00    3.884E+00    3.898E+00    3.912E+00    3.926E+00    3.938E+00    3.951E+00
     3.963E+00    3.974E+00    3.985E+00    3.995E+00    4.005E+00    4.014E+00    4.022E+00    4.030E+00    4.038E+00    4.045E+00
     4.051E+00    4.057E+00    4.062E+00    4.066E+00    4.070E+00    4.074E+00    4.076E+00    4.078E+00    4.080E+00    4.080E+00
     4.081E+00    4.080E+00    4.079E+00    4.077E+00    4.074E+00    4.071E+00    4.067E+00    4.062E+00    4.057E+00    4.051E+00
     4.044E+00    4.037E+00    4.029E+00    4.020E+00    4.011E+00    4.001E+00    3.991E+00    3.980E+00    3.968E+00    3.956E+00
     3.943E+00    3.929E+00    3.915E+00    3.901E+00    3.886E+00    3.870E+00    3.854E+00    3.838E+00    3.821E+00    3.803E+00
     3.785E+00    3.767E+00    3.748E+00    3.728E+00    3.709E+00    3.688E+00    3.668E+00    3.647E+00    3.625E+00    3.604E+00
     3.582E+00    3.559E+00    3.536E+00    3.513E+00    3.490E+00    3.466E+00    3.442E+00    3.418E+00    3.393E+00    3.368E+00
     3.343E+00    3.318E+00    3.292E+00    3.266E+00    3.240E+00    3.214E+00    3.187E+00    3.161E+00    3.134E+00    3.107E+00
     3.080E+00    3.053E+00    3.026E+00    2.999E+00    2.971E+00    2.944E+00    2.917E+00    2.890E+00    2.862E+00    2.835E+00
     2.808E+00    2.781E+00    2.754E+00    2.727E+00    2.701E+00    2.674E+00    2.648E+00    2.622E+00    2.596E+00    2.570E+00
     2.544E+00    2.519E+00    2.494E+00    2.469E+00    2.445E+00    2.421E+00    2.397E+00    2.373E+00    2.350E+00    2.327E+00
     2.305E+00    2.283E+00    2.262E+00    2.241E+00    2.220E+00    2.200E+00    2.181E+00    2.162E+00    2.143E+00    2.125E+00
     2.108E+00    2.091E+00    2.074E+00    2.058E+00    2.043E+00    2.028E+00    2.013E+00    1.999E+00    1.986E+00    1.973E+00
     1.960E+00    1.948E+00    1.936E+00    1.924E+00    1.913E+00    1.903E+00    1.893E+00    1.883E+00    1.873E+00    1.864E+00
     1.856E+00    1.848E+00    1.840E+00    1.832E+00    1.825E+00    1.818E+00    1.811E+00    1.805E+00    1.799E+00    1.794E+00
     1.789E+00    1.784E+00    1.779E+00    1.775E+00    1.770E+00    1.767E+00    1.763E+00    1.760E+00    1.757E+00    1.754E+00
     1.751E+00    1.749E+00    1.747E+00    1.745E+00    1.743E+00    1.742E+00    1.740E+00    1.739E+00    1.738E+00    1.738E+00
     1.737E+00    1.737E+00    1.737E+00    1.736E+00    1.737E+00    1.737E+00    1.737E+00    1.738E+00    1.739E+00    1.740E+00
     1.741E+00    1.742E+00    1.743E+00    1.744E+00    1.746E+00    1.747E+00    1.749E+00    1.751E+00    1.753E+00    1.755E+00
     1.757E+00    1.759E+00    1.761E+00    1.763E+00    1.766E+00    1.768E+00    1.770E+00    1.773E+00    1.775E+00    1.778E+00
     1.780E+00    1.783E+00    1.786E+00    1.788E+00    1.791E+00    1.794E+00    1.796E+00    1.799E+00
 Ala      Conc. = 2.34E+02
