 LCModel (Version 6.3-1L) Copyright: S.W. Provencher.          Ref.: Magn. Reson. Med. 30:672-679 (1993).                
 Slice#1 Row#6 Col#2  PD_05_press_2_raw_act
 36 lines in following concentration table = NCONC+1
    Conc.  %SD /Cr+PCr  Metabolite                                         
  852.480  35%   0.364 Ala                                                 
   49.212 999% 2.1E-02 Asp                                                 
 1.02E+03  57%   0.436 Cr                                                  
 1.32E+03  44%   0.564 PCr                                                 
  336.785  98%   0.144 GABA                                                
   23.034 999% 9.8E-03 Glc                                                 
 1.57E+03  40%   0.671 Gln                                                 
 2.48E+03  29%   1.060 Glu                                                 
  863.047   6%   0.368 GPC                                                 
    0.000 999%   0.000 PCh                                                 
  877.001  22%   0.374 GSH                                                 
 3.04E+03  21%   1.299 Ins                                                 
    0.000 999%   0.000 Lac                                                 
 5.17E+03   6%   2.205 NAA                                                 
  416.065  82%   0.177 NAAG                                                
  235.151  27%   0.100 Scyllo                                              
 3.07E-02 999% 1.3E-05 Tau                                                 
    0.000 999%   0.000 -CrCH2                                              
  863.047   6%   0.368 GPC+PCh                                             
 5.59E+03   4%   2.382 NAA+NAAG                                            
 2.34E+03   6%   1.000 Cr+PCr                                              
 4.06E+03  26%   1.730 Glu+Gln                                             
 4.46E+03  21%   1.903 Lip13a                                              
    0.000 999%   0.000 Lip13b                                              
    0.000 999%   0.000 Lip09                                               
 2.51E+03  16%   1.070 MM09                                                
 1.08E+03  45%   0.462 Lip20                                               
 6.10E+03  12%   2.604 MM20                                                
  771.875  29%   0.329 MM12                                                
  396.228 161%   0.169 MM14                                                
  572.824  65%   0.244 MM17                                                
 4.46E+03  21%   1.903 Lip13a+Lip13b                                       
 5.63E+03  14%   2.402 MM14+Lip13a+Lip13b+MM12                             
 2.51E+03  16%   1.070 MM09+Lip09                                          
 7.19E+03  11%   3.066 MM20+Lip20                                          
   6 lines in following misc. output table
  FWHM = 0.061 ppm    S/N =  11                                            
  Data shift = 0.015 ppm                                                   
  Ph: -32 deg      -4.9 deg/ppm                                            
  alphaB,S = 1.5E+00,   1.5E+02                                            
   14 spline knots.   Ns = 7(1)                                            
  (13) 4 infls.   (13) 1 extrs.                                            
  498 points on ppm-axis = NY
      4.000000     3.992357     3.984714     3.977070     3.969427     3.961784     3.954141     3.946497     3.938854     3.931211
      3.923568     3.915925     3.908281     3.900638     3.892995     3.885352     3.877708     3.870065     3.862422     3.854779
      3.847136     3.839492     3.831849     3.824206     3.816563     3.808919     3.801276     3.793633     3.785990     3.778347
      3.770703     3.763060     3.755417     3.747774     3.740130     3.732487     3.724844     3.717201     3.709558     3.701914
      3.694271     3.686628     3.678985     3.671341     3.663698     3.656055     3.648412     3.640769     3.633125     3.625482
      3.617839     3.610196     3.602552     3.594909     3.587266     3.579623     3.571980     3.564336     3.556693     3.549050
      3.541407     3.533763     3.526120     3.518477     3.510834     3.503191     3.495547     3.487904     3.480261     3.472618
      3.464974     3.457331     3.449688     3.442045     3.434402     3.426758     3.419115     3.411472     3.403829     3.396185
      3.388542     3.380899     3.373256     3.365613     3.357969     3.350326     3.342683     3.335040     3.327396     3.319753
      3.312110     3.304467     3.296824     3.289180     3.281537     3.273894     3.266251     3.258607     3.250964     3.243321
      3.235678     3.228034     3.220391     3.212748     3.205105     3.197462     3.189818     3.182175     3.174532     3.166889
      3.159245     3.151602     3.143959     3.136316     3.128673     3.121029     3.113386     3.105743     3.098100     3.090456
      3.082813     3.075170     3.067527     3.059884     3.052240     3.044597     3.036954     3.029311     3.021667     3.014024
      3.006381     2.998738     2.991095     2.983451     2.975808     2.968165     2.960522     2.952878     2.945235     2.937592
      2.929949     2.922306     2.914662     2.907019     2.899376     2.891733     2.884089     2.876446     2.868803     2.861160
      2.853517     2.845873     2.838230     2.830587     2.822944     2.815300     2.807657     2.800014     2.792371     2.784728
      2.777084     2.769441     2.761798     2.754155     2.746511     2.738868     2.731225     2.723582     2.715939     2.708295
      2.700652     2.693009     2.685366     2.677722     2.670079     2.662436     2.654793     2.647150     2.639506     2.631863
      2.624220     2.616577     2.608933     2.601290     2.593647     2.586004     2.578361     2.570717     2.563074     2.555431
      2.547788     2.540144     2.532501     2.524858     2.517215     2.509572     2.501928     2.494285     2.486642     2.478999
      2.471355     2.463712     2.456069     2.448426     2.440783     2.433139     2.425496     2.417853     2.410210     2.402566
      2.394923     2.387280     2.379637     2.371994     2.364350     2.356707     2.349064     2.341421     2.333777     2.326134
      2.318491     2.310848     2.303205     2.295561     2.287918     2.280275     2.272632     2.264988     2.257345     2.249702
      2.242059     2.234416     2.226772     2.219129     2.211486     2.203843     2.196199     2.188556     2.180913     2.173270
      2.165627     2.157983     2.150340     2.142697     2.135054     2.127410     2.119767     2.112124     2.104481     2.096838
      2.089194     2.081551     2.073908     2.066265     2.058621     2.050978     2.043335     2.035692     2.028049     2.020405
      2.012762     2.005119     1.997476     1.989833     1.982190     1.974546     1.966903     1.959260     1.951617     1.943974
      1.936331     1.928688     1.921045     1.913402     1.905759     1.898115     1.890472     1.882829     1.875186     1.867543
      1.859900     1.852257     1.844614     1.836971     1.829327     1.821684     1.814041     1.806398     1.798755     1.791112
      1.783469     1.775826     1.768183     1.760540     1.752896     1.745253     1.737610     1.729967     1.722324     1.714681
      1.707038     1.699395     1.691752     1.684108     1.676465     1.668822     1.661179     1.653536     1.645893     1.638250
      1.630607     1.622964     1.615321     1.607677     1.600034     1.592391     1.584748     1.577105     1.569462     1.561819
      1.554176     1.546533     1.538890     1.531246     1.523603     1.515960     1.508317     1.500674     1.493031     1.485388
      1.477745     1.470102     1.462458     1.454815     1.447172     1.439529     1.431886     1.424243     1.416600     1.408957
      1.401314     1.393671     1.386027     1.378384     1.370741     1.363098     1.355455     1.347812     1.340169     1.332526
      1.324883     1.317240     1.309596     1.301953     1.294310     1.286667     1.279024     1.271381     1.263738     1.256095
      1.248452     1.240808     1.233165     1.225522     1.217879     1.210236     1.202593     1.194950     1.187307     1.179664
      1.172021     1.164377     1.156734     1.149091     1.141448     1.133805     1.126162     1.118519     1.110876     1.103233
      1.095590     1.087946     1.080303     1.072660     1.065017     1.057374     1.049731     1.042088     1.034445     1.026802
      1.019158     1.011515     1.003872     0.996229     0.988586     0.980943     0.973300     0.965657     0.958014     0.950371
      0.942727     0.935084     0.927441     0.919798     0.912155     0.904512     0.896869     0.889226     0.881583     0.873940
      0.866296     0.858653     0.851010     0.843367     0.835724     0.828081     0.820438     0.812795     0.805152     0.797508
      0.789865     0.782222     0.774579     0.766936     0.759293     0.751650     0.744007     0.736364     0.728721     0.721077
      0.713434     0.705791     0.698148     0.690505     0.682862     0.675219     0.667576     0.659933     0.652290     0.644646
      0.637003     0.629360     0.621717     0.614074     0.606431     0.598788     0.591145     0.583502     0.575858     0.568215
      0.560572     0.552929     0.545286     0.537643     0.530000     0.522357     0.514714     0.507071     0.499427     0.491784
      0.484141     0.476498     0.468855     0.461212     0.453569     0.445925     0.438282     0.430639     0.422996     0.415353
      0.407710     0.400067     0.392424     0.384780     0.377137     0.369494     0.361851     0.354208     0.346565     0.338922
      0.331278     0.323635     0.315992     0.308349     0.300706     0.293063     0.285420     0.277777     0.270133     0.262490
      0.254847     0.247204     0.239561     0.231918     0.224275     0.216631     0.208988     0.201345
 NY phased data points follow
   1.69487E+01  6.58199E+00  2.15863E+01  9.23689E+00  2.27032E+01  1.91792E+01  3.08280E+01  3.52244E+01  5.44159E+01  6.57501E+01
   5.94674E+01  5.22999E+01  5.42764E+01  4.31021E+01  3.73526E+01  3.50611E+01  2.99924E+01  1.80041E+01  2.56630E+01  1.35161E+01
   1.09614E+01  1.55507E+01  1.98846E+01  2.42885E+01  3.68472E+01  2.13741E+01  1.75442E+01  1.44573E+01  2.05807E+01  2.44152E+01
   6.79235E+00  2.00925E+01  2.78233E+01  1.36531E+01  2.55263E+01  3.24929E+01  1.25807E+01  2.09098E+01  1.30291E+01  8.84396E+00
   1.38379E+01  1.28936E+01  1.47358E+01  3.60981E+01  2.52482E+01  2.80305E+01  1.19809E+01  2.82742E+01  2.86808E+01  2.91322E+01
   2.08804E+01  1.15197E+01  1.10793E+01  1.47567E+01  2.05787E+01  1.44872E+01  1.40989E+01  1.79880E+01  1.11210E+01  1.35810E+01
   1.26265E+01  6.39124E+00  7.08802E+00 -3.16842E+00  3.94393E+00 -4.12617E-01  6.89936E+00  7.15772E+00 -8.00187E+00 -5.31192E+00
   8.86294E+00  2.24627E-01 -2.23345E+00  1.15872E-01 -2.67661E+00  4.85808E+00  2.55609E+00 -1.27622E+00 -3.34114E+00 -1.45988E+00
   4.86515E-02  5.86886E-01  8.14800E+00 -2.03211E+00  1.08493E+01  9.05984E+00  7.48917E+00 -2.07432E+00  9.60674E+00  5.25542E+00
   1.15229E+01  1.40992E+01  4.82044E+00  2.49113E+01  1.71593E+00 -2.88109E+00  1.16250E+01  7.99464E+00  2.72875E+01  2.88152E+01
   5.99426E+01  5.62560E+01  6.97134E+01  6.56289E+01  6.82731E+01  4.12190E+01  4.54473E+01  3.08490E+01  2.17980E+01  1.95929E+01
   2.06769E+01  9.59348E+00 -5.01187E-02  2.33932E-01  1.11709E+01  9.42089E+00  9.27867E+00 -2.21504E+00  3.13702E+00  9.67316E+00
   8.68809E-01  1.04244E+01  1.33189E+01  2.98771E+01  3.98811E+01  5.09571E+01  7.77218E+01  6.61124E+01  7.90167E+01  5.60387E+01
   4.72667E+01  3.72205E+01  3.36080E+01  2.24396E+01  3.04311E+01  5.16018E+00  7.98637E+00 -9.61288E-01  4.74159E+00  1.64200E+01
   7.80511E+00  6.93700E+00  5.01678E+00 -3.14995E+00  4.78971E+00 -1.52080E+00  2.74824E+00 -3.61598E+00  4.52744E+00 -1.08999E+00
   5.00221E+00 -2.84920E+00  4.89013E+00 -9.57240E+00 -8.67656E+00 -1.26887E+01 -7.92241E+00 -7.02388E+00 -1.02864E+01 -1.74506E+01
  -1.60752E+01 -9.39531E+00 -1.23922E+01 -7.55577E+00  1.12974E+00 -3.22431E+00 -1.02543E+01 -1.53954E+01 -1.88121E+01 -1.69901E+01
  -1.90811E+01 -3.73090E+01 -3.37336E+01 -3.93722E+01 -3.39690E+01 -2.17938E+01 -3.74045E+01 -4.20889E+01 -2.81925E+01 -3.21469E+01
  -3.07545E+01 -3.51492E+01 -2.27849E+01 -2.53107E+01 -1.24485E+01 -3.05394E+01 -1.46341E+01 -1.47058E+01 -1.27074E+01 -1.90360E+01
  -6.81147E+00 -1.94949E+00 -9.75914E+00 -7.29672E+00 -1.01898E+01 -2.13102E+01 -1.61824E+01 -1.27127E+01 -2.53585E+01 -2.42903E+01
  -4.65788E+00 -1.11473E+01 -5.78788E+00 -1.06301E+01 -6.26045E+00 -1.01173E+00 -3.44815E+00 -5.44347E+00 -7.82484E+00 -1.55761E+01
  -1.13104E+01 -5.47650E+00 -2.55587E+00 -1.58483E+01  1.12777E+01  8.90889E+00  2.25782E+01  7.69657E+00  1.23364E+01  5.03366E+00
   3.18066E+00 -2.92243E+00 -2.88698E+00  5.53972E+00 -1.77190E+00 -2.62819E+00  9.34525E+00  1.10392E+00 -3.66359E+00  5.32062E+00
   6.88915E+00  4.64272E+00  1.64358E+00  2.25701E+01  1.02475E+01  1.21579E+01  8.08613E+00  1.11604E+01  1.23640E+01  1.29366E+01
   1.26656E+01  1.02240E+01  1.04080E+01  2.31609E+01  1.20790E+01  1.44435E+01  3.07539E+01  3.23227E+01  1.50134E+01  3.26045E+01
   3.58930E+01  2.89169E+01  3.95756E+01  4.69851E+01  5.97568E+01  6.92646E+01  9.02991E+01  1.08053E+02  1.42768E+02  1.77953E+02
   1.83742E+02  1.80537E+02  1.46239E+02  1.29187E+02  9.48834E+01  8.07957E+01  5.37072E+01  2.61309E+01  2.52453E+01  1.50828E+01
   1.16283E+01  2.42655E+01  6.45676E+00  1.90461E+01  4.51272E+00  1.02327E+01 -9.21042E-01 -3.57711E+00  7.38815E+00  7.25083E+00
  -8.06451E-01 -2.47750E+00 -1.24544E+01 -1.46842E+00 -5.80087E+00 -5.47071E+00 -1.27400E+01 -2.15439E+01 -7.34911E+00 -1.33446E+01
  -4.21968E+00  3.87486E+00 -6.98906E+00  3.66414E-01 -3.65698E+00 -9.97567E+00  2.29440E+00 -9.20292E+00 -6.57474E+00 -1.48293E+01
  -5.88761E+00 -1.14239E+01 -7.88849E+00 -4.61694E+00 -3.73086E+00  1.79891E+00  3.20674E-01  1.27062E+01 -2.44568E+00 -4.69498E+00
   2.71741E+00 -2.82740E+00 -9.57831E+00 -1.35883E+00 -1.00723E+01 -6.86230E+00 -1.79524E+01 -1.20955E+01 -1.54918E+01  7.72962E-01
  -6.25699E+00 -9.70262E+00 -2.31656E+01 -3.92782E+00 -1.23881E+01 -2.49242E+01 -1.05480E+01 -2.99390E+01 -1.39356E+01 -1.40069E+01
  -1.76980E+01 -1.70435E+01 -1.47577E+01 -6.72399E+00 -6.98772E-01 -3.24312E+00  1.58778E+01  5.29772E+00  1.42351E+01  1.27560E+01
   2.27342E+01  1.48228E+01  7.98651E+00  1.67568E+01  1.82740E+01  1.97890E+01  1.25257E+01  1.43514E+01  2.51657E+01  2.14962E+01
   2.99011E+01  2.12436E+01  1.34875E+01  1.95776E+01  1.70320E+01  1.17076E+01  1.61214E+01  1.45531E+01  1.25763E+01  1.28436E+01
   1.02293E+01  5.42398E+00  1.71375E+01  8.55080E+00  8.08601E+00  1.03010E+01  7.05505E+00  3.70023E+00  1.47193E+01  1.17358E+01
   9.04630E+00  5.13855E+00  1.54646E+01  5.91847E+00  6.40702E+00 -4.99516E+00  2.32873E+01  3.18917E+00  9.87139E+00  9.76193E+00
   1.21072E+01  7.51160E+00  1.20043E+01  8.03967E+00  6.79875E+00 -9.48214E+00 -2.75653E+00 -1.59747E+00  5.52489E-01 -8.95276E+00
   1.23090E+00 -5.66645E+00  2.40774E+00 -6.26821E+00  8.24021E+00  8.15490E+00  1.29529E+01  7.35423E+00  1.59823E+01  1.53527E+01
   8.99086E+00  8.42863E+00  8.94350E+00  6.82630E+00  1.83769E+01  2.33109E+00  1.12767E+00 -6.33792E-01  6.80665E-01 -9.74232E+00
  -1.16033E-01  2.25966E+00 -8.00151E+00  8.95568E+00  3.00905E+00 -7.26943E+00  4.50453E+00  5.57464E-01 -5.49136E+00 -2.53419E+00
  -5.35734E+00 -4.04324E+00 -1.74654E-01  6.59517E+00 -3.55775E+00 -1.24805E+01 -1.31468E+00 -7.31252E-01 -2.69477E+00  9.47656E+00
  -1.12947E+01 -3.71526E+00 -3.88771E+00 -5.76509E+00  1.59954E+00 -7.52299E+00  3.39211E+00 -1.20527E+01 -2.58347E+00 -6.21404E+00
  -2.31560E+00 -2.88338E+00 -9.71244E+00  1.43068E+00 -5.80731E+00 -2.03188E+00 -4.30047E+00 -6.57091E+00 -4.88656E+00  4.79237E+00
  -1.49426E+01  4.74972E+00  3.90277E+00 -6.14142E+00 -3.97407E+00  9.17454E+00 -4.56823E+00 -1.20385E+01 -5.21505E+00 -1.04252E+01
  -5.94980E+00 -7.03712E-01  4.83057E+00 -5.80898E+00 -3.71775E+00  1.99244E+00 -1.07239E+01  1.71678E-01  4.94007E+00  1.28685E+00
  -3.37046E+00 -5.10224E+00 -2.32501E+00  7.60271E+00 -1.58473E+00 -7.78739E+00 -8.55615E-01 -2.43005E+00 -1.38662E-01 -3.97945E+00
   3.37045E+00 -5.45512E+00 -1.41834E+00 -3.38021E+00  8.11603E+00  3.11520E+00 -3.30768E+00  7.89906E+00 -2.75571E+00  5.46485E+00
  -4.94501E+00 -2.29878E+00  2.42759E+01 -4.95971E+00 -3.92589E+00  2.19356E+00 -6.44059E+00 -4.42860E+00
 NY points of the fit to the data follow
   1.22459E+01  1.15410E+01  1.21425E+01  1.43466E+01  1.83105E+01  2.42943E+01  3.18244E+01  4.02014E+01  4.81925E+01  5.41416E+01
   5.66389E+01  5.52432E+01  5.07571E+01  4.46280E+01  3.81486E+01  3.20165E+01  2.63557E+01  2.12246E+01  1.72062E+01  1.46115E+01
   1.30914E+01  1.24605E+01  1.22523E+01  1.24760E+01  1.28618E+01  1.37120E+01  1.55604E+01  1.83280E+01  2.14850E+01  2.42916E+01
   2.62886E+01  2.72402E+01  2.70090E+01  2.56519E+01  2.33357E+01  2.01455E+01  1.64505E+01  1.27529E+01  9.91556E+00  8.69444E+00
   8.93714E+00  1.05682E+01  1.33660E+01  1.69578E+01  2.09849E+01  2.46531E+01  2.69460E+01  2.70149E+01  2.47734E+01  2.10208E+01
   1.68542E+01  1.31449E+01  1.03590E+01  8.34805E+00  6.94794E+00  6.40601E+00  6.99872E+00  8.34262E+00  9.61728E+00  1.02486E+01
   1.00122E+01  8.97067E+00  7.47099E+00  5.94994E+00  4.85141E+00  4.36896E+00  4.33082E+00  4.58112E+00  5.12099E+00  5.83330E+00
   6.53697E+00  7.00418E+00  7.07598E+00  6.77152E+00  6.20821E+00  5.54408E+00  4.91816E+00  4.35989E+00  3.90273E+00  3.65776E+00
   3.93417E+00  4.55368E+00  5.35823E+00  6.33433E+00  7.29322E+00  7.81840E+00  7.55009E+00  6.49727E+00  5.03948E+00  3.73133E+00
   2.86275E+00  2.38652E+00  2.06760E+00  1.70829E+00  1.38213E+00  2.19706E+00  6.39499E+00  1.33641E+01  2.26622E+01  3.46649E+01
   4.85901E+01  6.14971E+01  6.95271E+01  7.03317E+01  6.43916E+01  5.44815E+01  4.36301E+01  3.35962E+01  2.45973E+01  1.61748E+01
   8.21263E+00  1.99239E+00 -5.39376E-01 -1.10281E+00 -1.22573E+00 -1.20860E+00 -1.14405E+00 -1.00897E+00 -6.75501E-01  3.01993E-01
   3.58906E+00  1.01099E+01  1.89905E+01  3.02499E+01  4.37548E+01  5.77108E+01  6.87203E+01  7.35912E+01  7.13392E+01  6.36501E+01
   5.34206E+01  4.28635E+01  3.27523E+01  2.29106E+01  1.33298E+01  4.90958E+00 -2.59687E-02 -1.18269E+00 -9.18493E-01 -2.37624E-01
   3.91908E-01  7.83627E-01  9.79292E-01  9.42977E-01  6.37956E-01  1.57614E-01 -4.94434E-01 -1.31059E+00 -2.15309E+00 -2.94948E+00
  -3.59059E+00 -4.08579E+00 -4.45623E+00 -4.72052E+00 -5.00825E+00 -5.39449E+00 -5.88535E+00 -6.51833E+00 -7.24579E+00 -8.00910E+00
  -8.64311E+00 -8.90022E+00 -8.75682E+00 -8.51520E+00 -8.56323E+00 -9.08831E+00 -1.00089E+01 -1.10553E+01 -1.19975E+01 -1.28742E+01
  -1.39296E+01 -1.51097E+01 -1.63104E+01 -1.74255E+01 -1.82496E+01 -1.86692E+01 -1.86369E+01 -1.83036E+01 -1.80164E+01 -1.79942E+01
  -1.82115E+01 -1.83628E+01 -1.81116E+01 -1.74474E+01 -1.64776E+01 -1.52078E+01 -1.34566E+01 -1.10036E+01 -8.16208E+00 -5.60488E+00
  -4.03094E+00 -3.65503E+00 -4.13474E+00 -5.06301E+00 -6.08371E+00 -6.90187E+00 -7.37419E+00 -7.19139E+00 -6.09318E+00 -4.17917E+00
  -1.73283E+00  7.79115E-01  2.77554E+00  3.53262E+00  2.71076E+00  4.43904E-01 -3.11806E+00 -7.41964E+00 -1.14341E+01 -1.41541E+01
  -1.48468E+01 -1.35719E+01 -1.06263E+01 -6.47111E+00 -1.98390E+00  1.68327E+00  3.49141E+00  3.14983E+00  1.17224E+00 -1.88672E+00
  -5.12526E+00 -7.42668E+00 -8.35268E+00 -7.80153E+00 -6.01575E+00 -3.51180E+00 -7.92924E-01  1.37998E+00  2.86911E+00  3.89519E+00
   4.87506E+00  5.94011E+00  6.87631E+00  7.75668E+00  8.80762E+00  9.96418E+00  1.09135E+01  1.16102E+01  1.21198E+01  1.23341E+01
   1.21292E+01  1.17790E+01  1.18016E+01  1.24939E+01  1.37833E+01  1.53302E+01  1.69854E+01  1.86603E+01  2.03896E+01  2.26291E+01
   2.54850E+01  2.90006E+01  3.34890E+01  4.17619E+01  5.64374E+01  7.49946E+01  9.67476E+01  1.22074E+02  1.48579E+02  1.69710E+02
   1.78409E+02  1.71804E+02  1.52736E+02  1.27604E+02  1.02401E+02  7.99895E+01  5.97751E+01  4.05602E+01  2.27838E+01  1.04291E+01
   5.62125E+00  3.60099E+00  2.41290E+00  1.65663E+00  1.11235E+00  5.46197E-01 -1.11218E-01 -8.42051E-01 -1.63397E+00 -2.44694E+00
  -3.21800E+00 -3.91803E+00 -4.52398E+00 -4.99452E+00 -5.32049E+00 -5.52589E+00 -5.64594E+00 -5.71385E+00 -5.73864E+00 -5.72020E+00
  -5.67806E+00 -5.62378E+00 -5.56130E+00 -5.49836E+00 -5.43350E+00 -5.35882E+00 -5.27664E+00 -5.19043E+00 -5.10134E+00 -5.01230E+00
  -4.92862E+00 -4.85020E+00 -4.78138E+00 -4.73100E+00 -4.70213E+00 -4.69408E+00 -4.70416E+00 -4.72961E+00 -4.76794E+00 -4.81164E+00
  -4.85298E+00 -4.88462E+00 -4.89762E+00 -4.88130E+00 -4.82420E+00 -4.71230E+00 -4.52620E+00 -4.23467E+00 -3.77637E+00 -3.00977E+00
  -1.87359E+00 -7.27720E-01  2.73230E-01  1.01021E+00  1.13392E+00  1.71904E-01 -2.10768E+00 -5.35175E+00 -8.49505E+00 -1.07479E+01
  -1.17543E+01 -1.13462E+01 -9.51147E+00 -6.50326E+00 -2.84981E+00  9.04437E-01  4.22891E+00  6.53038E+00  7.99617E+00  9.03970E+00
   9.87089E+00  1.04905E+01  1.08058E+01  1.09216E+01  1.13575E+01  1.21284E+01  1.30405E+01  1.40000E+01  1.49513E+01  1.58523E+01
   1.66686E+01  1.73713E+01  1.79366E+01  1.83455E+01  1.85842E+01  1.86443E+01  1.85230E+01  1.82237E+01  1.77552E+01  1.71307E+01
   1.63676E+01  1.54863E+01  1.45096E+01  1.34618E+01  1.23672E+01  1.12494E+01  1.01306E+01  9.03102E+00  7.96857E+00  6.95883E+00
   6.01458E+00  5.14589E+00  4.36031E+00  3.66343E+00  3.05916E+00  2.54990E+00  2.13675E+00  1.81967E+00  1.59792E+00  1.47030E+00
   1.43525E+00  1.49063E+00  1.63363E+00  1.86069E+00  2.16752E+00  2.54903E+00  2.99901E+00  3.50984E+00  4.07227E+00  4.67556E+00
   5.30753E+00  5.95473E+00  6.60245E+00  7.23494E+00  7.83586E+00  8.38892E+00  8.87857E+00  9.29044E+00  9.61188E+00  9.83236E+00
   9.94409E+00  9.94249E+00  9.82639E+00  9.59794E+00  9.26239E+00  8.82781E+00  8.30477E+00  7.70599E+00  7.04560E+00  6.33845E+00
   5.59939E+00  4.84280E+00  4.08223E+00  3.33003E+00  2.59696E+00  1.89190E+00  1.22179E+00  5.91740E-01  5.26597E-03 -5.35583E-01
  -1.03014E+00 -1.47899E+00 -1.88364E+00 -2.24625E+00 -2.56930E+00 -2.85554E+00 -3.10795E+00 -3.32961E+00 -3.52358E+00 -3.69266E+00
  -3.83935E+00 -3.96601E+00 -4.07486E+00 -4.16798E+00 -4.24720E+00 -4.31403E+00 -4.36975E+00 -4.41555E+00 -4.45258E+00 -4.48187E+00
  -4.50425E+00 -4.52035E+00 -4.53074E+00 -4.53596E+00 -4.53662E+00 -4.53321E+00 -4.52608E+00 -4.51548E+00 -4.50166E+00 -4.48494E+00
  -4.46566E+00 -4.44406E+00 -4.42024E+00 -4.39431E+00 -4.36640E+00 -4.33674E+00 -4.30553E+00 -4.27287E+00 -4.23878E+00 -4.20329E+00
  -4.16653E+00 -4.12867E+00 -4.08981E+00 -4.04997E+00 -4.00912E+00 -3.96731E+00 -3.92465E+00 -3.88128E+00 -3.83722E+00 -3.79246E+00
  -3.74694E+00 -3.70074E+00 -3.65398E+00 -3.60672E+00 -3.55895E+00 -3.51060E+00 -3.46169E+00 -3.41228E+00 -3.36248E+00 -3.31233E+00
  -3.26175E+00 -3.21070E+00 -3.15920E+00 -3.10735E+00 -3.05521E+00 -3.00276E+00 -2.94992E+00 -2.89666E+00 -2.84304E+00 -2.78913E+00
  -2.73496E+00 -2.68046E+00 -2.62555E+00 -2.57024E+00 -2.51457E+00 -2.45859E+00 -2.40227E+00 -2.34549E+00
 NY background values follow
     3.315E+00    3.232E+00    3.149E+00    3.067E+00    2.984E+00    2.901E+00    2.819E+00    2.736E+00    2.653E+00    2.571E+00
     2.488E+00    2.405E+00    2.323E+00    2.240E+00    2.157E+00    2.075E+00    1.992E+00    1.909E+00    1.827E+00    1.744E+00
     1.662E+00    1.579E+00    1.496E+00    1.414E+00    1.331E+00    1.249E+00    1.166E+00    1.084E+00    1.002E+00    9.191E-01
     8.368E-01    7.544E-01    6.721E-01    5.899E-01    5.076E-01    4.255E-01    3.433E-01    2.612E-01    1.791E-01    9.712E-02
     1.515E-02   -6.678E-02   -1.486E-01   -2.305E-01   -3.122E-01   -3.940E-01   -4.756E-01   -5.572E-01   -6.388E-01   -7.202E-01
    -8.016E-01   -8.830E-01   -9.642E-01   -1.045E+00   -1.126E+00   -1.207E+00   -1.288E+00   -1.369E+00   -1.450E+00   -1.531E+00
    -1.611E+00   -1.692E+00   -1.772E+00   -1.852E+00   -1.932E+00   -2.012E+00   -2.092E+00   -2.172E+00   -2.252E+00   -2.331E+00
    -2.410E+00   -2.490E+00   -2.569E+00   -2.648E+00   -2.726E+00   -2.805E+00   -2.884E+00   -2.962E+00   -3.040E+00   -3.118E+00
    -3.196E+00   -3.274E+00   -3.351E+00   -3.429E+00   -3.506E+00   -3.583E+00   -3.660E+00   -3.736E+00   -3.813E+00   -3.889E+00
    -3.965E+00   -4.041E+00   -4.116E+00   -4.192E+00   -4.267E+00   -4.342E+00   -4.417E+00   -4.492E+00   -4.566E+00   -4.640E+00
    -4.714E+00   -4.788E+00   -4.861E+00   -4.934E+00   -5.007E+00   -5.080E+00   -5.153E+00   -5.225E+00   -5.297E+00   -5.368E+00
    -5.440E+00   -5.511E+00   -5.582E+00   -5.653E+00   -5.723E+00   -5.793E+00   -5.863E+00   -5.932E+00   -6.002E+00   -6.070E+00
    -6.139E+00   -6.207E+00   -6.276E+00   -6.343E+00   -6.411E+00   -6.478E+00   -6.545E+00   -6.611E+00   -6.677E+00   -6.743E+00
    -6.808E+00   -6.874E+00   -6.938E+00   -7.003E+00   -7.067E+00   -7.131E+00   -7.194E+00   -7.257E+00   -7.320E+00   -7.383E+00
    -7.445E+00   -7.506E+00   -7.567E+00   -7.628E+00   -7.689E+00   -7.749E+00   -7.808E+00   -7.868E+00   -7.926E+00   -7.985E+00
    -8.043E+00   -8.100E+00   -8.157E+00   -8.214E+00   -8.270E+00   -8.326E+00   -8.381E+00   -8.436E+00   -8.490E+00   -8.544E+00
    -8.597E+00   -8.650E+00   -8.703E+00   -8.754E+00   -8.806E+00   -8.857E+00   -8.907E+00   -8.957E+00   -9.006E+00   -9.054E+00
    -9.103E+00   -9.150E+00   -9.197E+00   -9.244E+00   -9.289E+00   -9.335E+00   -9.379E+00   -9.424E+00   -9.467E+00   -9.510E+00
    -9.552E+00   -9.594E+00   -9.635E+00   -9.675E+00   -9.715E+00   -9.755E+00   -9.793E+00   -9.831E+00   -9.869E+00   -9.906E+00
    -9.942E+00   -9.978E+00   -1.001E+01   -1.005E+01   -1.008E+01   -1.011E+01   -1.015E+01   -1.018E+01   -1.021E+01   -1.024E+01
    -1.027E+01   -1.030E+01   -1.033E+01   -1.036E+01   -1.039E+01   -1.042E+01   -1.045E+01   -1.047E+01   -1.050E+01   -1.053E+01
    -1.055E+01   -1.058E+01   -1.060E+01   -1.062E+01   -1.065E+01   -1.067E+01   -1.069E+01   -1.072E+01   -1.074E+01   -1.076E+01
    -1.078E+01   -1.080E+01   -1.082E+01   -1.084E+01   -1.086E+01   -1.088E+01   -1.089E+01   -1.091E+01   -1.093E+01   -1.095E+01
    -1.096E+01   -1.098E+01   -1.099E+01   -1.101E+01   -1.102E+01   -1.104E+01   -1.105E+01   -1.106E+01   -1.108E+01   -1.109E+01
    -1.110E+01   -1.111E+01   -1.112E+01   -1.114E+01   -1.115E+01   -1.116E+01   -1.117E+01   -1.117E+01   -1.118E+01   -1.119E+01
    -1.120E+01   -1.121E+01   -1.121E+01   -1.122E+01   -1.123E+01   -1.123E+01   -1.124E+01   -1.124E+01   -1.125E+01   -1.125E+01
    -1.126E+01   -1.126E+01   -1.126E+01   -1.127E+01   -1.127E+01   -1.127E+01   -1.127E+01   -1.127E+01   -1.127E+01   -1.128E+01
    -1.128E+01   -1.128E+01   -1.127E+01   -1.127E+01   -1.127E+01   -1.127E+01   -1.127E+01   -1.127E+01   -1.126E+01   -1.126E+01
    -1.125E+01   -1.125E+01   -1.125E+01   -1.124E+01   -1.124E+01   -1.123E+01   -1.122E+01   -1.122E+01   -1.121E+01   -1.120E+01
    -1.120E+01   -1.119E+01   -1.118E+01   -1.117E+01   -1.116E+01   -1.115E+01   -1.114E+01   -1.113E+01   -1.112E+01   -1.111E+01
    -1.109E+01   -1.108E+01   -1.107E+01   -1.106E+01   -1.104E+01   -1.103E+01   -1.101E+01   -1.100E+01   -1.098E+01   -1.097E+01
    -1.095E+01   -1.094E+01   -1.092E+01   -1.090E+01   -1.088E+01   -1.086E+01   -1.085E+01   -1.083E+01   -1.081E+01   -1.079E+01
    -1.077E+01   -1.074E+01   -1.072E+01   -1.070E+01   -1.068E+01   -1.066E+01   -1.063E+01   -1.061E+01   -1.059E+01   -1.056E+01
    -1.054E+01   -1.051E+01   -1.049E+01   -1.046E+01   -1.043E+01   -1.041E+01   -1.038E+01   -1.035E+01   -1.032E+01   -1.030E+01
    -1.027E+01   -1.024E+01   -1.021E+01   -1.018E+01   -1.015E+01   -1.012E+01   -1.009E+01   -1.005E+01   -1.002E+01   -9.991E+00
    -9.958E+00   -9.925E+00   -9.892E+00   -9.859E+00   -9.825E+00   -9.790E+00   -9.756E+00   -9.721E+00   -9.685E+00   -9.650E+00
    -9.614E+00   -9.577E+00   -9.541E+00   -9.504E+00   -9.467E+00   -9.429E+00   -9.391E+00   -9.353E+00   -9.314E+00   -9.275E+00
    -9.236E+00   -9.196E+00   -9.156E+00   -9.116E+00   -9.075E+00   -9.035E+00   -8.993E+00   -8.952E+00   -8.910E+00   -8.868E+00
    -8.826E+00   -8.783E+00   -8.740E+00   -8.697E+00   -8.653E+00   -8.609E+00   -8.565E+00   -8.521E+00   -8.476E+00   -8.431E+00
    -8.386E+00   -8.340E+00   -8.294E+00   -8.248E+00   -8.201E+00   -8.155E+00   -8.108E+00   -8.060E+00   -8.013E+00   -7.965E+00
    -7.917E+00   -7.868E+00   -7.820E+00   -7.771E+00   -7.721E+00   -7.672E+00   -7.622E+00   -7.572E+00   -7.522E+00   -7.471E+00
    -7.421E+00   -7.370E+00   -7.318E+00   -7.267E+00   -7.215E+00   -7.163E+00   -7.111E+00   -7.059E+00   -7.006E+00   -6.953E+00
    -6.900E+00   -6.847E+00   -6.793E+00   -6.740E+00   -6.686E+00   -6.632E+00   -6.577E+00   -6.523E+00   -6.468E+00   -6.414E+00
    -6.359E+00   -6.304E+00   -6.248E+00   -6.193E+00   -6.137E+00   -6.081E+00   -6.025E+00   -5.969E+00   -5.913E+00   -5.857E+00
    -5.800E+00   -5.744E+00   -5.687E+00   -5.630E+00   -5.573E+00   -5.516E+00   -5.459E+00   -5.401E+00   -5.344E+00   -5.286E+00
    -5.229E+00   -5.171E+00   -5.113E+00   -5.055E+00   -4.998E+00   -4.939E+00   -4.881E+00   -4.823E+00   -4.765E+00   -4.707E+00
    -4.648E+00   -4.590E+00   -4.531E+00   -4.473E+00   -4.414E+00   -4.355E+00   -4.296E+00   -4.238E+00   -4.179E+00   -4.120E+00
    -4.061E+00   -4.002E+00   -3.943E+00   -3.884E+00   -3.825E+00   -3.765E+00   -3.706E+00   -3.647E+00   -3.588E+00   -3.529E+00
    -3.469E+00   -3.410E+00   -3.351E+00   -3.291E+00   -3.232E+00   -3.173E+00   -3.113E+00   -3.054E+00   -2.994E+00   -2.935E+00
    -2.876E+00   -2.816E+00   -2.757E+00   -2.698E+00   -2.638E+00   -2.579E+00   -2.520E+00   -2.460E+00
 Ala      Conc. = 8.52E+02
