 LCModel (Version 6.3-1L) Copyright: S.W. Provencher.          Ref.: Magn. Reson. Med. 30:672-679 (1993).                
 Slice#1 Row#3 Col#11  PD_05_press_2_raw_act
 36 lines in following concentration table = NCONC+1
    Conc.  %SD /Cr+PCr  Metabolite                                         
    0.000 999%   0.000 Ala                                                 
    0.903 483%   0.000 Asp                                                 
    0.000 999%   0.000 Cr                                                  
    0.000 999%   0.000 PCr                                                 
    0.539 485%   0.000 GABA                                                
    0.544 480%   0.000 Glc                                                 
    0.000 999%   0.000 Gln                                                 
  533.438  62%   0.000 Glu                                                 
    0.000 999%   0.000 GPC                                                 
    0.000 999%   0.000 PCh                                                 
  160.582  64%   0.000 GSH                                                 
  130.414 220%   0.000 Ins                                                 
    0.000 999%   0.000 Lac                                                 
   18.128 440%   0.000 NAA                                                 
    0.000 999%   0.000 NAAG                                                
    0.184 474%   0.000 Scyllo                                              
    0.891 489%   0.000 Tau                                                 
 2.28E-02 999%   0.000 -CrCH2                                              
    0.000 999%   0.000 GPC+PCh                                             
   18.128 440%   0.000 NAA+NAAG                                            
    0.000 999%   0.000 Cr+PCr                                              
  533.438  62%   0.000 Glu+Gln                                             
    0.000 999%   0.000 Lip13a                                              
  806.704  43%   0.000 Lip13b                                              
  258.371  93%   0.000 Lip09                                               
  865.139  31%   0.000 MM09                                                
    0.000 999%   0.000 Lip20                                               
    0.000 999%   0.000 MM20                                                
  384.206  50%   0.000 MM12                                                
 2.27E+03  11%   0.000 MM14                                                
 1.22E+03  29%   0.000 MM17                                                
  806.704  43%   0.000 Lip13a+Lip13b                                       
 3.46E+03  12%   0.000 MM14+Lip13a+Lip13b+MM12                             
 1.12E+03  22%   0.000 MM09+Lip09                                          
    0.000 999%   0.000 MM20+Lip20                                          
   6 lines in following misc. output table
  FWHM = 0.038 ppm    S/N =   1                                            
  Data shift = 0.008 ppm                                                   
  Ph:-179 deg      15.4 deg/ppm                                            
  alphaB,S = 8.5E+01,   1.3E+01                                            
   14 spline knots.   Ns = 5(1)                                            
   2 inflections.     1 extrema                                            
  498 points on ppm-axis = NY
      4.000000     3.992357     3.984714     3.977070     3.969427     3.961784     3.954141     3.946497     3.938854     3.931211
      3.923568     3.915925     3.908281     3.900638     3.892995     3.885352     3.877708     3.870065     3.862422     3.854779
      3.847136     3.839492     3.831849     3.824206     3.816563     3.808919     3.801276     3.793633     3.785990     3.778347
      3.770703     3.763060     3.755417     3.747774     3.740130     3.732487     3.724844     3.717201     3.709558     3.701914
      3.694271     3.686628     3.678985     3.671341     3.663698     3.656055     3.648412     3.640769     3.633125     3.625482
      3.617839     3.610196     3.602552     3.594909     3.587266     3.579623     3.571980     3.564336     3.556693     3.549050
      3.541407     3.533763     3.526120     3.518477     3.510834     3.503191     3.495547     3.487904     3.480261     3.472618
      3.464974     3.457331     3.449688     3.442045     3.434402     3.426758     3.419115     3.411472     3.403829     3.396185
      3.388542     3.380899     3.373256     3.365613     3.357969     3.350326     3.342683     3.335040     3.327396     3.319753
      3.312110     3.304467     3.296824     3.289180     3.281537     3.273894     3.266251     3.258607     3.250964     3.243321
      3.235678     3.228034     3.220391     3.212748     3.205105     3.197462     3.189818     3.182175     3.174532     3.166889
      3.159245     3.151602     3.143959     3.136316     3.128673     3.121029     3.113386     3.105743     3.098100     3.090456
      3.082813     3.075170     3.067527     3.059884     3.052240     3.044597     3.036954     3.029311     3.021667     3.014024
      3.006381     2.998738     2.991095     2.983451     2.975808     2.968165     2.960522     2.952878     2.945235     2.937592
      2.929949     2.922306     2.914662     2.907019     2.899376     2.891733     2.884089     2.876446     2.868803     2.861160
      2.853517     2.845873     2.838230     2.830587     2.822944     2.815300     2.807657     2.800014     2.792371     2.784728
      2.777084     2.769441     2.761798     2.754155     2.746511     2.738868     2.731225     2.723582     2.715939     2.708295
      2.700652     2.693009     2.685366     2.677722     2.670079     2.662436     2.654793     2.647150     2.639506     2.631863
      2.624220     2.616577     2.608933     2.601290     2.593647     2.586004     2.578361     2.570717     2.563074     2.555431
      2.547788     2.540144     2.532501     2.524858     2.517215     2.509572     2.501928     2.494285     2.486642     2.478999
      2.471355     2.463712     2.456069     2.448426     2.440783     2.433139     2.425496     2.417853     2.410210     2.402566
      2.394923     2.387280     2.379637     2.371994     2.364350     2.356707     2.349064     2.341421     2.333777     2.326134
      2.318491     2.310848     2.303205     2.295561     2.287918     2.280275     2.272632     2.264988     2.257345     2.249702
      2.242059     2.234416     2.226772     2.219129     2.211486     2.203843     2.196199     2.188556     2.180913     2.173270
      2.165627     2.157983     2.150340     2.142697     2.135054     2.127410     2.119767     2.112124     2.104481     2.096838
      2.089194     2.081551     2.073908     2.066265     2.058621     2.050978     2.043335     2.035692     2.028049     2.020405
      2.012762     2.005119     1.997476     1.989833     1.982190     1.974546     1.966903     1.959260     1.951617     1.943974
      1.936331     1.928688     1.921045     1.913402     1.905759     1.898115     1.890472     1.882829     1.875186     1.867543
      1.859900     1.852257     1.844614     1.836971     1.829327     1.821684     1.814041     1.806398     1.798755     1.791112
      1.783469     1.775826     1.768183     1.760540     1.752896     1.745253     1.737610     1.729967     1.722324     1.714681
      1.707038     1.699395     1.691752     1.684108     1.676465     1.668822     1.661179     1.653536     1.645893     1.638250
      1.630607     1.622964     1.615321     1.607677     1.600034     1.592391     1.584748     1.577105     1.569462     1.561819
      1.554176     1.546533     1.538890     1.531246     1.523603     1.515960     1.508317     1.500674     1.493031     1.485388
      1.477745     1.470102     1.462458     1.454815     1.447172     1.439529     1.431886     1.424243     1.416600     1.408957
      1.401314     1.393671     1.386027     1.378384     1.370741     1.363098     1.355455     1.347812     1.340169     1.332526
      1.324883     1.317240     1.309596     1.301953     1.294310     1.286667     1.279024     1.271381     1.263738     1.256095
      1.248452     1.240808     1.233165     1.225522     1.217879     1.210236     1.202593     1.194950     1.187307     1.179664
      1.172021     1.164377     1.156734     1.149091     1.141448     1.133805     1.126162     1.118519     1.110876     1.103233
      1.095590     1.087946     1.080303     1.072660     1.065017     1.057374     1.049731     1.042088     1.034445     1.026802
      1.019158     1.011515     1.003872     0.996229     0.988586     0.980943     0.973300     0.965657     0.958014     0.950371
      0.942727     0.935084     0.927441     0.919798     0.912155     0.904512     0.896869     0.889226     0.881583     0.873940
      0.866296     0.858653     0.851010     0.843367     0.835724     0.828081     0.820438     0.812795     0.805152     0.797508
      0.789865     0.782222     0.774579     0.766936     0.759293     0.751650     0.744007     0.736364     0.728721     0.721077
      0.713434     0.705791     0.698148     0.690505     0.682862     0.675219     0.667576     0.659933     0.652290     0.644646
      0.637003     0.629360     0.621717     0.614074     0.606431     0.598788     0.591145     0.583502     0.575858     0.568215
      0.560572     0.552929     0.545286     0.537643     0.530000     0.522357     0.514714     0.507071     0.499427     0.491784
      0.484141     0.476498     0.468855     0.461212     0.453569     0.445925     0.438282     0.430639     0.422996     0.415353
      0.407710     0.400067     0.392424     0.384780     0.377137     0.369494     0.361851     0.354208     0.346565     0.338922
      0.331278     0.323635     0.315992     0.308349     0.300706     0.293063     0.285420     0.277777     0.270133     0.262490
      0.254847     0.247204     0.239561     0.231918     0.224275     0.216631     0.208988     0.201345
 NY phased data points follow
  -1.63993E-01  2.79553E+00  9.87129E+00  1.31108E+00  2.03215E+00 -4.72127E+00 -1.69336E+00  2.47721E+00  5.15859E+00  1.15472E-01
  -2.38941E+00 -9.20637E+00 -1.35660E+01 -2.07106E+00  1.18837E+01  3.82037E+00  5.53839E-01 -5.52730E+00  9.77957E-01 -3.26039E+00
   3.16812E+00 -5.68716E+00  1.22211E+00  7.57209E+00  1.44609E+00 -9.16351E+00  2.52500E+00 -4.64876E+00 -7.52804E+00  3.80511E+00
   3.14330E+00 -8.26479E-02  9.94452E+00  1.11493E+01  6.63169E+00 -9.92241E+00  9.33305E+00  1.11400E+00 -8.40031E+00  6.34454E-01
   1.70432E+00 -2.00537E+00 -1.01757E+00  1.73234E-01  6.11265E+00 -7.07465E+00  1.33359E+00 -1.53580E+01  3.55072E+00  5.38440E+00
  -6.19969E-01  3.62875E+00  3.06458E-01 -1.67609E+01  7.25408E+00 -9.66693E-01 -1.92050E+00 -9.67514E+00 -7.10160E+00 -3.37176E+00
   4.97881E+00  5.91947E+00  4.11819E+00 -2.39104E+00 -7.20493E-01 -8.21734E+00  6.99539E-01  2.68677E+00  8.61133E-01 -5.80385E+00
  -1.23779E+01 -3.72033E+00 -4.03222E+00 -9.06190E+00 -4.40139E+00  7.06511E+00 -5.30814E+00 -5.45647E+00  4.09569E+00 -3.71470E-01
   8.35821E-01  3.90403E+00 -1.09946E+00 -3.52664E+00  5.52694E+00 -6.24578E+00 -4.94338E-01  8.36959E+00  7.04787E-01 -5.06242E+00
   4.15197E+00  9.81768E-01  4.94861E+00  9.13190E-01 -3.51354E-01  2.04307E+00  5.34893E+00  2.67239E+00 -7.58002E-01 -1.77516E+01
  -4.26976E+00 -1.67738E+00  3.30192E+00 -2.53284E+00 -1.15450E+01  4.89021E+00 -1.11337E+00  8.44473E-01  3.00537E+00 -8.87970E+00
  -4.07457E+00 -5.40954E+00 -8.10570E+00 -7.44157E+00 -6.80285E+00 -3.59177E+00 -7.50212E+00 -6.93672E+00 -2.63139E+00 -2.28768E+00
  -1.57157E+00 -2.09099E+00 -3.22116E+00  3.83747E+00 -1.19168E+00 -6.85445E+00  5.31279E+00 -5.96844E+00 -3.41219E+00 -8.84251E-01
  -9.52401E+00  1.35831E+00  4.53752E+00 -1.15216E+01  1.21356E+00  2.76743E+00  7.32449E+00 -5.18663E+00 -4.16080E+00  2.25028E-01
  -3.75667E+00 -3.97235E+00  9.77720E+00 -7.73970E-01  3.76011E+00  5.47466E-01  3.38868E+00 -1.15354E+01 -1.55948E+00 -1.25233E+01
   1.64993E+01 -8.91519E+00 -5.41869E+00 -3.45838E+00 -3.84487E+00  1.11511E+00  1.01613E+01 -1.89959E+00 -1.33251E+00  2.17686E+00
   1.58884E+01  5.19824E+00  6.12006E+00 -2.62610E+00  4.90501E+00 -8.10822E+00  1.00124E+01  4.11471E+00  5.99118E+00 -8.06019E+00
   8.27170E+00  1.22286E+01  6.45273E+00  9.75929E-01  9.33505E+00 -9.39825E+00  1.13556E+01  4.81266E+00  7.28801E+00 -1.30302E+01
   1.16747E+00  8.68231E+00 -1.48764E+00  5.00375E+00  1.09025E+01  7.69444E+00  1.10503E+01  7.70855E+00 -3.90799E+00  6.90775E+00
  -3.57791E+00  6.07421E-01  2.66709E+00 -3.72211E+00 -3.89034E+00  1.34655E+01  1.36772E+01 -1.07558E+00 -1.66103E+00  5.28769E+00
  -2.07405E+00 -3.02805E+00 -8.78839E+00 -9.85648E-02 -7.02403E+00  2.13615E+00 -1.51767E+00 -7.42665E+00  3.34620E+00  4.74595E-01
   3.17315E+00 -6.19418E+00  1.52878E+00 -1.59070E+00  3.08313E+00  1.64561E+00  8.98262E+00  8.48657E+00 -2.21591E+00  5.30623E+00
  -4.30223E+00 -2.98744E+00 -5.51526E+00 -8.19059E+00 -1.52963E+00  1.49550E+00  2.69154E+00  1.09504E+00  4.46297E+00 -3.03462E-01
  -2.06116E+00  6.35442E+00 -2.32076E-01 -1.51895E+01 -1.19051E+01 -7.25089E+00  9.71443E-01 -1.07301E+01 -6.61334E+00 -9.85557E+00
  -5.33740E+00 -4.18643E+00 -1.11974E+01 -5.04772E+00  4.81390E-01 -4.04372E+00 -8.32742E+00 -7.15188E+00 -3.26920E+00 -2.43707E+00
  -6.64747E+00  3.17238E+00 -1.36465E+01 -8.01794E+00 -2.20280E+00 -8.13344E+00 -8.67381E+00 -3.20553E+00 -1.36706E+01  1.05104E+00
  -4.92159E+00  4.65126E-01  3.86316E+00  1.23240E+01  3.19512E+00 -7.55775E+00 -6.03179E+00 -3.62814E+00  7.15776E+00  5.96539E-01
   1.45394E+01  2.05762E+00  5.29849E+00  7.10420E+00  1.08821E+01  7.79010E+00 -1.06218E+00  8.96685E+00  1.28538E+01  1.18273E-01
   6.46670E+00  1.03029E+01  1.84466E+00  9.33262E-01  3.00295E+00  8.02335E+00  1.52736E+01  6.75101E+00  5.83453E+00  5.13524E+00
   3.55270E+00 -1.65793E+00 -3.18958E+00  7.44206E+00  1.03422E+01  1.32684E+00  8.80242E+00  1.10869E+01  2.36797E+01  1.03586E+01
   1.00939E+01  1.44316E+01  1.94164E+01  9.47919E+00  7.57633E+00 -7.70335E+00  9.15878E+00  1.23803E+01  1.20070E+01  6.19262E+00
   4.79979E+00  6.60090E+00  1.95746E+00  1.01449E+01  4.79444E+00  1.12264E+01  1.31581E+01  5.40297E+00  1.13627E+01  1.46972E+01
   1.29663E+01  9.19771E+00  1.06728E+01  2.18904E+01  2.25504E+01  2.58434E+01  2.31549E+01  2.53203E+01  3.60632E+01  3.14286E+01
   2.90682E+01  2.66721E+01  1.93923E+01  1.60791E+01  2.24407E+01  1.28475E+01  6.36122E-01  1.39620E+01  9.14036E+00  4.91005E+00
  -5.59663E+00  5.57348E+00 -1.90959E+00  4.12973E+00  2.25600E+00 -4.69276E+00  6.88952E-01 -3.70840E-01  4.89613E+00  8.40071E+00
   1.85074E+01 -4.33733E-01  8.12663E+00  1.15761E+01  9.61766E+00  7.40662E+00  1.06017E+01  3.05176E+00  1.27901E+01  2.00795E+00
   2.68574E+01  1.48175E+01  2.26239E+01  1.12031E+01  2.25639E+01 -5.85402E-01  1.47099E+01  4.02360E+00  1.91843E+01  1.06545E+01
  -1.39553E+00  1.31222E+01  3.65315E+00  1.59187E+01  6.19735E+00  1.35693E+01  7.90671E+00  1.02096E+01  4.80773E+00  9.60329E+00
   6.42616E+00  1.89918E+01  1.35831E+01  5.29368E+00  9.06748E+00  8.17244E+00  7.91119E+00  3.36809E+00  9.36901E+00  5.35119E+00
   1.02815E+01  2.16860E+01  4.05511E+00  1.21428E+01  5.26744E+00  8.10475E+00  6.43623E+00  1.41963E+01  1.08649E+01  4.99276E+00
   6.93255E+00  7.93016E+00  1.00871E+01  1.26251E+01 -2.56636E+00  4.65269E+00  9.16711E+00  1.86081E+01  1.46184E+01  1.59661E+01
   1.67831E+00  1.20893E+00  1.05094E+01  7.32170E+00  1.44108E+01  1.04642E+01  6.82280E+00  1.46978E+01  9.62516E+00  1.07516E+01
   6.87744E+00  6.44890E+00  8.76374E+00  6.48260E+00  3.71309E+00  5.64695E+00  6.45947E+00  1.35693E+01  6.92660E+00  8.61644E+00
   5.57197E+00  1.33887E+01  1.22118E+01  1.69530E+00  4.77926E+00  1.37126E+00  1.05727E+01  6.86940E+00  1.84362E+00  2.31301E+00
  -9.84925E-01 -4.07532E+00  1.39887E+01  1.97266E+00  1.24000E+01 -2.10203E+00  1.32805E+01  1.68997E+01 -2.24984E+00  7.45961E+00
   7.54070E+00  3.37164E+00 -3.68963E+00  1.43448E+00  1.50918E+01  4.62974E+00  4.67200E+00  1.38253E+01  8.22927E+00 -7.95363E+00
  -4.05025E+00  5.88390E+00  1.37120E+01  4.01957E+00 -3.17017E+00 -8.62725E+00  1.10297E+01  4.16985E+00 -4.10043E+00  2.42537E+00
  -2.96692E+00  1.17240E+00  1.08854E+01  3.96518E+00  9.63566E+00  1.23636E+01 -7.30994E+00  5.85480E+00  3.63859E+00  5.21958E+00
  -2.11926E+00  1.34313E+01 -2.03504E+00 -4.81105E+00  2.69386E+00  1.12522E+00 -7.25115E-01  3.59991E+00  1.70746E+00  1.61319E+00
   6.69744E+00 -2.57391E+00 -4.30794E+00 -9.90528E-01  8.19013E+00  3.52123E+00 -1.96635E-01  3.08208E+00
 NY points of the fit to the data follow
  -1.53190E+00 -1.64252E+00 -1.71622E+00 -1.75387E+00 -1.77026E+00 -1.77490E+00 -1.77155E+00 -1.76256E+00 -1.75009E+00 -1.73602E+00
  -1.72130E+00 -1.70598E+00 -1.68968E+00 -1.67143E+00 -1.64933E+00 -1.62130E+00 -1.58586E+00 -1.54232E+00 -1.48823E+00 -1.41028E+00
  -1.30625E+00 -1.19462E+00 -1.07857E+00 -9.68318E-01 -9.31549E-01 -1.09001E+00 -1.40165E+00 -1.55679E+00 -1.18110E+00 -6.72081E-02
   1.66081E+00  3.54995E+00  4.92877E+00  5.17218E+00  4.13546E+00  2.32537E+00  4.72706E-01 -9.79346E-01 -1.86386E+00 -2.12343E+00
  -1.85733E+00 -1.34981E+00 -8.98628E-01 -6.58920E-01 -5.89848E-01 -5.22399E-01 -3.20943E-01 -3.24461E-03  2.81945E-01  3.73789E-01
   1.85423E-01 -2.45573E-01 -7.56483E-01 -1.15220E+00 -1.34166E+00 -1.36585E+00 -1.30522E+00 -1.20183E+00 -1.05841E+00 -8.84024E-01
  -7.09916E-01 -5.81831E-01 -5.46442E-01 -6.24493E-01 -7.87078E-01 -9.64369E-01 -1.08656E+00 -1.12366E+00 -1.08215E+00 -9.89756E-01
  -8.78889E-01 -7.75655E-01 -6.98593E-01 -6.57078E-01 -6.53317E-01 -6.84345E-01 -7.36833E-01 -7.87336E-01 -8.18373E-01 -8.29672E-01
  -8.31649E-01 -8.30511E-01 -8.25767E-01 -8.21957E-01 -8.31776E-01 -8.75624E-01 -9.66900E-01 -1.09878E+00 -1.24068E+00 -1.34820E+00
  -1.37980E+00 -1.32082E+00 -1.19236E+00 -1.03603E+00 -8.93888E-01 -7.92314E-01 -7.46064E-01 -7.59964E-01 -8.25696E-01 -9.20997E-01
  -1.01728E+00 -1.08863E+00 -1.12066E+00 -1.11706E+00 -1.09067E+00 -1.05177E+00 -1.00516E+00 -9.56412E-01 -9.12952E-01 -8.80193E-01
  -8.56877E-01 -8.36897E-01 -8.15968E-01 -7.93953E-01 -7.72353E-01 -7.49719E-01 -7.27218E-01 -7.09918E-01 -7.05172E-01 -7.18536E-01
  -7.48969E-01 -7.82505E-01 -7.97219E-01 -7.74047E-01 -7.10145E-01 -6.25283E-01 -5.47714E-01 -4.95995E-01 -4.73037E-01 -4.55775E-01
  -3.69337E-01 -1.49712E-01  1.81243E-01  5.02367E-01  6.32321E-01  4.25719E-01 -1.15579E-01 -8.30985E-01 -1.40725E+00 -1.55715E+00
  -1.21665E+00 -5.73227E-01  8.43062E-02  5.30651E-01  6.74103E-01  5.58212E-01  3.15994E-01  8.85608E-02 -5.41106E-02 -1.20013E-01
  -1.56322E-01 -1.97439E-01 -2.58762E-01 -3.34341E-01 -4.01823E-01 -4.37636E-01 -4.33089E-01 -3.96749E-01 -3.45921E-01 -3.01265E-01
  -2.80003E-01 -2.82971E-01 -2.95988E-01 -3.05252E-01 -3.07177E-01 -3.05967E-01 -3.05488E-01 -3.06442E-01 -3.06262E-01 -3.00083E-01
  -2.83276E-01 -2.56460E-01 -2.27104E-01 -2.06006E-01 -2.02141E-01 -2.19305E-01 -2.53705E-01 -2.95476E-01 -3.31596E-01 -3.54688E-01
  -3.62880E-01 -3.64479E-01 -3.76122E-01 -4.10899E-01 -4.77222E-01 -5.73050E-01 -6.71507E-01 -7.14638E-01 -6.25788E-01 -3.51101E-01
   7.92513E-02  5.50596E-01  9.16214E-01  1.05601E+00  8.90633E-01  4.38842E-01 -1.59180E-01 -6.97068E-01 -9.92995E-01 -9.66229E-01
  -6.45438E-01 -1.37944E-01  4.02780E-01  8.06313E-01  1.01310E+00  1.06330E+00  9.87966E-01  7.71368E-01  3.96714E-01 -8.14084E-02
  -5.25184E-01 -7.61282E-01 -5.33082E-01  3.03636E-01  1.65840E+00  3.13795E+00  4.19833E+00  4.40460E+00  3.52554E+00  1.62596E+00
  -8.10228E-01 -3.05722E+00 -4.52526E+00 -4.91517E+00 -4.20586E+00 -2.61419E+00 -6.63821E-01  9.74513E-01  1.86017E+00  1.99824E+00
   1.65298E+00  1.08994E+00  5.33315E-01  1.96947E-01  2.54568E-01  7.28023E-01  1.41235E+00  1.97066E+00  2.11131E+00  1.70938E+00
   8.46102E-01 -2.23439E-01 -1.11493E+00 -1.48011E+00 -1.20019E+00 -4.39791E-01  4.80740E-01  1.23058E+00  1.56321E+00  1.41571E+00
   9.36042E-01  3.90569E-01  1.95912E-02 -4.58330E-02  1.38370E-01  3.77171E-01  4.88207E-01  4.68114E-01  4.58880E-01  6.12493E-01
   9.86298E-01  1.49356E+00  1.94661E+00  2.15054E+00  2.04205E+00  1.74176E+00  1.42919E+00  1.18978E+00  1.02363E+00  9.12117E-01
   8.40885E-01  8.08792E-01  8.41766E-01  9.65386E-01  1.16544E+00  1.39664E+00  1.60506E+00  1.75345E+00  1.84562E+00  1.91779E+00
   2.00693E+00  2.13302E+00  2.30580E+00  2.53162E+00  2.80837E+00  3.12357E+00  3.46334E+00  3.82101E+00  4.19612E+00  4.58780E+00
   4.99246E+00  5.40501E+00  5.81843E+00  6.22349E+00  6.61017E+00  6.96900E+00  7.29120E+00  7.56875E+00  7.79551E+00  7.96854E+00
   8.08792E+00  8.15657E+00  8.18005E+00  8.16654E+00  8.12674E+00  8.07370E+00  8.02258E+00  7.99041E+00  7.99542E+00  8.05563E+00
   8.18750E+00  8.40506E+00  8.71933E+00  9.13771E+00  9.66328E+00  1.02943E+01  1.10238E+01  1.18397E+01  1.27246E+01  1.36568E+01
   1.46107E+01  1.55578E+01  1.64680E+01  1.73110E+01  1.80575E+01  1.86807E+01  1.91577E+01  1.94707E+01  1.96075E+01  1.95624E+01
   1.93364E+01  1.89369E+01  1.83771E+01  1.76757E+01  1.68551E+01  1.59409E+01  1.49604E+01  1.39415E+01  1.29115E+01  1.18965E+01
   1.09209E+01  1.00073E+01  9.17662E+00  8.44877E+00  7.84317E+00  7.37927E+00  7.07651E+00  6.95345E+00  7.02573E+00  7.30280E+00
   7.78375E+00  8.45288E+00  9.27638E+00  1.02011E+01  1.11566E+01  1.20614E+01  1.28319E+01  1.33938E+01  1.36926E+01  1.37018E+01
   1.34262E+01  1.29001E+01  1.21804E+01  1.13363E+01  1.04393E+01  9.55273E+00  8.72599E+00  7.99124E+00  7.36398E+00  6.84591E+00
   6.42907E+00  6.10004E+00  5.84356E+00  5.64509E+00  5.49231E+00  5.37573E+00  5.28871E+00  5.22703E+00  5.18845E+00  5.17216E+00
   5.17837E+00  5.20799E+00  5.26231E+00  5.34283E+00  5.45109E+00  5.58849E+00  5.75623E+00  5.95510E+00  6.18539E+00  6.44673E+00
   6.73793E+00  7.05692E+00  7.40059E+00  7.76479E+00  8.14427E+00  8.53274E+00  8.92299E+00  9.30706E+00  9.67651E+00  1.00227E+01
   1.03370E+01  1.06115E+01  1.08390E+01  1.10135E+01  1.11304E+01  1.11870E+01  1.11822E+01  1.11168E+01  1.09932E+01  1.08157E+01
   1.05898E+01  1.03220E+01  1.00196E+01  9.69042E+00  9.34217E+00  8.98239E+00  8.61812E+00  8.25568E+00  7.90052E+00  7.55718E+00
   7.22924E+00  6.91935E+00  6.62929E+00  6.36005E+00  6.11195E+00  5.88477E+00  5.67786E+00  5.49025E+00  5.32075E+00  5.16804E+00
   5.03072E+00  4.90741E+00  4.79677E+00  4.69751E+00  4.60844E+00  4.52846E+00  4.45657E+00  4.39187E+00  4.33357E+00  4.28098E+00
   4.23345E+00  4.19044E+00  4.15148E+00  4.11614E+00  4.08405E+00  4.05489E+00  4.02836E+00  4.00422E+00  3.98223E+00  3.96222E+00
   3.94400E+00  3.92742E+00  3.91234E+00  3.89863E+00  3.88619E+00  3.87492E+00  3.86474E+00  3.85557E+00  3.84731E+00  3.83992E+00
   3.83334E+00  3.82750E+00  3.82236E+00  3.81787E+00  3.81399E+00  3.81068E+00  3.80791E+00  3.80566E+00  3.80387E+00  3.80253E+00
   3.80161E+00  3.80109E+00  3.80095E+00  3.80117E+00  3.80173E+00  3.80261E+00  3.80379E+00  3.80527E+00  3.80703E+00  3.80904E+00
   3.81130E+00  3.81380E+00  3.81652E+00  3.81946E+00  3.82261E+00  3.82595E+00  3.82947E+00  3.83317E+00  3.83705E+00  3.84109E+00
   3.84529E+00  3.84963E+00  3.85411E+00  3.85872E+00  3.86347E+00  3.86835E+00  3.87334E+00  3.87844E+00
 NY background values follow
    -1.778E+00   -1.767E+00   -1.757E+00   -1.746E+00   -1.736E+00   -1.725E+00   -1.715E+00   -1.704E+00   -1.693E+00   -1.683E+00
    -1.672E+00   -1.662E+00   -1.651E+00   -1.641E+00   -1.630E+00   -1.619E+00   -1.609E+00   -1.598E+00   -1.588E+00   -1.577E+00
    -1.567E+00   -1.556E+00   -1.545E+00   -1.535E+00   -1.524E+00   -1.514E+00   -1.503E+00   -1.493E+00   -1.482E+00   -1.471E+00
    -1.461E+00   -1.450E+00   -1.440E+00   -1.429E+00   -1.419E+00   -1.408E+00   -1.397E+00   -1.387E+00   -1.376E+00   -1.366E+00
    -1.355E+00   -1.345E+00   -1.334E+00   -1.324E+00   -1.313E+00   -1.302E+00   -1.292E+00   -1.281E+00   -1.271E+00   -1.260E+00
    -1.250E+00   -1.239E+00   -1.228E+00   -1.218E+00   -1.207E+00   -1.197E+00   -1.186E+00   -1.176E+00   -1.165E+00   -1.154E+00
    -1.144E+00   -1.133E+00   -1.123E+00   -1.112E+00   -1.102E+00   -1.091E+00   -1.081E+00   -1.070E+00   -1.059E+00   -1.049E+00
    -1.038E+00   -1.028E+00   -1.017E+00   -1.007E+00   -9.961E-01   -9.855E-01   -9.749E-01   -9.644E-01   -9.538E-01   -9.433E-01
    -9.327E-01   -9.221E-01   -9.116E-01   -9.010E-01   -8.905E-01   -8.799E-01   -8.693E-01   -8.588E-01   -8.482E-01   -8.377E-01
    -8.271E-01   -8.165E-01   -8.060E-01   -7.954E-01   -7.849E-01   -7.743E-01   -7.638E-01   -7.532E-01   -7.426E-01   -7.321E-01
    -7.215E-01   -7.110E-01   -7.004E-01   -6.898E-01   -6.793E-01   -6.687E-01   -6.582E-01   -6.476E-01   -6.371E-01   -6.265E-01
    -6.160E-01   -6.054E-01   -5.948E-01   -5.843E-01   -5.737E-01   -5.632E-01   -5.526E-01   -5.421E-01   -5.315E-01   -5.210E-01
    -5.104E-01   -4.998E-01   -4.893E-01   -4.787E-01   -4.682E-01   -4.576E-01   -4.471E-01   -4.365E-01   -4.260E-01   -4.154E-01
    -4.049E-01   -3.943E-01   -3.838E-01   -3.732E-01   -3.627E-01   -3.521E-01   -3.415E-01   -3.310E-01   -3.204E-01   -3.099E-01
    -2.993E-01   -2.888E-01   -2.782E-01   -2.677E-01   -2.571E-01   -2.466E-01   -2.360E-01   -2.255E-01   -2.149E-01   -2.044E-01
    -1.938E-01   -1.833E-01   -1.727E-01   -1.622E-01   -1.516E-01   -1.411E-01   -1.305E-01   -1.200E-01   -1.094E-01   -9.889E-02
    -8.834E-02   -7.779E-02   -6.724E-02   -5.670E-02   -4.615E-02   -3.560E-02   -2.505E-02   -1.451E-02   -3.958E-03    6.589E-03
     1.714E-02    2.768E-02    3.823E-02    4.878E-02    5.932E-02    6.987E-02    8.041E-02    9.096E-02    1.015E-01    1.121E-01
     1.226E-01    1.331E-01    1.437E-01    1.542E-01    1.648E-01    1.753E-01    1.859E-01    1.964E-01    2.070E-01    2.175E-01
     2.280E-01    2.386E-01    2.491E-01    2.597E-01    2.702E-01    2.808E-01    2.913E-01    3.018E-01    3.124E-01    3.229E-01
     3.335E-01    3.440E-01    3.546E-01    3.651E-01    3.756E-01    3.862E-01    3.967E-01    4.073E-01    4.178E-01    4.283E-01
     4.389E-01    4.494E-01    4.600E-01    4.705E-01    4.810E-01    4.916E-01    5.021E-01    5.127E-01    5.232E-01    5.337E-01
     5.443E-01    5.548E-01    5.654E-01    5.759E-01    5.864E-01    5.970E-01    6.075E-01    6.180E-01    6.286E-01    6.391E-01
     6.497E-01    6.602E-01    6.707E-01    6.813E-01    6.918E-01    7.023E-01    7.129E-01    7.234E-01    7.340E-01    7.445E-01
     7.550E-01    7.656E-01    7.761E-01    7.866E-01    7.972E-01    8.077E-01    8.182E-01    8.288E-01    8.393E-01    8.498E-01
     8.604E-01    8.709E-01    8.814E-01    8.920E-01    9.025E-01    9.130E-01    9.236E-01    9.341E-01    9.446E-01    9.552E-01
     9.657E-01    9.762E-01    9.868E-01    9.973E-01    1.008E+00    1.018E+00    1.029E+00    1.039E+00    1.050E+00    1.060E+00
     1.071E+00    1.082E+00    1.092E+00    1.103E+00    1.113E+00    1.124E+00    1.134E+00    1.145E+00    1.155E+00    1.166E+00
     1.176E+00    1.187E+00    1.197E+00    1.208E+00    1.218E+00    1.229E+00    1.239E+00    1.250E+00    1.261E+00    1.271E+00
     1.282E+00    1.292E+00    1.303E+00    1.313E+00    1.324E+00    1.334E+00    1.345E+00    1.355E+00    1.366E+00    1.376E+00
     1.387E+00    1.397E+00    1.408E+00    1.418E+00    1.429E+00    1.439E+00    1.450E+00    1.461E+00    1.471E+00    1.482E+00
     1.492E+00    1.503E+00    1.513E+00    1.524E+00    1.534E+00    1.545E+00    1.555E+00    1.566E+00    1.576E+00    1.587E+00
     1.597E+00    1.608E+00    1.618E+00    1.629E+00    1.639E+00    1.650E+00    1.660E+00    1.671E+00    1.681E+00    1.692E+00
     1.703E+00    1.713E+00    1.724E+00    1.734E+00    1.745E+00    1.755E+00    1.766E+00    1.776E+00    1.787E+00    1.797E+00
     1.808E+00    1.818E+00    1.829E+00    1.839E+00    1.850E+00    1.860E+00    1.871E+00    1.881E+00    1.892E+00    1.902E+00
     1.913E+00    1.923E+00    1.934E+00    1.944E+00    1.955E+00    1.965E+00    1.976E+00    1.986E+00    1.997E+00    2.008E+00
     2.018E+00    2.029E+00    2.039E+00    2.050E+00    2.060E+00    2.071E+00    2.081E+00    2.092E+00    2.102E+00    2.113E+00
     2.123E+00    2.134E+00    2.144E+00    2.155E+00    2.165E+00    2.176E+00    2.186E+00    2.197E+00    2.207E+00    2.218E+00
     2.228E+00    2.239E+00    2.249E+00    2.260E+00    2.270E+00    2.281E+00    2.291E+00    2.302E+00    2.312E+00    2.323E+00
     2.333E+00    2.344E+00    2.354E+00    2.365E+00    2.375E+00    2.386E+00    2.396E+00    2.407E+00    2.417E+00    2.428E+00
     2.438E+00    2.449E+00    2.459E+00    2.470E+00    2.480E+00    2.491E+00    2.501E+00    2.512E+00    2.523E+00    2.533E+00
     2.544E+00    2.554E+00    2.565E+00    2.575E+00    2.586E+00    2.596E+00    2.607E+00    2.617E+00    2.628E+00    2.638E+00
     2.649E+00    2.659E+00    2.670E+00    2.680E+00    2.691E+00    2.701E+00    2.712E+00    2.722E+00    2.733E+00    2.743E+00
     2.754E+00    2.764E+00    2.775E+00    2.785E+00    2.796E+00    2.806E+00    2.817E+00    2.827E+00    2.838E+00    2.848E+00
     2.859E+00    2.869E+00    2.880E+00    2.890E+00    2.901E+00    2.911E+00    2.922E+00    2.932E+00    2.943E+00    2.953E+00
     2.964E+00    2.974E+00    2.985E+00    2.995E+00    3.006E+00    3.016E+00    3.027E+00    3.037E+00    3.047E+00    3.058E+00
     3.068E+00    3.079E+00    3.089E+00    3.100E+00    3.110E+00    3.121E+00    3.131E+00    3.142E+00    3.152E+00    3.163E+00
     3.173E+00    3.184E+00    3.194E+00    3.205E+00    3.215E+00    3.226E+00    3.236E+00    3.247E+00    3.257E+00    3.268E+00
     3.278E+00    3.289E+00    3.299E+00    3.310E+00    3.320E+00    3.331E+00    3.341E+00    3.352E+00    3.362E+00    3.373E+00
     3.383E+00    3.394E+00    3.404E+00    3.415E+00    3.425E+00    3.436E+00    3.446E+00    3.457E+00
 Asp      Conc. = 9.03E-01
