 LCModel (Version 6.3-1L) Copyright: S.W. Provencher.          Ref.: Magn. Reson. Med. 30:672-679 (1993).                
 Slice#1 Row#7 Col#6  PD_05_press_2_raw_act
 36 lines in following concentration table = NCONC+1
    Conc.  %SD /Cr+PCr  Metabolite                                         
    0.000 999%   0.000 Ala                                                 
  258.156 141%   0.138 Asp                                                 
 1.18E+03  26%   0.628 Cr                                                  
  697.234  46%   0.372 PCr                                                 
    0.000 999%   0.000 GABA                                                
  241.096  95%   0.129 Glc                                                 
  212.133 211%   0.113 Gln                                                 
 1.84E+03  28%   0.981 Glu                                                 
  484.382  11%   0.259 GPC                                                 
    0.000 999%   0.000 PCh                                                 
  480.703  35%   0.257 GSH                                                 
 2.15E+03  26%   1.149 Ins                                                 
    0.000 999%   0.000 Lac                                                 
 3.14E+03   8%   1.676 NAA                                                 
  832.301  30%   0.444 NAAG                                                
   44.108 123% 2.4E-02 Scyllo                                              
  380.554  87%   0.203 Tau                                                 
  305.520  78%   0.163 -CrCH2                                              
  484.382  11%   0.259 GPC+PCh                                             
 3.97E+03   6%   2.120 NAA+NAAG                                            
 1.87E+03   8%   1.000 Cr+PCr                                              
 2.05E+03  32%   1.094 Glu+Gln                                             
 3.42E+03  39%   1.825 Lip13a                                              
    0.000 999%   0.000 Lip13b                                              
  309.116 206%   0.165 Lip09                                               
 3.79E+03  19%   2.021 MM09                                                
  280.853 159%   0.150 Lip20                                               
 7.05E+03  14%   3.764 MM20                                                
 1.42E+03  36%   0.759 MM12                                                
 7.83E+03   8%   4.179 MM14                                                
    0.000 999%   0.000 MM17                                                
 3.42E+03  39%   1.825 Lip13a+Lip13b                                       
 1.27E+04   7%   6.763 MM14+Lip13a+Lip13b+MM12                             
 4.10E+03  13%   2.186 MM09+Lip09                                          
 7.33E+03  13%   3.914 MM20+Lip20                                          
   6 lines in following misc. output table
  FWHM = 0.038 ppm    S/N =   7                                            
  Data shift = 0.000 ppm                                                   
  Ph:   3 deg      16.5 deg/ppm                                            
  alphaB,S = 5.6E+00,   1.4E+01                                            
   14 spline knots.   Ns = 5(1)                                            
  ( 4) 2 infls.   ( 3) 1 extrs.                                            
  498 points on ppm-axis = NY
      4.000000     3.992357     3.984714     3.977070     3.969427     3.961784     3.954141     3.946497     3.938854     3.931211
      3.923568     3.915925     3.908281     3.900638     3.892995     3.885352     3.877708     3.870065     3.862422     3.854779
      3.847136     3.839492     3.831849     3.824206     3.816563     3.808919     3.801276     3.793633     3.785990     3.778347
      3.770703     3.763060     3.755417     3.747774     3.740130     3.732487     3.724844     3.717201     3.709558     3.701914
      3.694271     3.686628     3.678985     3.671341     3.663698     3.656055     3.648412     3.640769     3.633125     3.625482
      3.617839     3.610196     3.602552     3.594909     3.587266     3.579623     3.571980     3.564336     3.556693     3.549050
      3.541407     3.533763     3.526120     3.518477     3.510834     3.503191     3.495547     3.487904     3.480261     3.472618
      3.464974     3.457331     3.449688     3.442045     3.434402     3.426758     3.419115     3.411472     3.403829     3.396185
      3.388542     3.380899     3.373256     3.365613     3.357969     3.350326     3.342683     3.335040     3.327396     3.319753
      3.312110     3.304467     3.296824     3.289180     3.281537     3.273894     3.266251     3.258607     3.250964     3.243321
      3.235678     3.228034     3.220391     3.212748     3.205105     3.197462     3.189818     3.182175     3.174532     3.166889
      3.159245     3.151602     3.143959     3.136316     3.128673     3.121029     3.113386     3.105743     3.098100     3.090456
      3.082813     3.075170     3.067527     3.059884     3.052240     3.044597     3.036954     3.029311     3.021667     3.014024
      3.006381     2.998738     2.991095     2.983451     2.975808     2.968165     2.960522     2.952878     2.945235     2.937592
      2.929949     2.922306     2.914662     2.907019     2.899376     2.891733     2.884089     2.876446     2.868803     2.861160
      2.853517     2.845873     2.838230     2.830587     2.822944     2.815300     2.807657     2.800014     2.792371     2.784728
      2.777084     2.769441     2.761798     2.754155     2.746511     2.738868     2.731225     2.723582     2.715939     2.708295
      2.700652     2.693009     2.685366     2.677722     2.670079     2.662436     2.654793     2.647150     2.639506     2.631863
      2.624220     2.616577     2.608933     2.601290     2.593647     2.586004     2.578361     2.570717     2.563074     2.555431
      2.547788     2.540144     2.532501     2.524858     2.517215     2.509572     2.501928     2.494285     2.486642     2.478999
      2.471355     2.463712     2.456069     2.448426     2.440783     2.433139     2.425496     2.417853     2.410210     2.402566
      2.394923     2.387280     2.379637     2.371994     2.364350     2.356707     2.349064     2.341421     2.333777     2.326134
      2.318491     2.310848     2.303205     2.295561     2.287918     2.280275     2.272632     2.264988     2.257345     2.249702
      2.242059     2.234416     2.226772     2.219129     2.211486     2.203843     2.196199     2.188556     2.180913     2.173270
      2.165627     2.157983     2.150340     2.142697     2.135054     2.127410     2.119767     2.112124     2.104481     2.096838
      2.089194     2.081551     2.073908     2.066265     2.058621     2.050978     2.043335     2.035692     2.028049     2.020405
      2.012762     2.005119     1.997476     1.989833     1.982190     1.974546     1.966903     1.959260     1.951617     1.943974
      1.936331     1.928688     1.921045     1.913402     1.905759     1.898115     1.890472     1.882829     1.875186     1.867543
      1.859900     1.852257     1.844614     1.836971     1.829327     1.821684     1.814041     1.806398     1.798755     1.791112
      1.783469     1.775826     1.768183     1.760540     1.752896     1.745253     1.737610     1.729967     1.722324     1.714681
      1.707038     1.699395     1.691752     1.684108     1.676465     1.668822     1.661179     1.653536     1.645893     1.638250
      1.630607     1.622964     1.615321     1.607677     1.600034     1.592391     1.584748     1.577105     1.569462     1.561819
      1.554176     1.546533     1.538890     1.531246     1.523603     1.515960     1.508317     1.500674     1.493031     1.485388
      1.477745     1.470102     1.462458     1.454815     1.447172     1.439529     1.431886     1.424243     1.416600     1.408957
      1.401314     1.393671     1.386027     1.378384     1.370741     1.363098     1.355455     1.347812     1.340169     1.332526
      1.324883     1.317240     1.309596     1.301953     1.294310     1.286667     1.279024     1.271381     1.263738     1.256095
      1.248452     1.240808     1.233165     1.225522     1.217879     1.210236     1.202593     1.194950     1.187307     1.179664
      1.172021     1.164377     1.156734     1.149091     1.141448     1.133805     1.126162     1.118519     1.110876     1.103233
      1.095590     1.087946     1.080303     1.072660     1.065017     1.057374     1.049731     1.042088     1.034445     1.026802
      1.019158     1.011515     1.003872     0.996229     0.988586     0.980943     0.973300     0.965657     0.958014     0.950371
      0.942727     0.935084     0.927441     0.919798     0.912155     0.904512     0.896869     0.889226     0.881583     0.873940
      0.866296     0.858653     0.851010     0.843367     0.835724     0.828081     0.820438     0.812795     0.805152     0.797508
      0.789865     0.782222     0.774579     0.766936     0.759293     0.751650     0.744007     0.736364     0.728721     0.721077
      0.713434     0.705791     0.698148     0.690505     0.682862     0.675219     0.667576     0.659933     0.652290     0.644646
      0.637003     0.629360     0.621717     0.614074     0.606431     0.598788     0.591145     0.583502     0.575858     0.568215
      0.560572     0.552929     0.545286     0.537643     0.530000     0.522357     0.514714     0.507071     0.499427     0.491784
      0.484141     0.476498     0.468855     0.461212     0.453569     0.445925     0.438282     0.430639     0.422996     0.415353
      0.407710     0.400067     0.392424     0.384780     0.377137     0.369494     0.361851     0.354208     0.346565     0.338922
      0.331278     0.323635     0.315992     0.308349     0.300706     0.293063     0.285420     0.277777     0.270133     0.262490
      0.254847     0.247204     0.239561     0.231918     0.224275     0.216631     0.208988     0.201345
 NY phased data points follow
   1.33668E+01 -9.66038E-02  2.61218E+01  2.49968E+01  4.25678E+00  2.03991E+00  3.32078E+01  2.55498E+01  4.39967E+01  3.77500E+01
   4.19900E+01  5.69216E+01  4.56499E+01  4.17533E+01  4.94419E+01  3.63186E+01  2.99863E+01  2.54277E+01  1.04026E+01  2.56302E+01
   2.68777E+01  2.92105E+01  1.60790E+01  1.98598E+01  2.55714E+01  2.04727E+01  2.92568E+01  2.04544E+01  4.09304E+01  4.96204E+00
   2.22383E+01  1.89385E+01  3.18491E+01  1.35136E+01  1.24744E+01  1.18731E+01  2.40779E+01  1.00418E+01  3.04759E+01  2.04473E+01
   5.44438E+00  1.73250E+01  2.95844E+01  1.76560E+01  1.02867E+01  1.77075E+01  3.80397E+01  1.99334E+01  3.88539E+01  3.01133E+01
   2.53047E+01  1.40314E+01  7.28296E+00  1.01231E+01  2.01581E+01  1.66309E+01  2.25308E+01  2.37460E+01  2.18288E+01  2.44222E+01
   1.82390E+01  2.21400E+01  1.23845E+01  2.68992E+00  1.07681E+01 -4.61454E+00 -4.16051E+00  8.73550E+00  1.81935E+01  1.57027E-02
   1.38754E+01  7.13398E+00 -4.68449E+00  1.68521E+01  9.19285E+00  5.09921E+00  5.12121E+00  1.56046E+01  5.51794E+00  6.75110E+00
   7.35235E-01  5.37075E+00  3.52091E+00  7.10059E+00 -1.48001E+01  1.36164E+01  1.12308E+01 -9.09773E+00  6.28933E+00  1.31645E+01
   8.42255E+00 -3.50513E-01  1.01632E+01  2.97309E+00  8.32149E+00 -1.19727E+01 -2.05072E+00  1.04752E+00  1.59810E+01  9.09217E+00
   1.96668E+01  4.99240E+01  5.07975E+01  5.96706E+01  7.11787E+01  4.05168E+01  3.92248E+01  2.22028E+01  1.17213E+01  2.20787E+01
   1.10257E+01  2.43165E+01  1.60888E+01 -7.84291E+00  1.83122E+01  7.11797E+00  7.21245E+00  2.43390E+01  2.86973E+01  1.06308E+01
   1.09445E+01 -4.01639E+00 -5.63610E+00  2.74352E+01  2.60040E+01  3.73803E+01  8.64511E+01  9.02583E+01  8.46676E+01  6.49483E+01
   5.15946E+01  3.70502E+01  3.81318E+01  1.62215E+01  2.91211E+01  1.88017E+01  2.91222E+01  1.54868E+01  9.01960E+00  1.78286E+01
   1.87541E+01 -5.00051E+00 -2.19654E+00  2.84240E+00  1.33087E+01  9.77303E+00 -1.23549E+01  8.16012E+00 -2.55738E+00  2.01582E-01
   7.45960E+00 -3.07385E+00 -7.44479E+00 -5.30603E+00  4.88412E+00  7.04349E+00 -1.62938E+00  7.47892E+00 -2.66318E+00 -1.15550E+01
   2.65402E-01 -2.44852E+00 -1.43294E+01 -2.99393E+01 -1.69540E+01  7.55360E-01 -1.26524E+01 -1.05932E+01 -2.78247E+01 -1.61092E+01
  -1.85386E+01 -1.78465E+01 -1.93238E+01 -2.52626E+01 -2.06204E+01 -2.42202E+01 -3.01590E+01 -3.78984E+01 -2.60024E+01 -5.14657E+01
  -1.10180E+01 -2.98819E+01 -1.45365E+01 -1.10123E+01 -9.66292E+00 -2.39049E+01 -1.20408E+01 -7.83114E+00 -1.84135E+01 -1.75309E+01
   7.95094E+00  2.11314E+00 -1.16664E+01 -1.13279E+01  4.42265E+00 -2.12702E+01  2.87903E+00 -5.37353E+00 -1.38623E+01 -1.23424E+01
  -5.75015E+00 -8.20792E+00  1.00378E+01 -6.52342E+00  2.91812E+00  2.66970E-01 -5.14580E+00 -3.84268E+00 -6.90189E+00 -5.34873E+00
  -1.09371E+01  1.09656E+01  5.11443E+00  1.29228E+01  1.93387E+01  3.02866E+01  7.01838E+00  1.50841E+01  2.54100E+01 -9.15992E+00
  -9.82265E-01 -6.72799E+00 -2.53935E+01 -3.24093E+00 -8.24813E+00  4.85693E+00  5.81731E+00  1.09616E+01  2.46158E+01  1.37763E+01
   1.13928E+01 -2.07883E+00  4.28519E+00  5.00130E+00 -2.11843E+00  7.03875E+00  9.60612E+00  2.08575E+01  1.69568E+01  1.79430E+01
  -3.89137E+00  8.75145E+00  8.50104E+00  2.89450E+00  2.83621E+01  1.73322E+01  1.23542E+01  2.14856E+01  4.05805E+01  4.17494E+01
   2.28059E+01  2.96769E+01  4.31421E+01  4.21305E+01  5.63387E+01  5.40095E+01  7.05639E+01  1.03964E+02  1.31551E+02  1.36936E+02
   1.70933E+02  1.72261E+02  1.33008E+02  7.90482E+01  2.92966E+01  1.29812E+01  1.00726E+01  1.94045E+01  1.25353E+01  6.66059E-01
   1.52070E+01  2.10001E+00 -8.92746E+00 -2.49404E+00 -9.48820E+00 -1.02823E+01 -1.26577E+01 -2.04105E+01 -3.16488E+01 -1.98549E+01
  -2.89990E+01  8.36926E-01 -2.55158E+01 -2.71552E+01 -2.22718E+01 -2.34656E+01 -9.44095E+00 -1.55835E+01 -1.29254E+01 -1.87383E+01
  -8.19320E+00 -1.28452E+01 -1.36672E+00 -1.83876E+01 -6.90751E-01 -2.08571E+00 -7.21779E+00 -1.41163E+01 -8.16074E+00 -1.09735E+01
  -9.15235E+00 -4.07090E+00  4.98653E+00 -1.40289E+01  5.09296E+00  2.22397E+00  1.26129E+00  2.93900E+00 -2.25869E+01 -1.19378E+01
  -1.46707E+01 -2.48931E+01 -1.19828E+01 -2.88151E+01 -8.87544E+00 -1.09262E+01 -6.76744E+00 -2.61192E+01 -2.13011E+01 -3.36640E+01
  -2.47676E+01 -3.18538E+01 -2.78811E+01 -9.45237E+00 -2.27542E+00  2.13642E+01  3.79389E+01  2.99690E+01  2.57040E+01  8.69965E+00
   2.31187E+01  2.68669E+01  4.51874E+01  4.72607E+01  5.00509E+01  4.39571E+01  5.58191E+01  2.15436E+01  5.19904E+01  4.26262E+01
   7.24199E+01  4.50676E+01  6.44534E+01  4.10619E+01  4.64665E+01  5.43589E+01  3.99104E+01  5.38859E+01  4.12847E+01  3.88572E+01
   2.65625E+01  4.92860E+01  2.42079E+01  3.44599E+01  2.75763E+01  1.50440E+01  7.53659E+00  1.36347E+01  1.30706E+01  1.59580E+01
   1.15326E+01  1.93587E+01  1.97229E+01 -4.40470E+00 -3.96480E+00  1.61604E+00  1.88909E+01  2.56749E+01  1.59178E+01  1.06857E+01
   4.10419E+00  1.51611E+01  2.06005E+01  1.50376E+01  4.36258E-01  5.84759E+00 -1.91943E+00 -8.39348E+00 -1.38034E+00  3.23719E+00
   4.03430E+00  1.94992E+00 -3.79918E+00  4.22851E+00 -5.66909E+00 -4.32203E+00  4.39175E+00  1.73604E+00 -1.09265E+01  2.70605E+00
  -2.20631E+00 -3.77783E+00 -6.38543E+00  1.37403E+01  1.34459E+01  1.00872E+01  1.44127E+01  1.64191E+01  1.50105E+01  1.39545E+01
   9.73092E+00  1.67441E+01  1.18854E+01  1.96462E+01  5.73690E+00  7.40381E+00 -2.48366E+00  1.58747E+01  4.28727E+00  8.55926E-01
   3.52639E+00  1.26489E+01  3.29032E+00 -3.99189E-01 -2.38369E-01 -2.91594E+00 -6.52678E+00  2.45211E+00  1.08323E+01 -1.11506E+01
  -1.24191E+01 -6.65879E+00 -2.81819E+00 -5.76781E+00 -2.59382E+00 -1.78829E+01 -9.36773E+00 -1.50937E+01 -1.88911E+01 -9.17954E+00
  -9.83301E+00 -9.04279E+00 -8.40937E+00  2.08610E+00 -3.90365E+00 -2.94037E+00 -2.31148E+00 -2.01371E+01 -7.82163E+00 -8.50298E+00
  -6.17538E+00 -1.80826E+01 -3.41213E+01 -1.15535E+01 -1.10678E+01 -3.01082E+00 -4.81555E+00 -1.56712E+01 -2.00258E+01 -1.12366E+01
  -1.39777E+01 -1.27753E+01 -1.19598E+01 -2.66576E+00 -8.65774E+00 -1.43590E+01 -1.27429E+01 -1.76646E+01 -1.38039E+00 -1.70085E+01
  -2.17987E+01 -1.43740E+01 -5.17336E+00 -2.20137E+01 -7.67706E+00 -1.16097E+01 -5.67753E+00 -2.22390E+01 -7.65325E-01 -3.09285E+00
  -4.96381E+00 -2.03603E+01 -4.13414E+00 -2.63159E+01 -5.49439E+00 -2.13809E+01  1.13775E-02 -2.63255E+01 -1.31642E+01 -1.50329E+01
  -2.05533E+01 -2.33300E+01 -2.21892E+01 -2.69606E+01 -1.67604E+01 -1.98428E+01 -1.52896E+01 -2.27621E+01 -9.05408E+00 -9.39700E+00
  -1.45866E+01 -1.26981E+01 -1.08650E+01 -1.69028E+01 -1.16234E+01 -6.25881E+00 -3.56050E+01 -2.53508E+01
 NY points of the fit to the data follow
   1.51967E+01  1.50493E+01  1.52432E+01  1.59375E+01  1.73220E+01  1.99393E+01  2.37777E+01  2.77617E+01  3.30912E+01  4.11136E+01
   4.81769E+01  5.13120E+01  5.16483E+01  4.85664E+01  4.02803E+01  2.82703E+01  1.89849E+01  1.58487E+01  1.46972E+01  1.31275E+01
   1.27068E+01  1.29118E+01  1.34115E+01  1.37864E+01  1.35517E+01  1.31087E+01  1.42546E+01  1.72751E+01  2.04232E+01  2.38794E+01
   2.78240E+01  2.97477E+01  2.78341E+01  2.33161E+01  1.95786E+01  1.67422E+01  1.31496E+01  1.07168E+01  9.82803E+00  9.67406E+00
   1.00557E+01  1.07222E+01  1.19200E+01  1.43341E+01  1.87721E+01  2.43473E+01  2.86818E+01  3.10523E+01  3.03974E+01  2.52219E+01
   1.69779E+01  1.00344E+01  7.07522E+00  6.74491E+00  6.93780E+00  7.67210E+00  9.44789E+00  1.16756E+01  1.37831E+01  1.55179E+01
   1.63499E+01  1.56526E+01  1.32477E+01  1.01910E+01  8.07735E+00  7.29163E+00  7.72758E+00  8.85147E+00  1.00552E+01  1.13389E+01
   1.21721E+01  1.27124E+01  1.34439E+01  1.39646E+01  1.38588E+01  1.30607E+01  1.20905E+01  1.09024E+01  9.20632E+00  7.78976E+00
   7.29719E+00  7.50193E+00  7.98891E+00  8.48865E+00  8.17331E+00  6.75651E+00  4.80348E+00  2.76277E+00  1.04676E+00  4.39018E-01
   1.42897E+00  3.40023E+00  5.05278E+00  6.02192E+00  6.42638E+00  6.62956E+00  6.98116E+00  7.43758E+00  8.54336E+00  1.33929E+01
   2.55545E+01  4.15846E+01  5.49176E+01  6.43138E+01  6.54559E+01  5.34924E+01  3.34203E+01  1.62531E+01  9.62120E+00  8.02046E+00
   5.43241E+00  4.65608E+00  4.59164E+00  4.78908E+00  4.97566E+00  5.17556E+00  5.38054E+00  5.59752E+00  5.88697E+00  6.31707E+00
   6.99749E+00  8.24426E+00  1.11492E+01  1.84360E+01  3.25450E+01  5.18158E+01  7.07225E+01  8.36499E+01  8.65396E+01  7.61412E+01
   5.50706E+01  3.35108E+01  1.97415E+01  1.34895E+01  9.50682E+00  5.06979E+00  2.27462E+00  1.06175E+00  1.49231E+00  2.85232E+00
   4.08251E+00  4.89875E+00  5.04733E+00  4.45786E+00  3.56843E+00  2.70199E+00  2.01734E+00  1.40232E+00  6.67363E-01  2.00809E-02
  -5.92805E-01 -1.26081E+00 -1.95235E+00 -2.46550E+00 -2.70095E+00 -2.61244E+00 -2.32009E+00 -2.47161E+00 -3.46657E+00 -4.95525E+00
  -6.44410E+00 -7.24036E+00 -6.78434E+00 -5.47338E+00 -4.11215E+00 -3.84782E+00 -5.17057E+00 -7.00477E+00 -8.43052E+00 -8.89542E+00
  -8.72363E+00 -8.79859E+00 -9.25623E+00 -1.03336E+01 -1.15294E+01 -1.22053E+01 -1.21763E+01 -1.14752E+01 -1.04775E+01 -9.85590E+00
  -1.02175E+01 -1.11748E+01 -1.13343E+01 -1.05907E+01 -9.74644E+00 -8.90417E+00 -8.15408E+00 -6.69745E+00 -3.89935E+00 -3.91163E-01
   2.11452E+00  2.67949E+00  1.69865E+00  3.14626E-01 -1.41093E+00 -3.20422E+00 -4.10413E+00 -4.31696E+00 -4.51381E+00 -4.06961E+00
  -2.36988E+00  9.41390E-02  2.09536E+00  3.16369E+00  3.66656E+00  2.77488E+00  1.36897E-01 -3.56174E+00 -6.79608E+00 -9.20720E+00
  -1.08227E+01 -1.02696E+01 -7.09114E+00 -1.71239E+00  3.93605E+00  8.26244E+00  1.05703E+01  8.65279E+00  2.29067E+00 -5.80816E+00
  -1.24437E+01 -1.54680E+01 -1.59362E+01 -1.35033E+01 -7.63935E+00 -2.92823E-01  5.50401E+00  7.96464E+00  7.89560E+00  7.09548E+00
   6.07430E+00  5.01055E+00  4.93683E+00  6.29796E+00  8.99177E+00  1.18447E+01  1.34826E+01  1.38146E+01  1.31022E+01  1.13467E+01
   9.24330E+00  8.24572E+00  9.29437E+00  1.20141E+01  1.57725E+01  1.99200E+01  2.32662E+01  2.46345E+01  2.42001E+01  2.33819E+01
   2.29338E+01  2.40862E+01  2.96838E+01  4.01265E+01  5.06381E+01  6.02008E+01  7.57751E+01  1.02440E+02  1.29569E+02  1.48848E+02
   1.64740E+02  1.64772E+02  1.33063E+02  8.32054E+01  4.31031E+01  2.83645E+01  2.16801E+01  1.31716E+01  9.47486E+00  7.38431E+00
   5.75688E+00  4.59607E+00  3.89116E+00  3.23376E+00  2.51651E+00  1.62883E+00  4.71051E-01 -9.03207E-01 -2.16697E+00 -3.08985E+00
  -3.74824E+00 -4.31957E+00 -4.81316E+00 -5.17631E+00 -5.53568E+00 -6.02826E+00 -6.63104E+00 -7.23143E+00 -7.74682E+00 -8.15682E+00
  -8.46830E+00 -8.65517E+00 -8.74696E+00 -8.81923E+00 -8.95642E+00 -9.20865E+00 -9.52050E+00 -9.81071E+00 -1.00929E+01 -1.03460E+01
  -1.05276E+01 -1.06325E+01 -1.06949E+01 -1.07667E+01 -1.08622E+01 -1.09499E+01 -1.10358E+01 -1.11131E+01 -1.11656E+01 -1.11859E+01
  -1.11650E+01 -1.10923E+01 -1.09551E+01 -1.07378E+01 -1.04210E+01 -9.98209E+00 -9.39482E+00 -8.63263E+00 -7.66870E+00 -6.47603E+00
  -5.02649E+00 -3.29574E+00 -1.26384E+00  1.08185E+00  3.74661E+00  6.72552E+00  1.00027E+01  1.35483E+01  1.73190E+01  2.12575E+01
   2.52949E+01  2.93519E+01  3.33416E+01  3.71713E+01  4.07479E+01  4.39817E+01  4.67919E+01  4.91094E+01  5.08810E+01  5.20706E+01
   5.26629E+01  5.26627E+01  5.20961E+01  5.10064E+01  4.94530E+01  4.75060E+01  4.52441E+01  4.27495E+01  4.01043E+01  3.73856E+01
   3.46631E+01  3.19955E+01  2.94306E+01  2.70036E+01  2.47383E+01  2.26459E+01  2.07280E+01  1.89771E+01  1.73807E+01  1.59216E+01
   1.45809E+01  1.33381E+01  1.21743E+01  1.10721E+01  1.00178E+01  9.00063E+00  8.01359E+00  7.05204E+00  6.11510E+00  5.20421E+00
   4.32398E+00  3.48008E+00  2.67981E+00  1.93054E+00  1.24086E+00  6.19249E-01  7.48771E-02 -3.84176E-01 -7.49895E-01 -1.01555E+00
  -1.17422E+00 -1.22024E+00 -1.14833E+00 -9.55332E-01 -6.39163E-01 -2.00075E-01  3.60492E-01  1.03816E+00  1.82631E+00  2.71437E+00
   3.68909E+00  4.73347E+00  5.82818E+00  6.95028E+00  8.07475E+00  9.17383E+00  1.02194E+01  1.11829E+01  1.20374E+01  1.27574E+01
   1.33210E+01  1.37096E+01  1.39103E+01  1.39151E+01  1.37226E+01  1.33362E+01  1.27653E+01  1.20234E+01  1.11291E+01  1.01035E+01
   8.97064E+00  7.75471E+00  6.48047E+00  5.17131E+00  3.84983E+00  2.53585E+00  1.24699E+00 -2.85920E-03 -1.20220E+00 -2.34289E+00
  -3.41869E+00 -4.42647E+00 -5.36470E+00 -6.23442E+00 -7.03729E+00 -7.77650E+00 -8.45519E+00 -9.07774E+00 -9.64830E+00 -1.01718E+01
  -1.06522E+01 -1.10937E+01 -1.15000E+01 -1.18747E+01 -1.22211E+01 -1.25426E+01 -1.28415E+01 -1.31203E+01 -1.33808E+01 -1.36251E+01
  -1.38548E+01 -1.40717E+01 -1.42768E+01 -1.44712E+01 -1.46556E+01 -1.48315E+01 -1.49994E+01 -1.51604E+01 -1.53145E+01 -1.54625E+01
  -1.56047E+01 -1.57420E+01 -1.58746E+01 -1.60030E+01 -1.61271E+01 -1.62474E+01 -1.63641E+01 -1.64778E+01 -1.65885E+01 -1.66965E+01
  -1.68015E+01 -1.69041E+01 -1.70044E+01 -1.71027E+01 -1.71990E+01 -1.72934E+01 -1.73856E+01 -1.74764E+01 -1.75654E+01 -1.76533E+01
  -1.77396E+01 -1.78246E+01 -1.79080E+01 -1.79904E+01 -1.80716E+01 -1.81520E+01 -1.82311E+01 -1.83093E+01 -1.83864E+01 -1.84628E+01
  -1.85384E+01 -1.86134E+01 -1.86874E+01 -1.87608E+01 -1.88333E+01 -1.89056E+01 -1.89772E+01 -1.90483E+01 -1.91187E+01 -1.91886E+01
  -1.92581E+01 -1.93275E+01 -1.93964E+01 -1.94650E+01 -1.95331E+01 -1.96010E+01 -1.96688E+01 -1.97367E+01
 NY background values follow
     7.951E+00    7.876E+00    7.800E+00    7.725E+00    7.650E+00    7.575E+00    7.500E+00    7.424E+00    7.349E+00    7.274E+00
     7.198E+00    7.123E+00    7.047E+00    6.972E+00    6.897E+00    6.821E+00    6.746E+00    6.670E+00    6.595E+00    6.519E+00
     6.444E+00    6.368E+00    6.293E+00    6.217E+00    6.141E+00    6.066E+00    5.990E+00    5.914E+00    5.839E+00    5.763E+00
     5.687E+00    5.612E+00    5.536E+00    5.460E+00    5.385E+00    5.309E+00    5.233E+00    5.157E+00    5.081E+00    5.006E+00
     4.930E+00    4.854E+00    4.778E+00    4.702E+00    4.627E+00    4.551E+00    4.475E+00    4.399E+00    4.323E+00    4.247E+00
     4.171E+00    4.095E+00    4.020E+00    3.944E+00    3.868E+00    3.792E+00    3.716E+00    3.640E+00    3.564E+00    3.488E+00
     3.412E+00    3.336E+00    3.260E+00    3.185E+00    3.109E+00    3.033E+00    2.957E+00    2.881E+00    2.805E+00    2.729E+00
     2.653E+00    2.578E+00    2.502E+00    2.426E+00    2.350E+00    2.274E+00    2.199E+00    2.123E+00    2.047E+00    1.971E+00
     1.896E+00    1.820E+00    1.744E+00    1.669E+00    1.593E+00    1.517E+00    1.442E+00    1.366E+00    1.290E+00    1.215E+00
     1.139E+00    1.064E+00    9.884E-01    9.129E-01    8.375E-01    7.621E-01    6.867E-01    6.114E-01    5.361E-01    4.608E-01
     3.855E-01    3.103E-01    2.351E-01    1.599E-01    8.481E-02    9.714E-03   -6.535E-02   -1.404E-01   -2.154E-01   -2.903E-01
    -3.653E-01   -4.402E-01   -5.150E-01   -5.898E-01   -6.646E-01   -7.393E-01   -8.140E-01   -8.887E-01   -9.633E-01   -1.038E+00
    -1.112E+00   -1.187E+00   -1.261E+00   -1.336E+00   -1.410E+00   -1.484E+00   -1.559E+00   -1.633E+00   -1.707E+00   -1.781E+00
    -1.855E+00   -1.929E+00   -2.003E+00   -2.077E+00   -2.151E+00   -2.225E+00   -2.298E+00   -2.372E+00   -2.446E+00   -2.519E+00
    -2.593E+00   -2.666E+00   -2.740E+00   -2.813E+00   -2.886E+00   -2.960E+00   -3.033E+00   -3.106E+00   -3.179E+00   -3.252E+00
    -3.325E+00   -3.398E+00   -3.470E+00   -3.543E+00   -3.616E+00   -3.688E+00   -3.761E+00   -3.833E+00   -3.905E+00   -3.977E+00
    -4.050E+00   -4.122E+00   -4.194E+00   -4.265E+00   -4.337E+00   -4.409E+00   -4.481E+00   -4.552E+00   -4.623E+00   -4.695E+00
    -4.766E+00   -4.837E+00   -4.908E+00   -4.979E+00   -5.050E+00   -5.121E+00   -5.191E+00   -5.262E+00   -5.332E+00   -5.403E+00
    -5.473E+00   -5.543E+00   -5.613E+00   -5.683E+00   -5.753E+00   -5.823E+00   -5.892E+00   -5.962E+00   -6.031E+00   -6.100E+00
    -6.169E+00   -6.239E+00   -6.307E+00   -6.376E+00   -6.445E+00   -6.514E+00   -6.582E+00   -6.651E+00   -6.719E+00   -6.787E+00
    -6.855E+00   -6.923E+00   -6.991E+00   -7.059E+00   -7.126E+00   -7.194E+00   -7.261E+00   -7.329E+00   -7.396E+00   -7.463E+00
    -7.530E+00   -7.597E+00   -7.664E+00   -7.730E+00   -7.797E+00   -7.863E+00   -7.930E+00   -7.996E+00   -8.062E+00   -8.128E+00
    -8.194E+00   -8.260E+00   -8.326E+00   -8.391E+00   -8.457E+00   -8.522E+00   -8.587E+00   -8.652E+00   -8.717E+00   -8.782E+00
    -8.847E+00   -8.912E+00   -8.977E+00   -9.041E+00   -9.105E+00   -9.170E+00   -9.234E+00   -9.298E+00   -9.362E+00   -9.426E+00
    -9.489E+00   -9.553E+00   -9.616E+00   -9.680E+00   -9.743E+00   -9.806E+00   -9.869E+00   -9.932E+00   -9.995E+00   -1.006E+01
    -1.012E+01   -1.018E+01   -1.024E+01   -1.031E+01   -1.037E+01   -1.043E+01   -1.049E+01   -1.055E+01   -1.062E+01   -1.068E+01
    -1.074E+01   -1.080E+01   -1.086E+01   -1.092E+01   -1.098E+01   -1.104E+01   -1.110E+01   -1.116E+01   -1.122E+01   -1.128E+01
    -1.134E+01   -1.140E+01   -1.146E+01   -1.152E+01   -1.158E+01   -1.164E+01   -1.170E+01   -1.176E+01   -1.182E+01   -1.188E+01
    -1.194E+01   -1.199E+01   -1.205E+01   -1.211E+01   -1.217E+01   -1.223E+01   -1.229E+01   -1.234E+01   -1.240E+01   -1.246E+01
    -1.252E+01   -1.257E+01   -1.263E+01   -1.269E+01   -1.274E+01   -1.280E+01   -1.286E+01   -1.291E+01   -1.297E+01   -1.303E+01
    -1.308E+01   -1.314E+01   -1.319E+01   -1.325E+01   -1.331E+01   -1.336E+01   -1.342E+01   -1.347E+01   -1.353E+01   -1.358E+01
    -1.364E+01   -1.369E+01   -1.375E+01   -1.380E+01   -1.385E+01   -1.391E+01   -1.396E+01   -1.402E+01   -1.407E+01   -1.412E+01
    -1.418E+01   -1.423E+01   -1.429E+01   -1.434E+01   -1.439E+01   -1.444E+01   -1.450E+01   -1.455E+01   -1.460E+01   -1.466E+01
    -1.471E+01   -1.476E+01   -1.481E+01   -1.487E+01   -1.492E+01   -1.497E+01   -1.502E+01   -1.507E+01   -1.512E+01   -1.518E+01
    -1.523E+01   -1.528E+01   -1.533E+01   -1.538E+01   -1.543E+01   -1.548E+01   -1.553E+01   -1.558E+01   -1.564E+01   -1.569E+01
    -1.574E+01   -1.579E+01   -1.584E+01   -1.589E+01   -1.594E+01   -1.599E+01   -1.604E+01   -1.609E+01   -1.614E+01   -1.619E+01
    -1.624E+01   -1.629E+01   -1.633E+01   -1.638E+01   -1.643E+01   -1.648E+01   -1.653E+01   -1.658E+01   -1.663E+01   -1.668E+01
    -1.673E+01   -1.677E+01   -1.682E+01   -1.687E+01   -1.692E+01   -1.697E+01   -1.702E+01   -1.706E+01   -1.711E+01   -1.716E+01
    -1.721E+01   -1.726E+01   -1.730E+01   -1.735E+01   -1.740E+01   -1.745E+01   -1.749E+01   -1.754E+01   -1.759E+01   -1.764E+01
    -1.768E+01   -1.773E+01   -1.778E+01   -1.782E+01   -1.787E+01   -1.792E+01   -1.796E+01   -1.801E+01   -1.806E+01   -1.810E+01
    -1.815E+01   -1.820E+01   -1.824E+01   -1.829E+01   -1.833E+01   -1.838E+01   -1.843E+01   -1.847E+01   -1.852E+01   -1.856E+01
    -1.861E+01   -1.866E+01   -1.870E+01   -1.875E+01   -1.879E+01   -1.884E+01   -1.888E+01   -1.893E+01   -1.897E+01   -1.902E+01
    -1.906E+01   -1.911E+01   -1.915E+01   -1.920E+01   -1.924E+01   -1.929E+01   -1.933E+01   -1.938E+01   -1.942E+01   -1.947E+01
    -1.951E+01   -1.956E+01   -1.960E+01   -1.965E+01   -1.969E+01   -1.974E+01   -1.978E+01   -1.983E+01   -1.987E+01   -1.991E+01
    -1.996E+01   -2.000E+01   -2.005E+01   -2.009E+01   -2.013E+01   -2.018E+01   -2.022E+01   -2.027E+01   -2.031E+01   -2.035E+01
    -2.040E+01   -2.044E+01   -2.049E+01   -2.053E+01   -2.057E+01   -2.062E+01   -2.066E+01   -2.070E+01   -2.075E+01   -2.079E+01
    -2.084E+01   -2.088E+01   -2.092E+01   -2.097E+01   -2.101E+01   -2.105E+01   -2.110E+01   -2.114E+01   -2.118E+01   -2.123E+01
    -2.127E+01   -2.131E+01   -2.136E+01   -2.140E+01   -2.144E+01   -2.149E+01   -2.153E+01   -2.157E+01   -2.162E+01   -2.166E+01
    -2.170E+01   -2.174E+01   -2.179E+01   -2.183E+01   -2.187E+01   -2.192E+01   -2.196E+01   -2.200E+01   -2.204E+01   -2.209E+01
    -2.213E+01   -2.217E+01   -2.222E+01   -2.226E+01   -2.230E+01   -2.234E+01   -2.239E+01   -2.243E+01
 Asp      Conc. = 2.58E+02
