 LCModel (Version 6.3-1L) Copyright: S.W. Provencher.          Ref.: Magn. Reson. Med. 30:672-679 (1993).                
 Slice#3 Row#2 Col#12  PD_05_press_2_raw_act
 36 lines in following concentration table = NCONC+1
    Conc.  %SD /Cr+PCr  Metabolite                                         
    0.000 999%   0.000 Ala                                                 
   12.537  69% 9.2E-02 Asp                                                 
  136.075  41%   1.000 Cr                                                  
    0.000 999%   0.000 PCr                                                 
    7.458  69% 5.5E-02 GABA                                                
    7.513  69% 5.5E-02 Glc                                                 
   20.313 999%   0.149 Gln                                                 
    0.000 999%   0.000 Glu                                                 
   37.746  58%   0.277 GPC                                                 
    0.000 999%   0.000 PCh                                                 
   95.063  89%   0.699 GSH                                                 
  787.073  33%   5.784 Ins                                                 
  241.928  59%   1.778 Lac                                                 
    0.000 999%   0.000 NAA                                                 
    0.000 999%   0.000 NAAG                                                
    2.526  68% 1.9E-02 Scyllo                                              
   12.600  68% 9.3E-02 Tau                                                 
   13.252  51% 9.7E-02 -CrCH2                                              
   37.746  58%   0.277 GPC+PCh                                             
    0.000 999%   0.000 NAA+NAAG                                            
  136.075  41%   1.000 Cr+PCr                                              
   20.313 999%   0.149 Glu+Gln                                             
 2.58E+03  21%  18.992 Lip13a                                              
    0.000 999%   0.000 Lip13b                                              
  690.039  21%   5.071 Lip09                                               
  646.697  30%   4.752 MM09                                                
  387.659  21%   2.849 Lip20                                               
  969.970  30%   7.128 MM20                                                
  194.007  30%   1.426 MM12                                                
  485.251  30%   3.566 MM14                                                
  242.504  30%   1.782 MM17                                                
 2.58E+03  21%  18.992 Lip13a+Lip13b                                       
 3.26E+03  14%  23.984 MM14+Lip13a+Lip13b+MM12                             
 1.34E+03  11%   9.823 MM09+Lip09                                          
 1.36E+03  18%   9.977 MM20+Lip20                                          
   6 lines in following misc. output table
  FWHM = 0.061 ppm    S/N =   1                                            
  Data shift = 0.076 ppm                                                   
  Ph: -13 deg     -10.5 deg/ppm                                            
  alphaB,S = 8.5E+01,   5.1E+01                                            
   14 spline knots.   Ns = 5(1)                                            
   2 inflections.     1 extrema                                            
  498 points on ppm-axis = NY
      4.000000     3.992357     3.984714     3.977070     3.969427     3.961784     3.954141     3.946497     3.938854     3.931211
      3.923568     3.915925     3.908281     3.900638     3.892995     3.885352     3.877708     3.870065     3.862422     3.854779
      3.847136     3.839492     3.831849     3.824206     3.816563     3.808919     3.801276     3.793633     3.785990     3.778347
      3.770703     3.763060     3.755417     3.747774     3.740130     3.732487     3.724844     3.717201     3.709558     3.701914
      3.694271     3.686628     3.678985     3.671341     3.663698     3.656055     3.648412     3.640769     3.633125     3.625482
      3.617839     3.610196     3.602552     3.594909     3.587266     3.579623     3.571980     3.564336     3.556693     3.549050
      3.541407     3.533763     3.526120     3.518477     3.510834     3.503191     3.495547     3.487904     3.480261     3.472618
      3.464974     3.457331     3.449688     3.442045     3.434402     3.426758     3.419115     3.411472     3.403829     3.396185
      3.388542     3.380899     3.373256     3.365613     3.357969     3.350326     3.342683     3.335040     3.327396     3.319753
      3.312110     3.304467     3.296824     3.289180     3.281537     3.273894     3.266251     3.258607     3.250964     3.243321
      3.235678     3.228034     3.220391     3.212748     3.205105     3.197462     3.189818     3.182175     3.174532     3.166889
      3.159245     3.151602     3.143959     3.136316     3.128673     3.121029     3.113386     3.105743     3.098100     3.090456
      3.082813     3.075170     3.067527     3.059884     3.052240     3.044597     3.036954     3.029311     3.021667     3.014024
      3.006381     2.998738     2.991095     2.983451     2.975808     2.968165     2.960522     2.952878     2.945235     2.937592
      2.929949     2.922306     2.914662     2.907019     2.899376     2.891733     2.884089     2.876446     2.868803     2.861160
      2.853517     2.845873     2.838230     2.830587     2.822944     2.815300     2.807657     2.800014     2.792371     2.784728
      2.777084     2.769441     2.761798     2.754155     2.746511     2.738868     2.731225     2.723582     2.715939     2.708295
      2.700652     2.693009     2.685366     2.677722     2.670079     2.662436     2.654793     2.647150     2.639506     2.631863
      2.624220     2.616577     2.608933     2.601290     2.593647     2.586004     2.578361     2.570717     2.563074     2.555431
      2.547788     2.540144     2.532501     2.524858     2.517215     2.509572     2.501928     2.494285     2.486642     2.478999
      2.471355     2.463712     2.456069     2.448426     2.440783     2.433139     2.425496     2.417853     2.410210     2.402566
      2.394923     2.387280     2.379637     2.371994     2.364350     2.356707     2.349064     2.341421     2.333777     2.326134
      2.318491     2.310848     2.303205     2.295561     2.287918     2.280275     2.272632     2.264988     2.257345     2.249702
      2.242059     2.234416     2.226772     2.219129     2.211486     2.203843     2.196199     2.188556     2.180913     2.173270
      2.165627     2.157983     2.150340     2.142697     2.135054     2.127410     2.119767     2.112124     2.104481     2.096838
      2.089194     2.081551     2.073908     2.066265     2.058621     2.050978     2.043335     2.035692     2.028049     2.020405
      2.012762     2.005119     1.997476     1.989833     1.982190     1.974546     1.966903     1.959260     1.951617     1.943974
      1.936331     1.928688     1.921045     1.913402     1.905759     1.898115     1.890472     1.882829     1.875186     1.867543
      1.859900     1.852257     1.844614     1.836971     1.829327     1.821684     1.814041     1.806398     1.798755     1.791112
      1.783469     1.775826     1.768183     1.760540     1.752896     1.745253     1.737610     1.729967     1.722324     1.714681
      1.707038     1.699395     1.691752     1.684108     1.676465     1.668822     1.661179     1.653536     1.645893     1.638250
      1.630607     1.622964     1.615321     1.607677     1.600034     1.592391     1.584748     1.577105     1.569462     1.561819
      1.554176     1.546533     1.538890     1.531246     1.523603     1.515960     1.508317     1.500674     1.493031     1.485388
      1.477745     1.470102     1.462458     1.454815     1.447172     1.439529     1.431886     1.424243     1.416600     1.408957
      1.401314     1.393671     1.386027     1.378384     1.370741     1.363098     1.355455     1.347812     1.340169     1.332526
      1.324883     1.317240     1.309596     1.301953     1.294310     1.286667     1.279024     1.271381     1.263738     1.256095
      1.248452     1.240808     1.233165     1.225522     1.217879     1.210236     1.202593     1.194950     1.187307     1.179664
      1.172021     1.164377     1.156734     1.149091     1.141448     1.133805     1.126162     1.118519     1.110876     1.103233
      1.095590     1.087946     1.080303     1.072660     1.065017     1.057374     1.049731     1.042088     1.034445     1.026802
      1.019158     1.011515     1.003872     0.996229     0.988586     0.980943     0.973300     0.965657     0.958014     0.950371
      0.942727     0.935084     0.927441     0.919798     0.912155     0.904512     0.896869     0.889226     0.881583     0.873940
      0.866296     0.858653     0.851010     0.843367     0.835724     0.828081     0.820438     0.812795     0.805152     0.797508
      0.789865     0.782222     0.774579     0.766936     0.759293     0.751650     0.744007     0.736364     0.728721     0.721077
      0.713434     0.705791     0.698148     0.690505     0.682862     0.675219     0.667576     0.659933     0.652290     0.644646
      0.637003     0.629360     0.621717     0.614074     0.606431     0.598788     0.591145     0.583502     0.575858     0.568215
      0.560572     0.552929     0.545286     0.537643     0.530000     0.522357     0.514714     0.507071     0.499427     0.491784
      0.484141     0.476498     0.468855     0.461212     0.453569     0.445925     0.438282     0.430639     0.422996     0.415353
      0.407710     0.400067     0.392424     0.384780     0.377137     0.369494     0.361851     0.354208     0.346565     0.338922
      0.331278     0.323635     0.315992     0.308349     0.300706     0.293063     0.285420     0.277777     0.270133     0.262490
      0.254847     0.247204     0.239561     0.231918     0.224275     0.216631     0.208988     0.201345
 NY phased data points follow
   1.29897E+01  1.87450E+01  8.29396E+00  6.43683E+00  8.81263E+00  1.53503E+01  1.55410E+01  1.23994E+01  7.79018E+00  1.21341E+01
   1.49997E+01  1.33911E+01  1.48640E+01  1.88796E+01  1.62920E+01  1.09858E+01  1.54224E+01  7.70348E+00  9.53649E+00  1.45119E+01
   9.31117E+00  5.36013E+00  1.14372E+01  8.36464E+00  1.28523E+01  2.54652E+00  6.16883E+00  1.28854E+01  7.84899E+00  2.02652E+01
   8.86136E+00  1.15969E+01  6.25750E+00  9.85358E+00  1.13428E+01  9.57143E+00  5.43548E+00  1.51227E+01  1.29068E+01  1.07427E+01
   8.64720E+00  9.38453E+00  9.44225E+00  7.53306E+00  9.15847E+00  5.57179E+00  1.24311E+01  7.16946E+00  7.93461E+00  1.57728E+01
   1.22649E+01  1.08943E+01  1.18584E+01  1.66433E+01  6.69656E+00  7.49294E+00  5.47683E+00  1.19780E+01  9.07057E+00  1.03193E+01
   8.94160E+00  3.80146E+00  1.44961E+01  2.68969E+00  8.08231E+00  1.16854E+01  1.03799E+01  7.92607E+00  1.56476E+01  9.52310E+00
   5.91326E+00  4.66960E+00  1.29258E+01  3.41243E+00  1.04369E+01 -1.76975E-01  8.29996E+00  8.37173E+00  1.12294E+01  6.29219E+00
   1.23975E+01  1.48401E+01  4.57136E+00  5.25637E+00  1.25435E+01  7.62184E+00 -2.34158E+00  1.13156E+01  2.17367E+00  7.51798E+00
   1.26861E+01  1.09252E+01 -1.21706E+00  4.81077E+00  1.39254E+01  8.11486E+00  1.40287E+01  9.99885E+00  5.62051E+00  1.15662E+01
   9.55353E+00  7.19695E+00  9.45577E+00  5.60141E+00  1.01453E+01  6.10978E+00  5.40813E+00  6.83401E+00  8.24270E+00  1.11848E+01
   1.33856E+01  2.14786E+00  9.91084E+00  1.25442E+01  6.84160E+00  6.07647E+00  7.69712E+00  1.13083E+01  6.65638E+00  9.80539E+00
   4.34611E+00  1.13908E+01  2.28060E+00  8.91087E+00  4.43874E+00  9.35626E+00  6.82188E+00  1.15449E+01  1.25971E+01  9.93443E+00
   5.00518E+00  6.07590E+00 -8.50633E-01  8.22769E+00  9.65456E+00  5.61253E+00  7.72688E+00  2.38783E+00  4.32981E+00  8.51371E+00
   3.18869E+00  3.89597E+00  1.20209E+00  3.40122E+00  6.39857E+00  6.73263E+00  1.06876E+01  1.16671E+01  4.69504E+00  8.22798E+00
   3.37968E-01  7.12109E+00  9.34215E+00  1.06137E+01  1.21854E+01  4.65839E+00  1.02021E+00  1.20695E+01 -2.02320E+00  5.36553E+00
   3.04681E+00  1.16867E+01  1.29980E+01  4.39379E+00  4.38952E-01  5.44426E+00 -1.13406E+00 -6.51368E-01  3.56094E+00  1.51250E+01
  -1.61245E+00  5.94316E+00  4.68369E+00  1.12188E+01  4.78651E+00  4.43462E+00  1.00458E+01  7.99121E+00  1.16521E+01  5.09711E+00
   5.93647E+00  3.47527E+00  1.19606E+01  6.31147E+00  7.06698E+00  1.24742E+01  8.90967E+00  1.16750E+01  8.06832E+00  4.42546E+00
   1.16319E+01  1.12263E+01  1.67807E+00  1.49290E+01  2.17654E+00  8.74315E+00  2.53308E+00  7.51378E+00  1.24460E+01 -1.95061E+00
   1.32272E+01  6.97090E+00  5.36327E+00  6.30507E+00  2.21990E+00  3.80641E+00  3.84964E+00 -1.66863E+00  1.66467E+00  6.17907E+00
   5.14117E+00  5.33735E+00  5.93175E+00 -1.38725E+00  2.85140E+00  3.22078E+00  1.60887E+00  6.02267E+00  1.64246E+00  1.45452E+00
   6.99867E+00  5.83541E+00  1.49161E+01  2.83235E+00  8.75801E+00  1.09895E+01  4.82892E+00  5.20819E+00  2.01929E+00  5.95584E+00
   8.42178E+00  5.79956E+00  6.06346E+00  1.22906E+00  9.83201E+00  6.65888E+00  9.33022E+00  9.40034E+00  8.60223E+00  2.30765E+00
   1.71039E+00  3.02701E+00  6.87730E+00  4.97151E+00 -7.79070E-01  9.01453E+00  1.17501E+01  4.38828E+00  9.23169E+00  7.01403E+00
   9.64155E+00 -1.05232E+00  1.04141E+01  9.40025E+00  1.07962E+01  6.99726E+00  7.85122E+00 -5.16346E+00  9.34243E-01  9.62508E+00
  -2.48057E+00  5.61591E+00  9.50613E+00 -4.20156E+00  8.86630E+00  6.68844E+00  8.32804E+00  1.01046E+01  7.41617E+00  1.08897E+01
   8.99878E+00  1.12111E+01  1.75497E+00  8.74239E+00  1.09279E+01  7.67996E+00  2.18978E+00  7.64532E+00  2.02777E+00  1.06192E+01
   4.09709E+00  6.46077E+00  5.50337E+00  5.12694E+00  3.67795E+00  2.51615E+00  7.63175E+00  3.49303E+00  3.38752E+00  6.57147E+00
   9.18328E+00  6.57506E+00  6.93480E+00  8.11487E+00  2.76100E+00  4.06917E+00  4.57354E+00  1.01755E+01  7.93660E+00  4.00996E+00
   1.18654E+01 -2.86537E-01  5.08752E+00  9.19464E-01  7.92573E+00  5.96349E+00  8.83036E+00  1.04930E+00  5.02014E+00  2.24366E+00
   1.04415E+01  7.42256E+00  7.15009E+00  2.93198E+00  8.02027E+00  4.26923E+00  2.45940E+00  1.36008E+00 -6.23868E-01  5.18097E+00
   8.35025E+00  8.82954E+00  1.15909E+01  6.38776E+00  8.17584E+00  5.43146E+00  1.33722E+01  1.52776E+01  1.46751E+01  1.54541E+01
   2.15469E+01  1.51057E+01  1.30946E+01  1.43473E+01  2.02008E+01  2.08581E+01  2.39714E+01  1.93063E+01  1.35625E+01  2.12041E+01
   1.56044E+01  1.72711E+01  1.91564E+01  2.15281E+01  2.05637E+01  1.05738E+01  2.08039E+01  9.28091E+00  1.25156E+01  1.83969E+01
   9.36616E+00  9.40396E+00  8.88690E+00  1.20512E+01  6.52091E+00  3.36332E+00  5.61350E+00  1.11331E+01  1.12859E+01  7.53665E+00
   8.56881E+00  6.83768E+00  1.16287E+01  1.06611E+00  9.73420E+00  9.16140E+00  3.24167E+00  1.14427E+01  8.76783E+00  8.19207E+00
   5.99157E+00  1.13070E+01  8.74262E+00  1.11891E+01  9.21943E+00  1.11629E+01  4.38110E+00  1.46678E+01  1.40008E+01  9.38781E+00
   3.89184E+00  1.71494E+01  9.70595E+00  1.12314E+01  5.94645E+00  9.58120E+00  7.28832E+00  7.49278E+00  8.09873E+00  1.60702E+01
   5.03442E+00  1.16975E+01  2.00168E+01  7.11243E+00  1.00452E+01  1.83656E+01  1.22623E+01  3.64106E+00  1.65617E+01  1.35578E+01
   1.58176E+01  1.02640E+01  1.25838E+01  9.01829E+00  8.76020E+00  9.62039E+00  8.80535E+00  6.42197E+00  6.77644E+00  6.00861E-01
   1.93590E-01  1.31324E+01  8.69264E+00  3.48593E+00  2.67105E+00  6.29018E+00  1.72844E+01  1.30959E+01  5.74090E+00  8.32232E+00
   1.01398E+01  1.00858E+01  8.14859E+00  1.07854E+01  7.19861E+00  5.60580E+00  1.09818E+01  9.85710E+00  7.26062E+00  7.50576E+00
   8.73906E+00  4.28304E+00  8.40556E+00  8.71443E+00  4.52530E+00  1.81186E+00  1.32751E+00  4.91177E+00  4.51904E+00  1.20249E+01
   7.06241E+00  3.94049E+00  8.64870E+00  5.07804E+00  3.42368E+00  1.16337E+01  7.50227E+00  3.45715E+00  1.00941E+01 -1.89897E+00
   7.12016E+00 -4.08571E+00  6.41619E+00  4.09187E+00 -2.95386E+00  1.43562E+00  1.09814E+01 -2.50689E+00  5.27781E+00  6.29609E+00
   1.58297E+00 -3.63260E-01  1.37772E+01 -6.49306E+00  9.52355E+00  4.30631E+00  4.76160E+00  6.74240E-01  1.24829E+01 -6.10113E+00
  -1.04912E+00 -2.41628E+00 -2.38689E+00  1.65625E+00  2.08671E+00  6.49806E-01 -9.75743E-01  2.20309E+00  2.06984E+00 -4.62092E+00
   4.71359E+00  2.04251E+00  2.94882E+00  1.78630E-01 -2.55580E+00 -1.30969E+00 -4.31546E+00  6.44630E+00  1.75592E+00  1.67027E+00
   2.14602E+00  1.41451E+00  4.57645E-01  1.92445E+00 -1.51965E-01  1.98172E-01 -1.85985E+00  4.82505E+00
 NY points of the fit to the data follow
   9.53553E+00  9.02635E+00  8.62493E+00  8.40204E+00  8.32340E+00  8.32071E+00  8.54733E+00  9.02255E+00  9.58134E+00  1.00988E+01
   1.05138E+01  1.07949E+01  1.09099E+01  1.08125E+01  1.04705E+01  9.89889E+00  9.18684E+00  8.54981E+00  8.22796E+00  8.12379E+00
   8.05257E+00  7.97965E+00  7.91075E+00  7.86365E+00  7.89353E+00  8.14060E+00  8.58696E+00  9.10293E+00  9.60164E+00  1.00309E+01
   1.03409E+01  1.04738E+01  1.04196E+01  1.02172E+01  9.90003E+00  9.46586E+00  9.02416E+00  8.75500E+00  8.58088E+00  8.38145E+00
   8.13425E+00  7.87986E+00  7.79625E+00  8.18677E+00  9.15080E+00  1.04456E+01  1.16817E+01  1.25541E+01  1.29599E+01  1.28756E+01
   1.22769E+01  1.11800E+01  9.73050E+00  8.20816E+00  7.06708E+00  6.74613E+00  7.15355E+00  7.88601E+00  8.62732E+00  9.22896E+00
   9.61643E+00  9.75230E+00  9.64006E+00  9.33492E+00  8.89704E+00  8.38817E+00  7.93403E+00  7.73808E+00  7.85493E+00  8.20394E+00
   8.62916E+00  8.99237E+00  9.22348E+00  9.29660E+00  9.23133E+00  9.07202E+00  8.84570E+00  8.58762E+00  8.32196E+00  8.12661E+00
   8.01799E+00  7.94694E+00  7.84085E+00  7.62133E+00  7.25571E+00  6.78092E+00  6.27174E+00  5.79867E+00  5.41874E+00  5.19251E+00
   5.17079E+00  5.37463E+00  5.80847E+00  6.37189E+00  6.87419E+00  7.17268E+00  7.24997E+00  7.24906E+00  7.43389E+00  7.77815E+00
   8.14184E+00  8.48377E+00  8.79377E+00  9.04503E+00  9.18617E+00  9.08728E+00  8.69227E+00  8.05153E+00  7.32208E+00  6.76781E+00
   6.59627E+00  6.59760E+00  6.61792E+00  6.64993E+00  6.68310E+00  6.70549E+00  6.71369E+00  6.71254E+00  6.71013E+00  6.71983E+00
   6.76751E+00  6.94514E+00  7.50021E+00  8.39021E+00  9.36532E+00  1.02523E+01  1.09562E+01  1.14178E+01  1.15957E+01  1.14367E+01
   1.08848E+01  9.97329E+00  8.86637E+00  7.87335E+00  7.32434E+00  7.06199E+00  6.87379E+00  6.74581E+00  6.68308E+00  6.69861E+00
   6.80825E+00  6.98411E+00  7.14174E+00  7.22917E+00  7.23345E+00  7.15811E+00  7.03810E+00  6.91302E+00  6.80572E+00  6.72955E+00
   6.66396E+00  6.60345E+00  6.54992E+00  6.50416E+00  6.46441E+00  6.43007E+00  6.40377E+00  6.38254E+00  6.36243E+00  6.34004E+00
   6.31206E+00  6.27616E+00  6.23507E+00  6.19665E+00  6.16410E+00  6.13548E+00  6.10867E+00  6.08274E+00  6.05962E+00  6.03908E+00
   6.01711E+00  5.98918E+00  5.95335E+00  5.91056E+00  5.86438E+00  5.81595E+00  5.76500E+00  5.71262E+00  5.66079E+00  5.61447E+00
   5.56994E+00  5.52296E+00  5.47449E+00  5.42766E+00  5.39133E+00  5.38274E+00  5.41656E+00  5.49374E+00  5.59659E+00  5.69962E+00
   5.78313E+00  5.82726E+00  5.79581E+00  5.67116E+00  5.49240E+00  5.30682E+00  5.15501E+00  5.07497E+00  5.08673E+00  5.18445E+00
   5.34221E+00  5.52602E+00  5.70295E+00  5.83620E+00  5.89194E+00  5.86824E+00  5.82213E+00  5.78941E+00  5.77692E+00  5.78339E+00
   5.80461E+00  5.83950E+00  5.88993E+00  5.95286E+00  6.02269E+00  6.09496E+00  6.16388E+00  6.22437E+00  6.28663E+00  6.36080E+00
   6.44417E+00  6.52911E+00  6.61082E+00  6.68941E+00  6.76352E+00  6.82784E+00  6.86647E+00  6.86877E+00  6.85494E+00  6.85190E+00
   6.87730E+00  6.94226E+00  7.06610E+00  7.26055E+00  7.49171E+00  7.71864E+00  7.91697E+00  8.06329E+00  8.12582E+00  8.10186E+00
   8.04279E+00  8.00476E+00  8.01846E+00  8.10486E+00  8.28476E+00  8.54188E+00  8.81001E+00  9.04517E+00  9.22953E+00  9.34829E+00
   9.39233E+00  9.37186E+00  9.31972E+00  9.26360E+00  9.20214E+00  9.13130E+00  9.05066E+00  8.96165E+00  8.86310E+00  8.74948E+00
   8.62009E+00  8.47732E+00  8.32623E+00  8.16912E+00  8.00656E+00  7.83894E+00  7.66684E+00  7.49270E+00  7.31946E+00  7.15009E+00
   6.98704E+00  6.83262E+00  6.68820E+00  6.55343E+00  6.42754E+00  6.30990E+00  6.19873E+00  6.09262E+00  5.99212E+00  5.89784E+00
   5.81097E+00  5.73333E+00  5.66643E+00  5.61171E+00  5.56983E+00  5.54018E+00  5.52208E+00  5.51501E+00  5.51793E+00  5.52973E+00
   5.54956E+00  5.57663E+00  5.61072E+00  5.65150E+00  5.69798E+00  5.74894E+00  5.80329E+00  5.85973E+00  5.91665E+00  5.97255E+00
   6.02611E+00  6.07596E+00  6.12102E+00  6.16052E+00  6.19406E+00  6.22168E+00  6.24389E+00  6.26160E+00  6.27622E+00  6.28959E+00
   6.30399E+00  6.32210E+00  6.34692E+00  6.38162E+00  6.42949E+00  6.49386E+00  6.57798E+00  6.68489E+00  6.81722E+00  6.97706E+00
   7.16588E+00  7.38441E+00  7.63259E+00  7.90943E+00  8.21299E+00  8.54032E+00  8.88764E+00  9.25041E+00  9.62355E+00  1.00015E+01
   1.03786E+01  1.07491E+01  1.11080E+01  1.14509E+01  1.17744E+01  1.20768E+01  1.23578E+01  1.26196E+01  1.28676E+01  1.31126E+01
   1.33759E+01  1.37074E+01  1.42128E+01  1.48021E+01  1.51721E+01  1.51991E+01  1.48828E+01  1.42470E+01  1.33003E+01  1.20694E+01
   1.08517E+01  9.99884E+00  9.65275E+00  9.89999E+00  1.07541E+01  1.18862E+01  1.28881E+01  1.36520E+01  1.40828E+01  1.40932E+01
   1.36526E+01  1.28897E+01  1.21870E+01  1.17026E+01  1.13198E+01  1.09828E+01  1.06712E+01  1.03761E+01  1.00940E+01  9.82374E+00
   9.56571E+00  9.32083E+00  9.09046E+00  8.87623E+00  8.68002E+00  8.50375E+00  8.34930E+00  8.21843E+00  8.11281E+00  8.03403E+00
   7.98362E+00  7.96288E+00  7.97284E+00  8.01416E+00  8.08715E+00  8.19166E+00  8.32706E+00  8.49203E+00  8.68449E+00  8.90156E+00
   9.13959E+00  9.39414E+00  9.66004E+00  9.93137E+00  1.02017E+01  1.04640E+01  1.07116E+01  1.09373E+01  1.11348E+01  1.12980E+01
   1.14217E+01  1.15019E+01  1.15355E+01  1.15209E+01  1.14578E+01  1.13469E+01  1.11905E+01  1.09916E+01  1.07543E+01  1.04833E+01
   1.01838E+01  9.86112E+00  9.52073E+00  9.16796E+00  8.80788E+00  8.44514E+00  8.08391E+00  7.72777E+00  7.37982E+00  7.04259E+00
   6.71808E+00  6.40778E+00  6.11270E+00  5.83346E+00  5.57034E+00  5.32335E+00  5.09226E+00  4.87659E+00  4.67574E+00  4.48900E+00
   4.31559E+00  4.15472E+00  4.00553E+00  3.86717E+00  3.73880E+00  3.61960E+00  3.50885E+00  3.40582E+00  3.30984E+00  3.22026E+00
   3.13650E+00  3.05803E+00  2.98441E+00  2.91519E+00  2.84996E+00  2.78834E+00  2.73002E+00  2.67471E+00  2.62218E+00  2.57217E+00
   2.52446E+00  2.47885E+00  2.43517E+00  2.39328E+00  2.35305E+00  2.31434E+00  2.27702E+00  2.24098E+00  2.20615E+00  2.17244E+00
   2.13979E+00  2.10809E+00  2.07728E+00  2.04730E+00  2.01811E+00  1.98967E+00  1.96193E+00  1.93482E+00  1.90830E+00  1.88235E+00
   1.85696E+00  1.83208E+00  1.80767E+00  1.78370E+00  1.76015E+00  1.73701E+00  1.71427E+00  1.69189E+00  1.66984E+00  1.64811E+00
   1.62669E+00  1.60557E+00  1.58475E+00  1.56419E+00  1.54387E+00  1.52379E+00  1.50395E+00  1.48433E+00  1.46494E+00  1.44575E+00
   1.42674E+00  1.40791E+00  1.38927E+00  1.37082E+00  1.35253E+00  1.33439E+00  1.31641E+00  1.29857E+00
 NY background values follow
     7.494E+00    7.481E+00    7.468E+00    7.455E+00    7.442E+00    7.429E+00    7.416E+00    7.403E+00    7.390E+00    7.377E+00
     7.364E+00    7.351E+00    7.338E+00    7.325E+00    7.312E+00    7.299E+00    7.285E+00    7.272E+00    7.259E+00    7.246E+00
     7.233E+00    7.220E+00    7.207E+00    7.194E+00    7.181E+00    7.168E+00    7.155E+00    7.142E+00    7.129E+00    7.116E+00
     7.103E+00    7.090E+00    7.077E+00    7.064E+00    7.051E+00    7.038E+00    7.025E+00    7.012E+00    6.999E+00    6.986E+00
     6.973E+00    6.960E+00    6.947E+00    6.934E+00    6.921E+00    6.908E+00    6.895E+00    6.882E+00    6.869E+00    6.856E+00
     6.843E+00    6.830E+00    6.817E+00    6.804E+00    6.791E+00    6.778E+00    6.765E+00    6.751E+00    6.738E+00    6.725E+00
     6.712E+00    6.699E+00    6.686E+00    6.673E+00    6.660E+00    6.647E+00    6.634E+00    6.621E+00    6.608E+00    6.595E+00
     6.582E+00    6.569E+00    6.556E+00    6.543E+00    6.530E+00    6.517E+00    6.504E+00    6.491E+00    6.478E+00    6.465E+00
     6.452E+00    6.439E+00    6.426E+00    6.413E+00    6.400E+00    6.387E+00    6.374E+00    6.361E+00    6.348E+00    6.335E+00
     6.322E+00    6.309E+00    6.296E+00    6.283E+00    6.270E+00    6.257E+00    6.244E+00    6.231E+00    6.218E+00    6.204E+00
     6.191E+00    6.178E+00    6.165E+00    6.152E+00    6.139E+00    6.126E+00    6.113E+00    6.100E+00    6.087E+00    6.074E+00
     6.061E+00    6.048E+00    6.035E+00    6.022E+00    6.009E+00    5.996E+00    5.983E+00    5.970E+00    5.957E+00    5.944E+00
     5.931E+00    5.918E+00    5.905E+00    5.892E+00    5.879E+00    5.866E+00    5.853E+00    5.840E+00    5.827E+00    5.814E+00
     5.801E+00    5.788E+00    5.775E+00    5.762E+00    5.749E+00    5.736E+00    5.723E+00    5.710E+00    5.697E+00    5.684E+00
     5.671E+00    5.657E+00    5.644E+00    5.631E+00    5.618E+00    5.605E+00    5.592E+00    5.579E+00    5.566E+00    5.553E+00
     5.540E+00    5.527E+00    5.514E+00    5.501E+00    5.488E+00    5.475E+00    5.462E+00    5.449E+00    5.436E+00    5.423E+00
     5.410E+00    5.397E+00    5.384E+00    5.371E+00    5.358E+00    5.345E+00    5.332E+00    5.319E+00    5.306E+00    5.293E+00
     5.280E+00    5.267E+00    5.254E+00    5.241E+00    5.228E+00    5.215E+00    5.202E+00    5.189E+00    5.176E+00    5.163E+00
     5.150E+00    5.137E+00    5.124E+00    5.111E+00    5.098E+00    5.084E+00    5.071E+00    5.058E+00    5.045E+00    5.032E+00
     5.019E+00    5.006E+00    4.993E+00    4.980E+00    4.967E+00    4.954E+00    4.941E+00    4.928E+00    4.915E+00    4.902E+00
     4.889E+00    4.876E+00    4.863E+00    4.850E+00    4.837E+00    4.824E+00    4.811E+00    4.798E+00    4.785E+00    4.772E+00
     4.759E+00    4.746E+00    4.733E+00    4.720E+00    4.707E+00    4.694E+00    4.681E+00    4.668E+00    4.655E+00    4.642E+00
     4.629E+00    4.616E+00    4.603E+00    4.590E+00    4.577E+00    4.564E+00    4.551E+00    4.538E+00    4.525E+00    4.512E+00
     4.499E+00    4.485E+00    4.472E+00    4.459E+00    4.446E+00    4.433E+00    4.420E+00    4.407E+00    4.394E+00    4.381E+00
     4.368E+00    4.355E+00    4.342E+00    4.329E+00    4.316E+00    4.303E+00    4.290E+00    4.277E+00    4.264E+00    4.251E+00
     4.238E+00    4.225E+00    4.212E+00    4.199E+00    4.186E+00    4.173E+00    4.160E+00    4.147E+00    4.134E+00    4.121E+00
     4.108E+00    4.095E+00    4.082E+00    4.069E+00    4.056E+00    4.043E+00    4.030E+00    4.017E+00    4.004E+00    3.991E+00
     3.978E+00    3.965E+00    3.952E+00    3.939E+00    3.926E+00    3.913E+00    3.900E+00    3.887E+00    3.874E+00    3.861E+00
     3.847E+00    3.834E+00    3.821E+00    3.808E+00    3.795E+00    3.782E+00    3.769E+00    3.756E+00    3.743E+00    3.730E+00
     3.717E+00    3.704E+00    3.691E+00    3.678E+00    3.665E+00    3.652E+00    3.639E+00    3.626E+00    3.613E+00    3.600E+00
     3.587E+00    3.574E+00    3.561E+00    3.548E+00    3.535E+00    3.522E+00    3.509E+00    3.496E+00    3.483E+00    3.470E+00
     3.457E+00    3.444E+00    3.431E+00    3.418E+00    3.405E+00    3.392E+00    3.379E+00    3.366E+00    3.353E+00    3.340E+00
     3.327E+00    3.314E+00    3.301E+00    3.288E+00    3.275E+00    3.262E+00    3.249E+00    3.236E+00    3.223E+00    3.210E+00
     3.197E+00    3.184E+00    3.171E+00    3.157E+00    3.144E+00    3.131E+00    3.118E+00    3.105E+00    3.092E+00    3.079E+00
     3.066E+00    3.053E+00    3.040E+00    3.027E+00    3.014E+00    3.001E+00    2.988E+00    2.975E+00    2.962E+00    2.949E+00
     2.936E+00    2.923E+00    2.910E+00    2.897E+00    2.884E+00    2.871E+00    2.858E+00    2.845E+00    2.832E+00    2.819E+00
     2.806E+00    2.793E+00    2.780E+00    2.767E+00    2.754E+00    2.741E+00    2.728E+00    2.715E+00    2.702E+00    2.689E+00
     2.676E+00    2.663E+00    2.650E+00    2.637E+00    2.624E+00    2.611E+00    2.598E+00    2.585E+00    2.572E+00    2.559E+00
     2.546E+00    2.533E+00    2.520E+00    2.507E+00    2.494E+00    2.481E+00    2.468E+00    2.455E+00    2.441E+00    2.428E+00
     2.415E+00    2.402E+00    2.389E+00    2.376E+00    2.363E+00    2.350E+00    2.337E+00    2.324E+00    2.311E+00    2.298E+00
     2.285E+00    2.272E+00    2.259E+00    2.246E+00    2.233E+00    2.220E+00    2.207E+00    2.194E+00    2.181E+00    2.168E+00
     2.155E+00    2.142E+00    2.129E+00    2.116E+00    2.103E+00    2.090E+00    2.077E+00    2.064E+00    2.051E+00    2.038E+00
     2.025E+00    2.012E+00    1.999E+00    1.986E+00    1.973E+00    1.960E+00    1.947E+00    1.934E+00    1.921E+00    1.908E+00
     1.895E+00    1.882E+00    1.869E+00    1.856E+00    1.843E+00    1.830E+00    1.817E+00    1.804E+00    1.791E+00    1.778E+00
     1.765E+00    1.752E+00    1.739E+00    1.726E+00    1.712E+00    1.699E+00    1.686E+00    1.673E+00    1.660E+00    1.647E+00
     1.634E+00    1.621E+00    1.608E+00    1.595E+00    1.582E+00    1.569E+00    1.556E+00    1.543E+00    1.530E+00    1.517E+00
     1.504E+00    1.491E+00    1.478E+00    1.465E+00    1.452E+00    1.439E+00    1.426E+00    1.413E+00    1.400E+00    1.387E+00
     1.374E+00    1.361E+00    1.348E+00    1.335E+00    1.322E+00    1.309E+00    1.296E+00    1.283E+00    1.270E+00    1.257E+00
     1.244E+00    1.231E+00    1.218E+00    1.205E+00    1.192E+00    1.179E+00    1.166E+00    1.153E+00    1.140E+00    1.127E+00
     1.114E+00    1.101E+00    1.088E+00    1.075E+00    1.062E+00    1.049E+00    1.036E+00    1.023E+00
 Asp      Conc. = 1.25E+01
