 LCModel (Version 6.3-1L) Copyright: S.W. Provencher.          Ref.: Magn. Reson. Med. 30:672-679 (1993).                
 Slice#1 Row#3 Col#5  PD_05_press_2_raw_act
 36 lines in following concentration table = NCONC+1
    Conc.  %SD /Cr+PCr  Metabolite                                         
  314.136 116%   0.231 Ala                                                 
  193.464 203%   0.142 Asp                                                 
    0.000 999%   0.000 Cr                                                  
 1.36E+03  12%   1.000 PCr                                                 
   81.757 301% 6.0E-02 GABA                                                
  239.332 101%   0.176 Glc                                                 
  674.903 108%   0.497 Gln                                                 
  313.360 263%   0.231 Glu                                                 
    0.000 999%   0.000 GPC                                                 
  618.699  10%   0.455 PCh                                                 
  498.329  45%   0.367 GSH                                                 
 2.07E+03  35%   1.525 Ins                                                 
   33.402 999% 2.5E-02 Lac                                                 
 3.52E+03   6%   2.589 NAA                                                 
    0.000 999%   0.000 NAAG                                                
  194.788  32%   0.143 Scyllo                                              
  362.277 104%   0.267 Tau                                                 
 1.12E+03  23%   0.823 -CrCH2                                              
  618.699  10%   0.455 GPC+PCh                                             
 3.52E+03   6%   2.589 NAA+NAAG                                            
 1.36E+03  12%   1.000 Cr+PCr                                              
  988.263 119%   0.727 Glu+Gln                                             
 1.83E+03  83%   1.348 Lip13a                                              
  549.244 148%   0.404 Lip13b                                              
    0.000 999%   0.000 Lip09                                               
 3.05E+03  16%   2.243 MM09                                                
  683.160  52%   0.503 Lip20                                               
 7.66E+03  13%   5.637 MM20                                                
 1.08E+03  38%   0.798 MM12                                                
  458.100 177%   0.337 MM14                                                
 3.61E+03  18%   2.658 MM17                                                
 2.38E+03  41%   1.753 Lip13a+Lip13b                                       
 3.92E+03  23%   2.888 MM14+Lip13a+Lip13b+MM12                             
 3.05E+03  16%   2.243 MM09+Lip09                                          
 8.34E+03  12%   6.140 MM20+Lip20                                          
   6 lines in following misc. output table
  FWHM = 0.054 ppm    S/N =   6                                            
  Data shift = 0.038 ppm                                                   
  Ph: -85 deg     -28.1 deg/ppm                                            
  alphaB,S = 3.0E+00,   8.1E+01                                            
   14 spline knots.   Ns = 7(1)                                            
  (11) 4 infls.   ( 7) 1 extrs.                                            
  498 points on ppm-axis = NY
      4.000000     3.992357     3.984714     3.977070     3.969427     3.961784     3.954141     3.946497     3.938854     3.931211
      3.923568     3.915925     3.908281     3.900638     3.892995     3.885352     3.877708     3.870065     3.862422     3.854779
      3.847136     3.839492     3.831849     3.824206     3.816563     3.808919     3.801276     3.793633     3.785990     3.778347
      3.770703     3.763060     3.755417     3.747774     3.740130     3.732487     3.724844     3.717201     3.709558     3.701914
      3.694271     3.686628     3.678985     3.671341     3.663698     3.656055     3.648412     3.640769     3.633125     3.625482
      3.617839     3.610196     3.602552     3.594909     3.587266     3.579623     3.571980     3.564336     3.556693     3.549050
      3.541407     3.533763     3.526120     3.518477     3.510834     3.503191     3.495547     3.487904     3.480261     3.472618
      3.464974     3.457331     3.449688     3.442045     3.434402     3.426758     3.419115     3.411472     3.403829     3.396185
      3.388542     3.380899     3.373256     3.365613     3.357969     3.350326     3.342683     3.335040     3.327396     3.319753
      3.312110     3.304467     3.296824     3.289180     3.281537     3.273894     3.266251     3.258607     3.250964     3.243321
      3.235678     3.228034     3.220391     3.212748     3.205105     3.197462     3.189818     3.182175     3.174532     3.166889
      3.159245     3.151602     3.143959     3.136316     3.128673     3.121029     3.113386     3.105743     3.098100     3.090456
      3.082813     3.075170     3.067527     3.059884     3.052240     3.044597     3.036954     3.029311     3.021667     3.014024
      3.006381     2.998738     2.991095     2.983451     2.975808     2.968165     2.960522     2.952878     2.945235     2.937592
      2.929949     2.922306     2.914662     2.907019     2.899376     2.891733     2.884089     2.876446     2.868803     2.861160
      2.853517     2.845873     2.838230     2.830587     2.822944     2.815300     2.807657     2.800014     2.792371     2.784728
      2.777084     2.769441     2.761798     2.754155     2.746511     2.738868     2.731225     2.723582     2.715939     2.708295
      2.700652     2.693009     2.685366     2.677722     2.670079     2.662436     2.654793     2.647150     2.639506     2.631863
      2.624220     2.616577     2.608933     2.601290     2.593647     2.586004     2.578361     2.570717     2.563074     2.555431
      2.547788     2.540144     2.532501     2.524858     2.517215     2.509572     2.501928     2.494285     2.486642     2.478999
      2.471355     2.463712     2.456069     2.448426     2.440783     2.433139     2.425496     2.417853     2.410210     2.402566
      2.394923     2.387280     2.379637     2.371994     2.364350     2.356707     2.349064     2.341421     2.333777     2.326134
      2.318491     2.310848     2.303205     2.295561     2.287918     2.280275     2.272632     2.264988     2.257345     2.249702
      2.242059     2.234416     2.226772     2.219129     2.211486     2.203843     2.196199     2.188556     2.180913     2.173270
      2.165627     2.157983     2.150340     2.142697     2.135054     2.127410     2.119767     2.112124     2.104481     2.096838
      2.089194     2.081551     2.073908     2.066265     2.058621     2.050978     2.043335     2.035692     2.028049     2.020405
      2.012762     2.005119     1.997476     1.989833     1.982190     1.974546     1.966903     1.959260     1.951617     1.943974
      1.936331     1.928688     1.921045     1.913402     1.905759     1.898115     1.890472     1.882829     1.875186     1.867543
      1.859900     1.852257     1.844614     1.836971     1.829327     1.821684     1.814041     1.806398     1.798755     1.791112
      1.783469     1.775826     1.768183     1.760540     1.752896     1.745253     1.737610     1.729967     1.722324     1.714681
      1.707038     1.699395     1.691752     1.684108     1.676465     1.668822     1.661179     1.653536     1.645893     1.638250
      1.630607     1.622964     1.615321     1.607677     1.600034     1.592391     1.584748     1.577105     1.569462     1.561819
      1.554176     1.546533     1.538890     1.531246     1.523603     1.515960     1.508317     1.500674     1.493031     1.485388
      1.477745     1.470102     1.462458     1.454815     1.447172     1.439529     1.431886     1.424243     1.416600     1.408957
      1.401314     1.393671     1.386027     1.378384     1.370741     1.363098     1.355455     1.347812     1.340169     1.332526
      1.324883     1.317240     1.309596     1.301953     1.294310     1.286667     1.279024     1.271381     1.263738     1.256095
      1.248452     1.240808     1.233165     1.225522     1.217879     1.210236     1.202593     1.194950     1.187307     1.179664
      1.172021     1.164377     1.156734     1.149091     1.141448     1.133805     1.126162     1.118519     1.110876     1.103233
      1.095590     1.087946     1.080303     1.072660     1.065017     1.057374     1.049731     1.042088     1.034445     1.026802
      1.019158     1.011515     1.003872     0.996229     0.988586     0.980943     0.973300     0.965657     0.958014     0.950371
      0.942727     0.935084     0.927441     0.919798     0.912155     0.904512     0.896869     0.889226     0.881583     0.873940
      0.866296     0.858653     0.851010     0.843367     0.835724     0.828081     0.820438     0.812795     0.805152     0.797508
      0.789865     0.782222     0.774579     0.766936     0.759293     0.751650     0.744007     0.736364     0.728721     0.721077
      0.713434     0.705791     0.698148     0.690505     0.682862     0.675219     0.667576     0.659933     0.652290     0.644646
      0.637003     0.629360     0.621717     0.614074     0.606431     0.598788     0.591145     0.583502     0.575858     0.568215
      0.560572     0.552929     0.545286     0.537643     0.530000     0.522357     0.514714     0.507071     0.499427     0.491784
      0.484141     0.476498     0.468855     0.461212     0.453569     0.445925     0.438282     0.430639     0.422996     0.415353
      0.407710     0.400067     0.392424     0.384780     0.377137     0.369494     0.361851     0.354208     0.346565     0.338922
      0.331278     0.323635     0.315992     0.308349     0.300706     0.293063     0.285420     0.277777     0.270133     0.262490
      0.254847     0.247204     0.239561     0.231918     0.224275     0.216631     0.208988     0.201345
 NY phased data points follow
  -6.69734E+01 -5.58789E+01 -6.23040E+01 -5.80656E+01 -5.62596E+01 -5.65878E+01 -4.92184E+01 -3.94996E+01 -3.38308E+01 -3.46209E+01
  -3.86729E+01 -3.88230E+01 -4.83832E+01 -6.76617E+01 -5.65410E+01 -4.87765E+01 -5.41421E+01 -6.58504E+01 -6.23206E+01 -7.02011E+01
  -6.59133E+01 -5.79787E+01 -6.47019E+01 -4.78295E+01 -3.31061E+01 -3.80869E+01 -3.77863E+01 -3.14594E+01 -4.36905E+01 -1.26781E+01
  -2.71003E+01 -4.03323E+01 -3.63219E+01 -4.66473E+01 -5.57101E+01 -3.47421E+01 -3.35333E+01 -4.65671E+01 -3.37714E+01 -4.16232E+01
  -2.25149E+01 -3.44550E+01 -3.17312E+01 -3.67000E+01 -2.56435E+01 -1.61548E+01 -1.70103E+01 -1.62881E+01 -2.88788E+01 -1.61593E+01
  -4.14622E+01 -3.64844E+01 -2.10439E+01 -2.96692E+01 -1.59649E+01 -3.17772E+01 -1.90688E+01 -2.84186E+01 -2.56821E+01 -3.10644E+01
  -4.22082E+01 -2.99676E+01 -4.02825E+01 -4.19432E+01 -4.15195E+01 -4.38211E+01 -1.96293E+01 -3.47600E+01 -3.63987E+01 -3.37651E+01
  -3.10479E+01 -2.08749E+01 -4.62961E+01 -3.62237E+01 -2.24345E+01 -1.87990E+01 -3.53245E+01 -2.77481E+01 -3.10152E+01 -2.49298E+01
  -2.99323E+01 -1.83918E+01 -4.36529E+01 -1.64918E+01 -1.84822E+01 -3.14630E+01 -2.40112E+01 -1.48841E+01 -1.37426E+01 -2.41886E+01
  -1.64974E+01 -3.82588E+01 -2.18862E+01 -1.96928E+01 -6.74643E+00 -1.87242E+01 -1.71810E+01 -2.11187E+01 -1.28708E-01 -4.04148E+00
   7.05257E+00  2.38403E+01  2.68345E+01  2.95528E+01  1.55215E+01  1.97512E+01  1.79395E+00 -8.28026E+00 -1.80812E+01 -3.51972E+01
  -2.79265E+01 -3.80843E+01 -5.84163E+00 -3.32607E+01 -2.02166E+01 -8.78899E+00 -2.22723E+01 -3.28113E+01 -3.73551E+01 -3.33508E+01
  -9.07987E+00 -1.37896E+01 -1.66181E+01 -7.84404E+00 -8.23800E+00  1.46304E+01  2.58400E+01  2.98362E+01  3.13378E+01  1.48193E+01
   8.21522E+00  1.98950E+00  7.37786E+00  2.22570E+00 -1.02576E+01 -1.17086E+01 -1.38050E+01 -5.97615E+00 -1.72806E+01 -3.71199E+01
  -2.64161E+01 -9.95050E+00 -1.14524E+01 -2.01210E+01 -1.33155E+01 -2.47811E+01 -1.42568E+01 -2.19940E+01 -3.09065E+01 -3.26216E+01
  -1.60170E+00 -3.13726E+01 -2.39821E+01 -1.89554E+01 -2.90250E+01 -6.15849E+00 -1.81903E+01 -1.16790E+01 -1.13251E+01 -1.81693E+01
  -1.74222E+01 -1.87587E+01 -1.82012E+01  3.79242E-01  3.74849E+00 -5.97186E+00 -2.26846E+01 -9.35780E+00 -5.41818E+00 -2.17622E+01
  -3.13806E+01 -2.79678E+01 -2.09428E+01 -3.58977E+01 -3.97619E+01 -3.16889E+01 -3.21268E+01 -2.14973E+01 -2.97345E+01 -2.00697E+01
  -2.36888E+01 -1.50034E+01 -2.45546E+01 -1.11441E+01 -1.18672E+01 -1.11709E+01 -2.47164E+01 -2.03964E+01 -7.06073E+00 -1.44920E+01
  -4.51546E+00 -1.32673E+01 -2.49580E+01 -2.03325E+01 -2.65642E+01 -2.71938E+01 -2.12490E+01 -9.76614E+00 -1.50749E+01 -1.46498E+01
  -1.14181E+01 -1.67496E+01 -2.86804E+01 -1.00450E+01 -1.08797E+01 -2.59215E+00 -3.56594E+00 -1.68483E+01 -2.11392E+01 -3.71134E+00
  -7.52400E+00  8.75213E+00  1.84867E+00  1.90651E+00  8.43007E+00  9.23712E+00  9.17480E+00  1.87762E+01  6.96574E+00 -1.32831E+00
   2.28787E+01 -7.32898E+00 -3.01475E+00  8.23782E+00 -5.27565E+00  6.63913E+00  1.02166E+01  8.61124E+00 -3.88278E+00  4.34037E+00
   5.59317E-01  6.27364E+00  1.58918E+01  1.75895E+01  8.27408E+00 -4.94420E+00  2.21235E+01  8.90569E+00  6.73417E+00  1.40647E+01
   5.42431E+00  1.42362E+01  1.47720E+01  3.46922E+00  1.80251E+01  3.88863E+00  1.49126E+01  1.85538E+01  1.79354E+01  1.40929E+01
   2.03024E+01  2.85387E+01  9.15588E+00  3.62241E+01  4.20328E+01  6.68854E+01  8.03425E+01  8.95779E+01  9.50887E+01  1.29659E+02
   1.22927E+02  1.27285E+02  1.07024E+02  9.33055E+01  6.61991E+01  4.48510E+01  5.27862E+01  4.51831E+01  1.97344E+01  1.46417E+01
   1.00802E+01  1.38676E+01  2.96522E+01  1.58913E+01  1.59210E+01  2.31307E+01  3.65340E+00  8.45546E+00 -1.49319E+00 -3.61479E+00
   1.59330E+01  1.30310E+01 -1.46526E+01  9.84251E+00  6.86915E+00  1.11236E+01  6.35558E+00 -5.60586E+00  4.98787E+00 -5.74709E-01
  -2.09708E+00  2.00153E+01  6.20100E+00  2.21542E+01  9.62804E+00  3.19223E+01  2.02304E+01  1.77363E+01  1.16618E+01  4.06125E+00
   1.30429E+01  1.33382E+01 -3.09272E+00  2.76091E+01  3.39520E+01  2.59207E+01  1.86162E+01  1.47000E+01  2.31288E+01  1.03528E+01
   1.40550E+01  4.10344E+01  3.85638E+01  1.06865E+01  2.82650E+01  2.14898E+01  3.14142E+01  2.36289E+01  2.78598E+01  1.64074E+01
   1.49681E+01  9.91881E+00  5.86877E+00  9.62503E+00  1.08323E+01  1.17077E+01  1.20819E+01 -9.52521E-01  8.22820E+00 -1.11541E+01
  -1.62251E+00  1.35766E+01 -1.98270E+00  1.65648E+01  5.37948E+00  1.25960E+01  1.11874E+01 -3.71547E+00  1.51090E+01  1.62603E+01
   1.71533E+01  1.77103E+01  8.60643E+00  1.11651E+01  5.58901E+00  2.37925E+01  9.01522E+00  1.76114E+01  4.57792E+00  9.48359E+00
   3.24282E+01  2.13877E+01  2.63384E+01  2.29013E+01  1.92968E+01  2.49408E+01  1.98691E+01  2.74496E+01  3.32754E+01  1.97982E+01
   3.08720E+01  2.36512E+01  1.75563E+01  2.18076E+01  2.45274E+01  2.31546E+01  1.69986E+01  4.03338E+00  2.33784E+01  9.88473E+00
   1.86831E+01  6.53861E+00  2.01084E+01  2.99911E+01  2.82011E+01  2.32371E+01  1.94503E+01  1.67899E+01  6.64235E+00  2.42048E+01
   1.76750E+01  1.93866E+01  2.48095E+01  9.83845E+00 -2.46100E+00  1.23121E+01  1.52995E+01  3.36238E+00  1.98953E+01  1.79398E+01
   7.20684E+00  2.80076E+01  6.91049E+00  4.14091E+01  2.47935E+01  1.39961E+01  6.15755E+00  2.19764E+01  3.42219E+01  7.94130E+00
   2.31963E+01  2.34110E+01  1.77089E+01  3.99109E+01  9.15625E+00  2.43899E+01  2.12448E+01  2.35154E+01  1.58313E+01  3.73355E+01
   2.64663E+01  2.61890E+01  1.96540E+01  2.70259E+01  1.74808E+01  1.70521E+01  2.42982E+01  2.54726E+01  1.60956E+01  2.57626E+01
   2.85852E+01  3.35358E+01  2.80343E+01  4.41148E+01  3.46482E+01  6.60418E+00  2.36971E+01  2.10457E+01  1.14900E+01  2.95178E+01
   2.12349E+01  1.42621E+01  3.58874E+01  1.21349E+01  1.38832E+01  1.56351E+01  2.09042E+01  3.05065E+01  8.07407E+00  8.45929E+00
   1.18422E+01  1.46887E+01  1.59139E+01  1.44143E+01  7.65609E+00  1.40874E+01  2.40690E+01  1.86905E+01  3.51754E+00  2.58489E+01
   1.25817E+01  9.34212E+00  7.41147E+00  1.08883E+01  1.21305E+01  1.30427E+01  9.26032E+00  9.21032E+00  2.28709E+01  1.86108E+01
   1.18130E+01  8.23547E+00  1.22168E+01 -2.66053E+00  8.89392E+00  1.08557E+01  5.13411E+00  1.49996E+01  5.20517E+00  2.09888E+01
   3.79998E+00  1.00953E+01 -3.89993E-01  2.41743E+01  1.18464E+01  1.43015E+01  2.27101E+01  1.23516E+01  1.36406E+01  2.63578E+01
   2.24674E+01  1.02833E+01  2.95278E+00  1.99991E+01  1.25920E+01  2.14535E+01  4.12891E+00  4.58326E+00  2.52292E+01 -4.60368E+00
   1.28160E+01  1.54661E+01  1.57602E+01  6.11897E+00  7.98215E+00  1.22546E+00  2.93893E+01  1.09593E+01
 NY points of the fit to the data follow
  -4.48644E+01 -4.57029E+01 -4.63610E+01 -4.64057E+01 -4.59734E+01 -4.53416E+01 -4.46284E+01 -4.37147E+01 -4.25632E+01 -4.15133E+01
  -4.09522E+01 -4.10806E+01 -4.17883E+01 -4.27631E+01 -4.35818E+01 -4.40284E+01 -4.42969E+01 -4.45805E+01 -4.46926E+01 -4.44112E+01
  -4.40230E+01 -4.36873E+01 -4.32419E+01 -4.22431E+01 -4.08655E+01 -3.92903E+01 -3.74164E+01 -3.51039E+01 -3.25715E+01 -3.04501E+01
  -2.92322E+01 -2.91295E+01 -3.00717E+01 -3.16358E+01 -3.32321E+01 -3.46683E+01 -3.60874E+01 -3.75746E+01 -3.89053E+01 -3.96359E+01
  -3.94279E+01 -3.81875E+01 -3.62539E+01 -3.40444E+01 -3.16916E+01 -2.93088E+01 -2.74271E+01 -2.68200E+01 -2.78307E+01 -3.00313E+01
  -3.26096E+01 -3.47753E+01 -3.59891E+01 -3.63420E+01 -3.62021E+01 -3.57091E+01 -3.47727E+01 -3.34974E+01 -3.22665E+01 -3.14451E+01
  -3.11624E+01 -3.14337E+01 -3.20734E+01 -3.28105E+01 -3.32812E+01 -3.32641E+01 -3.28806E+01 -3.23378E+01 -3.16647E+01 -3.08307E+01
  -2.99389E+01 -2.91656E+01 -2.86241E+01 -2.83400E+01 -2.83081E+01 -2.84944E+01 -2.88358E+01 -2.92871E+01 -2.97151E+01 -2.97339E+01
  -2.90059E+01 -2.79325E+01 -2.68837E+01 -2.58836E+01 -2.48691E+01 -2.40951E+01 -2.40212E+01 -2.48002E+01 -2.61678E+01 -2.76025E+01
  -2.87133E+01 -2.93496E+01 -2.96702E+01 -2.99800E+01 -3.01196E+01 -2.86099E+01 -2.33436E+01 -1.58235E+01 -7.68197E+00  9.27750E-01
   1.03054E+01  1.92755E+01  2.49982E+01  2.53291E+01  2.03062E+01  1.18824E+01  2.73692E+00 -4.88906E+00 -1.05528E+01 -1.53756E+01
  -1.98426E+01 -2.29891E+01 -2.41386E+01 -2.44403E+01 -2.45239E+01 -2.45122E+01 -2.44399E+01 -2.42895E+01 -2.39990E+01 -2.32039E+01
  -2.02854E+01 -1.47958E+01 -8.25603E+00 -1.38560E+00  6.00294E+00  1.37106E+01  2.01099E+01  2.30470E+01  2.15016E+01  1.62537E+01
   9.23221E+00  2.45072E+00 -2.99669E+00 -7.53699E+00 -1.19024E+01 -1.57063E+01 -1.78454E+01 -1.83974E+01 -1.82230E+01 -1.77149E+01
  -1.71895E+01 -1.68357E+01 -1.66694E+01 -1.66738E+01 -1.68273E+01 -1.70744E+01 -1.73847E+01 -1.77542E+01 -1.81461E+01 -1.85027E+01
  -1.87682E+01 -1.89400E+01 -1.90501E+01 -1.91290E+01 -1.92970E+01 -1.96082E+01 -1.99809E+01 -2.03512E+01 -2.06477E+01 -2.09169E+01
  -2.11672E+01 -2.12380E+01 -2.10102E+01 -2.05710E+01 -2.01915E+01 -2.01266E+01 -2.04363E+01 -2.09685E+01 -2.15259E+01 -2.20868E+01
  -2.27435E+01 -2.33674E+01 -2.38731E+01 -2.42693E+01 -2.46075E+01 -2.48526E+01 -2.47960E+01 -2.43992E+01 -2.39026E+01 -2.35833E+01
  -2.35684E+01 -2.36678E+01 -2.34755E+01 -2.28490E+01 -2.19333E+01 -2.09132E+01 -1.97506E+01 -1.82386E+01 -1.64069E+01 -1.46092E+01
  -1.32693E+01 -1.26620E+01 -1.26691E+01 -1.29687E+01 -1.32553E+01 -1.34179E+01 -1.34396E+01 -1.31148E+01 -1.23243E+01 -1.11855E+01
  -9.87358E+00 -8.57216E+00 -7.55952E+00 -7.19435E+00 -7.49113E+00 -8.31122E+00 -9.61737E+00 -1.12288E+01 -1.26308E+01 -1.33561E+01
  -1.33415E+01 -1.27850E+01 -1.18005E+01 -1.04292E+01 -8.87611E+00 -7.42184E+00 -6.21576E+00 -5.30430E+00 -4.70836E+00 -4.33436E+00
  -3.90737E+00 -3.30230E+00 -2.57398E+00 -1.76095E+00 -9.40210E-01 -2.06014E-01  4.21115E-01  9.45262E-01  1.36303E+00  1.70050E+00
   2.19355E+00  3.01067E+00  4.09285E+00  5.35014E+00  6.75065E+00  8.17730E+00  9.41931E+00  1.03989E+01  1.11842E+01  1.18103E+01
   1.22538E+01  1.26467E+01  1.32346E+01  1.41452E+01  1.53407E+01  1.67277E+01  1.82469E+01  1.97480E+01  2.11172E+01  2.23907E+01
   2.36510E+01  2.49655E+01  2.68493E+01  3.22947E+01  4.42118E+01  5.92454E+01  7.47692E+01  9.08216E+01  1.07508E+02  1.21627E+02
   1.27755E+02  1.22830E+02  1.08179E+02  8.83504E+01  6.86866E+01  5.28585E+01  4.07835E+01  3.01869E+01  2.06843E+01  1.43549E+01
   1.17317E+01  1.04079E+01  9.44526E+00  8.66131E+00  7.97736E+00  7.34914E+00  6.76021E+00  6.20326E+00  5.68369E+00  5.21560E+00
   4.81605E+00  4.49663E+00  4.26942E+00  4.14253E+00  4.11867E+00  4.19786E+00  4.37933E+00  4.65904E+00  5.03699E+00  5.51486E+00
   6.09602E+00  6.78311E+00  7.57606E+00  8.47128E+00  9.46536E+00  1.05501E+01  1.17117E+01  1.29314E+01  1.41875E+01  1.54532E+01
   1.66992E+01  1.78947E+01  1.90096E+01  2.00128E+01  2.08765E+01  2.15755E+01  2.20906E+01  2.24081E+01  2.25224E+01  2.24339E+01
   2.21508E+01  2.16875E+01  2.10659E+01  2.03127E+01  1.94595E+01  1.85401E+01  1.75920E+01  1.66548E+01  1.57776E+01  1.50336E+01
   1.45176E+01  1.40884E+01  1.35589E+01  1.29262E+01  1.22170E+01  1.13442E+01  1.01387E+01  8.56172E+00  6.95904E+00  5.78894E+00
   5.21562E+00  5.24585E+00  5.82817E+00  6.86378E+00  8.19853E+00  9.63097E+00  1.09233E+01  1.18250E+01  1.23003E+01  1.25430E+01
   1.27739E+01  1.30572E+01  1.33211E+01  1.35616E+01  1.39140E+01  1.44515E+01  1.51213E+01  1.59036E+01  1.68322E+01  1.79331E+01
   1.91900E+01  2.05526E+01  2.19437E+01  2.32587E+01  2.43803E+01  2.52029E+01  2.56509E+01  2.56841E+01  2.53208E+01  2.46370E+01
   2.37324E+01  2.27001E+01  2.16203E+01  2.05659E+01  1.95998E+01  1.87497E+01  1.80163E+01  1.73887E+01  1.68506E+01  1.63834E+01
   1.59712E+01  1.56013E+01  1.52663E+01  1.49621E+01  1.46888E+01  1.44480E+01  1.42430E+01  1.40770E+01  1.39539E+01  1.38768E+01
   1.38495E+01  1.38746E+01  1.39550E+01  1.40924E+01  1.42893E+01  1.45471E+01  1.48678E+01  1.52523E+01  1.57016E+01  1.62155E+01
   1.67939E+01  1.74349E+01  1.81365E+01  1.88944E+01  1.97032E+01  2.05551E+01  2.14412E+01  2.23500E+01  2.32688E+01  2.41824E+01
   2.50746E+01  2.59277E+01  2.67243E+01  2.74464E+01  2.80775E+01  2.86018E+01  2.90063E+01  2.92804E+01  2.94175E+01  2.94140E+01
   2.92708E+01  2.89918E+01  2.85854E+01  2.80627E+01  2.74382E+01  2.67277E+01  2.59491E+01  2.51200E+01  2.42589E+01  2.33829E+01
   2.25083E+01  2.16491E+01  2.08179E+01  2.00242E+01  1.92762E+01  1.85794E+01  1.79375E+01  1.73520E+01  1.68233E+01  1.63500E+01
   1.59302E+01  1.55610E+01  1.52392E+01  1.49609E+01  1.47225E+01  1.45199E+01  1.43501E+01  1.42092E+01  1.40943E+01  1.40022E+01
   1.39304E+01  1.38764E+01  1.38385E+01  1.38144E+01  1.38028E+01  1.38019E+01  1.38107E+01  1.38280E+01  1.38530E+01  1.38847E+01
   1.39226E+01  1.39656E+01  1.40136E+01  1.40659E+01  1.41222E+01  1.41820E+01  1.42451E+01  1.43109E+01  1.43795E+01  1.44504E+01
   1.45237E+01  1.45988E+01  1.46759E+01  1.47545E+01  1.48348E+01  1.49165E+01  1.49997E+01  1.50839E+01  1.51694E+01  1.52558E+01
   1.53433E+01  1.54317E+01  1.55211E+01  1.56111E+01  1.57019E+01  1.57933E+01  1.58857E+01  1.59785E+01  1.60720E+01  1.61659E+01
   1.62605E+01  1.63555E+01  1.64512E+01  1.65472E+01  1.66439E+01  1.67407E+01  1.68382E+01  1.69360E+01  1.70344E+01  1.71331E+01
   1.72323E+01  1.73318E+01  1.74319E+01  1.75323E+01  1.76334E+01  1.77348E+01  1.78369E+01  1.79393E+01
 NY background values follow
    -4.813E+01   -4.797E+01   -4.780E+01   -4.764E+01   -4.747E+01   -4.731E+01   -4.714E+01   -4.698E+01   -4.681E+01   -4.665E+01
    -4.648E+01   -4.632E+01   -4.615E+01   -4.598E+01   -4.582E+01   -4.565E+01   -4.549E+01   -4.532E+01   -4.516E+01   -4.499E+01
    -4.482E+01   -4.466E+01   -4.449E+01   -4.433E+01   -4.416E+01   -4.400E+01   -4.383E+01   -4.366E+01   -4.350E+01   -4.333E+01
    -4.317E+01   -4.300E+01   -4.283E+01   -4.267E+01   -4.250E+01   -4.234E+01   -4.217E+01   -4.200E+01   -4.184E+01   -4.167E+01
    -4.151E+01   -4.134E+01   -4.117E+01   -4.101E+01   -4.084E+01   -4.068E+01   -4.051E+01   -4.034E+01   -4.018E+01   -4.001E+01
    -3.985E+01   -3.968E+01   -3.951E+01   -3.935E+01   -3.918E+01   -3.902E+01   -3.885E+01   -3.869E+01   -3.852E+01   -3.835E+01
    -3.819E+01   -3.802E+01   -3.786E+01   -3.769E+01   -3.753E+01   -3.736E+01   -3.720E+01   -3.703E+01   -3.687E+01   -3.670E+01
    -3.654E+01   -3.637E+01   -3.621E+01   -3.604E+01   -3.588E+01   -3.571E+01   -3.555E+01   -3.538E+01   -3.522E+01   -3.506E+01
    -3.489E+01   -3.473E+01   -3.456E+01   -3.440E+01   -3.424E+01   -3.407E+01   -3.391E+01   -3.374E+01   -3.358E+01   -3.342E+01
    -3.325E+01   -3.309E+01   -3.293E+01   -3.276E+01   -3.260E+01   -3.244E+01   -3.228E+01   -3.211E+01   -3.195E+01   -3.179E+01
    -3.163E+01   -3.146E+01   -3.130E+01   -3.114E+01   -3.098E+01   -3.082E+01   -3.065E+01   -3.049E+01   -3.033E+01   -3.017E+01
    -3.001E+01   -2.985E+01   -2.969E+01   -2.953E+01   -2.936E+01   -2.920E+01   -2.904E+01   -2.888E+01   -2.872E+01   -2.856E+01
    -2.840E+01   -2.824E+01   -2.808E+01   -2.792E+01   -2.776E+01   -2.761E+01   -2.745E+01   -2.729E+01   -2.713E+01   -2.697E+01
    -2.681E+01   -2.665E+01   -2.650E+01   -2.634E+01   -2.618E+01   -2.602E+01   -2.586E+01   -2.571E+01   -2.555E+01   -2.539E+01
    -2.524E+01   -2.508E+01   -2.492E+01   -2.477E+01   -2.461E+01   -2.445E+01   -2.430E+01   -2.414E+01   -2.399E+01   -2.383E+01
    -2.368E+01   -2.352E+01   -2.337E+01   -2.321E+01   -2.306E+01   -2.290E+01   -2.275E+01   -2.259E+01   -2.244E+01   -2.229E+01
    -2.213E+01   -2.198E+01   -2.183E+01   -2.167E+01   -2.152E+01   -2.137E+01   -2.121E+01   -2.106E+01   -2.091E+01   -2.076E+01
    -2.061E+01   -2.046E+01   -2.030E+01   -2.015E+01   -2.000E+01   -1.985E+01   -1.970E+01   -1.955E+01   -1.940E+01   -1.925E+01
    -1.910E+01   -1.895E+01   -1.880E+01   -1.865E+01   -1.851E+01   -1.836E+01   -1.821E+01   -1.806E+01   -1.791E+01   -1.777E+01
    -1.762E+01   -1.747E+01   -1.732E+01   -1.718E+01   -1.703E+01   -1.688E+01   -1.674E+01   -1.659E+01   -1.645E+01   -1.630E+01
    -1.615E+01   -1.601E+01   -1.586E+01   -1.572E+01   -1.558E+01   -1.543E+01   -1.529E+01   -1.514E+01   -1.500E+01   -1.486E+01
    -1.471E+01   -1.457E+01   -1.443E+01   -1.428E+01   -1.414E+01   -1.400E+01   -1.386E+01   -1.372E+01   -1.358E+01   -1.344E+01
    -1.329E+01   -1.315E+01   -1.301E+01   -1.287E+01   -1.273E+01   -1.259E+01   -1.245E+01   -1.231E+01   -1.218E+01   -1.204E+01
    -1.190E+01   -1.176E+01   -1.162E+01   -1.148E+01   -1.135E+01   -1.121E+01   -1.107E+01   -1.094E+01   -1.080E+01   -1.066E+01
    -1.053E+01   -1.039E+01   -1.026E+01   -1.012E+01   -9.984E+00   -9.849E+00   -9.715E+00   -9.580E+00   -9.446E+00   -9.312E+00
    -9.178E+00   -9.044E+00   -8.911E+00   -8.778E+00   -8.645E+00   -8.512E+00   -8.379E+00   -8.247E+00   -8.115E+00   -7.983E+00
    -7.852E+00   -7.720E+00   -7.589E+00   -7.458E+00   -7.327E+00   -7.197E+00   -7.067E+00   -6.937E+00   -6.807E+00   -6.677E+00
    -6.548E+00   -6.419E+00   -6.290E+00   -6.161E+00   -6.033E+00   -5.904E+00   -5.776E+00   -5.649E+00   -5.521E+00   -5.394E+00
    -5.266E+00   -5.139E+00   -5.013E+00   -4.886E+00   -4.760E+00   -4.634E+00   -4.508E+00   -4.382E+00   -4.257E+00   -4.131E+00
    -4.006E+00   -3.881E+00   -3.757E+00   -3.632E+00   -3.508E+00   -3.384E+00   -3.260E+00   -3.137E+00   -3.013E+00   -2.890E+00
    -2.767E+00   -2.644E+00   -2.521E+00   -2.399E+00   -2.277E+00   -2.155E+00   -2.033E+00   -1.911E+00   -1.790E+00   -1.668E+00
    -1.547E+00   -1.427E+00   -1.306E+00   -1.185E+00   -1.065E+00   -9.449E-01   -8.249E-01   -7.052E-01   -5.856E-01   -4.662E-01
    -3.470E-01   -2.280E-01   -1.092E-01    9.452E-03    1.279E-01    2.462E-01    3.643E-01    4.823E-01    6.000E-01    7.176E-01
     8.350E-01    9.522E-01    1.069E+00    1.186E+00    1.303E+00    1.419E+00    1.536E+00    1.652E+00    1.768E+00    1.884E+00
     2.000E+00    2.115E+00    2.231E+00    2.346E+00    2.461E+00    2.576E+00    2.691E+00    2.805E+00    2.920E+00    3.034E+00
     3.148E+00    3.262E+00    3.376E+00    3.489E+00    3.603E+00    3.716E+00    3.830E+00    3.943E+00    4.055E+00    4.168E+00
     4.281E+00    4.393E+00    4.506E+00    4.618E+00    4.730E+00    4.842E+00    4.954E+00    5.065E+00    5.177E+00    5.288E+00
     5.399E+00    5.510E+00    5.621E+00    5.732E+00    5.843E+00    5.953E+00    6.064E+00    6.174E+00    6.284E+00    6.394E+00
     6.504E+00    6.614E+00    6.724E+00    6.833E+00    6.943E+00    7.052E+00    7.161E+00    7.270E+00    7.379E+00    7.488E+00
     7.597E+00    7.705E+00    7.814E+00    7.922E+00    8.030E+00    8.138E+00    8.246E+00    8.354E+00    8.462E+00    8.570E+00
     8.677E+00    8.785E+00    8.892E+00    8.999E+00    9.107E+00    9.214E+00    9.321E+00    9.428E+00    9.534E+00    9.641E+00
     9.747E+00    9.854E+00    9.960E+00    1.007E+01    1.017E+01    1.028E+01    1.038E+01    1.049E+01    1.060E+01    1.070E+01
     1.081E+01    1.091E+01    1.102E+01    1.112E+01    1.123E+01    1.133E+01    1.144E+01    1.154E+01    1.165E+01    1.175E+01
     1.186E+01    1.196E+01    1.207E+01    1.217E+01    1.228E+01    1.238E+01    1.249E+01    1.259E+01    1.270E+01    1.280E+01
     1.290E+01    1.301E+01    1.311E+01    1.322E+01    1.332E+01    1.342E+01    1.353E+01    1.363E+01    1.373E+01    1.384E+01
     1.394E+01    1.404E+01    1.415E+01    1.425E+01    1.435E+01    1.446E+01    1.456E+01    1.466E+01    1.477E+01    1.487E+01
     1.497E+01    1.507E+01    1.518E+01    1.528E+01    1.538E+01    1.548E+01    1.559E+01    1.569E+01    1.579E+01    1.589E+01
     1.600E+01    1.610E+01    1.620E+01    1.630E+01    1.641E+01    1.651E+01    1.661E+01    1.671E+01    1.681E+01    1.692E+01
     1.702E+01    1.712E+01    1.722E+01    1.732E+01    1.743E+01    1.753E+01    1.763E+01    1.773E+01    1.783E+01    1.793E+01
     1.804E+01    1.814E+01    1.824E+01    1.834E+01    1.844E+01    1.854E+01    1.865E+01    1.875E+01
 Ala      Conc. = 3.14E+02
