 LCModel (Version 6.3-1L) Copyright: S.W. Provencher.          Ref.: Magn. Reson. Med. 30:672-679 (1993).                
 Slice#3 Row#4 Col#11  PD_05_press_2_raw_act
 36 lines in following concentration table = NCONC+1
    Conc.  %SD /Cr+PCr  Metabolite                                         
  782.370  23%   1.539 Ala                                                 
   74.930 136%   0.147 Asp                                                 
  508.411  14%   1.000 Cr                                                  
    0.000 999%   0.000 PCr                                                 
   60.506 102%   0.119 GABA                                                
   70.098  88%   0.138 Glc                                                 
   73.011 473%   0.144 Gln                                                 
 1.29E+03  31%   2.543 Glu                                                 
  158.796  17%   0.312 GPC                                                 
    0.000 999%   0.000 PCh                                                 
  296.582  34%   0.583 GSH                                                 
  397.205  78%   0.781 Ins                                                 
    0.000 999%   0.000 Lac                                                 
  854.776  10%   1.681 NAA                                                 
    0.000 999%   0.000 NAAG                                                
   37.850  49% 7.4E-02 Scyllo                                              
  156.695  64%   0.308 Tau                                                 
  154.125  66%   0.303 -CrCH2                                              
  158.796  17%   0.312 GPC+PCh                                             
  854.776  10%   1.681 NAA+NAAG                                            
  508.411  14%   1.000 Cr+PCr                                              
 1.37E+03  43%   2.686 Glu+Gln                                             
 1.38E+04   6%  27.234 Lip13a                                              
  166.090 152%   0.327 Lip13b                                              
 1.34E+03  25%   2.632 Lip09                                               
    0.000 999%   0.000 MM09                                                
 1.92E+03  20%   3.780 Lip20                                               
    0.000 999%   0.000 MM20                                                
    0.000 999%   0.000 MM12                                                
  352.813  80%   0.694 MM14                                                
    0.000 999%   0.000 MM17                                                
 1.40E+04   6%  27.561 Lip13a+Lip13b                                       
 1.44E+04   5%  28.255 MM14+Lip13a+Lip13b+MM12                             
 1.34E+03  25%   2.632 MM09+Lip09                                          
 1.92E+03  20%   3.780 MM20+Lip20                                          
   6 lines in following misc. output table
  FWHM = 0.061 ppm    S/N =   5                                            
  Data shift = 0.000 ppm                                                   
  Ph: -94 deg     -34.5 deg/ppm                                            
  alphaB,S = 8.5E+01,   5.1E+01                                            
   14 spline knots.   Ns = 7(1)                                            
   2 inflections.     1 extrema                                            
  498 points on ppm-axis = NY
      4.000000     3.992357     3.984714     3.977070     3.969427     3.961784     3.954141     3.946497     3.938854     3.931211
      3.923568     3.915925     3.908281     3.900638     3.892995     3.885352     3.877708     3.870065     3.862422     3.854779
      3.847136     3.839492     3.831849     3.824206     3.816563     3.808919     3.801276     3.793633     3.785990     3.778347
      3.770703     3.763060     3.755417     3.747774     3.740130     3.732487     3.724844     3.717201     3.709558     3.701914
      3.694271     3.686628     3.678985     3.671341     3.663698     3.656055     3.648412     3.640769     3.633125     3.625482
      3.617839     3.610196     3.602552     3.594909     3.587266     3.579623     3.571980     3.564336     3.556693     3.549050
      3.541407     3.533763     3.526120     3.518477     3.510834     3.503191     3.495547     3.487904     3.480261     3.472618
      3.464974     3.457331     3.449688     3.442045     3.434402     3.426758     3.419115     3.411472     3.403829     3.396185
      3.388542     3.380899     3.373256     3.365613     3.357969     3.350326     3.342683     3.335040     3.327396     3.319753
      3.312110     3.304467     3.296824     3.289180     3.281537     3.273894     3.266251     3.258607     3.250964     3.243321
      3.235678     3.228034     3.220391     3.212748     3.205105     3.197462     3.189818     3.182175     3.174532     3.166889
      3.159245     3.151602     3.143959     3.136316     3.128673     3.121029     3.113386     3.105743     3.098100     3.090456
      3.082813     3.075170     3.067527     3.059884     3.052240     3.044597     3.036954     3.029311     3.021667     3.014024
      3.006381     2.998738     2.991095     2.983451     2.975808     2.968165     2.960522     2.952878     2.945235     2.937592
      2.929949     2.922306     2.914662     2.907019     2.899376     2.891733     2.884089     2.876446     2.868803     2.861160
      2.853517     2.845873     2.838230     2.830587     2.822944     2.815300     2.807657     2.800014     2.792371     2.784728
      2.777084     2.769441     2.761798     2.754155     2.746511     2.738868     2.731225     2.723582     2.715939     2.708295
      2.700652     2.693009     2.685366     2.677722     2.670079     2.662436     2.654793     2.647150     2.639506     2.631863
      2.624220     2.616577     2.608933     2.601290     2.593647     2.586004     2.578361     2.570717     2.563074     2.555431
      2.547788     2.540144     2.532501     2.524858     2.517215     2.509572     2.501928     2.494285     2.486642     2.478999
      2.471355     2.463712     2.456069     2.448426     2.440783     2.433139     2.425496     2.417853     2.410210     2.402566
      2.394923     2.387280     2.379637     2.371994     2.364350     2.356707     2.349064     2.341421     2.333777     2.326134
      2.318491     2.310848     2.303205     2.295561     2.287918     2.280275     2.272632     2.264988     2.257345     2.249702
      2.242059     2.234416     2.226772     2.219129     2.211486     2.203843     2.196199     2.188556     2.180913     2.173270
      2.165627     2.157983     2.150340     2.142697     2.135054     2.127410     2.119767     2.112124     2.104481     2.096838
      2.089194     2.081551     2.073908     2.066265     2.058621     2.050978     2.043335     2.035692     2.028049     2.020405
      2.012762     2.005119     1.997476     1.989833     1.982190     1.974546     1.966903     1.959260     1.951617     1.943974
      1.936331     1.928688     1.921045     1.913402     1.905759     1.898115     1.890472     1.882829     1.875186     1.867543
      1.859900     1.852257     1.844614     1.836971     1.829327     1.821684     1.814041     1.806398     1.798755     1.791112
      1.783469     1.775826     1.768183     1.760540     1.752896     1.745253     1.737610     1.729967     1.722324     1.714681
      1.707038     1.699395     1.691752     1.684108     1.676465     1.668822     1.661179     1.653536     1.645893     1.638250
      1.630607     1.622964     1.615321     1.607677     1.600034     1.592391     1.584748     1.577105     1.569462     1.561819
      1.554176     1.546533     1.538890     1.531246     1.523603     1.515960     1.508317     1.500674     1.493031     1.485388
      1.477745     1.470102     1.462458     1.454815     1.447172     1.439529     1.431886     1.424243     1.416600     1.408957
      1.401314     1.393671     1.386027     1.378384     1.370741     1.363098     1.355455     1.347812     1.340169     1.332526
      1.324883     1.317240     1.309596     1.301953     1.294310     1.286667     1.279024     1.271381     1.263738     1.256095
      1.248452     1.240808     1.233165     1.225522     1.217879     1.210236     1.202593     1.194950     1.187307     1.179664
      1.172021     1.164377     1.156734     1.149091     1.141448     1.133805     1.126162     1.118519     1.110876     1.103233
      1.095590     1.087946     1.080303     1.072660     1.065017     1.057374     1.049731     1.042088     1.034445     1.026802
      1.019158     1.011515     1.003872     0.996229     0.988586     0.980943     0.973300     0.965657     0.958014     0.950371
      0.942727     0.935084     0.927441     0.919798     0.912155     0.904512     0.896869     0.889226     0.881583     0.873940
      0.866296     0.858653     0.851010     0.843367     0.835724     0.828081     0.820438     0.812795     0.805152     0.797508
      0.789865     0.782222     0.774579     0.766936     0.759293     0.751650     0.744007     0.736364     0.728721     0.721077
      0.713434     0.705791     0.698148     0.690505     0.682862     0.675219     0.667576     0.659933     0.652290     0.644646
      0.637003     0.629360     0.621717     0.614074     0.606431     0.598788     0.591145     0.583502     0.575858     0.568215
      0.560572     0.552929     0.545286     0.537643     0.530000     0.522357     0.514714     0.507071     0.499427     0.491784
      0.484141     0.476498     0.468855     0.461212     0.453569     0.445925     0.438282     0.430639     0.422996     0.415353
      0.407710     0.400067     0.392424     0.384780     0.377137     0.369494     0.361851     0.354208     0.346565     0.338922
      0.331278     0.323635     0.315992     0.308349     0.300706     0.293063     0.285420     0.277777     0.270133     0.262490
      0.254847     0.247204     0.239561     0.231918     0.224275     0.216631     0.208988     0.201345
 NY phased data points follow
  -9.93368E-01  4.84322E+00  1.77413E+00  6.48040E+00  6.52328E+00  4.54169E+00  7.17628E+00  8.10480E+00  4.59318E+00  9.19793E+00
   1.93117E+01  6.62808E+00  1.89645E+01  1.14108E+01  2.27056E+01  1.89518E+01  1.21377E+01  7.46139E+00 -7.82207E+00  2.77896E+00
   1.35015E+01  8.76616E+00  1.98341E+01  4.57521E+00  7.74338E+00  7.30228E+00  6.80246E+00  1.32916E+01  6.74633E+00  9.97921E+00
   1.88045E+01  7.49947E+00  1.37126E+01  1.78249E+01  1.06872E+01  9.92662E+00  8.04958E+00  1.48099E+01  5.67799E+00  6.01349E+00
   4.30588E+00  6.74582E+00  1.15861E+01  1.13256E+01  7.56329E+00  1.28849E+01  1.38390E+01  1.02549E+01  1.32811E+01  5.84665E+00
   1.34890E+01  1.04175E+01  6.93292E+00  1.52098E+01  7.81612E+00  1.33432E+01  1.01885E+01  9.01615E+00  9.81284E+00  9.56000E+00
   1.16383E+01  1.70240E+01  8.49075E+00  1.07239E+01  2.02702E+00  6.25835E+00  8.01524E-02  1.20560E+01  6.48366E+00  6.54840E+00
   4.73938E+00  6.71325E+00  1.48383E+01  2.85330E+00  1.25026E+01  1.05617E+01  1.01315E+01  4.21299E+00  1.62269E+01  9.24832E+00
   9.50253E+00  1.53462E+01  2.14492E+01 -7.31726E-01  6.81471E+00  8.76335E+00  1.00959E+01  1.21099E+01  1.24465E+01  1.35903E+01
   9.53873E+00  1.34892E+01  5.42070E+00  8.79910E+00  1.01614E+01  5.56993E+00  1.36401E+01  5.72460E+00  1.66273E+01  1.89007E+01
   1.41914E+01  1.72026E+01  2.00762E+01  2.03474E+01  2.60908E+01  1.83378E+01  1.22255E+01  1.65786E+01  1.02145E+01  9.14866E+00
   1.36552E+01  5.16076E+00  7.26676E+00  7.29890E+00  8.65327E+00  9.57545E+00  3.19966E+00  1.42532E+01  1.77759E+01  1.22500E+01
   1.74938E+01  8.20633E+00  1.53306E+01  5.76846E+00  1.02740E+01  2.00264E+01  2.29259E+01  2.46033E+01  2.26820E+01  1.98053E+01
   2.49827E+01  1.56245E+01  1.68508E+01  1.60264E+01  1.71184E+01  9.78985E+00  1.62628E+01  8.87199E+00  9.71940E+00  5.07601E+00
   6.46218E+00  7.35695E+00  1.83491E+01  9.84515E+00  1.39767E+01  1.04348E+01  1.02005E+01  5.73901E+00  1.14466E+01  7.22793E+00
   1.28678E+01  1.70445E+01  1.15497E+01  9.28993E+00  1.25008E+01  3.65196E+00  9.92662E+00  3.99616E+00  1.03850E+01  1.67502E+01
   7.15203E+00  1.00902E+01  5.50443E+00  1.14854E+01  1.07281E+01  7.99079E+00  8.02868E+00  1.19352E+01  9.80869E+00  4.17803E+00
   5.51066E+00  2.47231E+00  9.83337E+00  3.81938E+00  1.52117E+01  1.02861E+01  1.34604E+01  2.68233E+00  5.38703E+00  8.79790E+00
   6.33518E+00  4.22902E+00  8.69877E-01  2.21642E+00  6.30092E+00  1.23203E+00  1.51823E+01 -1.93163E+00  2.11196E+00  1.06104E+00
   8.32276E+00  9.18499E+00  1.38845E+01  1.81604E+01  4.83450E+00 -3.89593E+00  8.04537E+00 -2.19320E+00  1.11017E+01  2.66568E+00
   8.83977E+00  9.48697E+00  1.22519E+01  5.13473E+00  2.92750E+00  8.19177E+00  6.78430E+00  5.75467E+00  1.65673E+01  3.62832E+00
   1.99900E+00  1.34467E+01  1.49447E+01  1.96550E+01  1.60497E+01  1.83647E+01  1.65946E+01  1.38506E+01  5.48559E+00  1.18450E+01
   1.25444E+00  6.25585E+00  7.58432E+00  5.16891E+00  6.06331E+00  7.67543E+00  8.52122E+00  1.29984E+01  1.28721E+01  2.00478E+01
   1.17194E+01  8.37448E+00  7.44828E+00  4.03931E+00  5.28402E+00  1.59448E+01  9.78428E+00  4.91719E+00  1.31146E+01  1.98297E+01
   5.31463E+00  1.18468E+01  1.10839E+01  1.21250E+01  8.50643E+00  1.16994E+01  1.59125E+01  7.63121E+00  1.30503E+01  1.15425E+01
   1.53309E+01  1.18626E+01  1.33011E+01  1.67847E+01  1.60272E+01  2.09604E+01  2.35594E+01  1.93900E+01  3.21550E+01  2.98650E+01
   3.00159E+01  3.12386E+01  3.85596E+01  4.63472E+01  4.58653E+01  2.68015E+01  2.50611E+01  1.70053E+01  2.94854E+01  1.85214E+01
   2.06810E+01  1.35482E+01  1.26042E+01  1.42271E+01  6.95897E+00  6.60110E-01  1.14102E+01  1.28093E+01  1.44045E+01  1.97055E+01
   1.15615E+01  1.64031E+01  1.67277E+01  9.69719E+00  1.13188E+01  9.30136E+00  1.96518E+01  5.47082E+00  5.70919E+00  9.42904E+00
   1.00144E+01  1.04574E+01  8.32281E+00  1.16292E+01  1.56820E+01  5.00684E+00  1.07073E+01  1.24686E+01  9.52685E+00  9.13991E+00
   8.10179E+00  8.91778E+00  1.51192E+01  1.16284E+01  1.80492E+01  1.10811E+01  1.60318E+01  1.45823E+01  1.31415E+01  1.38907E+01
   1.24788E+01  1.52123E+01  1.49751E+01  6.38037E+00  1.24195E+01  1.48790E+01  2.16463E+01  2.36656E+01  1.67126E+01  2.70852E+01
   2.53393E+01  2.70388E+01  2.50482E+01  2.84562E+01  2.70720E+01  3.62141E+01  2.59153E+01  3.18782E+01  2.35684E+01  2.68592E+01
   2.75830E+01  2.52394E+01  2.88176E+01  2.53674E+01  2.43288E+01  3.22423E+01  2.89627E+01  3.10773E+01  4.21661E+01  4.30782E+01
   5.08712E+01  4.60487E+01  4.74356E+01  5.77347E+01  4.83582E+01  4.92326E+01  5.42909E+01  5.59758E+01  4.93667E+01  5.71773E+01
   5.75254E+01  4.88397E+01  5.10575E+01  5.69926E+01  6.07185E+01  5.44611E+01  5.74527E+01  5.30872E+01  5.21808E+01  4.72366E+01
   4.24925E+01  4.46270E+01  4.58596E+01  3.99900E+01  4.80255E+01  3.60544E+01  3.21583E+01  3.06152E+01  3.28438E+01  3.34339E+01
   3.11615E+01  2.66752E+01  3.02971E+01  3.31295E+01  2.03201E+01  2.60909E+01  2.67457E+01  1.62106E+01  2.82536E+01  1.44720E+01
   2.32494E+01  2.22496E+01  1.58690E+01  2.07224E+01  1.43322E+01  2.08326E+01  1.65734E+01  1.73330E+01  1.69549E+01  1.02191E+01
   1.95175E+01  4.21359E+00  9.41596E+00  1.68587E+01  1.23287E+01  1.72594E+01  1.49447E+01  1.67455E+01  9.86416E+00  1.32520E+01
   1.01480E+01  9.81551E+00  7.13400E+00  1.64209E+01  1.24312E+01  1.06795E+01  1.46626E+01  1.66598E+01  1.25005E+01  1.08617E+01
   9.38798E+00  9.97796E+00  7.93606E+00  9.07788E+00  1.31464E+01  7.30692E+00  8.73767E+00  1.65110E+01  3.10238E+00  1.64272E+01
   1.82580E+01  1.93932E+01  9.26798E+00  1.15292E+01  1.62244E+01  1.35315E+01  1.39342E+01  1.14997E+01  1.14524E+01  4.97224E+00
   1.53649E+01  6.55820E+00  4.86949E+00  8.99630E+00  1.21992E+01  7.40307E+00  9.16324E+00  2.61575E+00  1.57905E+01  1.08024E+01
   3.69416E+00  7.97282E+00  1.18858E+01  7.63947E+00  1.02353E+01  6.55149E+00  6.08048E+00  7.47720E+00  4.16712E+00  2.71867E+00
   5.19973E+00  1.38812E+01  5.50738E+00  7.01023E+00  7.34549E+00  9.32673E+00  7.40019E+00  9.32217E+00  1.78266E+00  4.00349E+00
   6.62501E+00  6.04488E+00  7.53713E+00  3.98485E+00  1.82720E+00 -6.17128E+00  3.35123E+00  6.98919E+00 -1.49930E+00  3.17283E+00
  -5.54281E-01  6.45733E+00  6.98963E+00  7.99574E+00  3.92557E+00  5.19113E+00  4.88591E+00  5.26846E+00  1.39773E+01  1.89280E+00
   7.70225E+00  1.40704E+00  1.13604E+00  8.95873E+00  5.52716E+00  1.21064E+00  2.44075E+00  2.28661E+00  6.44759E+00 -2.81334E+00
   2.73956E+00  1.94100E+00 -3.04748E+00  7.25781E+00  4.70842E+00  3.73933E+00  8.29178E+00  7.88044E+00
 NY points of the fit to the data follow
   7.88180E+00  7.63722E+00  7.43126E+00  7.27966E+00  7.35406E+00  7.73255E+00  8.35197E+00  9.20968E+00  1.02801E+01  1.14078E+01
   1.24560E+01  1.35146E+01  1.47283E+01  1.57681E+01  1.58728E+01  1.47631E+01  1.31018E+01  1.16509E+01  1.04490E+01  9.41635E+00
   8.93309E+00  8.95222E+00  9.15799E+00  9.50807E+00  9.86372E+00  1.01703E+01  1.05096E+01  1.09263E+01  1.12274E+01  1.13809E+01
   1.17038E+01  1.25240E+01  1.35841E+01  1.41602E+01  1.39923E+01  1.34925E+01  1.27278E+01  1.15688E+01  1.01195E+01  9.03301E+00
   8.52313E+00  8.42301E+00  8.50845E+00  8.79538E+00  9.18533E+00  9.59930E+00  9.97691E+00  1.02299E+01  1.04094E+01  1.05247E+01
   1.03856E+01  9.94326E+00  9.33170E+00  8.70435E+00  8.19971E+00  7.88046E+00  7.74762E+00  7.78749E+00  7.92821E+00  8.08174E+00
   8.21233E+00  8.31775E+00  8.37395E+00  8.33974E+00  8.20790E+00  8.03808E+00  7.89453E+00  7.80036E+00  7.79479E+00  7.88854E+00
   8.03531E+00  8.19995E+00  8.34972E+00  8.47439E+00  8.55922E+00  8.58990E+00  8.57512E+00  8.51301E+00  8.42313E+00  8.30382E+00
   8.17262E+00  8.11274E+00  8.16332E+00  8.29265E+00  8.47159E+00  8.66805E+00  8.81452E+00  8.89048E+00  8.85587E+00  8.62056E+00
   8.18700E+00  7.73836E+00  7.45451E+00  7.33716E+00  7.33483E+00  7.69371E+00  8.58225E+00  9.84570E+00  1.14425E+01  1.33253E+01
   1.53211E+01  1.71904E+01  1.88159E+01  2.01929E+01  2.10644E+01  2.07463E+01  1.88354E+01  1.59639E+01  1.32471E+01  1.10998E+01
   9.27302E+00  8.02197E+00  7.62672E+00  7.47636E+00  7.38858E+00  7.33609E+00  7.29410E+00  7.28080E+00  7.31712E+00  7.51403E+00
   8.16421E+00  9.29155E+00  1.08253E+01  1.27419E+01  1.49544E+01  1.72199E+01  1.93437E+01  2.12949E+01  2.29411E+01  2.36590E+01
   2.26802E+01  2.00677E+01  1.68806E+01  1.40978E+01  1.18182E+01  9.86428E+00  8.79328E+00  8.29654E+00  7.99613E+00  7.95003E+00
   8.18459E+00  8.61635E+00  9.15364E+00  9.70186E+00  1.00837E+01  1.02388E+01  1.02277E+01  1.01123E+01  9.96353E+00  9.82914E+00
   9.71535E+00  9.66024E+00  9.62892E+00  9.60374E+00  9.57318E+00  9.53305E+00  9.48149E+00  9.41614E+00  9.35505E+00  9.29444E+00
   9.21689E+00  9.11821E+00  9.00266E+00  8.88579E+00  8.79810E+00  8.77258E+00  8.78693E+00  8.76431E+00  8.64296E+00  8.42477E+00
   8.13967E+00  7.83513E+00  7.55349E+00  7.28875E+00  7.05901E+00  6.86714E+00  6.68213E+00  6.50345E+00  6.34600E+00  6.25158E+00
   6.23297E+00  6.22990E+00  6.18304E+00  6.11297E+00  6.12160E+00  6.26709E+00  6.49639E+00  6.78863E+00  7.13720E+00  7.55948E+00
   8.04278E+00  8.50145E+00  8.85766E+00  9.02664E+00  8.96293E+00  8.72305E+00  8.41493E+00  8.15208E+00  8.05198E+00  8.13460E+00
   8.39724E+00  8.84325E+00  9.34234E+00  9.71945E+00  9.90015E+00  9.90787E+00  9.76351E+00  9.43120E+00  9.05657E+00  8.84878E+00
   8.89111E+00  9.22062E+00  9.82611E+00  1.06684E+01  1.15441E+01  1.21591E+01  1.23198E+01  1.19910E+01  1.08940E+01  9.03040E+00
   6.98116E+00  5.39704E+00  4.50682E+00  4.28843E+00  5.02252E+00  6.85782E+00  9.16108E+00  1.12130E+01  1.26061E+01  1.34107E+01
   1.37635E+01  1.36526E+01  1.32619E+01  1.29509E+01  1.28624E+01  1.29577E+01  1.31059E+01  1.31509E+01  1.30704E+01  1.28716E+01
   1.25008E+01  1.20020E+01  1.15890E+01  1.14596E+01  1.16669E+01  1.21463E+01  1.28100E+01  1.35445E+01  1.41279E+01  1.44248E+01
   1.45189E+01  1.44503E+01  1.44012E+01  1.48432E+01  1.63258E+01  1.86586E+01  2.16018E+01  2.50317E+01  2.86721E+01  3.20811E+01
   3.50566E+01  3.76563E+01  3.95538E+01  3.94961E+01  3.64021E+01  3.09718E+01  2.51995E+01  2.03660E+01  1.63808E+01  1.32857E+01
   1.19956E+01  1.15245E+01  1.12824E+01  1.12016E+01  1.11926E+01  1.12361E+01  1.12790E+01  1.12660E+01  1.11888E+01  1.10698E+01
   1.09192E+01  1.07516E+01  1.06084E+01  1.05206E+01  1.04842E+01  1.04860E+01  1.05174E+01  1.05709E+01  1.06385E+01  1.07064E+01
   1.07731E+01  1.08442E+01  1.09228E+01  1.10075E+01  1.10993E+01  1.12031E+01  1.13201E+01  1.14483E+01  1.15891E+01  1.17446E+01
   1.19138E+01  1.20961E+01  1.22930E+01  1.25051E+01  1.27331E+01  1.29781E+01  1.32410E+01  1.35232E+01  1.38272E+01  1.41557E+01
   1.45115E+01  1.48976E+01  1.53180E+01  1.57769E+01  1.62795E+01  1.68328E+01  1.74463E+01  1.81335E+01  1.89166E+01  1.98369E+01
   2.09850E+01  2.24024E+01  2.38790E+01  2.52864E+01  2.65246E+01  2.74475E+01  2.78916E+01  2.78124E+01  2.72712E+01  2.63978E+01
   2.50729E+01  2.35192E+01  2.26591E+01  2.33637E+01  2.55709E+01  2.86732E+01  3.25569E+01  3.73950E+01  4.21857E+01  4.59537E+01
   4.82154E+01  4.93125E+01  4.99423E+01  5.03365E+01  5.04106E+01  5.07756E+01  5.14760E+01  5.22746E+01  5.30662E+01  5.37920E+01
   5.44071E+01  5.48704E+01  5.51432E+01  5.51897E+01  5.49807E+01  5.44974E+01  5.37348E+01  5.27032E+01  5.14279E+01  4.99459E+01
   4.83016E+01  4.65414E+01  4.47094E+01  4.28436E+01  4.09748E+01  3.91257E+01  3.73129E+01  3.55477E+01  3.38382E+01  3.21908E+01
   3.06105E+01  2.91018E+01  2.76685E+01  2.63137E+01  2.50396E+01  2.38478E+01  2.27385E+01  2.17112E+01  2.07645E+01  1.98963E+01
   1.91042E+01  1.83849E+01  1.77353E+01  1.71519E+01  1.66311E+01  1.61695E+01  1.57635E+01  1.54098E+01  1.51051E+01  1.48460E+01
   1.46293E+01  1.44518E+01  1.43103E+01  1.42014E+01  1.41218E+01  1.40680E+01  1.40364E+01  1.40231E+01  1.40242E+01  1.40357E+01
   1.40533E+01  1.40728E+01  1.40901E+01  1.41009E+01  1.41015E+01  1.40879E+01  1.40571E+01  1.40060E+01  1.39323E+01  1.38344E+01
   1.37111E+01  1.35620E+01  1.33874E+01  1.31880E+01  1.29655E+01  1.27218E+01  1.24595E+01  1.21812E+01  1.18901E+01  1.15894E+01
   1.12823E+01  1.09719E+01  1.06613E+01  1.03532E+01  1.00500E+01  9.75411E+00  9.46722E+00  9.19085E+00  8.92615E+00  8.67390E+00
   8.43465E+00  8.20866E+00  7.99597E+00  7.79638E+00  7.60957E+00  7.43505E+00  7.27233E+00  7.12078E+00  6.97978E+00  6.84862E+00
   6.72666E+00  6.61322E+00  6.50770E+00  6.40949E+00  6.31803E+00  6.23275E+00  6.15317E+00  6.07881E+00  6.00928E+00  5.94418E+00
   5.88315E+00  5.82584E+00  5.77197E+00  5.72127E+00  5.67353E+00  5.62848E+00  5.58594E+00  5.54570E+00  5.50761E+00  5.47150E+00
   5.43727E+00  5.40475E+00  5.37383E+00  5.34439E+00  5.31636E+00  5.28964E+00  5.26416E+00  5.23981E+00  5.21655E+00  5.19428E+00
   5.17299E+00  5.15259E+00  5.13307E+00  5.11433E+00  5.09636E+00  5.07910E+00  5.06255E+00  5.04665E+00  5.03138E+00  5.01667E+00
   5.00254E+00  4.98893E+00  4.97587E+00  4.96329E+00  4.95119E+00  4.93953E+00  4.92833E+00  4.91755E+00  4.90721E+00  4.89727E+00
   4.88772E+00  4.87855E+00  4.86977E+00  4.86138E+00  4.85338E+00  4.84575E+00  4.83851E+00  4.83164E+00
 NY background values follow
     6.533E+00    6.531E+00    6.529E+00    6.526E+00    6.524E+00    6.521E+00    6.519E+00    6.517E+00    6.514E+00    6.512E+00
     6.509E+00    6.507E+00    6.505E+00    6.502E+00    6.500E+00    6.497E+00    6.495E+00    6.492E+00    6.490E+00    6.488E+00
     6.485E+00    6.483E+00    6.480E+00    6.478E+00    6.475E+00    6.473E+00    6.471E+00    6.468E+00    6.466E+00    6.463E+00
     6.461E+00    6.458E+00    6.456E+00    6.454E+00    6.451E+00    6.449E+00    6.446E+00    6.444E+00    6.441E+00    6.439E+00
     6.436E+00    6.434E+00    6.432E+00    6.429E+00    6.427E+00    6.424E+00    6.422E+00    6.419E+00    6.417E+00    6.414E+00
     6.412E+00    6.409E+00    6.407E+00    6.404E+00    6.402E+00    6.399E+00    6.397E+00    6.395E+00    6.392E+00    6.390E+00
     6.387E+00    6.385E+00    6.382E+00    6.380E+00    6.377E+00    6.375E+00    6.372E+00    6.370E+00    6.367E+00    6.365E+00
     6.362E+00    6.360E+00    6.357E+00    6.355E+00    6.352E+00    6.350E+00    6.347E+00    6.345E+00    6.342E+00    6.340E+00
     6.337E+00    6.335E+00    6.332E+00    6.330E+00    6.327E+00    6.325E+00    6.322E+00    6.319E+00    6.317E+00    6.314E+00
     6.312E+00    6.309E+00    6.307E+00    6.304E+00    6.302E+00    6.299E+00    6.297E+00    6.294E+00    6.292E+00    6.289E+00
     6.287E+00    6.284E+00    6.281E+00    6.279E+00    6.276E+00    6.274E+00    6.271E+00    6.269E+00    6.266E+00    6.264E+00
     6.261E+00    6.258E+00    6.256E+00    6.253E+00    6.251E+00    6.248E+00    6.246E+00    6.243E+00    6.241E+00    6.238E+00
     6.235E+00    6.233E+00    6.230E+00    6.228E+00    6.225E+00    6.223E+00    6.220E+00    6.217E+00    6.215E+00    6.212E+00
     6.210E+00    6.207E+00    6.204E+00    6.202E+00    6.199E+00    6.197E+00    6.194E+00    6.191E+00    6.189E+00    6.186E+00
     6.184E+00    6.181E+00    6.178E+00    6.176E+00    6.173E+00    6.171E+00    6.168E+00    6.165E+00    6.163E+00    6.160E+00
     6.158E+00    6.155E+00    6.152E+00    6.150E+00    6.147E+00    6.144E+00    6.142E+00    6.139E+00    6.137E+00    6.134E+00
     6.131E+00    6.129E+00    6.126E+00    6.123E+00    6.121E+00    6.118E+00    6.116E+00    6.113E+00    6.110E+00    6.108E+00
     6.105E+00    6.102E+00    6.100E+00    6.097E+00    6.094E+00    6.092E+00    6.089E+00    6.086E+00    6.084E+00    6.081E+00
     6.079E+00    6.076E+00    6.073E+00    6.071E+00    6.068E+00    6.065E+00    6.063E+00    6.060E+00    6.057E+00    6.055E+00
     6.052E+00    6.049E+00    6.047E+00    6.044E+00    6.041E+00    6.039E+00    6.036E+00    6.033E+00    6.030E+00    6.028E+00
     6.025E+00    6.022E+00    6.020E+00    6.017E+00    6.014E+00    6.012E+00    6.009E+00    6.006E+00    6.004E+00    6.001E+00
     5.998E+00    5.996E+00    5.993E+00    5.990E+00    5.987E+00    5.985E+00    5.982E+00    5.979E+00    5.977E+00    5.974E+00
     5.971E+00    5.969E+00    5.966E+00    5.963E+00    5.960E+00    5.958E+00    5.955E+00    5.952E+00    5.950E+00    5.947E+00
     5.944E+00    5.941E+00    5.939E+00    5.936E+00    5.933E+00    5.930E+00    5.928E+00    5.925E+00    5.922E+00    5.920E+00
     5.917E+00    5.914E+00    5.911E+00    5.909E+00    5.906E+00    5.903E+00    5.900E+00    5.898E+00    5.895E+00    5.892E+00
     5.889E+00    5.887E+00    5.884E+00    5.881E+00    5.878E+00    5.876E+00    5.873E+00    5.870E+00    5.867E+00    5.865E+00
     5.862E+00    5.859E+00    5.856E+00    5.854E+00    5.851E+00    5.848E+00    5.845E+00    5.843E+00    5.840E+00    5.837E+00
     5.834E+00    5.832E+00    5.829E+00    5.826E+00    5.823E+00    5.821E+00    5.818E+00    5.815E+00    5.812E+00    5.809E+00
     5.807E+00    5.804E+00    5.801E+00    5.798E+00    5.796E+00    5.793E+00    5.790E+00    5.787E+00    5.784E+00    5.782E+00
     5.779E+00    5.776E+00    5.773E+00    5.770E+00    5.768E+00    5.765E+00    5.762E+00    5.759E+00    5.756E+00    5.754E+00
     5.751E+00    5.748E+00    5.745E+00    5.742E+00    5.740E+00    5.737E+00    5.734E+00    5.731E+00    5.728E+00    5.726E+00
     5.723E+00    5.720E+00    5.717E+00    5.714E+00    5.712E+00    5.709E+00    5.706E+00    5.703E+00    5.700E+00    5.697E+00
     5.695E+00    5.692E+00    5.689E+00    5.686E+00    5.683E+00    5.680E+00    5.678E+00    5.675E+00    5.672E+00    5.669E+00
     5.666E+00    5.663E+00    5.661E+00    5.658E+00    5.655E+00    5.652E+00    5.649E+00    5.646E+00    5.644E+00    5.641E+00
     5.638E+00    5.635E+00    5.632E+00    5.629E+00    5.627E+00    5.624E+00    5.621E+00    5.618E+00    5.615E+00    5.612E+00
     5.609E+00    5.607E+00    5.604E+00    5.601E+00    5.598E+00    5.595E+00    5.592E+00    5.589E+00    5.587E+00    5.584E+00
     5.581E+00    5.578E+00    5.575E+00    5.572E+00    5.569E+00    5.567E+00    5.564E+00    5.561E+00    5.558E+00    5.555E+00
     5.552E+00    5.549E+00    5.546E+00    5.544E+00    5.541E+00    5.538E+00    5.535E+00    5.532E+00    5.529E+00    5.526E+00
     5.523E+00    5.520E+00    5.518E+00    5.515E+00    5.512E+00    5.509E+00    5.506E+00    5.503E+00    5.500E+00    5.497E+00
     5.494E+00    5.492E+00    5.489E+00    5.486E+00    5.483E+00    5.480E+00    5.477E+00    5.474E+00    5.471E+00    5.468E+00
     5.466E+00    5.463E+00    5.460E+00    5.457E+00    5.454E+00    5.451E+00    5.448E+00    5.445E+00    5.442E+00    5.439E+00
     5.436E+00    5.434E+00    5.431E+00    5.428E+00    5.425E+00    5.422E+00    5.419E+00    5.416E+00    5.413E+00    5.410E+00
     5.407E+00    5.404E+00    5.401E+00    5.399E+00    5.396E+00    5.393E+00    5.390E+00    5.387E+00    5.384E+00    5.381E+00
     5.378E+00    5.375E+00    5.372E+00    5.369E+00    5.366E+00    5.363E+00    5.360E+00    5.358E+00    5.355E+00    5.352E+00
     5.349E+00    5.346E+00    5.343E+00    5.340E+00    5.337E+00    5.334E+00    5.331E+00    5.328E+00    5.325E+00    5.322E+00
     5.319E+00    5.316E+00    5.313E+00    5.310E+00    5.307E+00    5.305E+00    5.302E+00    5.299E+00    5.296E+00    5.293E+00
     5.290E+00    5.287E+00    5.284E+00    5.281E+00    5.278E+00    5.275E+00    5.272E+00    5.269E+00    5.266E+00    5.263E+00
     5.260E+00    5.257E+00    5.254E+00    5.251E+00    5.248E+00    5.245E+00    5.242E+00    5.239E+00    5.236E+00    5.233E+00
     5.231E+00    5.228E+00    5.225E+00    5.222E+00    5.219E+00    5.216E+00    5.213E+00    5.210E+00    5.207E+00    5.204E+00
     5.201E+00    5.198E+00    5.195E+00    5.192E+00    5.189E+00    5.186E+00    5.183E+00    5.180E+00
 Ala      Conc. = 7.82E+02
