 LCModel (Version 6.3-1L) Copyright: S.W. Provencher.          Ref.: Magn. Reson. Med. 30:672-679 (1993).                
 Slice#3 Row#1 Col#1  PD_05_press_2_raw_act
 36 lines in following concentration table = NCONC+1
    Conc.  %SD /Cr+PCr  Metabolite                                         
    0.000 999%   0.000 Ala                                                 
   26.165 110%   0.200 Asp                                                 
    0.000 999%   0.000 Cr                                                  
  130.581  56%   1.000 PCr                                                 
   16.176 107%   0.124 GABA                                                
   15.739 110%   0.121 Glc                                                 
    0.000 999%   0.000 Gln                                                 
    0.000 999%   0.000 Glu                                                 
    0.000 999%   0.000 GPC                                                 
   28.731  93%   0.220 PCh                                                 
    0.000 999%   0.000 GSH                                                 
    0.000 999%   0.000 Ins                                                 
    0.000 999%   0.000 Lac                                                 
    0.000 999%   0.000 NAA                                                 
  321.913  25%   2.465 NAAG                                                
    4.870 118% 3.7E-02 Scyllo                                              
   26.014 110%   0.199 Tau                                                 
   14.804 306%   0.113 -CrCH2                                              
   28.731  93%   0.220 GPC+PCh                                             
  321.913  25%   2.465 NAA+NAAG                                            
  130.581  56%   1.000 Cr+PCr                                              
    0.000 999%   0.000 Glu+Gln                                             
    0.000 999%   0.000 Lip13a                                              
  365.177  47%   2.797 Lip13b                                              
  125.559  70%   0.962 Lip09                                               
 1.92E-03 999% 1.5E-05 MM09                                                
   32.033 195%   0.245 Lip20                                               
    0.000 999%   0.000 MM20                                                
    0.000 999%   0.000 MM12                                                
    0.000 999%   0.000 MM14                                                
    0.000 999%   0.000 MM17                                                
  365.177  47%   2.797 Lip13a+Lip13b                                       
  365.177  47%   2.797 MM14+Lip13a+Lip13b+MM12                             
  125.561  70%   0.962 MM09+Lip09                                          
   32.033 195%   0.245 MM20+Lip20                                          
   6 lines in following misc. output table
  FWHM = 0.076 ppm    S/N =   1                                            
  Data shift = 0.031 ppm                                                   
  Ph:  13 deg      -2.8 deg/ppm                                            
  alphaB,S = 8.5E+01,   1.0E+02                                            
   14 spline knots.   Ns = 8(1)                                            
  (11) 4 infls.   (10) 1 extrs.                                            
  498 points on ppm-axis = NY
      4.000000     3.992357     3.984714     3.977070     3.969427     3.961784     3.954141     3.946497     3.938854     3.931211
      3.923568     3.915925     3.908281     3.900638     3.892995     3.885352     3.877708     3.870065     3.862422     3.854779
      3.847136     3.839492     3.831849     3.824206     3.816563     3.808919     3.801276     3.793633     3.785990     3.778347
      3.770703     3.763060     3.755417     3.747774     3.740130     3.732487     3.724844     3.717201     3.709558     3.701914
      3.694271     3.686628     3.678985     3.671341     3.663698     3.656055     3.648412     3.640769     3.633125     3.625482
      3.617839     3.610196     3.602552     3.594909     3.587266     3.579623     3.571980     3.564336     3.556693     3.549050
      3.541407     3.533763     3.526120     3.518477     3.510834     3.503191     3.495547     3.487904     3.480261     3.472618
      3.464974     3.457331     3.449688     3.442045     3.434402     3.426758     3.419115     3.411472     3.403829     3.396185
      3.388542     3.380899     3.373256     3.365613     3.357969     3.350326     3.342683     3.335040     3.327396     3.319753
      3.312110     3.304467     3.296824     3.289180     3.281537     3.273894     3.266251     3.258607     3.250964     3.243321
      3.235678     3.228034     3.220391     3.212748     3.205105     3.197462     3.189818     3.182175     3.174532     3.166889
      3.159245     3.151602     3.143959     3.136316     3.128673     3.121029     3.113386     3.105743     3.098100     3.090456
      3.082813     3.075170     3.067527     3.059884     3.052240     3.044597     3.036954     3.029311     3.021667     3.014024
      3.006381     2.998738     2.991095     2.983451     2.975808     2.968165     2.960522     2.952878     2.945235     2.937592
      2.929949     2.922306     2.914662     2.907019     2.899376     2.891733     2.884089     2.876446     2.868803     2.861160
      2.853517     2.845873     2.838230     2.830587     2.822944     2.815300     2.807657     2.800014     2.792371     2.784728
      2.777084     2.769441     2.761798     2.754155     2.746511     2.738868     2.731225     2.723582     2.715939     2.708295
      2.700652     2.693009     2.685366     2.677722     2.670079     2.662436     2.654793     2.647150     2.639506     2.631863
      2.624220     2.616577     2.608933     2.601290     2.593647     2.586004     2.578361     2.570717     2.563074     2.555431
      2.547788     2.540144     2.532501     2.524858     2.517215     2.509572     2.501928     2.494285     2.486642     2.478999
      2.471355     2.463712     2.456069     2.448426     2.440783     2.433139     2.425496     2.417853     2.410210     2.402566
      2.394923     2.387280     2.379637     2.371994     2.364350     2.356707     2.349064     2.341421     2.333777     2.326134
      2.318491     2.310848     2.303205     2.295561     2.287918     2.280275     2.272632     2.264988     2.257345     2.249702
      2.242059     2.234416     2.226772     2.219129     2.211486     2.203843     2.196199     2.188556     2.180913     2.173270
      2.165627     2.157983     2.150340     2.142697     2.135054     2.127410     2.119767     2.112124     2.104481     2.096838
      2.089194     2.081551     2.073908     2.066265     2.058621     2.050978     2.043335     2.035692     2.028049     2.020405
      2.012762     2.005119     1.997476     1.989833     1.982190     1.974546     1.966903     1.959260     1.951617     1.943974
      1.936331     1.928688     1.921045     1.913402     1.905759     1.898115     1.890472     1.882829     1.875186     1.867543
      1.859900     1.852257     1.844614     1.836971     1.829327     1.821684     1.814041     1.806398     1.798755     1.791112
      1.783469     1.775826     1.768183     1.760540     1.752896     1.745253     1.737610     1.729967     1.722324     1.714681
      1.707038     1.699395     1.691752     1.684108     1.676465     1.668822     1.661179     1.653536     1.645893     1.638250
      1.630607     1.622964     1.615321     1.607677     1.600034     1.592391     1.584748     1.577105     1.569462     1.561819
      1.554176     1.546533     1.538890     1.531246     1.523603     1.515960     1.508317     1.500674     1.493031     1.485388
      1.477745     1.470102     1.462458     1.454815     1.447172     1.439529     1.431886     1.424243     1.416600     1.408957
      1.401314     1.393671     1.386027     1.378384     1.370741     1.363098     1.355455     1.347812     1.340169     1.332526
      1.324883     1.317240     1.309596     1.301953     1.294310     1.286667     1.279024     1.271381     1.263738     1.256095
      1.248452     1.240808     1.233165     1.225522     1.217879     1.210236     1.202593     1.194950     1.187307     1.179664
      1.172021     1.164377     1.156734     1.149091     1.141448     1.133805     1.126162     1.118519     1.110876     1.103233
      1.095590     1.087946     1.080303     1.072660     1.065017     1.057374     1.049731     1.042088     1.034445     1.026802
      1.019158     1.011515     1.003872     0.996229     0.988586     0.980943     0.973300     0.965657     0.958014     0.950371
      0.942727     0.935084     0.927441     0.919798     0.912155     0.904512     0.896869     0.889226     0.881583     0.873940
      0.866296     0.858653     0.851010     0.843367     0.835724     0.828081     0.820438     0.812795     0.805152     0.797508
      0.789865     0.782222     0.774579     0.766936     0.759293     0.751650     0.744007     0.736364     0.728721     0.721077
      0.713434     0.705791     0.698148     0.690505     0.682862     0.675219     0.667576     0.659933     0.652290     0.644646
      0.637003     0.629360     0.621717     0.614074     0.606431     0.598788     0.591145     0.583502     0.575858     0.568215
      0.560572     0.552929     0.545286     0.537643     0.530000     0.522357     0.514714     0.507071     0.499427     0.491784
      0.484141     0.476498     0.468855     0.461212     0.453569     0.445925     0.438282     0.430639     0.422996     0.415353
      0.407710     0.400067     0.392424     0.384780     0.377137     0.369494     0.361851     0.354208     0.346565     0.338922
      0.331278     0.323635     0.315992     0.308349     0.300706     0.293063     0.285420     0.277777     0.270133     0.262490
      0.254847     0.247204     0.239561     0.231918     0.224275     0.216631     0.208988     0.201345
 NY phased data points follow
  -3.36237E+00 -1.17745E+00 -3.10655E+00 -4.55585E+00  4.33436E+00 -3.18876E+00  2.93259E-01 -3.33361E+00 -7.82657E+00 -1.41666E+01
  -1.45551E+01 -3.63089E+00 -3.68934E+00 -1.15833E+01 -6.97792E+00 -8.33544E+00 -8.87216E+00 -1.71769E+01 -3.98180E+00 -5.91788E+00
  -9.31873E-01 -8.12429E+00 -4.72752E+00 -6.58039E+00 -4.73601E+00 -8.74662E+00 -2.30373E+00 -6.56568E+00 -4.62185E+00 -1.02704E+01
  -1.31033E+01 -8.70121E+00 -4.59026E+00 -9.93169E+00 -9.68806E+00 -9.61034E+00 -4.35120E+00 -8.61141E+00 -6.15298E+00 -4.77325E-01
  -8.73292E+00 -2.98361E+00  1.55915E+00 -1.20320E+01 -7.45914E-01 -5.59542E+00 -1.16063E+01 -6.85772E+00 -5.67843E+00  1.04082E+00
  -7.26650E+00 -7.29529E+00 -6.35736E+00 -4.20718E+00 -8.21607E+00 -1.37375E+01 -9.82987E+00 -7.74219E+00 -1.05020E+01 -1.30920E+01
  -2.09776E+00 -6.59839E+00 -4.12282E+00 -1.38317E+01  3.34694E+00  1.31458E-01 -5.44729E+00  2.09188E+00  5.98093E-01 -5.57435E+00
  -1.66281E+01 -1.20282E+01 -1.69387E+00 -2.92850E+00 -8.04401E+00 -2.97789E-01  4.24530E+00 -1.00388E+01 -1.10085E+01  2.57416E+00
  -4.15850E+00 -5.32037E+00 -8.12207E+00 -4.68630E+00 -7.97188E+00  1.17483E+00 -4.25631E+00 -9.45514E+00 -1.36520E+01 -1.34320E+01
  -3.41088E+00 -1.49120E+00 -1.12167E+00  3.86339E-01 -3.60737E+00 -4.63537E+00  2.90658E+00 -4.49516E-01 -1.48334E+00 -4.12954E+00
   1.10482E-01  3.38051E-01 -1.56171E+00 -9.29334E+00 -7.44782E+00 -5.08712E+00 -9.22440E+00 -4.63850E+00 -1.15746E+01 -2.42983E-02
   3.50813E-01 -1.08277E+01 -2.47672E+00 -5.04754E+00 -3.51268E+00 -7.61224E+00  1.67137E+00 -1.11028E+00 -4.07779E+00 -8.90191E-01
  -2.51650E+00 -1.38222E+00  2.55803E+00 -1.19789E+01 -1.08358E+00 -9.55599E-01 -5.24409E+00 -2.55837E+00  1.06319E+00  2.33516E+00
  -1.14227E+01 -6.03480E+00 -8.21699E+00 -1.33948E+01 -5.72679E+00 -1.93182E+00 -7.68169E+00  1.03097E+00 -8.40914E+00 -3.45473E-01
  -4.87550E+00 -7.97490E+00 -7.12786E+00 -9.11935E+00 -1.35589E+01 -4.22336E+00  1.54514E+00 -1.42680E+00 -7.20376E+00 -9.89912E+00
  -4.19178E+00 -5.10770E+00 -3.72909E+00 -5.57733E+00 -4.44381E+00 -1.75221E+00 -5.22750E+00 -1.05168E+01 -2.80237E+00 -3.08845E+00
  -7.05919E+00 -3.56804E+00 -5.43231E+00 -2.01195E+00 -4.29325E+00  1.07046E+00 -5.77011E+00  1.26540E+00 -1.66321E-01 -1.14263E+01
   5.90812E-01 -7.30346E+00  2.21785E+00 -6.92299E+00  6.97227E+00 -2.09390E+00 -3.40696E-01  9.80906E-01 -1.10217E+01  1.38853E+00
  -2.26796E+00 -9.34029E+00 -8.93654E+00 -1.38107E+00 -9.13890E+00 -1.59746E+00 -3.33514E+00 -8.42448E+00 -9.14005E+00 -7.26435E+00
  -5.20588E+00 -1.02123E+01 -1.82570E+01 -1.19453E+01 -8.52556E+00 -1.01987E+01 -5.86625E+00 -5.23501E+00 -1.89067E+00 -8.72694E+00
  -4.42385E+00 -1.29047E+01 -1.61749E+01 -1.52578E+01 -1.39980E+01 -5.87032E+00 -1.50685E+01 -8.38910E+00 -8.65545E+00 -1.07930E+01
  -2.41430E+00 -5.20491E+00 -6.21440E+00 -1.23441E+01 -3.67812E+00 -1.16599E+01 -1.70202E+01 -9.53876E+00 -1.16360E+01 -9.97007E+00
  -9.84218E+00 -6.83848E+00 -1.94753E+01 -7.75647E+00 -3.01351E+00 -1.17381E+01 -9.27779E+00 -8.73553E+00 -1.02514E+01 -1.06952E+01
  -5.80349E+00 -1.18629E+01 -1.48806E+01 -9.32283E+00 -5.75792E+00 -6.82120E+00 -1.19126E+01 -1.65069E+01  2.16497E+00 -8.89986E+00
  -8.16010E+00 -4.31595E+00 -8.91886E+00 -1.34330E+01 -1.11840E+01 -7.89048E+00 -7.43259E-01 -1.86217E+01 -5.16131E+00  1.12718E+00
   5.16338E-01 -3.36679E-01  1.47309E+00 -3.83130E+00  7.79775E+00  6.11139E+00  2.75979E+00  1.67180E+00 -7.78575E-01  6.04135E+00
   7.42781E+00 -1.53731E+00 -1.01451E+01 -6.15949E+00  5.71841E-01 -1.57631E+01 -1.07581E+01 -9.19129E+00  2.24918E-01 -2.12016E+01
  -1.17125E+01 -3.13902E+00 -6.89400E+00 -1.36951E+01 -3.79141E+00 -1.19913E+01  2.43115E+00 -4.95424E-01 -8.91084E+00 -5.27723E+00
  -2.21184E+00 -2.12380E-01 -5.69659E+00  3.30472E+00  2.54703E+00  1.49801E+00 -8.90942E+00  6.24643E-01 -4.61336E+00  4.79056E+00
   8.51804E-02  1.76200E+00  3.68272E-01 -6.45490E+00  2.01947E+00 -3.88192E+00  4.22140E+00  2.72813E+00  1.62903E-01  5.74426E-01
   2.96924E+00  3.27130E+00 -8.20642E+00  7.61954E+00 -3.79959E+00 -7.60580E-01  2.11127E+00 -3.58722E+00 -4.42530E+00 -5.45185E+00
  -1.11892E+01 -6.74931E+00 -1.33029E+01 -1.08809E+01 -3.47629E+00 -1.56067E+01 -9.03838E+00 -7.38104E+00 -6.10846E+00 -1.61702E+01
  -8.77893E+00 -1.09343E+01 -9.97376E+00 -1.86505E+01 -1.43340E+01 -1.13791E+01 -1.85551E+01 -5.80630E+00 -1.16565E+01 -1.09545E+01
  -3.58634E+00 -7.62329E+00 -5.35551E+00 -4.90112E+00 -1.18650E+00 -2.34145E+00 -3.93243E+00 -2.23269E+00  1.82768E+00  1.09346E-01
  -8.00921E+00 -3.87130E-01 -3.40006E+00 -2.69678E+00 -6.70063E+00 -6.33773E+00 -8.27090E+00 -3.91958E-01  2.64285E-01 -1.38755E+00
  -6.46187E+00  8.28217E+00 -1.66188E-02 -2.96640E+00 -3.76910E-01 -4.92752E+00 -3.60598E+00  2.80176E+00 -7.62388E+00 -1.03212E+01
   2.41913E+00  7.32830E+00 -1.63233E+00  7.42839E+00  1.52380E+00  4.52395E+00  1.16396E+00 -1.47789E+00 -2.98588E+00 -8.33170E+00
  -1.56203E+00 -5.72888E+00 -1.28966E+01  1.74850E+00 -9.82316E+00 -1.07622E+01 -2.88347E+00 -5.87694E+00 -2.37903E+00 -9.94577E+00
  -1.32007E+01 -7.61826E+00 -8.53842E+00 -8.83683E+00 -8.88785E+00 -1.56378E+01 -8.79679E+00 -1.06482E+01 -1.10455E+01 -2.41557E+00
  -3.13479E+00 -8.67320E+00 -9.83198E+00 -6.37415E+00 -6.67830E+00 -1.09606E+01 -5.24096E+00 -4.51108E+00 -2.27736E+00 -7.00919E+00
  -1.64706E+00 -6.97158E+00  3.67767E+00 -3.13675E+00 -6.22083E+00  5.05445E+00 -4.14408E+00 -2.02333E-01 -7.11782E+00 -6.02861E+00
  -2.34864E+00 -2.25451E+00  1.75295E+00 -3.61795E-01 -5.44690E+00 -6.60637E-01 -1.15691E+01 -1.97485E+00 -5.51495E+00 -7.96456E+00
  -4.14618E+00  5.13873E-01 -3.77382E+00 -1.07918E+00 -8.06516E-01 -6.42027E+00 -5.66063E-01 -5.60271E+00 -3.86228E+00 -3.39768E-02
   2.87253E+00 -1.31257E+00 -8.35111E+00 -9.01153E-01  5.38073E-01 -2.57679E+00 -4.71096E+00 -4.63658E+00  4.18158E+00  5.32127E+00
  -2.50533E+00 -1.55929E+00 -3.51048E+00 -5.30012E+00 -2.80903E+00 -1.97556E+00 -4.56928E+00 -2.09005E+00 -1.00329E+01  1.57047E+00
  -1.07356E+01 -1.10511E+01 -3.20093E+00 -2.13437E+00  5.37870E+00 -1.27984E+01 -6.81699E+00 -7.17059E-01 -4.71798E+00  6.84435E+00
   3.79949E+00  6.34469E+00  2.07219E+00 -7.77861E-01  8.09404E-01  1.13058E+00  6.47587E-01 -2.50954E-01  4.28858E+00  4.15257E+00
   2.11788E+00  4.98740E+00 -4.33946E+00 -1.91533E+00 -1.96990E+00  9.20978E-01 -4.57167E+00 -9.78441E+00 -2.33595E-01 -8.19795E+00
  -1.79544E+00  6.81707E+00 -1.69397E+00  3.93352E+00 -3.48420E+00 -8.12195E-01 -6.53126E+00 -1.01632E+00  2.12901E+00 -3.03652E+00
  -7.46298E+00 -5.39073E+00 -2.73841E+00  8.37360E-01 -5.93773E+00  5.01285E+00 -5.56808E+00 -1.46096E+00
 NY points of the fit to the data follow
  -4.27600E+00 -3.97353E+00 -3.63007E+00 -3.33496E+00 -3.13588E+00 -3.05301E+00 -3.08916E+00 -3.23738E+00 -3.47795E+00 -3.78163E+00
  -4.11916E+00 -4.46708E+00 -4.80356E+00 -5.09995E+00 -5.32655E+00 -5.46576E+00 -5.52072E+00 -5.51392E+00 -5.47711E+00 -5.43644E+00
  -5.39927E+00 -5.36684E+00 -5.33980E+00 -5.31880E+00 -5.30458E+00 -5.29748E+00 -5.29704E+00 -5.30147E+00 -5.30836E+00 -5.31549E+00
  -5.32107E+00 -5.32511E+00 -5.32764E+00 -5.32857E+00 -5.32958E+00 -5.33311E+00 -5.33904E+00 -5.34774E+00 -5.35841E+00 -5.36937E+00
  -5.38014E+00 -5.38968E+00 -5.39686E+00 -5.40217E+00 -5.40399E+00 -5.40069E+00 -5.39283E+00 -5.38194E+00 -5.36984E+00 -5.35883E+00
  -5.35094E+00 -5.34690E+00 -5.34614E+00 -5.34754E+00 -5.35054E+00 -5.35442E+00 -5.35836E+00 -5.36145E+00 -5.36201E+00 -5.35961E+00
  -5.35623E+00 -5.35181E+00 -5.34888E+00 -5.34926E+00 -5.35189E+00 -5.35530E+00 -5.35785E+00 -5.35329E+00 -5.33813E+00 -5.31814E+00
  -5.30023E+00 -5.28895E+00 -5.28655E+00 -5.29197E+00 -5.30100E+00 -5.31037E+00 -5.31816E+00 -5.32022E+00 -5.30562E+00 -5.27490E+00
  -5.23879E+00 -5.20505E+00 -5.17758E+00 -5.15793E+00 -5.14752E+00 -5.15104E+00 -5.17217E+00 -5.20825E+00 -5.25256E+00 -5.29694E+00
  -5.33005E+00 -5.34096E+00 -5.32673E+00 -5.28253E+00 -5.18420E+00 -4.94903E+00 -4.56211E+00 -4.12531E+00 -3.72900E+00 -3.42708E+00
  -3.24437E+00 -3.19255E+00 -3.27262E+00 -3.46766E+00 -3.74577E+00 -4.07422E+00 -4.42680E+00 -4.77895E+00 -5.10043E+00 -5.35782E+00
  -5.52809E+00 -5.61178E+00 -5.63178E+00 -5.62045E+00 -5.59802E+00 -5.56684E+00 -5.52011E+00 -5.43214E+00 -5.19544E+00 -4.69683E+00
  -4.04853E+00 -3.40138E+00 -2.85667E+00 -2.46963E+00 -2.26837E+00 -2.26599E+00 -2.45380E+00 -2.79605E+00 -3.24502E+00 -3.75996E+00
  -4.30392E+00 -4.83007E+00 -5.28211E+00 -5.61295E+00 -5.80904E+00 -5.89328E+00 -5.91166E+00 -5.90810E+00 -5.89618E+00 -5.88001E+00
  -5.86355E+00 -5.84897E+00 -5.83705E+00 -5.82789E+00 -5.82142E+00 -5.81907E+00 -5.83087E+00 -5.86270E+00 -5.90517E+00 -5.94642E+00
  -5.97359E+00 -5.97657E+00 -5.96635E+00 -5.95465E+00 -5.94687E+00 -5.94610E+00 -5.95462E+00 -5.97314E+00 -6.00007E+00 -6.03184E+00
  -6.06858E+00 -6.11614E+00 -6.18326E+00 -6.25502E+00 -6.30319E+00 -6.31509E+00 -6.29417E+00 -6.26007E+00 -6.23285E+00 -6.21275E+00
  -6.19563E+00 -6.18012E+00 -6.16691E+00 -6.15836E+00 -6.16240E+00 -6.18634E+00 -6.21019E+00 -6.21379E+00 -6.18814E+00 -6.13096E+00
  -6.04527E+00 -5.94000E+00 -5.82685E+00 -5.71354E+00 -5.59851E+00 -5.48860E+00 -5.40040E+00 -5.34528E+00 -5.32890E+00 -5.35123E+00
  -5.40625E+00 -5.47631E+00 -5.53360E+00 -5.56742E+00 -5.58153E+00 -5.58281E+00 -5.57611E+00 -5.56403E+00 -5.54900E+00 -5.53528E+00
  -5.53286E+00 -5.55930E+00 -5.61546E+00 -5.69019E+00 -5.77088E+00 -5.84664E+00 -5.90841E+00 -5.94955E+00 -5.96785E+00 -5.96658E+00
  -5.95209E+00 -5.92842E+00 -5.89817E+00 -5.86407E+00 -5.82936E+00 -5.79597E+00 -5.76353E+00 -5.73035E+00 -5.69407E+00 -5.65217E+00
  -5.61035E+00 -5.57304E+00 -5.54253E+00 -5.53027E+00 -5.53904E+00 -5.56391E+00 -5.59696E+00 -5.61877E+00 -5.61524E+00 -5.59149E+00
  -5.56350E+00 -5.53704E+00 -5.51361E+00 -5.49875E+00 -5.51139E+00 -5.55842E+00 -5.62248E+00 -5.68703E+00 -5.74469E+00 -5.79179E+00
  -5.82673E+00 -5.85035E+00 -5.86383E+00 -5.87208E+00 -5.87827E+00 -5.88284E+00 -5.88009E+00 -5.75550E+00 -5.08659E+00 -3.79022E+00
  -2.15775E+00 -4.85161E-01  1.01690E+00  2.21294E+00  3.00887E+00  3.34618E+00  3.23231E+00  2.73251E+00  1.93013E+00  9.01201E-01
  -2.70634E-01 -1.46410E+00 -2.53188E+00 -3.35335E+00 -3.88434E+00 -4.17073E+00 -4.32063E+00 -4.40644E+00 -4.45465E+00 -4.48664E+00
  -4.51747E+00 -4.55334E+00 -4.59550E+00 -4.64401E+00 -4.69811E+00 -4.75284E+00 -4.80083E+00 -4.84045E+00 -4.86977E+00 -4.88785E+00
  -4.89519E+00 -4.89368E+00 -4.88860E+00 -4.88717E+00 -4.88944E+00 -4.89304E+00 -4.89666E+00 -4.89892E+00 -4.89861E+00 -4.89467E+00
  -4.88700E+00 -4.87932E+00 -4.87449E+00 -4.87288E+00 -4.87457E+00 -4.87913E+00 -4.88650E+00 -4.89630E+00 -4.90718E+00 -4.91720E+00
  -4.92456E+00 -4.92803E+00 -4.92769E+00 -4.92429E+00 -4.91888E+00 -4.91275E+00 -4.90723E+00 -4.90323E+00 -4.90098E+00 -4.89997E+00
  -4.89970E+00 -4.89991E+00 -4.90046E+00 -4.90127E+00 -4.90233E+00 -4.90361E+00 -4.90512E+00 -4.90684E+00 -4.90875E+00 -4.91086E+00
  -4.91317E+00 -4.91571E+00 -4.91853E+00 -4.92168E+00 -4.92522E+00 -4.92921E+00 -4.93370E+00 -4.93876E+00 -4.94445E+00 -4.95083E+00
  -4.95798E+00 -4.96600E+00 -4.97497E+00 -4.98497E+00 -4.99603E+00 -5.00815E+00 -5.02121E+00 -5.03489E+00 -5.04854E+00 -5.06092E+00
  -5.06999E+00 -5.07256E+00 -5.06393E+00 -5.03756E+00 -4.98502E+00 -4.89617E+00 -4.75993E+00 -4.56557E+00 -4.30460E+00 -3.97303E+00
  -3.57357E+00 -3.11731E+00 -2.62420E+00 -2.12198E+00 -1.64352E+00 -1.22268E+00 -8.89677E-01 -6.66719E-01 -5.64885E-01 -5.82930E-01
  -7.08205E-01 -9.19352E-01 -1.19013E+00 -1.49341E+00 -1.80470E+00 -2.10439E+00 -2.37890E+00 -2.62056E+00 -2.82672E+00 -2.99839E+00
  -3.13891E+00 -3.25270E+00 -3.34439E+00 -3.41828E+00 -3.47805E+00 -3.52668E+00 -3.56650E+00 -3.59925E+00 -3.62623E+00 -3.64837E+00
  -3.66635E+00 -3.68063E+00 -3.69155E+00 -3.69926E+00 -3.70387E+00 -3.70537E+00 -3.70370E+00 -3.69876E+00 -3.69037E+00 -3.67835E+00
  -3.66249E+00 -3.64259E+00 -3.61847E+00 -3.58999E+00 -3.55707E+00 -3.51971E+00 -3.47802E+00 -3.43221E+00 -3.38266E+00 -3.32984E+00
  -3.27440E+00 -3.21707E+00 -3.15872E+00 -3.10031E+00 -3.04284E+00 -2.98733E+00 -2.93474E+00 -2.88601E+00 -2.84195E+00 -2.80322E+00
  -2.77034E+00 -2.74362E+00 -2.72317E+00 -2.70894E+00 -2.70068E+00 -2.69800E+00 -2.70038E+00 -2.70719E+00 -2.71774E+00 -2.73132E+00
  -2.74721E+00 -2.76474E+00 -2.78327E+00 -2.80221E+00 -2.82107E+00 -2.83945E+00 -2.85701E+00 -2.87350E+00 -2.88873E+00 -2.90257E+00
  -2.91498E+00 -2.92592E+00 -2.93541E+00 -2.94349E+00 -2.95021E+00 -2.95565E+00 -2.95990E+00 -2.96302E+00 -2.96511E+00 -2.96624E+00
  -2.96649E+00 -2.96593E+00 -2.96463E+00 -2.96265E+00 -2.96005E+00 -2.95686E+00 -2.95315E+00 -2.94895E+00 -2.94430E+00 -2.93924E+00
  -2.93379E+00 -2.92798E+00 -2.92184E+00 -2.91538E+00 -2.90865E+00 -2.90164E+00 -2.89437E+00 -2.88687E+00 -2.87914E+00 -2.87120E+00
  -2.86307E+00 -2.85475E+00 -2.84625E+00 -2.83758E+00 -2.82875E+00 -2.81977E+00 -2.81066E+00 -2.80141E+00 -2.79203E+00 -2.78252E+00
  -2.77290E+00 -2.76318E+00 -2.75335E+00 -2.74342E+00 -2.73339E+00 -2.72327E+00 -2.71307E+00 -2.70280E+00 -2.69244E+00 -2.68202E+00
  -2.67152E+00 -2.66096E+00 -2.65035E+00 -2.63968E+00 -2.62896E+00 -2.61819E+00 -2.60739E+00 -2.59654E+00 -2.58567E+00 -2.57477E+00
  -2.56385E+00 -2.55291E+00 -2.54196E+00 -2.53101E+00 -2.52007E+00 -2.50915E+00 -2.49825E+00 -2.48738E+00
 NY background values follow
    -5.259E+00   -5.267E+00   -5.274E+00   -5.282E+00   -5.290E+00   -5.297E+00   -5.305E+00   -5.313E+00   -5.320E+00   -5.327E+00
    -5.335E+00   -5.342E+00   -5.349E+00   -5.357E+00   -5.364E+00   -5.371E+00   -5.378E+00   -5.385E+00   -5.392E+00   -5.398E+00
    -5.405E+00   -5.412E+00   -5.419E+00   -5.425E+00   -5.432E+00   -5.438E+00   -5.445E+00   -5.451E+00   -5.458E+00   -5.464E+00
    -5.470E+00   -5.476E+00   -5.482E+00   -5.488E+00   -5.494E+00   -5.500E+00   -5.506E+00   -5.512E+00   -5.518E+00   -5.524E+00
    -5.529E+00   -5.535E+00   -5.540E+00   -5.546E+00   -5.551E+00   -5.557E+00   -5.562E+00   -5.567E+00   -5.572E+00   -5.578E+00
    -5.583E+00   -5.588E+00   -5.593E+00   -5.598E+00   -5.602E+00   -5.607E+00   -5.612E+00   -5.617E+00   -5.621E+00   -5.626E+00
    -5.630E+00   -5.635E+00   -5.639E+00   -5.643E+00   -5.648E+00   -5.652E+00   -5.656E+00   -5.660E+00   -5.664E+00   -5.668E+00
    -5.672E+00   -5.676E+00   -5.680E+00   -5.684E+00   -5.687E+00   -5.691E+00   -5.695E+00   -5.698E+00   -5.702E+00   -5.705E+00
    -5.708E+00   -5.712E+00   -5.715E+00   -5.718E+00   -5.721E+00   -5.724E+00   -5.727E+00   -5.730E+00   -5.733E+00   -5.736E+00
    -5.739E+00   -5.742E+00   -5.744E+00   -5.747E+00   -5.749E+00   -5.752E+00   -5.754E+00   -5.757E+00   -5.759E+00   -5.761E+00
    -5.764E+00   -5.766E+00   -5.768E+00   -5.770E+00   -5.772E+00   -5.774E+00   -5.776E+00   -5.778E+00   -5.779E+00   -5.781E+00
    -5.783E+00   -5.784E+00   -5.786E+00   -5.787E+00   -5.789E+00   -5.790E+00   -5.791E+00   -5.793E+00   -5.794E+00   -5.795E+00
    -5.796E+00   -5.797E+00   -5.798E+00   -5.799E+00   -5.800E+00   -5.800E+00   -5.801E+00   -5.802E+00   -5.802E+00   -5.803E+00
    -5.804E+00   -5.804E+00   -5.804E+00   -5.805E+00   -5.805E+00   -5.805E+00   -5.805E+00   -5.806E+00   -5.806E+00   -5.806E+00
    -5.806E+00   -5.805E+00   -5.805E+00   -5.805E+00   -5.805E+00   -5.804E+00   -5.804E+00   -5.804E+00   -5.803E+00   -5.803E+00
    -5.802E+00   -5.801E+00   -5.801E+00   -5.800E+00   -5.799E+00   -5.798E+00   -5.797E+00   -5.796E+00   -5.795E+00   -5.794E+00
    -5.793E+00   -5.792E+00   -5.790E+00   -5.789E+00   -5.788E+00   -5.786E+00   -5.785E+00   -5.783E+00   -5.781E+00   -5.780E+00
    -5.778E+00   -5.776E+00   -5.774E+00   -5.773E+00   -5.771E+00   -5.769E+00   -5.767E+00   -5.764E+00   -5.762E+00   -5.760E+00
    -5.758E+00   -5.756E+00   -5.753E+00   -5.751E+00   -5.748E+00   -5.746E+00   -5.743E+00   -5.741E+00   -5.738E+00   -5.735E+00
    -5.732E+00   -5.729E+00   -5.727E+00   -5.724E+00   -5.721E+00   -5.717E+00   -5.714E+00   -5.711E+00   -5.708E+00   -5.705E+00
    -5.701E+00   -5.698E+00   -5.694E+00   -5.691E+00   -5.687E+00   -5.684E+00   -5.680E+00   -5.677E+00   -5.673E+00   -5.669E+00
    -5.665E+00   -5.661E+00   -5.657E+00   -5.653E+00   -5.649E+00   -5.645E+00   -5.641E+00   -5.637E+00   -5.632E+00   -5.628E+00
    -5.624E+00   -5.619E+00   -5.615E+00   -5.610E+00   -5.606E+00   -5.601E+00   -5.596E+00   -5.592E+00   -5.587E+00   -5.582E+00
    -5.577E+00   -5.572E+00   -5.567E+00   -5.562E+00   -5.557E+00   -5.552E+00   -5.547E+00   -5.541E+00   -5.536E+00   -5.531E+00
    -5.525E+00   -5.520E+00   -5.515E+00   -5.509E+00   -5.503E+00   -5.498E+00   -5.492E+00   -5.486E+00   -5.481E+00   -5.475E+00
    -5.469E+00   -5.463E+00   -5.457E+00   -5.451E+00   -5.445E+00   -5.439E+00   -5.433E+00   -5.426E+00   -5.420E+00   -5.414E+00
    -5.407E+00   -5.401E+00   -5.395E+00   -5.388E+00   -5.381E+00   -5.375E+00   -5.368E+00   -5.362E+00   -5.355E+00   -5.348E+00
    -5.341E+00   -5.334E+00   -5.327E+00   -5.320E+00   -5.313E+00   -5.306E+00   -5.299E+00   -5.292E+00   -5.285E+00   -5.277E+00
    -5.270E+00   -5.263E+00   -5.255E+00   -5.248E+00   -5.241E+00   -5.233E+00   -5.225E+00   -5.218E+00   -5.210E+00   -5.202E+00
    -5.195E+00   -5.187E+00   -5.179E+00   -5.171E+00   -5.163E+00   -5.155E+00   -5.147E+00   -5.139E+00   -5.131E+00   -5.123E+00
    -5.115E+00   -5.106E+00   -5.098E+00   -5.090E+00   -5.081E+00   -5.073E+00   -5.065E+00   -5.056E+00   -5.048E+00   -5.039E+00
    -5.030E+00   -5.022E+00   -5.013E+00   -5.004E+00   -4.995E+00   -4.987E+00   -4.978E+00   -4.969E+00   -4.960E+00   -4.951E+00
    -4.942E+00   -4.933E+00   -4.924E+00   -4.914E+00   -4.905E+00   -4.896E+00   -4.887E+00   -4.877E+00   -4.868E+00   -4.858E+00
    -4.849E+00   -4.839E+00   -4.830E+00   -4.820E+00   -4.811E+00   -4.801E+00   -4.791E+00   -4.782E+00   -4.772E+00   -4.762E+00
    -4.752E+00   -4.742E+00   -4.732E+00   -4.722E+00   -4.712E+00   -4.702E+00   -4.692E+00   -4.682E+00   -4.672E+00   -4.662E+00
    -4.652E+00   -4.641E+00   -4.631E+00   -4.621E+00   -4.610E+00   -4.600E+00   -4.589E+00   -4.579E+00   -4.568E+00   -4.558E+00
    -4.547E+00   -4.537E+00   -4.526E+00   -4.515E+00   -4.504E+00   -4.494E+00   -4.483E+00   -4.472E+00   -4.461E+00   -4.450E+00
    -4.439E+00   -4.428E+00   -4.417E+00   -4.406E+00   -4.395E+00   -4.384E+00   -4.373E+00   -4.362E+00   -4.350E+00   -4.339E+00
    -4.328E+00   -4.316E+00   -4.305E+00   -4.294E+00   -4.282E+00   -4.271E+00   -4.259E+00   -4.248E+00   -4.236E+00   -4.225E+00
    -4.213E+00   -4.201E+00   -4.190E+00   -4.178E+00   -4.166E+00   -4.154E+00   -4.142E+00   -4.131E+00   -4.119E+00   -4.107E+00
    -4.095E+00   -4.083E+00   -4.071E+00   -4.059E+00   -4.047E+00   -4.035E+00   -4.023E+00   -4.010E+00   -3.998E+00   -3.986E+00
    -3.974E+00   -3.961E+00   -3.949E+00   -3.937E+00   -3.924E+00   -3.912E+00   -3.900E+00   -3.887E+00   -3.875E+00   -3.862E+00
    -3.850E+00   -3.837E+00   -3.824E+00   -3.812E+00   -3.799E+00   -3.787E+00   -3.774E+00   -3.761E+00   -3.748E+00   -3.736E+00
    -3.723E+00   -3.710E+00   -3.697E+00   -3.684E+00   -3.671E+00   -3.658E+00   -3.645E+00   -3.632E+00   -3.619E+00   -3.606E+00
    -3.593E+00   -3.580E+00   -3.567E+00   -3.554E+00   -3.541E+00   -3.528E+00   -3.514E+00   -3.501E+00   -3.488E+00   -3.475E+00
    -3.461E+00   -3.448E+00   -3.435E+00   -3.421E+00   -3.408E+00   -3.394E+00   -3.381E+00   -3.368E+00   -3.354E+00   -3.341E+00
    -3.327E+00   -3.313E+00   -3.300E+00   -3.286E+00   -3.273E+00   -3.259E+00   -3.245E+00   -3.232E+00   -3.218E+00   -3.204E+00
    -3.190E+00   -3.177E+00   -3.163E+00   -3.149E+00   -3.135E+00   -3.121E+00   -3.108E+00   -3.094E+00   -3.080E+00   -3.066E+00
    -3.052E+00   -3.038E+00   -3.024E+00   -3.010E+00   -2.996E+00   -2.982E+00   -2.968E+00   -2.954E+00   -2.940E+00   -2.926E+00
    -2.911E+00   -2.897E+00   -2.883E+00   -2.869E+00   -2.855E+00   -2.841E+00   -2.826E+00   -2.812E+00
 Asp      Conc. = 2.62E+01
