 LCModel (Version 6.3-1L) Copyright: S.W. Provencher.          Ref.: Magn. Reson. Med. 30:672-679 (1993).                
 Slice#3 Row#6 Col#3  PD_05_press_2_raw_act
 36 lines in following concentration table = NCONC+1
    Conc.  %SD /Cr+PCr  Metabolite                                         
   68.972 416% 2.0E-02 Ala                                                 
    0.000 999%   0.000 Asp                                                 
 2.44E+03  23%   0.691 Cr                                                  
 1.09E+03  52%   0.309 PCr                                                 
   70.991 525% 2.0E-02 GABA                                                
    0.000 999%   0.000 Glc                                                 
 1.63E+03  37%   0.461 Gln                                                 
 3.29E+03  21%   0.932 Glu                                                 
 1.15E+03   5%   0.325 GPC                                                 
    0.000 999%   0.000 PCh                                                 
 1.47E+03  13%   0.416 GSH                                                 
 3.06E+03  20%   0.866 Ins                                                 
    0.000 999%   0.000 Lac                                                 
 5.22E+03   6%   1.476 NAA                                                 
  215.180 163% 6.1E-02 NAAG                                                
   31.947 198% 9.0E-03 Scyllo                                              
    0.000 999%   0.000 Tau                                                 
    0.000 999%   0.000 -CrCH2                                              
 1.15E+03   5%   0.325 GPC+PCh                                             
 5.43E+03   4%   1.537 NAA+NAAG                                            
 3.53E+03   4%   1.000 Cr+PCr                                              
 4.92E+03  20%   1.394 Glu+Gln                                             
 2.78E+03  42%   0.787 Lip13a                                              
  134.687 410% 3.8E-02 Lip13b                                              
  139.513 321% 3.9E-02 Lip09                                               
 2.09E+03  25%   0.591 MM09                                                
  412.028  80%   0.117 Lip20                                               
 3.98E+03  20%   1.127 MM20                                                
  723.132  38%   0.205 MM12                                                
 1.46E+03  45%   0.412 MM14                                                
 1.92E+03  22%   0.544 MM17                                                
 2.91E+03  30%   0.825 Lip13a+Lip13b                                       
 5.09E+03  15%   1.442 MM14+Lip13a+Lip13b+MM12                             
 2.23E+03  17%   0.631 MM09+Lip09                                          
 4.39E+03  18%   1.244 MM20+Lip20                                          
   6 lines in following misc. output table
  FWHM = 0.054 ppm    S/N =  10                                            
  Data shift = 0.008 ppm                                                   
  Ph:   4 deg       2.0 deg/ppm                                            
  alphaB,S = 1.8E+00,   1.3E+02                                            
   14 spline knots.   Ns = 7(1)                                            
  (10) 2 infls.   ( 9) 1 extrs.                                            
  498 points on ppm-axis = NY
      4.000000     3.992357     3.984714     3.977070     3.969427     3.961784     3.954141     3.946497     3.938854     3.931211
      3.923568     3.915925     3.908281     3.900638     3.892995     3.885352     3.877708     3.870065     3.862422     3.854779
      3.847136     3.839492     3.831849     3.824206     3.816563     3.808919     3.801276     3.793633     3.785990     3.778347
      3.770703     3.763060     3.755417     3.747774     3.740130     3.732487     3.724844     3.717201     3.709558     3.701914
      3.694271     3.686628     3.678985     3.671341     3.663698     3.656055     3.648412     3.640769     3.633125     3.625482
      3.617839     3.610196     3.602552     3.594909     3.587266     3.579623     3.571980     3.564336     3.556693     3.549050
      3.541407     3.533763     3.526120     3.518477     3.510834     3.503191     3.495547     3.487904     3.480261     3.472618
      3.464974     3.457331     3.449688     3.442045     3.434402     3.426758     3.419115     3.411472     3.403829     3.396185
      3.388542     3.380899     3.373256     3.365613     3.357969     3.350326     3.342683     3.335040     3.327396     3.319753
      3.312110     3.304467     3.296824     3.289180     3.281537     3.273894     3.266251     3.258607     3.250964     3.243321
      3.235678     3.228034     3.220391     3.212748     3.205105     3.197462     3.189818     3.182175     3.174532     3.166889
      3.159245     3.151602     3.143959     3.136316     3.128673     3.121029     3.113386     3.105743     3.098100     3.090456
      3.082813     3.075170     3.067527     3.059884     3.052240     3.044597     3.036954     3.029311     3.021667     3.014024
      3.006381     2.998738     2.991095     2.983451     2.975808     2.968165     2.960522     2.952878     2.945235     2.937592
      2.929949     2.922306     2.914662     2.907019     2.899376     2.891733     2.884089     2.876446     2.868803     2.861160
      2.853517     2.845873     2.838230     2.830587     2.822944     2.815300     2.807657     2.800014     2.792371     2.784728
      2.777084     2.769441     2.761798     2.754155     2.746511     2.738868     2.731225     2.723582     2.715939     2.708295
      2.700652     2.693009     2.685366     2.677722     2.670079     2.662436     2.654793     2.647150     2.639506     2.631863
      2.624220     2.616577     2.608933     2.601290     2.593647     2.586004     2.578361     2.570717     2.563074     2.555431
      2.547788     2.540144     2.532501     2.524858     2.517215     2.509572     2.501928     2.494285     2.486642     2.478999
      2.471355     2.463712     2.456069     2.448426     2.440783     2.433139     2.425496     2.417853     2.410210     2.402566
      2.394923     2.387280     2.379637     2.371994     2.364350     2.356707     2.349064     2.341421     2.333777     2.326134
      2.318491     2.310848     2.303205     2.295561     2.287918     2.280275     2.272632     2.264988     2.257345     2.249702
      2.242059     2.234416     2.226772     2.219129     2.211486     2.203843     2.196199     2.188556     2.180913     2.173270
      2.165627     2.157983     2.150340     2.142697     2.135054     2.127410     2.119767     2.112124     2.104481     2.096838
      2.089194     2.081551     2.073908     2.066265     2.058621     2.050978     2.043335     2.035692     2.028049     2.020405
      2.012762     2.005119     1.997476     1.989833     1.982190     1.974546     1.966903     1.959260     1.951617     1.943974
      1.936331     1.928688     1.921045     1.913402     1.905759     1.898115     1.890472     1.882829     1.875186     1.867543
      1.859900     1.852257     1.844614     1.836971     1.829327     1.821684     1.814041     1.806398     1.798755     1.791112
      1.783469     1.775826     1.768183     1.760540     1.752896     1.745253     1.737610     1.729967     1.722324     1.714681
      1.707038     1.699395     1.691752     1.684108     1.676465     1.668822     1.661179     1.653536     1.645893     1.638250
      1.630607     1.622964     1.615321     1.607677     1.600034     1.592391     1.584748     1.577105     1.569462     1.561819
      1.554176     1.546533     1.538890     1.531246     1.523603     1.515960     1.508317     1.500674     1.493031     1.485388
      1.477745     1.470102     1.462458     1.454815     1.447172     1.439529     1.431886     1.424243     1.416600     1.408957
      1.401314     1.393671     1.386027     1.378384     1.370741     1.363098     1.355455     1.347812     1.340169     1.332526
      1.324883     1.317240     1.309596     1.301953     1.294310     1.286667     1.279024     1.271381     1.263738     1.256095
      1.248452     1.240808     1.233165     1.225522     1.217879     1.210236     1.202593     1.194950     1.187307     1.179664
      1.172021     1.164377     1.156734     1.149091     1.141448     1.133805     1.126162     1.118519     1.110876     1.103233
      1.095590     1.087946     1.080303     1.072660     1.065017     1.057374     1.049731     1.042088     1.034445     1.026802
      1.019158     1.011515     1.003872     0.996229     0.988586     0.980943     0.973300     0.965657     0.958014     0.950371
      0.942727     0.935084     0.927441     0.919798     0.912155     0.904512     0.896869     0.889226     0.881583     0.873940
      0.866296     0.858653     0.851010     0.843367     0.835724     0.828081     0.820438     0.812795     0.805152     0.797508
      0.789865     0.782222     0.774579     0.766936     0.759293     0.751650     0.744007     0.736364     0.728721     0.721077
      0.713434     0.705791     0.698148     0.690505     0.682862     0.675219     0.667576     0.659933     0.652290     0.644646
      0.637003     0.629360     0.621717     0.614074     0.606431     0.598788     0.591145     0.583502     0.575858     0.568215
      0.560572     0.552929     0.545286     0.537643     0.530000     0.522357     0.514714     0.507071     0.499427     0.491784
      0.484141     0.476498     0.468855     0.461212     0.453569     0.445925     0.438282     0.430639     0.422996     0.415353
      0.407710     0.400067     0.392424     0.384780     0.377137     0.369494     0.361851     0.354208     0.346565     0.338922
      0.331278     0.323635     0.315992     0.308349     0.300706     0.293063     0.285420     0.277777     0.270133     0.262490
      0.254847     0.247204     0.239561     0.231918     0.224275     0.216631     0.208988     0.201345
 NY phased data points follow
   2.82556E+01  3.87761E+01  2.86716E+01  4.62212E+01  4.79061E+01  5.87016E+01  5.21627E+01  8.37759E+01  7.81121E+01  9.83756E+01
   1.09295E+02  1.05801E+02  1.15237E+02  1.01614E+02  7.81355E+01  7.96166E+01  6.42422E+01  7.20519E+01  4.22615E+01  4.12903E+01
   3.92399E+01  5.28968E+01  3.85923E+01  3.58330E+01  5.24241E+01  4.04646E+01  5.25356E+01  5.35497E+01  4.38681E+01  5.86609E+01
   6.39109E+01  4.75722E+01  5.69582E+01  5.67702E+01  4.76758E+01  3.98376E+01  3.35835E+01  4.09945E+01  3.54489E+01  3.59637E+01
   3.15903E+01  5.74488E+01  3.64894E+01  4.96730E+01  4.20380E+01  5.87675E+01  5.46812E+01  5.02224E+01  5.33019E+01  3.74990E+01
   4.38476E+01  4.21468E+01  3.50528E+01  3.28805E+01  3.82353E+01  4.44852E+01  3.70923E+01  3.75739E+01  2.75253E+01  3.23942E+01
   3.38763E+01  2.57439E+01  1.23515E+01  1.89409E+01  1.41499E+01  1.27466E+01  1.25515E+01  7.84499E+00  7.19851E+00  6.80402E+00
   1.23659E+01  5.76752E+00  1.22906E+01  4.23224E+00  1.02649E+01  2.30510E+01  3.29778E+00  1.78804E+01  7.10700E-01  1.36764E+01
   3.69252E+00  6.23469E+00 -2.23350E+00  8.01799E+00  4.24235E+00  1.51596E+01  8.76305E+00  1.23502E+01  6.59894E+00  2.14456E+01
   1.39379E+01  1.05054E+01  7.40446E+00  2.28017E+01  1.62937E+01  1.41898E+01  5.42195E+00  2.14009E+01  3.68816E+01  4.83876E+01
   5.30298E+01  8.25352E+01  1.08281E+02  1.11726E+02  1.16930E+02  9.00787E+01  8.53110E+01  6.03940E+01  4.77928E+01  4.87311E+01
   2.50268E+01  2.83504E+01  1.77039E+01  2.44785E+01  1.63801E+01  2.39096E+01  2.31511E+01  2.02884E+01  3.50700E+00  1.81326E+01
   1.06367E+01  3.26073E+01  2.54886E+01  3.32213E+01  6.15350E+01  8.93541E+01  1.09527E+02  1.13980E+02  1.13102E+02  1.04824E+02
   9.79797E+01  7.69918E+01  5.74301E+01  4.65077E+01  3.68151E+01  3.27271E+01  2.87348E+01  1.10006E+01  7.94424E+00  1.03711E+01
   1.14865E+01  1.22003E+01  1.12652E+01  1.86285E+01  1.37076E+01  7.82146E+00  9.11093E+00  8.48919E+00  1.02058E+01  9.51008E+00
   6.56109E+00  5.56483E+00  5.82833E+00  2.36536E+00  4.07577E-01  7.25912E+00  6.11162E+00  2.72298E-01  1.01199E-01 -2.07767E+00
  -4.28612E+00 -1.08511E+00 -1.37818E+00  5.52101E+00 -1.45739E+01  4.53709E+00 -4.47062E+00  4.81424E+00 -1.98550E+01  3.96026E+00
  -1.51070E+01 -8.89218E+00 -1.83731E+01 -1.73744E+01 -2.71139E+01 -2.65354E+01 -2.56225E+01 -2.02546E+01 -1.91327E+01 -2.03358E+01
  -2.61060E+01 -3.81084E+01 -2.08849E+01 -2.89021E+01 -1.84297E+01 -2.33062E+01 -3.66830E+01 -1.11282E+01 -9.29444E-01  2.07204E-01
  -1.73852E+00  9.80481E+00  2.12765E+01  2.38368E+01  6.62266E+00  1.12548E+01  7.04450E+00  2.30481E+01 -3.86706E+00 -1.08042E+00
  -1.03951E+01  2.98357E+00  5.91016E+00 -1.05723E+01 -1.98561E-01  1.43683E+01 -1.29142E+00 -9.94800E+00 -1.22635E+01  1.04453E+00
  -5.38325E+00 -1.26917E+01 -6.04238E+00 -4.46121E+00  7.56968E+00  1.26995E+01  2.46946E+01  1.85119E+01  2.30927E+01  9.04179E+00
   2.92465E+00 -9.13774E-01 -4.41828E+00 -3.52378E+00 -6.00972E+00  4.47263E+00  2.05193E+00  1.62065E+01  2.02365E+01  1.66078E+01
   7.01211E+00  7.16983E+00  1.74105E+01  1.23273E+01  1.91052E+01  1.15311E+01  1.75296E+01  1.68350E+01  1.42741E+01  5.16171E+00
   6.47335E+00  3.33735E+00  5.39129E+00  1.15954E+01  1.25181E-01  6.15827E+00  1.52981E+01 -1.75631E-01  2.82485E+01  1.70517E+01
   1.11112E+01  2.01849E+01  2.36314E+01  3.98156E+01  5.49440E+01  5.21830E+01  6.73643E+01  9.43163E+01  1.34196E+02  1.61294E+02
   1.77791E+02  1.85257E+02  1.55554E+02  1.42743E+02  1.10279E+02  6.78667E+01  4.83475E+01  3.34543E+01  1.20110E+01  1.79574E+01
   2.30214E+01  1.98152E+01  4.35485E+00  6.76141E+00  1.64682E+00  1.60964E+01  1.73495E-01 -2.05340E+00  1.11080E+01  2.83190E+00
   2.41732E+00 -5.40211E+00 -2.16933E+00 -1.19981E-01 -9.13584E+00 -1.91119E+00  3.00842E+00 -3.52411E+00 -8.04248E+00  1.77109E+00
   8.30847E+00  4.72935E-01  3.60313E+00  1.39685E-01  5.07504E+00  3.05268E+00  3.67090E+00  6.42059E+00 -6.15016E-01  5.45925E+00
   3.82989E+00  6.76239E+00  1.03312E+01 -1.92780E+00  1.54103E+01  1.15230E+01  1.09881E+01  7.38728E+00  3.20783E+00  1.46874E+01
   1.33189E+01  6.87538E+00  1.40758E+00  1.69612E+01  2.59379E+01  2.01224E+01  9.22523E+00  2.71857E+01  8.12867E+00  1.68382E+01
   5.12341E+00  2.54489E+01  1.78101E+01  1.93534E+01  2.19749E+00  1.71597E+01  6.96273E+00 -3.95216E+00  1.37870E+01  1.42450E+01
   4.17288E+00  1.25214E+01  5.87929E+00  1.12546E+01 -7.85515E-01  8.08843E+00  7.14646E+00  4.85457E+00  4.27683E+00  3.43267E+00
   1.29885E+01  1.17122E+01 -8.71202E-01  3.34195E+00  6.14716E+00  1.01231E+01  5.22746E+00  1.47922E+01  1.21617E+01  9.76778E+00
   1.66820E+01  1.78310E+01  9.14491E+00  1.22341E+01  3.24436E+01  3.74452E+00  1.88754E+01  1.82120E+01  1.50655E+01  1.40179E+01
   2.48474E+01  2.16029E+01  1.76577E+01  1.86132E+01  7.86947E+00  1.11725E+01  1.94711E+01  1.08912E+01  1.59647E+01  9.75465E+00
   1.58395E+01  1.75529E+01  1.63436E+01  9.13761E+00  2.30627E+01  9.71673E+00 -5.22263E+00  1.31052E+01  4.85207E+00  8.71309E+00
   2.59288E+00  1.62391E+01  1.24765E+01  1.50988E+00 -3.86077E+00 -1.01034E+00  3.93460E+00  7.26564E+00  7.33214E+00  3.17850E+00
   2.92570E+00 -3.79444E+00  9.49797E+00  8.20336E-01  9.22985E+00  1.78364E+00  1.08494E+01  8.87718E+00 -1.85923E+00  1.15318E+01
   7.70858E+00  1.04799E+01  4.81189E+00  1.46040E+01  2.02964E+01  5.61042E+00  1.16539E+01  1.66232E+01  8.15952E+00  2.19224E+01
   1.25231E+01  2.14811E+01  1.24042E+01  1.31230E+01  3.03688E+00  4.77697E+00  9.08845E+00  7.71866E+00  1.71654E+01  5.40377E+00
   5.28976E+00  8.98430E+00  8.66880E+00 -8.06263E-02 -1.73921E+00  6.40110E+00  3.24590E-01  5.12287E+00  5.29171E-01 -5.63687E+00
  -5.22455E-01 -3.52880E+00 -4.65292E+00  6.67519E+00  3.72903E+00  1.70484E+01  4.56052E+00  7.83198E+00 -6.93494E+00 -6.99103E+00
   6.61985E+00  4.70405E+00 -3.73815E+00  6.03890E+00  2.69869E+00  6.93045E+00  9.94939E+00 -2.25185E+00  1.12394E+00  4.34015E+00
   6.41149E+00  1.08063E+01  7.69770E-01 -2.90819E+00 -2.84054E+00  2.26419E+00  3.93075E+00  4.81077E+00 -1.14229E+00  3.42261E+00
   2.09729E-01 -4.02702E+00  1.49338E+00  4.58379E+00  1.68428E+00  9.39576E+00  2.37501E+00 -1.14600E+00 -4.69083E-01  4.96878E+00
   7.80915E+00  1.07472E+01 -7.85498E-01 -8.64550E+00  1.66100E+00 -2.90818E+00  6.03327E+00  3.99288E+00 -5.40548E+00 -9.33013E-01
  -1.38365E+00 -1.39772E+00  9.13863E+00 -1.40826E+00 -8.02905E+00  2.44451E+00  2.26345E+00  6.74403E+00  4.74320E+00  9.86375E+00
  -2.59135E+00 -1.80358E+00 -4.05928E-01  2.70182E+00  9.72040E-01  2.96403E+00 -1.33805E+00 -5.72879E+00
 NY points of the fit to the data follow
   3.47887E+01  3.43944E+01  3.54037E+01  3.78719E+01  4.21028E+01  4.92374E+01  5.82372E+01  6.84987E+01  8.00005E+01  9.15585E+01
   1.00551E+02  1.04444E+02  1.02324E+02  9.50704E+01  8.48332E+01  7.37103E+01  6.30683E+01  5.38191E+01  4.65906E+01  4.10452E+01
   3.69461E+01  3.47406E+01  3.36865E+01  3.40985E+01  3.51249E+01  3.66872E+01  3.98978E+01  4.52735E+01  5.19513E+01  5.80939E+01
   6.22629E+01  6.34955E+01  6.16705E+01  5.73793E+01  5.14199E+01  4.47980E+01  3.85606E+01  3.31533E+01  2.91677E+01  2.80021E+01
   2.92867E+01  3.17497E+01  3.47210E+01  3.84078E+01  4.27039E+01  4.64062E+01  4.83053E+01  4.76288E+01  4.46376E+01  4.03974E+01
   3.57257E+01  3.14142E+01  2.82341E+01  2.62055E+01  2.49572E+01  2.46024E+01  2.53816E+01  2.67066E+01  2.77204E+01  2.80123E+01
   2.74638E+01  2.61267E+01  2.42876E+01  2.23863E+01  2.10007E+01  2.02973E+01  2.01126E+01  2.03802E+01  2.10438E+01  2.18622E+01
   2.25625E+01  2.28774E+01  2.27213E+01  2.21716E+01  2.13671E+01  2.04711E+01  1.96292E+01  1.89027E+01  1.82488E+01  1.75457E+01
   1.68204E+01  1.59875E+01  1.50123E+01  1.38383E+01  1.24220E+01  1.08738E+01  9.47616E+00  8.52368E+00  8.22934E+00  8.64156E+00
   9.55201E+00  1.07318E+01  1.19785E+01  1.30904E+01  1.39728E+01  1.51498E+01  1.93482E+01  2.69979E+01  3.56236E+01  4.69903E+01
   6.36206E+01  8.38198E+01  1.01880E+02  1.12113E+02  1.11960E+02  1.02600E+02  8.74197E+01  6.99148E+01  5.32284E+01  3.93064E+01
   2.79191E+01  1.85348E+01  1.29406E+01  1.12954E+01  1.08023E+01  1.06120E+01  1.05597E+01  1.06440E+01  1.10153E+01  1.22351E+01
   1.66901E+01  2.54425E+01  3.56451E+01  4.82096E+01  6.56796E+01  8.69698E+01  1.06818E+02  1.19315E+02  1.21133E+02  1.13004E+02
   9.84084E+01  8.07296E+01  6.28117E+01  4.66072E+01  3.22943E+01  1.98077E+01  1.12267E+01  7.92168E+00  7.39785E+00  8.30905E+00
   9.78899E+00  1.11344E+01  1.20695E+01  1.24689E+01  1.22094E+01  1.14525E+01  1.04286E+01  9.25455E+00  8.06944E+00  6.98291E+00
   6.05507E+00  5.33707E+00  4.76136E+00  4.28546E+00  3.77178E+00  3.30912E+00  2.93055E+00  2.48724E+00  1.91320E+00  1.08996E+00
   2.54266E-01 -1.57621E-01 -3.74606E-02  2.74089E-01  3.51998E-01  4.12336E-04 -7.95359E-01 -1.87508E+00 -3.03441E+00 -4.23827E+00
  -5.45861E+00 -6.49436E+00 -7.53185E+00 -8.67753E+00 -9.72710E+00 -1.03708E+01 -1.04347E+01 -1.01418E+01 -9.94633E+00 -1.00393E+01
  -1.03586E+01 -1.05811E+01 -1.05283E+01 -1.02578E+01 -9.73884E+00 -8.78582E+00 -7.09254E+00 -4.43511E+00 -1.00721E+00  2.51455E+00
   5.17816E+00  6.32311E+00  6.11016E+00  4.87175E+00  2.93930E+00  7.87931E-01 -9.80526E-01 -1.57730E+00 -6.91789E-01  1.50049E+00
   4.56549E+00  7.88415E+00  1.07260E+01  1.20537E+01  1.17099E+01  9.77488E+00  6.08348E+00  1.13770E+00 -3.66672E+00 -6.94213E+00
  -8.03901E+00 -7.12699E+00 -4.09763E+00  8.71604E-01  6.62751E+00  1.12382E+01  1.31873E+01  1.23254E+01  9.18073E+00  3.96632E+00
  -2.11350E+00 -7.22223E+00 -1.00798E+01 -1.01520E+01 -7.88306E+00 -4.01682E+00  6.09753E-01  4.67964E+00  7.32267E+00  8.41587E+00
   8.81142E+00  9.03854E+00  9.00999E+00  9.15724E+00  1.00408E+01  1.14305E+01  1.25096E+01  1.28527E+01  1.24178E+01  1.12176E+01
   9.18081E+00  6.77926E+00  5.03283E+00  4.59953E+00  5.39653E+00  6.89607E+00  8.87628E+00  1.10087E+01  1.28033E+01  1.42911E+01
   1.56669E+01  1.72721E+01  2.01439E+01  2.89569E+01  4.36040E+01  5.91602E+01  7.80325E+01  1.04280E+02  1.35474E+02  1.62827E+02
   1.77814E+02  1.76625E+02  1.61141E+02  1.36606E+02  1.08370E+02  8.14650E+01  5.88127E+01  3.98566E+01  2.37507E+01  1.37770E+01
   1.01165E+01  8.36149E+00  7.31368E+00  6.71350E+00  6.35827E+00  6.01239E+00  5.62716E+00  5.16981E+00  4.61745E+00  4.00569E+00
   3.39880E+00  2.82534E+00  2.31190E+00  1.89813E+00  1.58959E+00  1.36116E+00  1.18572E+00  1.04970E+00  9.56836E-01  9.13099E-01
   9.12166E-01  9.62503E-01  1.07436E+00  1.25149E+00  1.49453E+00  1.80605E+00  2.18883E+00  2.64640E+00  3.18063E+00  3.79226E+00
   4.47721E+00  5.22876E+00  6.03516E+00  6.87916E+00  7.74006E+00  8.59577E+00  9.42433E+00  1.02037E+01  1.09123E+01  1.15321E+01
   1.20474E+01  1.24450E+01  1.27168E+01  1.28606E+01  1.28793E+01  1.27806E+01  1.25769E+01  1.22852E+01  1.19274E+01  1.15323E+01
   1.11343E+01  1.07271E+01  1.03078E+01  9.91232E+00  9.54810E+00  9.17618E+00  8.75122E+00  8.26361E+00  7.77267E+00  7.35454E+00
   7.03107E+00  6.83108E+00  6.80307E+00  6.96335E+00  7.26973E+00  7.65882E+00  8.07955E+00  8.47061E+00  8.79902E+00  9.07857E+00
   9.33714E+00  9.60668E+00  9.90204E+00  1.02232E+01  1.05949E+01  1.10442E+01  1.15598E+01  1.21319E+01  1.27518E+01  1.34077E+01
   1.40827E+01  1.47551E+01  1.53986E+01  1.59838E+01  1.64807E+01  1.68619E+01  1.71056E+01  1.71987E+01  1.71380E+01  1.69296E+01
   1.65870E+01  1.61291E+01  1.55772E+01  1.49529E+01  1.42760E+01  1.35634E+01  1.28289E+01  1.20835E+01  1.13366E+01  1.05967E+01
   9.87162E+00  9.16853E+00  8.49405E+00  7.85446E+00  7.25576E+00  6.70343E+00  6.20213E+00  5.75551E+00  5.36647E+00  5.03745E+00
   4.77063E+00  4.56787E+00  4.43052E+00  4.35961E+00  4.35601E+00  4.42071E+00  4.55467E+00  4.75845E+00  5.03196E+00  5.37437E+00
   5.78410E+00  6.25868E+00  6.79431E+00  7.38540E+00  8.02438E+00  8.70177E+00  9.40634E+00  1.01252E+01  1.08438E+01  1.15460E+01
   1.22149E+01  1.28335E+01  1.33853E+01  1.38551E+01  1.42294E+01  1.44971E+01  1.46498E+01  1.46830E+01  1.45955E+01  1.43903E+01
   1.40731E+01  1.36529E+01  1.31414E+01  1.25524E+01  1.19012E+01  1.12035E+01  1.04750E+01  9.73044E+00  8.98378E+00  8.24750E+00
   7.53225E+00  6.84660E+00  6.19694E+00  5.58784E+00  5.02226E+00  4.50173E+00  4.02634E+00  3.59496E+00  3.20561E+00  2.85582E+00
   2.54291E+00  2.26406E+00  2.01620E+00  1.79620E+00  1.60105E+00  1.42810E+00  1.27504E+00  1.13971E+00  1.02000E+00  9.13984E-01
   8.20002E-01  7.36772E-01  6.63222E-01  5.98303E-01  5.40956E-01  4.90239E-01  4.45454E-01  4.06122E-01  3.71804E-01  3.41967E-01
   3.16042E-01  2.93590E-01  2.74371E-01  2.58243E-01  2.44994E-01  2.34288E-01  2.25787E-01  2.19305E-01  2.14803E-01  2.12240E-01
   2.11447E-01  2.12163E-01  2.14195E-01  2.17510E-01  2.22159E-01  2.28109E-01  2.35186E-01  2.43184E-01  2.52016E-01  2.61740E-01
   2.72417E-01  2.83982E-01  2.96259E-01  3.09113E-01  3.22552E-01  3.36674E-01  3.51507E-01  3.66936E-01  3.82796E-01  3.99019E-01
   4.15679E-01  4.32870E-01  4.50568E-01  4.68629E-01  4.86927E-01  5.05473E-01  5.24375E-01  5.43690E-01  5.63335E-01  5.83158E-01
   6.03092E-01  6.23206E-01  6.43606E-01  6.64290E-01  6.85133E-01  7.06006E-01  7.26908E-01  7.47945E-01
 NY background values follow
     2.500E+01    2.483E+01    2.466E+01    2.449E+01    2.431E+01    2.414E+01    2.397E+01    2.380E+01    2.362E+01    2.345E+01
     2.328E+01    2.311E+01    2.293E+01    2.276E+01    2.259E+01    2.241E+01    2.224E+01    2.207E+01    2.190E+01    2.172E+01
     2.155E+01    2.138E+01    2.121E+01    2.104E+01    2.086E+01    2.069E+01    2.052E+01    2.035E+01    2.018E+01    2.000E+01
     1.983E+01    1.966E+01    1.949E+01    1.932E+01    1.915E+01    1.898E+01    1.881E+01    1.863E+01    1.846E+01    1.829E+01
     1.812E+01    1.795E+01    1.778E+01    1.761E+01    1.744E+01    1.728E+01    1.711E+01    1.694E+01    1.677E+01    1.660E+01
     1.643E+01    1.626E+01    1.610E+01    1.593E+01    1.576E+01    1.559E+01    1.543E+01    1.526E+01    1.509E+01    1.493E+01
     1.476E+01    1.460E+01    1.443E+01    1.427E+01    1.411E+01    1.394E+01    1.378E+01    1.362E+01    1.345E+01    1.329E+01
     1.313E+01    1.297E+01    1.281E+01    1.265E+01    1.249E+01    1.233E+01    1.217E+01    1.201E+01    1.185E+01    1.170E+01
     1.154E+01    1.138E+01    1.123E+01    1.107E+01    1.092E+01    1.076E+01    1.061E+01    1.046E+01    1.031E+01    1.015E+01
     1.000E+01    9.852E+00    9.702E+00    9.553E+00    9.405E+00    9.257E+00    9.110E+00    8.963E+00    8.818E+00    8.672E+00
     8.528E+00    8.384E+00    8.241E+00    8.098E+00    7.956E+00    7.815E+00    7.675E+00    7.535E+00    7.396E+00    7.257E+00
     7.119E+00    6.982E+00    6.846E+00    6.710E+00    6.575E+00    6.441E+00    6.307E+00    6.175E+00    6.042E+00    5.911E+00
     5.780E+00    5.650E+00    5.521E+00    5.392E+00    5.264E+00    5.137E+00    5.011E+00    4.885E+00    4.760E+00    4.636E+00
     4.513E+00    4.390E+00    4.268E+00    4.147E+00    4.027E+00    3.907E+00    3.788E+00    3.670E+00    3.553E+00    3.436E+00
     3.320E+00    3.205E+00    3.091E+00    2.977E+00    2.865E+00    2.753E+00    2.642E+00    2.532E+00    2.422E+00    2.314E+00
     2.206E+00    2.099E+00    1.993E+00    1.888E+00    1.783E+00    1.680E+00    1.577E+00    1.475E+00    1.374E+00    1.274E+00
     1.175E+00    1.076E+00    9.790E-01    8.824E-01    7.867E-01    6.919E-01    5.980E-01    5.050E-01    4.129E-01    3.218E-01
     2.315E-01    1.422E-01    5.383E-02   -3.362E-02   -1.201E-01   -2.057E-01   -2.903E-01   -3.740E-01   -4.567E-01   -5.384E-01
    -6.192E-01   -6.990E-01   -7.778E-01   -8.557E-01   -9.326E-01   -1.009E+00   -1.084E+00   -1.158E+00   -1.231E+00   -1.303E+00
    -1.374E+00   -1.445E+00   -1.514E+00   -1.583E+00   -1.651E+00   -1.717E+00   -1.783E+00   -1.848E+00   -1.913E+00   -1.976E+00
    -2.039E+00   -2.101E+00   -2.161E+00   -2.222E+00   -2.281E+00   -2.339E+00   -2.397E+00   -2.454E+00   -2.510E+00   -2.566E+00
    -2.620E+00   -2.674E+00   -2.727E+00   -2.780E+00   -2.831E+00   -2.882E+00   -2.933E+00   -2.982E+00   -3.031E+00   -3.079E+00
    -3.126E+00   -3.173E+00   -3.219E+00   -3.265E+00   -3.310E+00   -3.354E+00   -3.397E+00   -3.440E+00   -3.482E+00   -3.524E+00
    -3.565E+00   -3.605E+00   -3.645E+00   -3.684E+00   -3.722E+00   -3.760E+00   -3.798E+00   -3.834E+00   -3.870E+00   -3.906E+00
    -3.941E+00   -3.975E+00   -4.008E+00   -4.042E+00   -4.074E+00   -4.106E+00   -4.137E+00   -4.168E+00   -4.198E+00   -4.227E+00
    -4.256E+00   -4.285E+00   -4.312E+00   -4.339E+00   -4.366E+00   -4.392E+00   -4.418E+00   -4.442E+00   -4.467E+00   -4.491E+00
    -4.514E+00   -4.536E+00   -4.558E+00   -4.580E+00   -4.601E+00   -4.621E+00   -4.641E+00   -4.661E+00   -4.679E+00   -4.698E+00
    -4.715E+00   -4.732E+00   -4.749E+00   -4.765E+00   -4.781E+00   -4.796E+00   -4.810E+00   -4.824E+00   -4.838E+00   -4.851E+00
    -4.863E+00   -4.875E+00   -4.887E+00   -4.898E+00   -4.908E+00   -4.918E+00   -4.928E+00   -4.937E+00   -4.945E+00   -4.953E+00
    -4.961E+00   -4.968E+00   -4.975E+00   -4.981E+00   -4.987E+00   -4.992E+00   -4.997E+00   -5.001E+00   -5.005E+00   -5.008E+00
    -5.011E+00   -5.014E+00   -5.016E+00   -5.018E+00   -5.019E+00   -5.020E+00   -5.021E+00   -5.021E+00   -5.021E+00   -5.020E+00
    -5.019E+00   -5.017E+00   -5.015E+00   -5.013E+00   -5.010E+00   -5.007E+00   -5.004E+00   -5.000E+00   -4.996E+00   -4.991E+00
    -4.986E+00   -4.981E+00   -4.975E+00   -4.969E+00   -4.962E+00   -4.956E+00   -4.949E+00   -4.941E+00   -4.933E+00   -4.925E+00
    -4.916E+00   -4.908E+00   -4.898E+00   -4.889E+00   -4.879E+00   -4.869E+00   -4.858E+00   -4.847E+00   -4.836E+00   -4.825E+00
    -4.813E+00   -4.801E+00   -4.788E+00   -4.775E+00   -4.762E+00   -4.749E+00   -4.735E+00   -4.721E+00   -4.707E+00   -4.692E+00
    -4.677E+00   -4.662E+00   -4.647E+00   -4.631E+00   -4.615E+00   -4.598E+00   -4.582E+00   -4.565E+00   -4.548E+00   -4.530E+00
    -4.513E+00   -4.495E+00   -4.476E+00   -4.458E+00   -4.439E+00   -4.420E+00   -4.401E+00   -4.381E+00   -4.362E+00   -4.342E+00
    -4.321E+00   -4.301E+00   -4.280E+00   -4.259E+00   -4.238E+00   -4.216E+00   -4.194E+00   -4.172E+00   -4.150E+00   -4.128E+00
    -4.105E+00   -4.082E+00   -4.059E+00   -4.035E+00   -4.012E+00   -3.988E+00   -3.964E+00   -3.939E+00   -3.915E+00   -3.890E+00
    -3.865E+00   -3.840E+00   -3.814E+00   -3.788E+00   -3.762E+00   -3.736E+00   -3.710E+00   -3.683E+00   -3.657E+00   -3.630E+00
    -3.602E+00   -3.575E+00   -3.547E+00   -3.519E+00   -3.491E+00   -3.463E+00   -3.435E+00   -3.406E+00   -3.377E+00   -3.348E+00
    -3.319E+00   -3.290E+00   -3.260E+00   -3.230E+00   -3.200E+00   -3.170E+00   -3.140E+00   -3.109E+00   -3.079E+00   -3.048E+00
    -3.017E+00   -2.986E+00   -2.955E+00   -2.923E+00   -2.892E+00   -2.860E+00   -2.828E+00   -2.797E+00   -2.765E+00   -2.732E+00
    -2.700E+00   -2.668E+00   -2.635E+00   -2.603E+00   -2.570E+00   -2.537E+00   -2.505E+00   -2.472E+00   -2.439E+00   -2.406E+00
    -2.373E+00   -2.339E+00   -2.306E+00   -2.273E+00   -2.239E+00   -2.206E+00   -2.172E+00   -2.139E+00   -2.105E+00   -2.071E+00
    -2.038E+00   -2.004E+00   -1.970E+00   -1.937E+00   -1.903E+00   -1.869E+00   -1.835E+00   -1.801E+00   -1.768E+00   -1.734E+00
    -1.700E+00   -1.666E+00   -1.632E+00   -1.598E+00   -1.564E+00   -1.530E+00   -1.496E+00   -1.462E+00   -1.428E+00   -1.394E+00
    -1.360E+00   -1.326E+00   -1.292E+00   -1.258E+00   -1.224E+00   -1.190E+00   -1.156E+00   -1.121E+00   -1.087E+00   -1.053E+00
    -1.019E+00   -9.851E-01   -9.510E-01   -9.169E-01   -8.828E-01   -8.487E-01   -8.146E-01   -7.805E-01   -7.465E-01   -7.124E-01
    -6.783E-01   -6.442E-01   -6.102E-01   -5.761E-01   -5.421E-01   -5.081E-01   -4.740E-01   -4.400E-01
 Ala      Conc. = 6.90E+01
