 LCModel (Version 6.3-1L) Copyright: S.W. Provencher.          Ref.: Magn. Reson. Med. 30:672-679 (1993).                
 Slice#2 Row#5 Col#10  PD_05_press_2_raw_act
 36 lines in following concentration table = NCONC+1
    Conc.  %SD /Cr+PCr  Metabolite                                         
 1.10E+03  52%   0.302 Ala                                                 
    0.000 999%   0.000 Asp                                                 
    0.000 999%   0.000 Cr                                                  
 3.63E+03   5%   1.000 PCr                                                 
   90.599 523% 2.5E-02 GABA                                                
  268.406 169% 7.4E-02 Glc                                                 
 4.19E+03  27%   1.156 Gln                                                 
 5.36E+03  25%   1.479 Glu                                                 
 1.11E+03   7%   0.307 GPC                                                 
    0.000 999%   0.000 PCh                                                 
  462.864  63%   0.128 GSH                                                 
 2.73E+03  37%   0.754 Ins                                                 
 2.89E+03  26%   0.797 Lac                                                 
 5.96E+03   4%   1.644 NAA                                                 
    0.000 999%   0.000 NAAG                                                
  460.302  21%   0.127 Scyllo                                              
  684.449  97%   0.189 Tau                                                 
 2.21E+03  17%   0.608 -CrCH2                                              
 1.11E+03   7%   0.307 GPC+PCh                                             
 5.96E+03   4%   1.644 NAA+NAAG                                            
 3.63E+03   5%   1.000 Cr+PCr                                              
 9.56E+03  22%   2.635 Glu+Gln                                             
    0.000 999%   0.000 Lip13a                                              
 1.63E+04  16%   4.487 Lip13b                                              
 2.76E+03  27%   0.762 Lip09                                               
    0.000 999%   0.000 MM09                                                
 2.33E+03  24%   0.643 Lip20                                               
    0.000 999%   0.000 MM20                                                
   29.750 905% 8.2E-03 MM12                                                
 7.13E+03  11%   1.967+MM14                                                
 2.68E+03  24%   0.739+MM17                                                
 1.63E+04  16%   4.487 Lip13a+Lip13b                                       
 2.34E+04   9%   6.462 MM14+Lip13a+Lip13b+MM12                             
 2.76E+03  27%   0.762 MM09+Lip09                                          
 2.33E+03  24%   0.643 MM20+Lip20                                          
   6 lines in following misc. output table
  FWHM = 0.069 ppm    S/N =   8                                            
  Data shift = 0.008 ppm                                                   
  Ph:-105 deg     -43.7 deg/ppm                                            
  alphaB,S = 4.6E-01,   3.6E+02                                            
   14 spline knots.   Ns = 9(1)                                            
  (15) 2 infls.   ( 9) 1 extrs.                                            
  498 points on ppm-axis = NY
      4.000000     3.992357     3.984714     3.977070     3.969427     3.961784     3.954141     3.946497     3.938854     3.931211
      3.923568     3.915925     3.908281     3.900638     3.892995     3.885352     3.877708     3.870065     3.862422     3.854779
      3.847136     3.839492     3.831849     3.824206     3.816563     3.808919     3.801276     3.793633     3.785990     3.778347
      3.770703     3.763060     3.755417     3.747774     3.740130     3.732487     3.724844     3.717201     3.709558     3.701914
      3.694271     3.686628     3.678985     3.671341     3.663698     3.656055     3.648412     3.640769     3.633125     3.625482
      3.617839     3.610196     3.602552     3.594909     3.587266     3.579623     3.571980     3.564336     3.556693     3.549050
      3.541407     3.533763     3.526120     3.518477     3.510834     3.503191     3.495547     3.487904     3.480261     3.472618
      3.464974     3.457331     3.449688     3.442045     3.434402     3.426758     3.419115     3.411472     3.403829     3.396185
      3.388542     3.380899     3.373256     3.365613     3.357969     3.350326     3.342683     3.335040     3.327396     3.319753
      3.312110     3.304467     3.296824     3.289180     3.281537     3.273894     3.266251     3.258607     3.250964     3.243321
      3.235678     3.228034     3.220391     3.212748     3.205105     3.197462     3.189818     3.182175     3.174532     3.166889
      3.159245     3.151602     3.143959     3.136316     3.128673     3.121029     3.113386     3.105743     3.098100     3.090456
      3.082813     3.075170     3.067527     3.059884     3.052240     3.044597     3.036954     3.029311     3.021667     3.014024
      3.006381     2.998738     2.991095     2.983451     2.975808     2.968165     2.960522     2.952878     2.945235     2.937592
      2.929949     2.922306     2.914662     2.907019     2.899376     2.891733     2.884089     2.876446     2.868803     2.861160
      2.853517     2.845873     2.838230     2.830587     2.822944     2.815300     2.807657     2.800014     2.792371     2.784728
      2.777084     2.769441     2.761798     2.754155     2.746511     2.738868     2.731225     2.723582     2.715939     2.708295
      2.700652     2.693009     2.685366     2.677722     2.670079     2.662436     2.654793     2.647150     2.639506     2.631863
      2.624220     2.616577     2.608933     2.601290     2.593647     2.586004     2.578361     2.570717     2.563074     2.555431
      2.547788     2.540144     2.532501     2.524858     2.517215     2.509572     2.501928     2.494285     2.486642     2.478999
      2.471355     2.463712     2.456069     2.448426     2.440783     2.433139     2.425496     2.417853     2.410210     2.402566
      2.394923     2.387280     2.379637     2.371994     2.364350     2.356707     2.349064     2.341421     2.333777     2.326134
      2.318491     2.310848     2.303205     2.295561     2.287918     2.280275     2.272632     2.264988     2.257345     2.249702
      2.242059     2.234416     2.226772     2.219129     2.211486     2.203843     2.196199     2.188556     2.180913     2.173270
      2.165627     2.157983     2.150340     2.142697     2.135054     2.127410     2.119767     2.112124     2.104481     2.096838
      2.089194     2.081551     2.073908     2.066265     2.058621     2.050978     2.043335     2.035692     2.028049     2.020405
      2.012762     2.005119     1.997476     1.989833     1.982190     1.974546     1.966903     1.959260     1.951617     1.943974
      1.936331     1.928688     1.921045     1.913402     1.905759     1.898115     1.890472     1.882829     1.875186     1.867543
      1.859900     1.852257     1.844614     1.836971     1.829327     1.821684     1.814041     1.806398     1.798755     1.791112
      1.783469     1.775826     1.768183     1.760540     1.752896     1.745253     1.737610     1.729967     1.722324     1.714681
      1.707038     1.699395     1.691752     1.684108     1.676465     1.668822     1.661179     1.653536     1.645893     1.638250
      1.630607     1.622964     1.615321     1.607677     1.600034     1.592391     1.584748     1.577105     1.569462     1.561819
      1.554176     1.546533     1.538890     1.531246     1.523603     1.515960     1.508317     1.500674     1.493031     1.485388
      1.477745     1.470102     1.462458     1.454815     1.447172     1.439529     1.431886     1.424243     1.416600     1.408957
      1.401314     1.393671     1.386027     1.378384     1.370741     1.363098     1.355455     1.347812     1.340169     1.332526
      1.324883     1.317240     1.309596     1.301953     1.294310     1.286667     1.279024     1.271381     1.263738     1.256095
      1.248452     1.240808     1.233165     1.225522     1.217879     1.210236     1.202593     1.194950     1.187307     1.179664
      1.172021     1.164377     1.156734     1.149091     1.141448     1.133805     1.126162     1.118519     1.110876     1.103233
      1.095590     1.087946     1.080303     1.072660     1.065017     1.057374     1.049731     1.042088     1.034445     1.026802
      1.019158     1.011515     1.003872     0.996229     0.988586     0.980943     0.973300     0.965657     0.958014     0.950371
      0.942727     0.935084     0.927441     0.919798     0.912155     0.904512     0.896869     0.889226     0.881583     0.873940
      0.866296     0.858653     0.851010     0.843367     0.835724     0.828081     0.820438     0.812795     0.805152     0.797508
      0.789865     0.782222     0.774579     0.766936     0.759293     0.751650     0.744007     0.736364     0.728721     0.721077
      0.713434     0.705791     0.698148     0.690505     0.682862     0.675219     0.667576     0.659933     0.652290     0.644646
      0.637003     0.629360     0.621717     0.614074     0.606431     0.598788     0.591145     0.583502     0.575858     0.568215
      0.560572     0.552929     0.545286     0.537643     0.530000     0.522357     0.514714     0.507071     0.499427     0.491784
      0.484141     0.476498     0.468855     0.461212     0.453569     0.445925     0.438282     0.430639     0.422996     0.415353
      0.407710     0.400067     0.392424     0.384780     0.377137     0.369494     0.361851     0.354208     0.346565     0.338922
      0.331278     0.323635     0.315992     0.308349     0.300706     0.293063     0.285420     0.277777     0.270133     0.262490
      0.254847     0.247204     0.239561     0.231918     0.224275     0.216631     0.208988     0.201345
 NY phased data points follow
   3.05850E+01  4.46652E+01  4.72739E+01  4.65581E+01  4.12297E+01  5.23581E+01  5.81747E+01  5.40036E+01  5.07053E+01  5.08318E+01
   4.60137E+01  3.74532E+01  4.42176E+01  3.19389E+01  2.10399E+01  3.68554E+01  3.40456E+01  1.45272E+01  1.54723E+01  2.58398E+01
   3.29279E+01  3.69216E+01  3.07706E+01  4.52016E+01  3.48140E+01  3.51280E+01  2.87691E+01  2.17798E+01  2.36610E+01  4.15773E+01
   2.13060E+01  3.61848E+01  3.41089E+01  4.35597E+01  3.37415E+01  3.05435E+01  4.21726E+01  3.82929E+01  2.50411E+01  2.53779E+01
   3.57428E+01  3.73784E+01  3.97863E+01  5.56209E+01  5.01800E+01  4.52715E+01  3.66174E+01  5.29678E+01  3.52660E+01  4.15451E+01
   3.10797E+01  3.71823E+01  3.04988E+01  4.04832E+01  2.71536E+01  3.78801E+01  1.78917E+01  2.39294E+01  2.47971E+01  3.49478E+01
   1.47106E+01  1.84699E+01  2.13849E+01  2.49740E+01  9.86787E+00  2.08251E+01  1.50992E+01  1.71386E+01  2.32968E+01  2.20065E+01
   1.79648E+01  3.00467E+01  2.18758E+01  2.66410E+01  2.50339E+01  3.57195E+01  2.67940E+01  3.66067E+01  1.40666E+01  2.73116E+01
   3.02449E+01  4.36634E+01  3.32623E+01  3.94878E+01  3.14750E+01  3.54675E+01  2.76042E+01  3.42377E+01  3.77228E+01  4.86254E+01
   3.51493E+01  3.93260E+01  4.85060E+01  4.84079E+01  3.88942E+01  5.32812E+01  6.56552E+01  6.61802E+01  7.11815E+01  7.42464E+01
   8.46557E+01  9.63854E+01  1.06964E+02  1.07812E+02  8.49680E+01  7.41296E+01  5.27050E+01  2.74015E+01  2.76259E+01  3.87948E+01
   2.48880E+01  2.44321E+01  3.62336E+01  3.28477E+01  2.38505E+01  2.08404E+01  3.19547E+01  3.78663E+01  3.32665E+01  3.84098E+01
   5.10194E+01  4.88221E+01  6.27793E+01  7.73484E+01  9.12858E+01  9.92867E+01  1.16030E+02  1.09327E+02  9.73440E+01  9.45097E+01
   7.37278E+01  6.59750E+01  3.61238E+01  2.70824E+01  2.89429E+01  1.83579E+01  2.31579E+01  1.45658E+01  1.79329E+01  1.48747E+01
   1.81833E+01  2.49676E+01  2.05732E+01  2.45344E+01  2.07780E+01  3.41914E+01  1.30223E+01  2.98172E+01  2.25609E+01  2.88611E+01
   2.72063E+01  2.07927E+01  1.94117E+01  3.06927E+01  1.12942E+01  1.35373E+01  1.23100E+01  1.13576E+01  9.94733E+00  1.68296E+01
   1.70159E+01  1.53420E+01  3.37037E+00  9.75151E+00  6.33893E+00  2.64517E+00  1.80397E+01  7.31521E+00  1.45056E+01  4.90489E+00
  -3.31873E+00 -6.36123E+00 -7.27146E+00 -6.06169E+00 -6.54107E+00 -1.58516E+01 -1.11401E+01 -2.77036E+00 -5.03890E+00  4.48046E+00
   7.89750E-01  3.01384E+00 -9.11269E+00 -7.06231E-01  3.00945E+00  9.22452E+00 -3.03473E+00  1.13185E+00  1.16992E+01  1.23778E+01
   9.99348E+00  2.57601E+01  1.27653E+01  2.97997E+01  2.06112E+01  1.32017E+01  1.71420E+01 -1.74562E+00  1.14106E+01  7.41138E+00
   1.12852E+01  1.25631E+01  2.56154E+01  1.23214E+01  2.44789E+01  1.82789E+01  1.88763E+01  9.19897E+00  1.35918E+01  2.13415E+01
   2.01429E+01  1.75183E+01  3.92924E+01  3.66771E+01  3.53848E+01  3.11108E+01  4.43055E+01  4.26104E+01  3.68746E+01  2.70576E+01
   3.16317E+01  2.77110E+01  1.32466E+01  2.10743E+01  2.41576E+01  3.38698E+01  3.13300E+01  2.80684E+01  3.70676E+01  3.42099E+01
   3.89674E+01  4.36649E+01  3.35703E+01  3.49116E+01  3.66859E+01  3.02182E+01  1.73248E+01  2.58030E+01  2.82123E+01  3.73800E+01
   3.41195E+01  1.91317E+01  1.84325E+01  2.11831E+01  1.67821E+01  2.06533E+01  2.82004E+01  2.99327E+01  3.09823E+01  3.32353E+01
   3.33233E+01  4.12036E+01  4.11823E+01  6.34892E+01  6.64500E+01  8.30004E+01  1.01830E+02  1.19414E+02  1.37993E+02  1.69757E+02
   1.93673E+02  1.85892E+02  1.98630E+02  1.82742E+02  1.62891E+02  1.32721E+02  1.09413E+02  8.32796E+01  7.92303E+01  7.59820E+01
   6.21471E+01  6.40871E+01  6.73690E+01  5.62061E+01  5.58608E+01  5.28603E+01  5.86485E+01  5.80406E+01  4.98779E+01  4.58423E+01
   5.23158E+01  4.70290E+01  4.43858E+01  5.08378E+01  4.38073E+01  5.10092E+01  3.67642E+01  3.44018E+01  3.46637E+01  4.18214E+01
   4.35086E+01  4.22265E+01  4.77465E+01  4.34485E+01  3.74720E+01  4.22163E+01  4.82940E+01  5.00281E+01  5.86408E+01  4.72477E+01
   4.16038E+01  5.46208E+01  5.42816E+01  5.46742E+01  5.84243E+01  7.06135E+01  7.01379E+01  6.49368E+01  6.81615E+01  6.39667E+01
   5.62594E+01  5.90884E+01  6.92678E+01  6.98390E+01  5.82316E+01  6.94601E+01  6.50301E+01  8.19955E+01  8.23029E+01  8.45792E+01
   8.50594E+01  8.12317E+01  9.79637E+01  9.34625E+01  9.66820E+01  9.24905E+01  8.80953E+01  9.35875E+01  1.08236E+02  1.07487E+02
   1.04664E+02  1.09228E+02  1.17936E+02  1.12133E+02  1.00875E+02  1.19323E+02  1.21529E+02  1.22841E+02  1.26271E+02  1.31769E+02
   1.20393E+02  1.37589E+02  1.43891E+02  1.40104E+02  1.33454E+02  1.36847E+02  1.41361E+02  1.27736E+02  1.34049E+02  1.30343E+02
   1.32322E+02  1.16090E+02  1.21145E+02  1.04051E+02  1.11780E+02  9.71351E+01  1.07418E+02  9.88231E+01  9.44952E+01  9.43913E+01
   9.86385E+01  9.79994E+01  8.37878E+01  8.00175E+01  9.02694E+01  8.25570E+01  7.10240E+01  6.17213E+01  6.61264E+01  6.09551E+01
   6.49027E+01  5.17961E+01  4.67807E+01  4.08318E+01  4.54298E+01  4.03091E+01  4.00317E+01  3.90308E+01  3.56317E+01  3.43610E+01
   2.06905E+01  1.17144E+01  2.52588E+01  2.88068E+01  1.80491E+01  1.00434E+01  2.26233E+01  8.39636E+00  1.67444E+01  1.86373E+01
   1.84513E+01  2.05534E+01  2.51957E+01  1.68081E+01  1.70980E+01  1.53120E+01  2.02558E+01  1.85428E+01  1.30393E+01  3.01630E+01
   1.89770E+01  2.36573E+01  2.50882E+01  2.49033E+01  2.40724E+01  1.91955E+01  3.57756E+01  3.86882E+01  4.12917E+01  2.00926E+01
   3.95024E+01  2.74551E+01  3.68543E+01  3.20277E+01  5.05600E+01  2.53468E+01  2.91997E+01  2.87654E+01  3.75812E+01  3.95374E+01
   2.55434E+01  3.09717E+01  3.24515E+01  2.78303E+01  2.84852E+01  3.11531E+01  2.56403E+01  3.66607E+01  3.28809E+01  2.25770E+01
   2.44958E+01  2.73788E+01  2.39580E+01  2.45885E+01  1.69431E+01  3.98067E+01  2.52799E+01  2.75147E+01  2.65419E+01  2.94474E+01
   1.08414E+01  3.28620E+01  2.78122E+01  2.21594E+01  1.23326E+01  1.54186E+01  3.03539E+01  1.96381E+01  1.31611E+01  1.85930E+01
   2.21887E+01  1.61827E+01  2.32677E+01  2.11205E+01  2.55238E+01  2.05217E+01  2.17548E+01  1.24537E+01  2.13562E+01  1.90990E+01
   1.93782E+01  1.64198E+01  9.65871E+00  2.43380E+01  1.28867E+01  1.58082E+01  2.85856E+01  1.63255E+01  1.35300E+01  8.81909E+00
   2.97221E+01  1.64732E+01  1.30760E+01  2.19270E+01  1.50306E+01  1.55471E+01  2.06063E+01  2.98469E+01  3.40249E+01  2.66659E+01
   2.15239E+01  1.79285E+01  2.73546E+01  1.11571E+01  2.38745E+01  2.63600E+01  2.12130E+01  2.86488E+01  1.35489E+01  1.77918E+01
   1.53945E+01  1.78588E+01  2.11222E+01  1.75325E+01  1.59278E+01  2.46101E+01  2.35512E+01  2.71350E+01
 NY points of the fit to the data follow
   3.55767E+01  3.76379E+01  3.99182E+01  4.28419E+01  4.64667E+01  5.02719E+01  5.35330E+01  5.53815E+01  5.51138E+01  5.24984E+01
   4.79300E+01  4.24662E+01  3.72827E+01  3.32335E+01  3.06962E+01  2.94743E+01  2.88182E+01  2.81857E+01  2.79843E+01  2.87341E+01
   2.91968E+01  2.89970E+01  2.88360E+01  2.89322E+01  2.92042E+01  2.96156E+01  3.02140E+01  3.10926E+01  3.24916E+01  3.45819E+01
   3.72106E+01  3.99187E+01  4.20239E+01  4.28197E+01  4.19509E+01  3.96825E+01  3.67109E+01  3.37547E+01  3.15985E+01  3.06361E+01
   3.08698E+01  3.20145E+01  3.37274E+01  3.57393E+01  3.77985E+01  3.97309E+01  4.11807E+01  4.17837E+01  4.13216E+01  3.97406E+01
   3.72381E+01  3.43302E+01  3.15386E+01  2.92046E+01  2.74710E+01  2.63736E+01  2.57750E+01  2.55177E+01  2.56541E+01  2.60978E+01
   2.65391E+01  2.66695E+01  2.64314E+01  2.59542E+01  2.53993E+01  2.49078E+01  2.46491E+01  2.47295E+01  2.50576E+01  2.54937E+01
   2.59799E+01  2.64358E+01  2.68018E+01  2.70470E+01  2.71210E+01  2.69842E+01  2.66598E+01  2.63802E+01  2.66333E+01  2.73394E+01
   2.83192E+01  2.95125E+01  3.09850E+01  3.27952E+01  3.47744E+01  3.65734E+01  3.78327E+01  3.82661E+01  3.76503E+01  3.60390E+01
   3.38569E+01  3.19314E+01  3.22288E+01  3.56391E+01  4.11410E+01  4.78246E+01  5.53768E+01  6.40179E+01  7.38216E+01  8.37283E+01
   9.21447E+01  9.74182E+01  9.82396E+01  9.40763E+01  8.54928E+01  7.40281E+01  6.16448E+01  5.01420E+01  4.05471E+01  3.28008E+01
   2.63464E+01  2.12664E+01  1.85697E+01  1.77646E+01  1.75202E+01  1.76597E+01  1.90492E+01  2.34915E+01  3.05185E+01  3.89955E+01
   4.83680E+01  5.85371E+01  6.95583E+01  8.11125E+01  9.21358E+01  1.00916E+02  1.05625E+02  1.04966E+02  9.87150E+01  8.79467E+01
   7.46512E+01  6.10291E+01  4.88620E+01  3.88755E+01  3.06251E+01  2.36559E+01  1.86733E+01  1.65885E+01  1.59921E+01  1.59012E+01
   1.60889E+01  1.64104E+01  1.67352E+01  1.69799E+01  1.71330E+01  1.72017E+01  1.71797E+01  1.70950E+01  1.69849E+01  1.68666E+01
   1.67664E+01  1.66973E+01  1.66062E+01  1.64152E+01  1.61438E+01  1.58475E+01  1.56041E+01  1.54312E+01  1.52047E+01  1.48621E+01
   1.44385E+01  1.40172E+01  1.36876E+01  1.34887E+01  1.33763E+01  1.32280E+01  1.28999E+01  1.22622E+01  1.12469E+01  1.00345E+01
   8.88504E+00  7.91784E+00  7.05093E+00  6.14031E+00  5.28420E+00  4.63283E+00  4.31908E+00  4.33710E+00  4.50499E+00  4.70785E+00
   5.00893E+00  5.44963E+00  6.03594E+00  6.77064E+00  7.63736E+00  8.63447E+00  9.76361E+00  1.09124E+01  1.20591E+01  1.32661E+01
   1.44519E+01  1.54815E+01  1.63073E+01  1.69472E+01  1.75498E+01  1.84448E+01  1.99407E+01  2.20373E+01  2.44620E+01  2.68836E+01
   2.88302E+01  2.97843E+01  2.98106E+01  2.88734E+01  2.67574E+01  2.34613E+01  1.94441E+01  1.56479E+01  1.27970E+01  1.14033E+01
   1.18809E+01  1.44506E+01  1.87802E+01  2.37253E+01  2.80611E+01  3.11568E+01  3.25744E+01  3.19453E+01  2.94251E+01  2.55590E+01
   2.10441E+01  1.70089E+01  1.48087E+01  1.48965E+01  1.70188E+01  2.05876E+01  2.48319E+01  2.90132E+01  3.23335E+01  3.44765E+01
   3.56448E+01  3.62041E+01  3.63605E+01  3.59483E+01  3.51815E+01  3.46845E+01  3.47160E+01  3.50937E+01  3.55110E+01  3.56043E+01
   3.50609E+01  3.37645E+01  3.18493E+01  2.98054E+01  2.83336E+01  2.77864E+01  2.80845E+01  2.90941E+01  3.07789E+01  3.28619E+01
   3.54083E+01  3.97669E+01  4.89205E+01  6.20649E+01  7.71119E+01  9.32016E+01  1.10169E+02  1.28191E+02  1.47050E+02  1.65290E+02
   1.80196E+02  1.88751E+02  1.88639E+02  1.79189E+02  1.61989E+02  1.40210E+02  1.17517E+02  9.70026E+01  8.00960E+01  6.61761E+01
   5.45127E+01  4.61276E+01  4.25540E+01  4.15318E+01  4.12113E+01  4.11699E+01  4.11722E+01  4.11091E+01  4.09843E+01  4.08019E+01
   4.05977E+01  4.04130E+01  4.02681E+01  4.01739E+01  4.01662E+01  4.02652E+01  4.04571E+01  4.07243E+01  4.10615E+01  4.14695E+01
   4.19516E+01  4.25039E+01  4.31290E+01  4.38377E+01  4.46351E+01  4.55196E+01  4.64888E+01  4.75357E+01  4.86486E+01  4.98097E+01
   5.10030E+01  5.22101E+01  5.34114E+01  5.45876E+01  5.57237E+01  5.68067E+01  5.78313E+01  5.87987E+01  5.97194E+01  6.06121E+01
   6.15051E+01  6.24338E+01  6.34419E+01  6.45781E+01  6.58982E+01  6.74625E+01  6.93451E+01  7.16616E+01  7.45530E+01  7.78142E+01
   8.11701E+01  8.45200E+01  8.78106E+01  9.09521E+01  9.37566E+01  9.59591E+01  9.75648E+01  9.87065E+01  9.94116E+01  9.98208E+01
   1.00239E+02  1.01049E+02  1.02587E+02  1.05007E+02  1.08191E+02  1.11804E+02  1.15517E+02  1.19189E+02  1.22872E+02  1.26683E+02
   1.30377E+02  1.33463E+02  1.35946E+02  1.37900E+02  1.39178E+02  1.39418E+02  1.38305E+02  1.36010E+02  1.32548E+02  1.27749E+02
   1.21847E+02  1.15589E+02  1.10035E+02  1.06147E+02  1.04391E+02  1.04468E+02  1.05401E+02  1.06065E+02  1.05762E+02  1.04231E+02
   1.00966E+02  9.58070E+01  8.95550E+01  8.30434E+01  7.66780E+01  7.04412E+01  6.44293E+01  5.93001E+01  5.52041E+01  5.17885E+01
   4.88659E+01  4.63331E+01  4.41213E+01  4.21779E+01  4.04626E+01  3.89417E+01  3.75890E+01  3.63814E+01  3.53011E+01  3.43323E+01
   3.34630E+01  3.26825E+01  3.19827E+01  3.13563E+01  3.07980E+01  3.03030E+01  2.98682E+01  2.94908E+01  2.91693E+01  2.89021E+01
   2.86888E+01  2.85290E+01  2.84233E+01  2.83715E+01  2.83748E+01  2.84330E+01  2.85469E+01  2.87161E+01  2.89402E+01  2.92176E+01
   2.95464E+01  2.99225E+01  3.03419E+01  3.07981E+01  3.12838E+01  3.17899E+01  3.23063E+01  3.28211E+01  3.33222E+01  3.37960E+01
   3.42296E+01  3.46092E+01  3.49230E+01  3.51592E+01  3.53089E+01  3.53643E+01  3.53209E+01  3.51760E+01  3.49305E+01  3.45873E+01
   3.41524E+01  3.36334E+01  3.30407E+01  3.23852E+01  3.16796E+01  3.09363E+01  3.01684E+01  2.93877E+01  2.86063E+01  2.78339E+01
   2.70800E+01  2.63518E+01  2.56556E+01  2.49958E+01  2.43757E+01  2.37969E+01  2.32606E+01  2.27662E+01  2.23132E+01  2.18997E+01
   2.15241E+01  2.11838E+01  2.08767E+01  2.06001E+01  2.03518E+01  2.01290E+01  1.99299E+01  1.97519E+01  1.95933E+01  1.94520E+01
   1.93267E+01  1.92154E+01  1.91172E+01  1.90305E+01  1.89545E+01  1.88881E+01  1.88306E+01  1.87809E+01  1.87389E+01  1.87034E+01
   1.86743E+01  1.86508E+01  1.86328E+01  1.86195E+01  1.86109E+01  1.86064E+01  1.86061E+01  1.86092E+01  1.86159E+01  1.86256E+01
   1.86385E+01  1.86541E+01  1.86724E+01  1.86931E+01  1.87162E+01  1.87414E+01  1.87688E+01  1.87979E+01  1.88291E+01  1.88618E+01
   1.88962E+01  1.89320E+01  1.89694E+01  1.90080E+01  1.90480E+01  1.90890E+01  1.91313E+01  1.91745E+01  1.92188E+01  1.92639E+01
   1.93101E+01  1.93569E+01  1.94046E+01  1.94529E+01  1.95021E+01  1.95518E+01  1.96023E+01  1.96532E+01
 NY background values follow
     1.713E+01    1.710E+01    1.708E+01    1.705E+01    1.702E+01    1.700E+01    1.697E+01    1.694E+01    1.692E+01    1.689E+01
     1.686E+01    1.684E+01    1.681E+01    1.678E+01    1.676E+01    1.673E+01    1.671E+01    1.668E+01    1.665E+01    1.663E+01
     1.660E+01    1.658E+01    1.655E+01    1.652E+01    1.650E+01    1.647E+01    1.645E+01    1.642E+01    1.640E+01    1.637E+01
     1.635E+01    1.632E+01    1.630E+01    1.627E+01    1.625E+01    1.622E+01    1.620E+01    1.617E+01    1.615E+01    1.612E+01
     1.610E+01    1.607E+01    1.605E+01    1.602E+01    1.600E+01    1.598E+01    1.595E+01    1.593E+01    1.590E+01    1.588E+01
     1.586E+01    1.583E+01    1.581E+01    1.579E+01    1.576E+01    1.574E+01    1.571E+01    1.569E+01    1.567E+01    1.564E+01
     1.562E+01    1.559E+01    1.557E+01    1.555E+01    1.552E+01    1.550E+01    1.547E+01    1.545E+01    1.542E+01    1.540E+01
     1.537E+01    1.534E+01    1.532E+01    1.529E+01    1.526E+01    1.524E+01    1.521E+01    1.518E+01    1.515E+01    1.513E+01
     1.510E+01    1.507E+01    1.504E+01    1.501E+01    1.498E+01    1.495E+01    1.492E+01    1.489E+01    1.485E+01    1.482E+01
     1.479E+01    1.475E+01    1.472E+01    1.468E+01    1.465E+01    1.461E+01    1.458E+01    1.454E+01    1.451E+01    1.447E+01
     1.443E+01    1.439E+01    1.436E+01    1.432E+01    1.428E+01    1.424E+01    1.420E+01    1.417E+01    1.413E+01    1.409E+01
     1.405E+01    1.401E+01    1.397E+01    1.394E+01    1.390E+01    1.386E+01    1.382E+01    1.379E+01    1.375E+01    1.371E+01
     1.367E+01    1.364E+01    1.360E+01    1.357E+01    1.353E+01    1.350E+01    1.346E+01    1.343E+01    1.339E+01    1.336E+01
     1.333E+01    1.330E+01    1.327E+01    1.323E+01    1.320E+01    1.318E+01    1.315E+01    1.312E+01    1.309E+01    1.307E+01
     1.304E+01    1.302E+01    1.300E+01    1.298E+01    1.296E+01    1.294E+01    1.292E+01    1.291E+01    1.289E+01    1.288E+01
     1.287E+01    1.287E+01    1.286E+01    1.286E+01    1.286E+01    1.286E+01    1.287E+01    1.287E+01    1.288E+01    1.290E+01
     1.291E+01    1.293E+01    1.295E+01    1.298E+01    1.301E+01    1.304E+01    1.307E+01    1.311E+01    1.315E+01    1.320E+01
     1.325E+01    1.330E+01    1.336E+01    1.342E+01    1.349E+01    1.356E+01    1.363E+01    1.371E+01    1.379E+01    1.388E+01
     1.397E+01    1.407E+01    1.417E+01    1.428E+01    1.439E+01    1.451E+01    1.463E+01    1.475E+01    1.488E+01    1.502E+01
     1.515E+01    1.529E+01    1.544E+01    1.559E+01    1.574E+01    1.590E+01    1.606E+01    1.622E+01    1.639E+01    1.656E+01
     1.673E+01    1.691E+01    1.708E+01    1.726E+01    1.745E+01    1.764E+01    1.782E+01    1.802E+01    1.821E+01    1.841E+01
     1.860E+01    1.880E+01    1.901E+01    1.921E+01    1.942E+01    1.962E+01    1.983E+01    2.004E+01    2.025E+01    2.047E+01
     2.068E+01    2.089E+01    2.111E+01    2.133E+01    2.154E+01    2.176E+01    2.198E+01    2.220E+01    2.242E+01    2.264E+01
     2.286E+01    2.308E+01    2.330E+01    2.352E+01    2.373E+01    2.395E+01    2.417E+01    2.439E+01    2.460E+01    2.482E+01
     2.504E+01    2.525E+01    2.546E+01    2.567E+01    2.588E+01    2.609E+01    2.630E+01    2.650E+01    2.671E+01    2.691E+01
     2.711E+01    2.730E+01    2.750E+01    2.769E+01    2.788E+01    2.807E+01    2.825E+01    2.843E+01    2.861E+01    2.879E+01
     2.896E+01    2.913E+01    2.930E+01    2.946E+01    2.962E+01    2.977E+01    2.993E+01    3.007E+01    3.022E+01    3.036E+01
     3.049E+01    3.062E+01    3.075E+01    3.087E+01    3.099E+01    3.110E+01    3.121E+01    3.132E+01    3.142E+01    3.151E+01
     3.160E+01    3.169E+01    3.177E+01    3.185E+01    3.192E+01    3.199E+01    3.205E+01    3.211E+01    3.216E+01    3.221E+01
     3.225E+01    3.229E+01    3.232E+01    3.235E+01    3.238E+01    3.240E+01    3.241E+01    3.242E+01    3.242E+01    3.242E+01
     3.242E+01    3.241E+01    3.239E+01    3.237E+01    3.234E+01    3.231E+01    3.228E+01    3.224E+01    3.219E+01    3.214E+01
     3.208E+01    3.202E+01    3.195E+01    3.188E+01    3.180E+01    3.172E+01    3.163E+01    3.153E+01    3.144E+01    3.133E+01
     3.122E+01    3.111E+01    3.099E+01    3.087E+01    3.074E+01    3.060E+01    3.047E+01    3.033E+01    3.018E+01    3.003E+01
     2.988E+01    2.972E+01    2.957E+01    2.940E+01    2.924E+01    2.907E+01    2.889E+01    2.872E+01    2.854E+01    2.836E+01
     2.818E+01    2.799E+01    2.780E+01    2.761E+01    2.742E+01    2.722E+01    2.703E+01    2.683E+01    2.663E+01    2.643E+01
     2.623E+01    2.603E+01    2.582E+01    2.562E+01    2.541E+01    2.521E+01    2.500E+01    2.479E+01    2.458E+01    2.438E+01
     2.417E+01    2.396E+01    2.375E+01    2.355E+01    2.334E+01    2.313E+01    2.293E+01    2.272E+01    2.252E+01    2.231E+01
     2.211E+01    2.191E+01    2.171E+01    2.151E+01    2.132E+01    2.112E+01    2.093E+01    2.074E+01    2.055E+01    2.036E+01
     2.017E+01    1.999E+01    1.981E+01    1.963E+01    1.945E+01    1.928E+01    1.910E+01    1.893E+01    1.877E+01    1.861E+01
     1.845E+01    1.829E+01    1.813E+01    1.798E+01    1.784E+01    1.769E+01    1.755E+01    1.742E+01    1.729E+01    1.716E+01
     1.704E+01    1.692E+01    1.680E+01    1.669E+01    1.658E+01    1.648E+01    1.638E+01    1.629E+01    1.620E+01    1.612E+01
     1.604E+01    1.597E+01    1.590E+01    1.583E+01    1.577E+01    1.572E+01    1.567E+01    1.562E+01    1.557E+01    1.553E+01
     1.550E+01    1.546E+01    1.544E+01    1.541E+01    1.539E+01    1.537E+01    1.536E+01    1.534E+01    1.534E+01    1.533E+01
     1.533E+01    1.533E+01    1.533E+01    1.534E+01    1.535E+01    1.536E+01    1.537E+01    1.539E+01    1.541E+01    1.543E+01
     1.545E+01    1.548E+01    1.551E+01    1.554E+01    1.557E+01    1.560E+01    1.564E+01    1.567E+01    1.571E+01    1.575E+01
     1.579E+01    1.583E+01    1.588E+01    1.592E+01    1.597E+01    1.601E+01    1.606E+01    1.611E+01    1.616E+01    1.621E+01
     1.626E+01    1.631E+01    1.637E+01    1.642E+01    1.648E+01    1.653E+01    1.659E+01    1.665E+01    1.671E+01    1.677E+01
     1.683E+01    1.689E+01    1.695E+01    1.701E+01    1.707E+01    1.713E+01    1.720E+01    1.726E+01    1.732E+01    1.739E+01
     1.745E+01    1.752E+01    1.758E+01    1.765E+01    1.772E+01    1.778E+01    1.785E+01    1.792E+01    1.798E+01    1.805E+01
     1.812E+01    1.818E+01    1.825E+01    1.832E+01    1.838E+01    1.845E+01    1.852E+01    1.859E+01
 Ala      Conc. = 1.10E+03
