 LCModel (Version 6.3-1L) Copyright: S.W. Provencher.          Ref.: Magn. Reson. Med. 30:672-679 (1993).                
 Slice#1 Row#5 Col#2  PD_05_press_2_raw_act
 36 lines in following concentration table = NCONC+1
    Conc.  %SD /Cr+PCr  Metabolite                                         
    0.000 999%   0.000 Ala                                                 
  178.356 182%   0.138 Asp                                                 
 1.29E+03   9%   1.000 Cr                                                  
    0.000 999%   0.000 PCr                                                 
    0.000 999%   0.000 GABA                                                
   32.822 616% 2.5E-02 Glc                                                 
  779.180  58%   0.603 Gln                                                 
 1.56E+03  32%   1.209 Glu                                                 
  408.758  10%   0.316 GPC                                                 
    0.000 999%   0.000 PCh                                                 
  326.324  45%   0.252 GSH                                                 
 1.16E+03  42%   0.899 Ins                                                 
    0.000 999%   0.000 Lac                                                 
 2.64E+03  11%   2.045 NAA                                                 
  713.658  41%   0.552 NAAG                                                
    0.000 999%   0.000 Scyllo                                              
    0.000 999%   0.000 Tau                                                 
  402.683  50%   0.311 -CrCH2                                              
  408.758  10%   0.316 GPC+PCh                                             
 3.36E+03   6%   2.597 NAA+NAAG                                            
 1.29E+03   9%   1.000 Cr+PCr                                              
 2.34E+03  31%   1.812 Glu+Gln                                             
    0.000 999%   0.000 Lip13a                                              
  203.618 146%   0.157 Lip13b                                              
    0.000 999%   0.000 Lip09                                               
 5.64E+03  10%   4.365 MM09                                                
  964.527  61%   0.746 Lip20                                               
 1.17E+04   9%   9.018 MM20                                                
 2.59E+03  15%   2.004 MM12                                                
    0.000 999%   0.000 MM14                                                
 3.88E+03  19%   3.000 MM17                                                
  203.618 146%   0.157 Lip13a+Lip13b                                       
 2.79E+03  15%   2.161 MM14+Lip13a+Lip13b+MM12                             
 5.64E+03  10%   4.365 MM09+Lip09                                          
 1.26E+04   8%   9.764 MM20+Lip20                                          
   6 lines in following misc. output table
  FWHM = 0.046 ppm    S/N =   9                                            
  Data shift = 0.008 ppm                                                   
  Ph:  41 deg      23.6 deg/ppm                                            
  alphaB,S = 3.9E-01,   4.9E+01                                            
   14 spline knots.   Ns = 7(1)                                            
  (12) 2 infls.   ( 9) 1 extrs.                                            
  498 points on ppm-axis = NY
      4.000000     3.992357     3.984714     3.977070     3.969427     3.961784     3.954141     3.946497     3.938854     3.931211
      3.923568     3.915925     3.908281     3.900638     3.892995     3.885352     3.877708     3.870065     3.862422     3.854779
      3.847136     3.839492     3.831849     3.824206     3.816563     3.808919     3.801276     3.793633     3.785990     3.778347
      3.770703     3.763060     3.755417     3.747774     3.740130     3.732487     3.724844     3.717201     3.709558     3.701914
      3.694271     3.686628     3.678985     3.671341     3.663698     3.656055     3.648412     3.640769     3.633125     3.625482
      3.617839     3.610196     3.602552     3.594909     3.587266     3.579623     3.571980     3.564336     3.556693     3.549050
      3.541407     3.533763     3.526120     3.518477     3.510834     3.503191     3.495547     3.487904     3.480261     3.472618
      3.464974     3.457331     3.449688     3.442045     3.434402     3.426758     3.419115     3.411472     3.403829     3.396185
      3.388542     3.380899     3.373256     3.365613     3.357969     3.350326     3.342683     3.335040     3.327396     3.319753
      3.312110     3.304467     3.296824     3.289180     3.281537     3.273894     3.266251     3.258607     3.250964     3.243321
      3.235678     3.228034     3.220391     3.212748     3.205105     3.197462     3.189818     3.182175     3.174532     3.166889
      3.159245     3.151602     3.143959     3.136316     3.128673     3.121029     3.113386     3.105743     3.098100     3.090456
      3.082813     3.075170     3.067527     3.059884     3.052240     3.044597     3.036954     3.029311     3.021667     3.014024
      3.006381     2.998738     2.991095     2.983451     2.975808     2.968165     2.960522     2.952878     2.945235     2.937592
      2.929949     2.922306     2.914662     2.907019     2.899376     2.891733     2.884089     2.876446     2.868803     2.861160
      2.853517     2.845873     2.838230     2.830587     2.822944     2.815300     2.807657     2.800014     2.792371     2.784728
      2.777084     2.769441     2.761798     2.754155     2.746511     2.738868     2.731225     2.723582     2.715939     2.708295
      2.700652     2.693009     2.685366     2.677722     2.670079     2.662436     2.654793     2.647150     2.639506     2.631863
      2.624220     2.616577     2.608933     2.601290     2.593647     2.586004     2.578361     2.570717     2.563074     2.555431
      2.547788     2.540144     2.532501     2.524858     2.517215     2.509572     2.501928     2.494285     2.486642     2.478999
      2.471355     2.463712     2.456069     2.448426     2.440783     2.433139     2.425496     2.417853     2.410210     2.402566
      2.394923     2.387280     2.379637     2.371994     2.364350     2.356707     2.349064     2.341421     2.333777     2.326134
      2.318491     2.310848     2.303205     2.295561     2.287918     2.280275     2.272632     2.264988     2.257345     2.249702
      2.242059     2.234416     2.226772     2.219129     2.211486     2.203843     2.196199     2.188556     2.180913     2.173270
      2.165627     2.157983     2.150340     2.142697     2.135054     2.127410     2.119767     2.112124     2.104481     2.096838
      2.089194     2.081551     2.073908     2.066265     2.058621     2.050978     2.043335     2.035692     2.028049     2.020405
      2.012762     2.005119     1.997476     1.989833     1.982190     1.974546     1.966903     1.959260     1.951617     1.943974
      1.936331     1.928688     1.921045     1.913402     1.905759     1.898115     1.890472     1.882829     1.875186     1.867543
      1.859900     1.852257     1.844614     1.836971     1.829327     1.821684     1.814041     1.806398     1.798755     1.791112
      1.783469     1.775826     1.768183     1.760540     1.752896     1.745253     1.737610     1.729967     1.722324     1.714681
      1.707038     1.699395     1.691752     1.684108     1.676465     1.668822     1.661179     1.653536     1.645893     1.638250
      1.630607     1.622964     1.615321     1.607677     1.600034     1.592391     1.584748     1.577105     1.569462     1.561819
      1.554176     1.546533     1.538890     1.531246     1.523603     1.515960     1.508317     1.500674     1.493031     1.485388
      1.477745     1.470102     1.462458     1.454815     1.447172     1.439529     1.431886     1.424243     1.416600     1.408957
      1.401314     1.393671     1.386027     1.378384     1.370741     1.363098     1.355455     1.347812     1.340169     1.332526
      1.324883     1.317240     1.309596     1.301953     1.294310     1.286667     1.279024     1.271381     1.263738     1.256095
      1.248452     1.240808     1.233165     1.225522     1.217879     1.210236     1.202593     1.194950     1.187307     1.179664
      1.172021     1.164377     1.156734     1.149091     1.141448     1.133805     1.126162     1.118519     1.110876     1.103233
      1.095590     1.087946     1.080303     1.072660     1.065017     1.057374     1.049731     1.042088     1.034445     1.026802
      1.019158     1.011515     1.003872     0.996229     0.988586     0.980943     0.973300     0.965657     0.958014     0.950371
      0.942727     0.935084     0.927441     0.919798     0.912155     0.904512     0.896869     0.889226     0.881583     0.873940
      0.866296     0.858653     0.851010     0.843367     0.835724     0.828081     0.820438     0.812795     0.805152     0.797508
      0.789865     0.782222     0.774579     0.766936     0.759293     0.751650     0.744007     0.736364     0.728721     0.721077
      0.713434     0.705791     0.698148     0.690505     0.682862     0.675219     0.667576     0.659933     0.652290     0.644646
      0.637003     0.629360     0.621717     0.614074     0.606431     0.598788     0.591145     0.583502     0.575858     0.568215
      0.560572     0.552929     0.545286     0.537643     0.530000     0.522357     0.514714     0.507071     0.499427     0.491784
      0.484141     0.476498     0.468855     0.461212     0.453569     0.445925     0.438282     0.430639     0.422996     0.415353
      0.407710     0.400067     0.392424     0.384780     0.377137     0.369494     0.361851     0.354208     0.346565     0.338922
      0.331278     0.323635     0.315992     0.308349     0.300706     0.293063     0.285420     0.277777     0.270133     0.262490
      0.254847     0.247204     0.239561     0.231918     0.224275     0.216631     0.208988     0.201345
 NY phased data points follow
   2.30204E+01  1.91842E+01  2.47356E+01  1.76577E+01  3.03526E+01  3.09748E+01  2.84543E+01  1.55734E+01  2.24894E+01  3.01023E+01
   4.83405E+01  4.64144E+01  4.84193E+01  4.73390E+01  4.57530E+01  4.50796E+01  4.57665E+01  4.38131E+01  3.69539E+01  2.40075E+01
   3.23707E+01  2.52003E+01  1.92572E+01  2.60094E+01  3.02571E+01  3.23381E+01  3.80241E+01  1.93081E+01  3.28251E+01  2.60821E+01
   3.07867E+01  2.82969E+01  2.51328E+01  4.64317E+01  3.51388E+01  3.13183E+01  3.24315E+01  2.85331E+01  2.28206E+01  2.53857E+01
   1.85783E+01  2.37496E+01  2.45005E+01  1.99679E+01  2.35934E+01  3.62550E+01  2.91136E+01  3.94887E+01  3.20082E+01  4.10667E+01
   2.81739E+01  2.82327E+01  2.82676E+01  3.42419E+01  2.12493E+01  3.20862E+01  3.13495E+01  3.12077E+01  2.78228E+01  1.77144E+01
   1.58177E+01  2.43334E+01  2.57820E+01  2.06224E+01  2.13192E+01  1.52976E+01  2.01437E+01  2.46932E+01  2.14328E+01  1.44685E+01
   6.00180E+00  6.38495E+00  1.42292E+01  1.43841E+01  1.51404E+01  1.11587E+01  1.62605E+01  1.51778E+01  5.44484E+00  1.00726E+01
   7.46095E+00  1.08440E+01  1.13473E+01  2.18921E+01  1.49437E+01  1.19906E+01  7.51464E+00  1.01137E+01  9.84758E+00  1.08541E+01
   4.74543E+00  4.08801E+00  6.16383E+00  7.39940E+00  4.93797E+00  1.80018E+01  6.14753E+00  1.30561E+01  9.34214E+00  9.54906E+00
   2.90884E+01  3.99681E+01  5.39123E+01  4.93904E+01  5.44031E+01  4.17821E+01  3.90774E+01  3.44679E+01  3.69324E+01  1.89437E+01
   1.69973E+01  2.27962E+01  2.52156E+01  2.83029E+01  1.47218E+01  1.61097E+01  2.28458E+01  1.53434E+01  8.63893E+00  1.91842E+01
   1.81723E+01  1.96380E+01  1.73111E+01  2.48158E+01  3.16477E+01  4.87258E+01  4.58732E+01  5.68724E+01  5.72073E+01  6.50399E+01
   5.52072E+01  4.54740E+01  3.20898E+01  3.62843E+01  2.38555E+01  3.83547E+01  1.69841E+01  2.23168E+01  1.58949E+01  7.69826E+00
   7.55642E+00  1.82978E+01  1.35942E+01  1.45938E+01  1.31355E+01  2.07716E+01  7.88529E+00  1.50067E+01  1.39639E+01  9.84578E+00
   6.14308E+00  2.32888E+00  7.37363E+00  7.75716E+00  1.97957E+00  1.58243E+01  6.27461E-01  5.02187E+00  1.68261E+01  1.56702E+01
   2.20764E+00  7.08862E-01  1.07450E+00  1.46694E+00  1.09292E+01  1.04580E+01  6.90377E+00  1.19562E+01  7.49901E+00 -3.81062E+00
  -5.32879E+00 -4.28346E+00 -1.07964E+01 -1.07642E+01 -1.25233E+01 -1.53012E+01 -2.02217E+01 -1.44695E+01 -1.94529E+01 -8.44016E+00
  -1.03573E+01 -5.35650E+00 -7.85663E+00 -6.95269E+00 -1.00270E+01 -2.27466E+00 -8.51305E+00  3.85470E+00 -5.34567E+00 -5.32394E+00
  -4.62669E+00 -8.21654E+00  2.25427E-01 -7.71334E+00 -3.14693E+00  3.17831E+00 -2.81967E+00 -1.61302E-01 -3.73780E+00 -2.03735E+00
   1.88377E+00 -1.38362E-02  1.05048E+01  9.80188E+00 -5.84924E+00  3.14272E+00  6.32209E-01  1.76976E+00 -9.14895E+00  4.61017E-01
  -4.51350E+00  4.02183E-01 -3.01817E+00  1.43411E+01  1.16603E+01  1.39847E+01  1.25655E+01  9.00796E+00  1.32275E+01  1.71767E+00
  -3.28741E+00 -4.44566E+00 -3.70055E+00  7.39031E+00  6.80342E-01  1.24148E+01  9.50060E+00  9.34248E+00  6.16008E+00  1.37642E+01
   2.02388E+01  7.17406E+00  1.62527E+00  5.06644E-01  1.10101E+01  4.14290E+00  3.29262E+00  1.27270E+00  6.96451E+00  3.63309E+00
   1.32367E+00  1.07113E+01  8.63412E+00  1.15685E+01  7.33533E+00  2.21226E+01  9.33916E+00  2.02992E+01  1.99085E+01  1.64931E+01
   2.90614E+01  3.23630E+01  3.62484E+01  4.04906E+01  4.24622E+01  6.75162E+01  7.17106E+01  8.18055E+01  9.88330E+01  1.15069E+02
   1.15982E+02  1.12966E+02  9.77135E+01  6.13622E+01  3.87455E+01  3.21401E+01  1.45387E+01  5.71516E+00  1.53804E+00  5.51110E+00
  -6.10518E+00 -1.68037E+00 -3.47552E+00 -1.45854E+01 -5.28369E+00 -7.74718E+00 -7.65035E+00 -1.29372E+01 -9.47849E+00  1.41436E+00
  -1.67308E+01 -7.11603E+00 -1.03445E+01 -1.00424E+01 -9.85630E+00 -2.17051E+01 -1.44588E+01 -1.03520E+01 -1.91125E+01 -8.30994E+00
  -1.66061E+01 -1.39368E+01 -7.63228E+00 -1.00269E+01 -1.07460E+01 -1.96271E+01 -1.93038E+01 -8.62472E+00 -1.82871E+01 -1.64428E+01
  -2.45449E+01 -1.37854E+01 -1.58424E+01 -1.31290E+01 -1.99819E+01 -1.57949E+01 -2.01721E+01 -2.54136E+01 -1.98983E+01 -2.34529E+01
  -2.81034E+01 -1.95655E+01 -2.65452E+01 -3.27322E+01 -3.27304E+01 -4.10289E+01 -2.73466E+01 -4.05799E+01 -3.07787E+01 -4.49398E+01
  -4.45693E+01 -4.04910E+01 -3.84642E+01 -5.61144E+01 -5.66299E+01 -5.21086E+01 -5.17552E+01 -5.76541E+01 -6.41346E+01 -5.38826E+01
  -5.34460E+01 -5.50563E+01 -5.29433E+01 -4.98433E+01 -4.87805E+01 -4.38182E+01 -5.24077E+01 -5.28360E+01 -6.49073E+01 -6.49037E+01
  -5.22819E+01 -5.07156E+01 -5.69387E+01 -5.98593E+01 -5.13544E+01 -4.91206E+01 -4.69041E+01 -5.11945E+01 -4.46089E+01 -4.70856E+01
  -3.83756E+01 -3.25726E+01 -2.86207E+01 -3.05983E+01 -2.83666E+01 -3.13840E+01 -2.98678E+01 -2.99571E+01 -2.23928E+01 -1.87333E+01
  -2.50847E+01 -2.79556E+01 -1.49197E+01 -1.98083E+01 -1.05497E+01 -1.23941E+01 -1.82297E+01 -6.93437E+00 -1.17992E+01 -1.99093E+01
  -1.46308E+01 -1.70655E+01 -1.27891E+01 -5.82829E+00 -1.75271E+01 -1.27312E+01 -8.91924E+00  1.31623E+00 -6.48025E+00 -5.86799E+00
  -5.92349E+00 -6.56195E-01 -8.34351E+00 -1.31843E+01 -9.15993E+00 -1.93163E+01 -1.85407E+01 -5.86106E+00 -9.49846E+00 -1.80810E+01
  -1.07797E+01 -1.07820E+01 -1.37142E+01 -5.33907E+00 -1.21680E+01 -4.67033E+00 -9.36491E-01 -1.51015E+00 -1.46083E+01 -6.99595E+00
  -1.12034E+01 -1.36134E+01 -1.75898E+01 -1.96510E+01 -1.57576E+01 -9.72622E+00 -1.29675E+01 -1.64873E+01 -1.24540E+01 -1.81473E+01
  -2.72643E+01 -1.58782E+01 -1.62683E+01 -2.44500E+01 -1.24593E+01 -1.70441E+01 -1.00254E+01 -1.78539E+01 -2.80289E+01 -2.03475E+01
  -1.19089E+01 -1.61723E+01 -1.25981E+01 -2.38411E+01 -1.69354E+01 -1.94312E+01 -2.13826E+01 -1.67113E+01 -1.99456E+01 -7.96797E+00
  -2.25415E+01 -2.54349E+01 -1.62261E+01 -2.05546E+01 -1.58406E+01 -2.24448E+01 -1.63122E+01 -1.92308E+01 -3.53814E+01 -2.13769E+01
  -6.05422E+00 -2.51734E+01 -1.80328E+01 -2.18895E+01 -1.81515E+01 -2.22649E+01 -9.94934E+00 -7.52970E+00 -1.45911E+01 -1.19068E+01
  -1.13987E+01 -1.37785E+01 -1.63340E+01 -1.18861E+01 -1.75400E+01 -1.26532E+01 -1.10427E+01 -1.68209E+01 -1.16562E+01 -9.15463E+00
  -6.00262E+00 -8.42689E+00 -1.96099E+01 -9.77191E+00 -1.56620E+01 -1.41647E+01 -2.22318E+01 -1.27878E+01 -1.34234E+01 -9.02510E+00
  -1.18556E+01 -2.13656E+01 -2.36708E+01 -1.84509E+01 -6.84866E+00 -6.32885E+00 -1.72808E+01 -1.42845E+01 -1.14120E+01 -1.25060E+01
  -1.67025E+01 -4.26423E+00 -1.25345E+01 -8.00482E+00 -8.24096E+00 -6.18523E+00 -1.88117E+01 -6.81389E+00 -4.74776E+00 -2.93907E+00
  -8.93921E+00 -1.36302E+01  6.07331E-01 -1.24432E+01 -1.45207E+01 -8.84983E+00 -8.42107E+00 -9.70018E+00
 NY points of the fit to the data follow
   2.80507E+01  2.72948E+01  2.66330E+01  2.59656E+01  2.52587E+01  2.46950E+01  2.43435E+01  2.47616E+01  2.71876E+01  3.24370E+01
   3.96713E+01  4.66959E+01  5.12122E+01  5.18977E+01  4.90004E+01  4.43967E+01  4.01122E+01  3.66781E+01  3.36733E+01  3.11605E+01
   2.92734E+01  2.82302E+01  2.76659E+01  2.71465E+01  2.64895E+01  2.57704E+01  2.54340E+01  2.60178E+01  2.77377E+01  3.03378E+01
   3.31664E+01  3.52591E+01  3.57832E+01  3.46319E+01  3.23216E+01  2.94932E+01  2.68087E+01  2.48091E+01  2.36537E+01  2.32675E+01
   2.34296E+01  2.39428E+01  2.46721E+01  2.56940E+01  2.72065E+01  2.90529E+01  3.07254E+01  3.16692E+01  3.14860E+01  3.01113E+01
   2.78995E+01  2.55444E+01  2.36084E+01  2.22344E+01  2.13232E+01  2.08378E+01  2.08149E+01  2.12098E+01  2.17951E+01  2.22893E+01
   2.24671E+01  2.21621E+01  2.13714E+01  2.03134E+01  1.92956E+01  1.85625E+01  1.81998E+01  1.81448E+01  1.83094E+01  1.86172E+01
   1.89415E+01  1.91718E+01  1.92207E+01  1.90608E+01  1.87117E+01  1.82527E+01  1.77989E+01  1.73987E+01  1.70380E+01  1.66991E+01
   1.63457E+01  1.59663E+01  1.55133E+01  1.49223E+01  1.41359E+01  1.31596E+01  1.21075E+01  1.11748E+01  1.05583E+01  1.03829E+01
   1.06321E+01  1.11526E+01  1.17582E+01  1.23048E+01  1.26965E+01  1.29319E+01  1.34072E+01  1.46938E+01  1.71615E+01  2.16629E+01
   2.90210E+01  3.85139E+01  4.74512E+01  5.29438E+01  5.34265E+01  4.89039E+01  4.12310E+01  3.35319E+01  2.75543E+01  2.29771E+01
   1.93955E+01  1.67632E+01  1.52173E+01  1.47394E+01  1.46069E+01  1.45820E+01  1.46042E+01  1.46553E+01  1.47455E+01  1.49306E+01
   1.54848E+01  1.70496E+01  1.99015E+01  2.44983E+01  3.16661E+01  4.14219E+01  5.17237E+01  5.94434E+01  6.23083E+01  5.96801E+01
   5.26305E+01  4.40824E+01  3.66797E+01  3.07069E+01  2.55364E+01  2.11807E+01  1.78403E+01  1.60723E+01  1.53922E+01  1.52133E+01
   1.52153E+01  1.51824E+01  1.49951E+01  1.46410E+01  1.41347E+01  1.35157E+01  1.28384E+01  1.21164E+01  1.13591E+01  1.06101E+01
   9.87786E+00  9.16331E+00  8.47356E+00  7.85366E+00  7.32441E+00  6.88971E+00  6.48106E+00  5.93399E+00  5.12725E+00  4.11522E+00
   3.15636E+00  2.52701E+00  2.33385E+00  2.40143E+00  2.35939E+00  1.93543E+00  1.12684E+00  1.20309E-01 -8.23667E-01 -1.57256E+00
  -2.21951E+00 -2.86015E+00 -3.58230E+00 -4.44500E+00 -5.30812E+00 -5.93409E+00 -6.18970E+00 -6.17067E+00 -6.11659E+00 -6.25030E+00
  -6.59889E+00 -6.90002E+00 -6.91674E+00 -6.68184E+00 -6.34703E+00 -5.93565E+00 -5.27557E+00 -4.18672E+00 -2.73761E+00 -1.23418E+00
  -1.70304E-01  1.25719E-01 -2.66720E-01 -1.06926E+00 -2.07600E+00 -3.08915E+00 -3.87890E+00 -4.19410E+00 -3.89340E+00 -2.95271E+00
  -1.47117E+00  2.38503E-01  1.64859E+00  2.24413E+00  1.77109E+00  1.34755E-01 -2.56310E+00 -5.88341E+00 -8.96552E+00 -1.09003E+01
  -1.12393E+01 -9.84216E+00 -6.82569E+00 -2.88277E+00  7.93157E-01  3.21194E+00  3.78384E+00  2.38815E+00 -5.65094E-01 -4.20518E+00
  -7.36582E+00 -9.15929E+00 -9.20447E+00 -7.45704E+00 -4.40578E+00 -8.64741E-01  2.17241E+00  4.23596E+00  5.40545E+00  5.87610E+00
   5.92753E+00  5.88385E+00  6.02470E+00  6.56061E+00  7.55422E+00  8.81792E+00  1.01013E+01  1.12468E+01  1.21436E+01  1.26354E+01
   1.26773E+01  1.26158E+01  1.29023E+01  1.36968E+01  1.49608E+01  1.65140E+01  1.80346E+01  1.92673E+01  2.03816E+01  2.19018E+01
   2.41161E+01  2.73346E+01  3.21583E+01  3.95882E+01  4.92439E+01  5.98406E+01  7.18320E+01  8.62784E+01  1.01400E+02  1.12658E+02
   1.15802E+02  1.08462E+02  9.11180E+01  6.86906E+01  4.81452E+01  3.25764E+01  2.04385E+01  1.06776E+01  3.16007E+00 -1.67991E+00
  -4.22617E+00 -5.99152E+00 -7.41967E+00 -8.68158E+00 -9.90960E+00 -1.11588E+01 -1.23945E+01 -1.35508E+01 -1.45479E+01 -1.53287E+01
  -1.58802E+01 -1.62199E+01 -1.63669E+01 -1.63483E+01 -1.62102E+01 -1.59902E+01 -1.57027E+01 -1.53392E+01 -1.48942E+01 -1.43755E+01
  -1.38024E+01 -1.32129E+01 -1.26621E+01 -1.22097E+01 -1.19166E+01 -1.18207E+01 -1.19355E+01 -1.22620E+01 -1.27938E+01 -1.35187E+01
  -1.44230E+01 -1.54888E+01 -1.67070E+01 -1.80671E+01 -1.95452E+01 -2.11102E+01 -2.27302E+01 -2.43728E+01 -2.60095E+01 -2.76111E+01
  -2.91531E+01 -3.06174E+01 -3.19900E+01 -3.32617E+01 -3.44271E+01 -3.54846E+01 -3.64354E+01 -3.72835E+01 -3.80349E+01 -3.86966E+01
  -3.92763E+01 -3.97818E+01 -4.02211E+01 -4.06019E+01 -4.09308E+01 -4.12139E+01 -4.14564E+01 -4.16631E+01 -4.18381E+01 -4.19846E+01
  -4.21052E+01 -4.22019E+01 -4.22763E+01 -4.23295E+01 -4.23625E+01 -4.23754E+01 -4.23676E+01 -4.23383E+01 -4.22859E+01 -4.22078E+01
  -4.21001E+01 -4.19570E+01 -4.17707E+01 -4.15307E+01 -4.12242E+01 -4.08357E+01 -4.03479E+01 -3.97432E+01 -3.90060E+01 -3.81255E+01
  -3.70983E+01 -3.59304E+01 -3.46374E+01 -3.32437E+01 -3.17794E+01 -3.02759E+01 -2.87619E+01 -2.72589E+01 -2.57808E+01 -2.43341E+01
  -2.29216E+01 -2.15462E+01 -2.02148E+01 -1.89405E+01 -1.77438E+01 -1.66503E+01 -1.56877E+01 -1.48816E+01 -1.42512E+01 -1.38063E+01
  -1.35453E+01 -1.34552E+01 -1.35123E+01 -1.36838E+01 -1.39310E+01 -1.42115E+01 -1.44832E+01 -1.47065E+01 -1.48466E+01 -1.48760E+01
  -1.47747E+01 -1.45319E+01 -1.41456E+01 -1.36225E+01 -1.29768E+01 -1.22292E+01 -1.14054E+01 -1.05347E+01 -9.64859E+00 -8.77918E+00
  -7.95762E+00 -7.21299E+00 -6.57110E+00 -6.05396E+00 -5.67889E+00 -5.45823E+00 -5.39892E+00 -5.50266E+00 -5.76615E+00 -6.18162E+00
  -6.73728E+00 -7.41803E+00 -8.20609E+00 -9.08196E+00 -1.00252E+01 -1.10155E+01 -1.20328E+01 -1.30584E+01 -1.40749E+01 -1.50673E+01
  -1.60224E+01 -1.69297E+01 -1.77810E+01 -1.85701E+01 -1.92929E+01 -1.99473E+01 -2.05329E+01 -2.10504E+01 -2.15017E+01 -2.18896E+01
  -2.22171E+01 -2.24881E+01 -2.27064E+01 -2.28762E+01 -2.30012E+01 -2.30854E+01 -2.31323E+01 -2.31455E+01 -2.31282E+01 -2.30833E+01
  -2.30136E+01 -2.29215E+01 -2.28091E+01 -2.26785E+01 -2.25317E+01 -2.23703E+01 -2.21956E+01 -2.20089E+01 -2.18115E+01 -2.16044E+01
  -2.13887E+01 -2.11653E+01 -2.09346E+01 -2.06977E+01 -2.04550E+01 -2.02072E+01 -1.99549E+01 -1.96985E+01 -1.94384E+01 -1.91750E+01
  -1.89088E+01 -1.86401E+01 -1.83692E+01 -1.80963E+01 -1.78216E+01 -1.75454E+01 -1.72677E+01 -1.69889E+01 -1.67089E+01 -1.64278E+01
  -1.61456E+01 -1.58627E+01 -1.55791E+01 -1.52947E+01 -1.50097E+01 -1.47241E+01 -1.44379E+01 -1.41513E+01 -1.38642E+01 -1.35768E+01
  -1.32890E+01 -1.30007E+01 -1.27121E+01 -1.24233E+01 -1.21341E+01 -1.18447E+01 -1.15549E+01 -1.12648E+01 -1.09745E+01 -1.06840E+01
  -1.03931E+01 -1.01020E+01 -9.81056E+00 -9.51883E+00 -9.22682E+00 -8.93455E+00 -8.64191E+00 -8.34889E+00 -8.05546E+00 -7.76169E+00
  -7.46754E+00 -7.17299E+00 -6.87791E+00 -6.58231E+00 -6.28615E+00 -5.98947E+00 -5.69220E+00 -5.39428E+00
 NY background values follow
     2.681E+01    2.668E+01    2.654E+01    2.640E+01    2.627E+01    2.613E+01    2.599E+01    2.585E+01    2.572E+01    2.558E+01
     2.544E+01    2.530E+01    2.516E+01    2.502E+01    2.489E+01    2.475E+01    2.461E+01    2.447E+01    2.433E+01    2.419E+01
     2.405E+01    2.391E+01    2.377E+01    2.363E+01    2.349E+01    2.335E+01    2.320E+01    2.306E+01    2.292E+01    2.278E+01
     2.263E+01    2.249E+01    2.235E+01    2.220E+01    2.206E+01    2.191E+01    2.177E+01    2.162E+01    2.147E+01    2.133E+01
     2.118E+01    2.103E+01    2.088E+01    2.073E+01    2.059E+01    2.044E+01    2.029E+01    2.013E+01    1.998E+01    1.983E+01
     1.968E+01    1.953E+01    1.937E+01    1.922E+01    1.907E+01    1.891E+01    1.876E+01    1.860E+01    1.845E+01    1.829E+01
     1.814E+01    1.798E+01    1.783E+01    1.767E+01    1.751E+01    1.736E+01    1.720E+01    1.705E+01    1.689E+01    1.673E+01
     1.658E+01    1.642E+01    1.626E+01    1.610E+01    1.595E+01    1.579E+01    1.563E+01    1.548E+01    1.532E+01    1.516E+01
     1.501E+01    1.485E+01    1.470E+01    1.454E+01    1.439E+01    1.423E+01    1.408E+01    1.392E+01    1.377E+01    1.361E+01
     1.346E+01    1.331E+01    1.315E+01    1.300E+01    1.285E+01    1.270E+01    1.254E+01    1.239E+01    1.224E+01    1.209E+01
     1.194E+01    1.179E+01    1.164E+01    1.148E+01    1.133E+01    1.118E+01    1.103E+01    1.088E+01    1.072E+01    1.057E+01
     1.042E+01    1.026E+01    1.011E+01    9.957E+00    9.802E+00    9.647E+00    9.491E+00    9.335E+00    9.178E+00    9.020E+00
     8.862E+00    8.703E+00    8.543E+00    8.382E+00    8.220E+00    8.058E+00    7.895E+00    7.730E+00    7.565E+00    7.398E+00
     7.231E+00    7.062E+00    6.892E+00    6.721E+00    6.549E+00    6.376E+00    6.201E+00    6.025E+00    5.847E+00    5.668E+00
     5.488E+00    5.306E+00    5.123E+00    4.939E+00    4.753E+00    4.566E+00    4.377E+00    4.187E+00    3.995E+00    3.802E+00
     3.607E+00    3.411E+00    3.214E+00    3.015E+00    2.814E+00    2.612E+00    2.408E+00    2.203E+00    1.996E+00    1.787E+00
     1.577E+00    1.365E+00    1.152E+00    9.371E-01    7.205E-01    5.022E-01    2.823E-01    6.070E-02   -1.626E-01   -3.876E-01
    -6.142E-01   -8.427E-01   -1.073E+00   -1.305E+00   -1.538E+00   -1.774E+00   -2.011E+00   -2.250E+00   -2.491E+00   -2.733E+00
    -2.978E+00   -3.224E+00   -3.472E+00   -3.722E+00   -3.974E+00   -4.227E+00   -4.483E+00   -4.740E+00   -4.999E+00   -5.260E+00
    -5.523E+00   -5.788E+00   -6.055E+00   -6.324E+00   -6.594E+00   -6.866E+00   -7.141E+00   -7.417E+00   -7.695E+00   -7.975E+00
    -8.257E+00   -8.541E+00   -8.827E+00   -9.115E+00   -9.404E+00   -9.696E+00   -9.990E+00   -1.029E+01   -1.058E+01   -1.088E+01
    -1.118E+01   -1.149E+01   -1.179E+01   -1.210E+01   -1.241E+01   -1.272E+01   -1.303E+01   -1.335E+01   -1.367E+01   -1.399E+01
    -1.431E+01   -1.463E+01   -1.496E+01   -1.528E+01   -1.561E+01   -1.594E+01   -1.628E+01   -1.661E+01   -1.695E+01   -1.729E+01
    -1.763E+01   -1.797E+01   -1.832E+01   -1.866E+01   -1.901E+01   -1.936E+01   -1.971E+01   -2.006E+01   -2.041E+01   -2.077E+01
    -2.112E+01   -2.148E+01   -2.183E+01   -2.219E+01   -2.255E+01   -2.291E+01   -2.327E+01   -2.362E+01   -2.398E+01   -2.434E+01
    -2.470E+01   -2.506E+01   -2.542E+01   -2.578E+01   -2.614E+01   -2.650E+01   -2.686E+01   -2.722E+01   -2.758E+01   -2.794E+01
    -2.829E+01   -2.865E+01   -2.900E+01   -2.936E+01   -2.971E+01   -3.007E+01   -3.042E+01   -3.077E+01   -3.112E+01   -3.146E+01
    -3.181E+01   -3.215E+01   -3.250E+01   -3.284E+01   -3.318E+01   -3.351E+01   -3.385E+01   -3.418E+01   -3.451E+01   -3.484E+01
    -3.517E+01   -3.549E+01   -3.581E+01   -3.613E+01   -3.644E+01   -3.675E+01   -3.706E+01   -3.737E+01   -3.767E+01   -3.797E+01
    -3.826E+01   -3.855E+01   -3.884E+01   -3.912E+01   -3.940E+01   -3.967E+01   -3.994E+01   -4.021E+01   -4.047E+01   -4.072E+01
    -4.097E+01   -4.122E+01   -4.146E+01   -4.169E+01   -4.192E+01   -4.215E+01   -4.237E+01   -4.258E+01   -4.279E+01   -4.299E+01
    -4.319E+01   -4.338E+01   -4.356E+01   -4.374E+01   -4.391E+01   -4.407E+01   -4.423E+01   -4.438E+01   -4.452E+01   -4.466E+01
    -4.479E+01   -4.491E+01   -4.503E+01   -4.514E+01   -4.524E+01   -4.534E+01   -4.543E+01   -4.551E+01   -4.558E+01   -4.565E+01
    -4.572E+01   -4.577E+01   -4.582E+01   -4.587E+01   -4.590E+01   -4.593E+01   -4.595E+01   -4.597E+01   -4.598E+01   -4.599E+01
    -4.598E+01   -4.597E+01   -4.596E+01   -4.594E+01   -4.591E+01   -4.587E+01   -4.583E+01   -4.578E+01   -4.573E+01   -4.567E+01
    -4.560E+01   -4.553E+01   -4.545E+01   -4.536E+01   -4.527E+01   -4.517E+01   -4.507E+01   -4.496E+01   -4.484E+01   -4.472E+01
    -4.459E+01   -4.445E+01   -4.431E+01   -4.416E+01   -4.401E+01   -4.385E+01   -4.369E+01   -4.352E+01   -4.334E+01   -4.316E+01
    -4.297E+01   -4.278E+01   -4.258E+01   -4.238E+01   -4.217E+01   -4.196E+01   -4.174E+01   -4.152E+01   -4.129E+01   -4.106E+01
    -4.083E+01   -4.059E+01   -4.034E+01   -4.010E+01   -3.985E+01   -3.959E+01   -3.933E+01   -3.907E+01   -3.880E+01   -3.853E+01
    -3.826E+01   -3.798E+01   -3.770E+01   -3.742E+01   -3.714E+01   -3.685E+01   -3.656E+01   -3.627E+01   -3.597E+01   -3.567E+01
    -3.537E+01   -3.507E+01   -3.476E+01   -3.446E+01   -3.415E+01   -3.384E+01   -3.353E+01   -3.321E+01   -3.290E+01   -3.258E+01
    -3.226E+01   -3.194E+01   -3.162E+01   -3.130E+01   -3.098E+01   -3.065E+01   -3.033E+01   -3.000E+01   -2.967E+01   -2.935E+01
    -2.902E+01   -2.869E+01   -2.836E+01   -2.803E+01   -2.770E+01   -2.736E+01   -2.703E+01   -2.670E+01   -2.637E+01   -2.603E+01
    -2.570E+01   -2.537E+01   -2.503E+01   -2.470E+01   -2.436E+01   -2.403E+01   -2.370E+01   -2.336E+01   -2.303E+01   -2.270E+01
    -2.236E+01   -2.203E+01   -2.170E+01   -2.137E+01   -2.104E+01   -2.071E+01   -2.038E+01   -2.005E+01   -1.973E+01   -1.940E+01
    -1.907E+01   -1.875E+01   -1.843E+01   -1.810E+01   -1.778E+01   -1.746E+01   -1.714E+01   -1.683E+01   -1.651E+01   -1.619E+01
    -1.588E+01   -1.556E+01   -1.525E+01   -1.494E+01   -1.463E+01   -1.431E+01   -1.400E+01   -1.370E+01   -1.339E+01   -1.308E+01
    -1.277E+01   -1.246E+01   -1.216E+01   -1.185E+01   -1.155E+01   -1.124E+01   -1.094E+01   -1.063E+01   -1.033E+01   -1.003E+01
    -9.725E+00   -9.423E+00   -9.121E+00   -8.820E+00   -8.518E+00   -8.217E+00   -7.916E+00   -7.615E+00   -7.315E+00   -7.014E+00
    -6.714E+00   -6.413E+00   -6.113E+00   -5.812E+00   -5.512E+00   -5.212E+00   -4.911E+00   -4.610E+00
 Asp      Conc. = 1.78E+02
