 LCModel (Version 6.3-1L) Copyright: S.W. Provencher.          Ref.: Magn. Reson. Med. 30:672-679 (1993).                
 Slice#3 Row#4 Col#9  PD_05_press_2_raw_act
 36 lines in following concentration table = NCONC+1
    Conc.  %SD /Cr+PCr  Metabolite                                         
  598.686  52%   0.175 Ala                                                 
   30.516 999% 8.9E-03 Asp                                                 
  366.192 185%   0.107 Cr                                                  
 3.05E+03  23%   0.893 PCr                                                 
    0.000 999%   0.000 GABA                                                
  394.199  89%   0.115 Glc                                                 
 2.07E+03  31%   0.605 Gln                                                 
 3.66E+03  19%   1.070 Glu                                                 
 1.36E+03   5%   0.397 GPC                                                 
    0.000 999%   0.000 PCh                                                 
  863.916  24%   0.253 GSH                                                 
 1.02E+03  67%   0.297 Ins                                                 
  513.836  66%   0.150 Lac                                                 
 4.81E+03   7%   1.405 NAA                                                 
   47.450 777% 1.4E-02 NAAG                                                
  290.857  24% 8.5E-02 Scyllo                                              
  235.686 212% 6.9E-02 Tau                                                 
 1.03E+03  29%   0.300 -CrCH2                                              
 1.36E+03   5%   0.397 GPC+PCh                                             
 4.85E+03   4%   1.419 NAA+NAAG                                            
 3.42E+03   5%   1.000 Cr+PCr                                              
 5.73E+03  18%   1.675 Glu+Gln                                             
 5.19E+03  18%   1.516 Lip13a                                              
    0.000 999%   0.000 Lip13b                                              
    0.000 999%   0.000 Lip09                                               
 1.73E+03  24%   0.507 MM09                                                
  931.465  37%   0.272 Lip20                                               
 3.08E+03  22%   0.900 MM20                                                
  512.157  34%   0.150 MM12                                                
 2.64E+03  20%   0.771 MM14                                                
 1.38E+03  24%   0.403 MM17                                                
 5.19E+03  18%   1.516 Lip13a+Lip13b                                       
 8.34E+03  12%   2.438 MM14+Lip13a+Lip13b+MM12                             
 1.73E+03  24%   0.507 MM09+Lip09                                          
 4.01E+03  18%   1.173 MM20+Lip20                                          
   6 lines in following misc. output table
  FWHM = 0.054 ppm    S/N =   9                                            
  Data shift = 0.031 ppm                                                   
  Ph: -70 deg     -21.7 deg/ppm                                            
  alphaB,S = 1.2E+00,   7.6E+01                                            
   14 spline knots.   Ns = 7(1)                                            
  (12) 3 infls.   ( 9) 1 extrs.                                            
  498 points on ppm-axis = NY
      4.000000     3.992357     3.984714     3.977070     3.969427     3.961784     3.954141     3.946497     3.938854     3.931211
      3.923568     3.915925     3.908281     3.900638     3.892995     3.885352     3.877708     3.870065     3.862422     3.854779
      3.847136     3.839492     3.831849     3.824206     3.816563     3.808919     3.801276     3.793633     3.785990     3.778347
      3.770703     3.763060     3.755417     3.747774     3.740130     3.732487     3.724844     3.717201     3.709558     3.701914
      3.694271     3.686628     3.678985     3.671341     3.663698     3.656055     3.648412     3.640769     3.633125     3.625482
      3.617839     3.610196     3.602552     3.594909     3.587266     3.579623     3.571980     3.564336     3.556693     3.549050
      3.541407     3.533763     3.526120     3.518477     3.510834     3.503191     3.495547     3.487904     3.480261     3.472618
      3.464974     3.457331     3.449688     3.442045     3.434402     3.426758     3.419115     3.411472     3.403829     3.396185
      3.388542     3.380899     3.373256     3.365613     3.357969     3.350326     3.342683     3.335040     3.327396     3.319753
      3.312110     3.304467     3.296824     3.289180     3.281537     3.273894     3.266251     3.258607     3.250964     3.243321
      3.235678     3.228034     3.220391     3.212748     3.205105     3.197462     3.189818     3.182175     3.174532     3.166889
      3.159245     3.151602     3.143959     3.136316     3.128673     3.121029     3.113386     3.105743     3.098100     3.090456
      3.082813     3.075170     3.067527     3.059884     3.052240     3.044597     3.036954     3.029311     3.021667     3.014024
      3.006381     2.998738     2.991095     2.983451     2.975808     2.968165     2.960522     2.952878     2.945235     2.937592
      2.929949     2.922306     2.914662     2.907019     2.899376     2.891733     2.884089     2.876446     2.868803     2.861160
      2.853517     2.845873     2.838230     2.830587     2.822944     2.815300     2.807657     2.800014     2.792371     2.784728
      2.777084     2.769441     2.761798     2.754155     2.746511     2.738868     2.731225     2.723582     2.715939     2.708295
      2.700652     2.693009     2.685366     2.677722     2.670079     2.662436     2.654793     2.647150     2.639506     2.631863
      2.624220     2.616577     2.608933     2.601290     2.593647     2.586004     2.578361     2.570717     2.563074     2.555431
      2.547788     2.540144     2.532501     2.524858     2.517215     2.509572     2.501928     2.494285     2.486642     2.478999
      2.471355     2.463712     2.456069     2.448426     2.440783     2.433139     2.425496     2.417853     2.410210     2.402566
      2.394923     2.387280     2.379637     2.371994     2.364350     2.356707     2.349064     2.341421     2.333777     2.326134
      2.318491     2.310848     2.303205     2.295561     2.287918     2.280275     2.272632     2.264988     2.257345     2.249702
      2.242059     2.234416     2.226772     2.219129     2.211486     2.203843     2.196199     2.188556     2.180913     2.173270
      2.165627     2.157983     2.150340     2.142697     2.135054     2.127410     2.119767     2.112124     2.104481     2.096838
      2.089194     2.081551     2.073908     2.066265     2.058621     2.050978     2.043335     2.035692     2.028049     2.020405
      2.012762     2.005119     1.997476     1.989833     1.982190     1.974546     1.966903     1.959260     1.951617     1.943974
      1.936331     1.928688     1.921045     1.913402     1.905759     1.898115     1.890472     1.882829     1.875186     1.867543
      1.859900     1.852257     1.844614     1.836971     1.829327     1.821684     1.814041     1.806398     1.798755     1.791112
      1.783469     1.775826     1.768183     1.760540     1.752896     1.745253     1.737610     1.729967     1.722324     1.714681
      1.707038     1.699395     1.691752     1.684108     1.676465     1.668822     1.661179     1.653536     1.645893     1.638250
      1.630607     1.622964     1.615321     1.607677     1.600034     1.592391     1.584748     1.577105     1.569462     1.561819
      1.554176     1.546533     1.538890     1.531246     1.523603     1.515960     1.508317     1.500674     1.493031     1.485388
      1.477745     1.470102     1.462458     1.454815     1.447172     1.439529     1.431886     1.424243     1.416600     1.408957
      1.401314     1.393671     1.386027     1.378384     1.370741     1.363098     1.355455     1.347812     1.340169     1.332526
      1.324883     1.317240     1.309596     1.301953     1.294310     1.286667     1.279024     1.271381     1.263738     1.256095
      1.248452     1.240808     1.233165     1.225522     1.217879     1.210236     1.202593     1.194950     1.187307     1.179664
      1.172021     1.164377     1.156734     1.149091     1.141448     1.133805     1.126162     1.118519     1.110876     1.103233
      1.095590     1.087946     1.080303     1.072660     1.065017     1.057374     1.049731     1.042088     1.034445     1.026802
      1.019158     1.011515     1.003872     0.996229     0.988586     0.980943     0.973300     0.965657     0.958014     0.950371
      0.942727     0.935084     0.927441     0.919798     0.912155     0.904512     0.896869     0.889226     0.881583     0.873940
      0.866296     0.858653     0.851010     0.843367     0.835724     0.828081     0.820438     0.812795     0.805152     0.797508
      0.789865     0.782222     0.774579     0.766936     0.759293     0.751650     0.744007     0.736364     0.728721     0.721077
      0.713434     0.705791     0.698148     0.690505     0.682862     0.675219     0.667576     0.659933     0.652290     0.644646
      0.637003     0.629360     0.621717     0.614074     0.606431     0.598788     0.591145     0.583502     0.575858     0.568215
      0.560572     0.552929     0.545286     0.537643     0.530000     0.522357     0.514714     0.507071     0.499427     0.491784
      0.484141     0.476498     0.468855     0.461212     0.453569     0.445925     0.438282     0.430639     0.422996     0.415353
      0.407710     0.400067     0.392424     0.384780     0.377137     0.369494     0.361851     0.354208     0.346565     0.338922
      0.331278     0.323635     0.315992     0.308349     0.300706     0.293063     0.285420     0.277777     0.270133     0.262490
      0.254847     0.247204     0.239561     0.231918     0.224275     0.216631     0.208988     0.201345
 NY phased data points follow
  -4.26300E+01 -3.79000E+01 -4.28724E+01 -3.35763E+01 -3.18719E+01 -2.83276E+01 -1.75948E+01 -1.10836E+01 -5.09748E+00  7.90178E+00
   1.56939E+01  1.58305E+01  2.16936E+01  1.33960E+01 -3.22303E-01 -9.46764E+00 -3.69636E+01 -3.23961E+01 -3.61354E+01 -3.65743E+01
  -2.88250E+01 -2.19860E+01 -2.82172E+01 -2.67775E+01 -3.75460E+01 -3.98191E+01 -3.77176E+01 -1.73247E+01 -7.82611E+00 -2.81062E+01
  -1.71675E+01 -2.45907E+00 -1.42858E+01 -2.14752E+01 -2.22307E+01 -1.90864E+01 -2.63203E+01 -1.02996E+01 -1.36042E+01 -2.29831E+01
  -2.26449E+01 -1.04428E+01 -1.14060E+01 -2.11007E+01 -1.93540E+01 -2.38247E+01 -2.13944E+01 -8.81326E+00 -1.69309E+01 -1.11161E+01
  -8.55935E+00 -6.61732E+00 -1.93722E+01 -1.14524E+01 -1.42165E+01 -1.91308E+01 -2.16490E+01 -1.76564E+01 -1.20399E+01 -2.62175E+01
  -3.71844E+01 -2.83035E+01 -3.61901E+01 -3.25462E+01 -4.42096E+01 -3.49152E+01 -3.81538E+01 -3.67560E+01 -3.21833E+01 -2.51986E+01
  -2.14307E+01 -3.88706E+01 -4.17737E+01 -1.99859E+01 -2.42373E+01 -2.34336E+01 -2.08257E+01 -1.23939E+01 -2.14226E+01 -2.21632E+01
  -1.65433E+01 -4.31916E+00 -2.99087E+01 -8.54813E+00 -1.91860E+01 -1.21435E+01 -5.90746E+00 -1.99283E+00 -1.21662E+01  5.54996E-01
  -1.20919E+01 -2.57888E+01 -1.67478E+01 -1.70790E+00 -9.15968E+00  3.90114E+00 -5.24712E+00  7.35323E-04  1.56005E+01  1.91105E+01
   5.17879E+01  7.41888E+01  8.46295E+01  9.36579E+01  1.00849E+02  9.37060E+01  8.14382E+01  5.49627E+01  2.93423E+01  1.63145E+01
   1.89171E+00 -6.92028E+00  1.29782E-02 -1.20404E+01 -1.29070E+01 -3.29859E+00 -1.36067E+01 -9.57509E+00 -8.20146E+00 -8.94815E-01
  -4.20217E+00  1.36697E+01  1.07927E+01  2.31680E+01  3.59758E+01  7.16205E+01  8.08903E+01  7.69002E+01  9.57752E+01  9.38252E+01
   8.11849E+01  6.14933E+01  3.01782E+01  1.54287E+01  5.99517E+00  9.06310E+00  9.75019E-01 -1.34810E+01 -3.75630E+00 -1.31208E+01
  -1.16978E+01 -7.07927E+00 -1.77510E+01 -4.79499E+00  3.20247E+00  3.58887E+00  2.20913E+00 -6.54839E+00 -1.20470E+01 -1.99036E+01
  -4.41614E+00 -6.42498E+00 -6.75403E+00 -1.32905E+01 -1.10811E+01 -1.45213E+01 -8.46655E+00 -1.73039E+01 -3.74603E+00 -1.03570E+01
  -6.75057E+00 -2.27004E+00 -4.93050E+00 -3.73882E+00 -1.48592E+01 -1.75145E+01 -2.17467E+01 -5.70055E+00 -1.06369E+01 -1.30277E+00
  -2.04332E+01 -2.57755E+01 -2.69542E+01 -2.74928E+01 -2.87924E+01 -2.14126E+01 -1.99763E+01 -3.20776E+01 -2.40926E+01 -4.96431E+00
  -2.84006E+01 -2.17742E+01 -1.31168E+01 -1.24632E+01 -1.72432E+01 -3.19738E+01 -2.15356E+01 -1.37843E+01 -9.68637E+00 -1.68045E+01
  -3.35944E+00 -6.42636E+00  1.40755E+01 -2.83920E+00 -5.64503E+00  4.93623E+00 -6.96815E+00 -1.39120E+00  1.01816E+00 -7.61598E+00
  -1.49607E+00  3.45453E-01 -5.99995E+00  4.99410E+00  7.92430E+00  7.87857E+00  1.16153E+00  3.27711E+00 -5.47102E+00  1.74591E+00
   6.92460E+00 -6.94107E-01  1.18301E+01  1.35247E+01  1.53952E+01  1.95229E+01  4.40016E+01  3.80295E+01  2.84575E+01  2.34186E+01
   1.18950E+01  7.81514E+00  2.53229E+00 -1.72456E+00  2.53596E-02  1.44396E+01  1.93092E+01  1.49814E+01  3.27947E+01  3.84027E+01
   2.42137E+01  1.37779E+01  2.05380E+01  2.49301E+01  2.85374E+01  3.00809E+01  3.37339E+01  2.70639E+01  1.28951E+01  2.82769E+01
   1.67428E+01  1.61736E+01  1.57318E+01  1.60994E+01  7.20898E+00  9.54454E+00  2.12544E+01  2.64598E+01  2.03502E+01  3.89298E+01
   1.93376E+01  3.22008E+01  2.78274E+01  4.72982E+01  4.95479E+01  7.15776E+01  9.68858E+01  1.07421E+02  1.34077E+02  1.62257E+02
   1.67218E+02  1.69994E+02  1.66335E+02  1.52638E+02  9.77985E+01  8.08997E+01  5.25502E+01  5.22375E+01  4.25733E+01  4.08926E+01
   3.46076E+01  3.38557E+01  4.14424E+01  3.70531E+01  2.61758E+01  3.17732E+01  2.47549E+01  1.99646E+01  3.99132E+01  1.90221E+01
   1.52624E+01  1.92416E+01  1.55162E+01  2.19835E+01  1.94026E+01  2.26045E+01  1.70801E+01  2.71848E+01  1.95306E+01  3.33774E+01
   2.27825E+01  2.04103E+01  2.31542E+01  1.53945E+01  2.86239E+01  2.34846E+01  9.92803E+00  1.57180E+01  9.91261E+00  2.15030E+01
   1.53523E+01  1.68979E+01  2.31060E+01  3.20192E+01  2.78323E+01  2.20705E+01  3.16973E+01  3.51844E+01  3.57434E+01  2.99707E+01
   2.42855E+01  4.10743E+01  3.76869E+01  4.57315E+01  5.30935E+01  3.90529E+01  3.95052E+01  4.41963E+01  3.92182E+01  5.62715E+01
   4.14962E+01  3.64530E+01  4.03752E+01  4.50179E+01  3.24629E+01  3.38771E+01  3.74275E+01  4.88483E+01  4.90540E+01  4.34609E+01
   4.53115E+01  3.87178E+01  3.79913E+01  3.68113E+01  5.14304E+01  3.29786E+01  5.36579E+01  3.89752E+01  5.02432E+01  6.36568E+01
   5.69208E+01  5.01430E+01  6.31184E+01  4.84370E+01  5.70366E+01  5.28358E+01  6.36901E+01  6.61484E+01  6.78185E+01  5.29231E+01
   6.14269E+01  4.69278E+01  5.49821E+01  4.83147E+01  3.20329E+01  3.78248E+01  3.94879E+01  4.09761E+01  4.10435E+01  5.11546E+01
   4.04954E+01  3.09731E+01  4.77006E+01  4.43581E+01  2.60858E+01  4.71160E+01  3.35560E+01  3.46924E+01  3.08799E+01  4.29684E+01
   3.07931E+01  3.85147E+01  3.03515E+01  3.49575E+01  1.98143E+01  3.96958E+01  3.02986E+01  6.70163E+00  1.26385E+01  1.20229E+01
   2.71977E+01  2.65507E+01  1.18611E+01  2.32780E+01  1.63144E+01  2.02595E+01  1.29749E+01  1.33799E+01  1.70412E+01  1.59639E+01
   2.47071E+01  1.56951E+01  1.98461E+01  1.22954E+01  1.60221E+01  1.97340E+01  2.28155E+01  1.94384E+01  2.62110E+01  3.11302E+01
   1.05461E+01  1.89671E+01  2.26169E+01  2.89394E+01  1.46430E+01  2.02542E+01  2.66303E+01  3.37898E+01  2.72918E+01  1.76761E+01
   3.26934E+01  1.77580E+01  2.25555E+01  3.01115E+01  3.02555E+01  2.56856E+01  2.42169E+01  2.49236E+01  2.89753E+01  1.65673E+01
   2.41534E+01  1.75466E+01  1.68122E+01  1.90002E+01  2.11243E+01  2.39025E+01  2.47234E+01  2.00773E+01  1.25887E+01  1.76602E+01
   2.20266E+01  2.18856E+01  2.59962E+01  2.06304E+01  1.37114E+01  2.06639E+01  2.49530E+01  1.17417E+01  3.72965E+01  2.17859E+01
   2.62103E+01  1.10031E+01  2.23594E+01  1.60282E+01  2.15246E+01  1.34286E+01  1.67487E+01  1.63339E+01  2.46735E+01  2.50468E+01
   2.27211E+01  2.53114E+01  2.15450E+01  2.20797E+01  6.86969E+00  1.61898E+01  1.59659E+01  1.80023E+01  2.77387E+01  2.99090E+01
   5.03995E+00  2.49367E+01  3.01098E+01  1.73435E+01  2.67365E+01  5.77322E+00  2.96395E+01  2.18451E+01  2.01376E+01  1.84768E+01
   2.46818E+01  1.79090E+01  1.88691E+01  1.08125E+01  8.19150E+00  1.20871E+01  9.65990E+00  1.50222E+01  1.57720E+01  1.82393E+01
   2.10020E+01  2.30007E+01  9.71516E+00  1.81756E+01  2.00900E+01  2.18893E+01  1.88635E+01  1.03906E+01  2.25042E+01  2.11879E+01
   1.36957E+01  1.51426E+01  2.77745E+01  2.96538E+01  2.93552E+01  1.93517E+01  1.76948E+01  1.60159E+01
 NY points of the fit to the data follow
  -4.27993E+01 -4.25845E+01 -4.07684E+01 -3.63456E+01 -3.11517E+01 -2.50283E+01 -1.71681E+01 -7.75518E+00  1.44477E+00  8.80803E+00
   1.40414E+01  1.63758E+01  1.42182E+01  7.00101E+00 -2.95059E+00 -1.18688E+01 -1.78523E+01 -2.23113E+01 -2.59540E+01 -2.75350E+01
  -2.83174E+01 -2.89244E+01 -2.93912E+01 -2.91412E+01 -2.86298E+01 -2.81427E+01 -2.71141E+01 -2.48355E+01 -2.14842E+01 -1.78881E+01
  -1.42718E+01 -1.07069E+01 -8.25440E+00 -8.32421E+00 -1.12184E+01 -1.55782E+01 -1.95716E+01 -2.30835E+01 -2.63321E+01 -2.78724E+01
  -2.73358E+01 -2.56775E+01 -2.39435E+01 -2.22266E+01 -2.03746E+01 -1.88123E+01 -1.78701E+01 -1.73908E+01 -1.72026E+01 -1.73133E+01
  -1.81015E+01 -1.95906E+01 -2.11239E+01 -2.23679E+01 -2.35168E+01 -2.44561E+01 -2.49794E+01 -2.51158E+01 -2.51299E+01 -2.51079E+01
  -2.50821E+01 -2.50828E+01 -2.51761E+01 -2.54818E+01 -2.59548E+01 -2.63421E+01 -2.64942E+01 -2.64216E+01 -2.61065E+01 -2.55399E+01
  -2.48791E+01 -2.42125E+01 -2.35582E+01 -2.29216E+01 -2.23943E+01 -2.20578E+01 -2.19015E+01 -2.18918E+01 -2.18940E+01 -2.14479E+01
  -2.04431E+01 -1.92297E+01 -1.75502E+01 -1.51882E+01 -1.24647E+01 -1.00801E+01 -8.49873E+00 -7.74960E+00 -8.09013E+00 -9.94825E+00
  -1.31056E+01 -1.63343E+01 -1.83858E+01 -1.91699E+01 -1.92234E+01 -1.72162E+01 -9.49962E+00  1.41532E+00  1.36375E+01  2.92887E+01
   4.90418E+01  6.95705E+01  8.62375E+01  9.73709E+01  1.01988E+02  9.67885E+01  7.94630E+01  5.41142E+01  3.00305E+01  1.32457E+01
   2.13708E+00 -7.23219E+00 -1.24150E+01 -1.38944E+01 -1.43656E+01 -1.44798E+01 -1.44130E+01 -1.41521E+01 -1.35625E+01 -1.18644E+01
  -6.07108E+00  3.20036E+00  1.34107E+01  2.62581E+01  4.30253E+01  6.14342E+01  7.72199E+01  8.83287E+01  9.40532E+01  9.18340E+01
   7.90226E+01  5.77879E+01  3.57907E+01  1.95478E+01  8.86064E+00 -2.72098E-01 -6.70417E+00 -9.18972E+00 -1.00858E+01 -9.86239E+00
  -8.85040E+00 -7.60319E+00 -6.48586E+00 -5.66800E+00 -5.39209E+00 -5.63060E+00 -6.10546E+00 -6.62215E+00 -7.07317E+00 -7.40300E+00
  -7.65750E+00 -7.77742E+00 -7.83061E+00 -7.88369E+00 -8.04641E+00 -8.20454E+00 -8.33065E+00 -8.47819E+00 -8.63110E+00 -8.89590E+00
  -9.15799E+00 -9.27756E+00 -9.23271E+00 -9.03074E+00 -8.67870E+00 -8.27569E+00 -8.17573E+00 -8.69732E+00 -9.73751E+00 -1.09166E+01
  -1.19112E+01 -1.25270E+01 -1.30592E+01 -1.36683E+01 -1.41359E+01 -1.42915E+01 -1.41826E+01 -1.39362E+01 -1.35591E+01 -1.29831E+01
  -1.24029E+01 -1.20229E+01 -1.18893E+01 -1.16450E+01 -1.08160E+01 -9.44060E+00 -7.80592E+00 -5.95105E+00 -3.76673E+00 -1.23241E+00
   1.18998E+00  2.78113E+00  3.34194E+00  3.02067E+00  2.17462E+00  1.21026E+00  5.61383E-01  9.64468E-01  2.49561E+00  4.80962E+00
   7.63502E+00  1.06315E+01  1.30436E+01  1.38946E+01  1.31309E+01  1.06681E+01  6.72841E+00  1.99673E+00 -2.33580E+00 -4.99140E+00
  -5.39111E+00 -3.54462E+00  8.53871E-01  7.30127E+00  1.39394E+01  1.87397E+01  2.09988E+01  2.10499E+01  1.86353E+01  1.29744E+01
   5.72842E+00 -3.57968E-01 -3.68581E+00 -4.08599E+00 -2.24547E+00  1.92359E+00  8.22156E+00  1.45037E+01  1.87190E+01  2.05065E+01
   2.10976E+01  2.11419E+01  2.04529E+01  1.96618E+01  1.98418E+01  2.08777E+01  2.20959E+01  2.31464E+01  2.39256E+01  2.42123E+01
   2.33979E+01  2.14398E+01  1.92938E+01  1.79042E+01  1.74600E+01  1.80491E+01  2.00311E+01  2.29287E+01  2.56964E+01  2.79215E+01
   2.99327E+01  3.20634E+01  3.55422E+01  4.45645E+01  5.78122E+01  7.22458E+01  8.99955E+01  1.12396E+02  1.36000E+02  1.55039E+02
   1.67311E+02  1.72174E+02  1.66096E+02  1.45557E+02  1.14230E+02  8.31035E+01  6.07409E+01  4.60890E+01  3.37011E+01  2.58164E+01
   2.32284E+01  2.21741E+01  2.15981E+01  2.13358E+01  2.13492E+01  2.14301E+01  2.15159E+01  2.14832E+01  2.12535E+01  2.08977E+01
   2.05461E+01  2.02224E+01  1.99200E+01  1.96922E+01  1.95768E+01  1.95473E+01  1.95531E+01  1.95676E+01  1.95991E+01  1.96630E+01
   1.97473E+01  1.98629E+01  2.00244E+01  2.02384E+01  2.05062E+01  2.08308E+01  2.12179E+01  2.16729E+01  2.21958E+01  2.27908E+01
   2.34607E+01  2.42051E+01  2.50189E+01  2.58943E+01  2.68196E+01  2.77807E+01  2.87608E+01  2.97416E+01  3.07040E+01  3.16320E+01
   3.25103E+01  3.33258E+01  3.40685E+01  3.47349E+01  3.53259E+01  3.58502E+01  3.63237E+01  3.67726E+01  3.72366E+01  3.77869E+01
   3.85531E+01  3.94338E+01  4.01341E+01  4.08016E+01  4.14527E+01  4.18069E+01  4.15445E+01  4.06274E+01  3.93472E+01  3.80301E+01
   3.65779E+01  3.54158E+01  3.54256E+01  3.70186E+01  3.96563E+01  4.25637E+01  4.56530E+01  4.88888E+01  5.15191E+01  5.30921E+01
   5.37749E+01  5.41967E+01  5.45564E+01  5.48445E+01  5.49789E+01  5.50884E+01  5.47970E+01  5.38557E+01  5.24652E+01  5.09006E+01
   4.89900E+01  4.69846E+01  4.56535E+01  4.55237E+01  4.62750E+01  4.71958E+01  4.80430E+01  4.88944E+01  4.91423E+01  4.83296E+01
   4.65852E+01  4.44632E+01  4.24175E+01  4.04296E+01  3.83928E+01  3.65949E+01  3.50042E+01  3.35488E+01  3.22064E+01  3.09697E+01
   2.98351E+01  2.88007E+01  2.78639E+01  2.70220E+01  2.62710E+01  2.56068E+01  2.50246E+01  2.45203E+01  2.40892E+01  2.37273E+01
   2.34302E+01  2.31946E+01  2.30171E+01  2.28956E+01  2.28276E+01  2.28117E+01  2.28462E+01  2.29300E+01  2.30619E+01  2.32413E+01
   2.34666E+01  2.37365E+01  2.40484E+01  2.43994E+01  2.47858E+01  2.52027E+01  2.56440E+01  2.61023E+01  2.65690E+01  2.70347E+01
   2.74888E+01  2.79206E+01  2.83185E+01  2.86712E+01  2.89680E+01  2.91996E+01  2.93578E+01  2.94365E+01  2.94314E+01  2.93409E+01
   2.91658E+01  2.89094E+01  2.85774E+01  2.81773E+01  2.77181E+01  2.72105E+01  2.66654E+01  2.60946E+01  2.55092E+01  2.49197E+01
   2.43358E+01  2.37660E+01  2.32173E+01  2.26957E+01  2.22052E+01  2.17488E+01  2.13279E+01  2.09431E+01  2.05941E+01  2.02798E+01
   1.99984E+01  1.97478E+01  1.95257E+01  1.93297E+01  1.91574E+01  1.90065E+01  1.88746E+01  1.87595E+01  1.86592E+01  1.85723E+01
   1.84970E+01  1.84321E+01  1.83760E+01  1.83279E+01  1.82867E+01  1.82518E+01  1.82224E+01  1.81978E+01  1.81774E+01  1.81607E+01
   1.81475E+01  1.81373E+01  1.81299E+01  1.81250E+01  1.81221E+01  1.81212E+01  1.81222E+01  1.81250E+01  1.81292E+01  1.81348E+01
   1.81416E+01  1.81496E+01  1.81587E+01  1.81689E+01  1.81800E+01  1.81920E+01  1.82047E+01  1.82182E+01  1.82325E+01  1.82475E+01
   1.82630E+01  1.82792E+01  1.82958E+01  1.83131E+01  1.83310E+01  1.83494E+01  1.83681E+01  1.83874E+01  1.84071E+01  1.84273E+01
   1.84480E+01  1.84690E+01  1.84904E+01  1.85122E+01  1.85345E+01  1.85572E+01  1.85804E+01  1.86039E+01  1.86278E+01  1.86522E+01
   1.86771E+01  1.87026E+01  1.87285E+01  1.87549E+01  1.87818E+01  1.88095E+01  1.88379E+01  1.88670E+01
 NY background values follow
    -4.615E+01   -4.591E+01   -4.566E+01   -4.542E+01   -4.517E+01   -4.492E+01   -4.468E+01   -4.443E+01   -4.419E+01   -4.394E+01
    -4.370E+01   -4.345E+01   -4.321E+01   -4.296E+01   -4.272E+01   -4.247E+01   -4.223E+01   -4.198E+01   -4.173E+01   -4.149E+01
    -4.124E+01   -4.100E+01   -4.075E+01   -4.051E+01   -4.026E+01   -4.002E+01   -3.977E+01   -3.953E+01   -3.928E+01   -3.904E+01
    -3.879E+01   -3.855E+01   -3.830E+01   -3.806E+01   -3.782E+01   -3.757E+01   -3.733E+01   -3.708E+01   -3.684E+01   -3.660E+01
    -3.635E+01   -3.611E+01   -3.587E+01   -3.563E+01   -3.538E+01   -3.514E+01   -3.490E+01   -3.466E+01   -3.442E+01   -3.417E+01
    -3.393E+01   -3.369E+01   -3.345E+01   -3.321E+01   -3.297E+01   -3.273E+01   -3.249E+01   -3.225E+01   -3.201E+01   -3.178E+01
    -3.154E+01   -3.130E+01   -3.106E+01   -3.082E+01   -3.059E+01   -3.035E+01   -3.011E+01   -2.988E+01   -2.964E+01   -2.940E+01
    -2.917E+01   -2.893E+01   -2.870E+01   -2.847E+01   -2.823E+01   -2.800E+01   -2.777E+01   -2.753E+01   -2.730E+01   -2.707E+01
    -2.684E+01   -2.661E+01   -2.638E+01   -2.615E+01   -2.592E+01   -2.569E+01   -2.546E+01   -2.523E+01   -2.500E+01   -2.477E+01
    -2.455E+01   -2.432E+01   -2.409E+01   -2.387E+01   -2.364E+01   -2.342E+01   -2.319E+01   -2.297E+01   -2.274E+01   -2.252E+01
    -2.230E+01   -2.208E+01   -2.185E+01   -2.163E+01   -2.141E+01   -2.119E+01   -2.097E+01   -2.075E+01   -2.053E+01   -2.031E+01
    -2.009E+01   -1.987E+01   -1.965E+01   -1.943E+01   -1.921E+01   -1.900E+01   -1.878E+01   -1.856E+01   -1.835E+01   -1.813E+01
    -1.791E+01   -1.770E+01   -1.748E+01   -1.726E+01   -1.705E+01   -1.683E+01   -1.662E+01   -1.640E+01   -1.619E+01   -1.597E+01
    -1.576E+01   -1.555E+01   -1.533E+01   -1.512E+01   -1.490E+01   -1.469E+01   -1.448E+01   -1.426E+01   -1.405E+01   -1.384E+01
    -1.362E+01   -1.341E+01   -1.320E+01   -1.299E+01   -1.277E+01   -1.256E+01   -1.235E+01   -1.213E+01   -1.192E+01   -1.171E+01
    -1.149E+01   -1.128E+01   -1.107E+01   -1.085E+01   -1.064E+01   -1.043E+01   -1.021E+01   -9.997E+00   -9.782E+00   -9.567E+00
    -9.352E+00   -9.136E+00   -8.920E+00   -8.704E+00   -8.488E+00   -8.271E+00   -8.054E+00   -7.836E+00   -7.618E+00   -7.400E+00
    -7.181E+00   -6.961E+00   -6.742E+00   -6.521E+00   -6.300E+00   -6.079E+00   -5.857E+00   -5.635E+00   -5.412E+00   -5.188E+00
    -4.964E+00   -4.739E+00   -4.513E+00   -4.287E+00   -4.060E+00   -3.833E+00   -3.606E+00   -3.378E+00   -3.149E+00   -2.920E+00
    -2.691E+00   -2.462E+00   -2.233E+00   -2.003E+00   -1.773E+00   -1.544E+00   -1.314E+00   -1.084E+00   -8.545E-01   -6.249E-01
    -3.955E-01   -1.663E-01    6.269E-02    2.914E-01    5.197E-01    7.477E-01    9.752E-01    1.202E+00    1.429E+00    1.655E+00
     1.880E+00    2.105E+00    2.329E+00    2.553E+00    2.775E+00    2.997E+00    3.218E+00    3.438E+00    3.657E+00    3.875E+00
     4.092E+00    4.308E+00    4.523E+00    4.737E+00    4.949E+00    5.160E+00    5.370E+00    5.579E+00    5.786E+00    5.992E+00
     6.197E+00    6.400E+00    6.601E+00    6.802E+00    7.001E+00    7.198E+00    7.394E+00    7.588E+00    7.781E+00    7.973E+00
     8.162E+00    8.351E+00    8.537E+00    8.723E+00    8.906E+00    9.088E+00    9.269E+00    9.448E+00    9.625E+00    9.800E+00
     9.974E+00    1.015E+01    1.032E+01    1.049E+01    1.065E+01    1.082E+01    1.098E+01    1.114E+01    1.130E+01    1.146E+01
     1.162E+01    1.177E+01    1.192E+01    1.207E+01    1.222E+01    1.237E+01    1.252E+01    1.266E+01    1.280E+01    1.294E+01
     1.308E+01    1.321E+01    1.335E+01    1.348E+01    1.361E+01    1.373E+01    1.386E+01    1.398E+01    1.410E+01    1.422E+01
     1.434E+01    1.446E+01    1.457E+01    1.468E+01    1.479E+01    1.490E+01    1.501E+01    1.511E+01    1.521E+01    1.531E+01
     1.541E+01    1.551E+01    1.560E+01    1.569E+01    1.578E+01    1.587E+01    1.596E+01    1.604E+01    1.613E+01    1.621E+01
     1.629E+01    1.636E+01    1.644E+01    1.651E+01    1.658E+01    1.665E+01    1.672E+01    1.679E+01    1.685E+01    1.691E+01
     1.697E+01    1.703E+01    1.709E+01    1.714E+01    1.720E+01    1.725E+01    1.730E+01    1.734E+01    1.739E+01    1.743E+01
     1.748E+01    1.752E+01    1.755E+01    1.759E+01    1.763E+01    1.766E+01    1.769E+01    1.772E+01    1.775E+01    1.778E+01
     1.781E+01    1.783E+01    1.785E+01    1.788E+01    1.790E+01    1.792E+01    1.794E+01    1.795E+01    1.797E+01    1.798E+01
     1.800E+01    1.801E+01    1.802E+01    1.803E+01    1.804E+01    1.805E+01    1.806E+01    1.806E+01    1.807E+01    1.807E+01
     1.808E+01    1.808E+01    1.808E+01    1.809E+01    1.809E+01    1.809E+01    1.809E+01    1.809E+01    1.808E+01    1.808E+01
     1.808E+01    1.808E+01    1.807E+01    1.807E+01    1.807E+01    1.806E+01    1.806E+01    1.805E+01    1.805E+01    1.804E+01
     1.804E+01    1.803E+01    1.802E+01    1.802E+01    1.801E+01    1.801E+01    1.800E+01    1.799E+01    1.799E+01    1.798E+01
     1.797E+01    1.797E+01    1.796E+01    1.795E+01    1.795E+01    1.794E+01    1.794E+01    1.793E+01    1.793E+01    1.792E+01
     1.792E+01    1.791E+01    1.791E+01    1.790E+01    1.790E+01    1.790E+01    1.789E+01    1.789E+01    1.789E+01    1.789E+01
     1.789E+01    1.789E+01    1.789E+01    1.789E+01    1.789E+01    1.790E+01    1.790E+01    1.790E+01    1.791E+01    1.791E+01
     1.792E+01    1.793E+01    1.794E+01    1.794E+01    1.795E+01    1.796E+01    1.797E+01    1.798E+01    1.799E+01    1.801E+01
     1.802E+01    1.803E+01    1.805E+01    1.806E+01    1.807E+01    1.809E+01    1.811E+01    1.812E+01    1.814E+01    1.815E+01
     1.817E+01    1.819E+01    1.821E+01    1.823E+01    1.824E+01    1.826E+01    1.828E+01    1.830E+01    1.832E+01    1.834E+01
     1.836E+01    1.838E+01    1.840E+01    1.842E+01    1.844E+01    1.847E+01    1.849E+01    1.851E+01    1.853E+01    1.855E+01
     1.857E+01    1.860E+01    1.862E+01    1.864E+01    1.866E+01    1.868E+01    1.871E+01    1.873E+01    1.875E+01    1.877E+01
     1.880E+01    1.882E+01    1.884E+01    1.886E+01    1.889E+01    1.891E+01    1.893E+01    1.895E+01    1.898E+01    1.900E+01
     1.902E+01    1.904E+01    1.907E+01    1.909E+01    1.911E+01    1.914E+01    1.916E+01    1.918E+01    1.920E+01    1.923E+01
     1.925E+01    1.927E+01    1.930E+01    1.932E+01    1.934E+01    1.937E+01    1.939E+01    1.941E+01    1.944E+01    1.946E+01
     1.948E+01    1.951E+01    1.953E+01    1.955E+01    1.958E+01    1.960E+01    1.962E+01    1.965E+01
 Ala      Conc. = 5.99E+02
