 LCModel (Version 6.3-1L) Copyright: S.W. Provencher.          Ref.: Magn. Reson. Med. 30:672-679 (1993).                
 Slice#2 Row#7 Col#9  PD_05_press_2_raw_act
 36 lines in following concentration table = NCONC+1
    Conc.  %SD /Cr+PCr  Metabolite                                         
    5.967 999% 3.2E-03 Ala                                                 
    0.000 999%   0.000 Asp                                                 
  422.495  91%   0.224 Cr                                                  
 1.47E+03  28%   0.776 PCr                                                 
  121.397 214% 6.4E-02 GABA                                                
  186.713 143% 9.9E-02 Glc                                                 
  741.095  54%   0.393 Gln                                                 
 2.43E+03  20%   1.285 Glu                                                 
 1.04E+03   5%   0.553 GPC                                                 
    0.000 999%   0.000 PCh                                                 
  677.986  21%   0.359 GSH                                                 
 2.74E+03  17%   1.453 Ins                                                 
  660.884  33%   0.350 Lac                                                 
 3.38E+03   7%   1.791 NAA                                                 
 1.01E+03  22%   0.535 NAAG                                                
  233.702  23%   0.124 Scyllo                                              
  106.037 345% 5.6E-02 Tau                                                 
  604.500  33%   0.320 -CrCH2                                              
 1.04E+03   5%   0.553 GPC+PCh                                             
 4.39E+03   4%   2.326 NAA+NAAG                                            
 1.89E+03   6%   1.000 Cr+PCr                                              
 3.17E+03  20%   1.677 Glu+Gln                                             
 1.50E+03  54%   0.794 Lip13a                                              
    0.000 999%   0.000 Lip13b                                              
  303.087 116%   0.161 Lip09                                               
 2.94E+03  17%   1.560 MM09                                                
  240.726  95%   0.128 Lip20                                               
 6.55E+03  12%   3.470 MM20                                                
  994.714  42%   0.527 MM12                                                
 1.11E+03  53%   0.588 MM14                                                
 1.68E+03  26%   0.889 MM17                                                
 1.50E+03  54%   0.794 Lip13a+Lip13b                                       
 3.60E+03  17%   1.909 MM14+Lip13a+Lip13b+MM12                             
 3.25E+03  12%   1.720 MM09+Lip09                                          
 6.79E+03  11%   3.597 MM20+Lip20                                          
   6 lines in following misc. output table
  FWHM = 0.038 ppm    S/N =  10                                            
  Data shift = 0.015 ppm                                                   
  Ph: -49 deg     -11.0 deg/ppm                                            
  alphaB,S = 8.5E+01,   2.4E+01                                            
   14 spline knots.   Ns = 6(1)                                            
   2 inflections.     1 extrema                                            
  498 points on ppm-axis = NY
      4.000000     3.992357     3.984714     3.977070     3.969427     3.961784     3.954141     3.946497     3.938854     3.931211
      3.923568     3.915925     3.908281     3.900638     3.892995     3.885352     3.877708     3.870065     3.862422     3.854779
      3.847136     3.839492     3.831849     3.824206     3.816563     3.808919     3.801276     3.793633     3.785990     3.778347
      3.770703     3.763060     3.755417     3.747774     3.740130     3.732487     3.724844     3.717201     3.709558     3.701914
      3.694271     3.686628     3.678985     3.671341     3.663698     3.656055     3.648412     3.640769     3.633125     3.625482
      3.617839     3.610196     3.602552     3.594909     3.587266     3.579623     3.571980     3.564336     3.556693     3.549050
      3.541407     3.533763     3.526120     3.518477     3.510834     3.503191     3.495547     3.487904     3.480261     3.472618
      3.464974     3.457331     3.449688     3.442045     3.434402     3.426758     3.419115     3.411472     3.403829     3.396185
      3.388542     3.380899     3.373256     3.365613     3.357969     3.350326     3.342683     3.335040     3.327396     3.319753
      3.312110     3.304467     3.296824     3.289180     3.281537     3.273894     3.266251     3.258607     3.250964     3.243321
      3.235678     3.228034     3.220391     3.212748     3.205105     3.197462     3.189818     3.182175     3.174532     3.166889
      3.159245     3.151602     3.143959     3.136316     3.128673     3.121029     3.113386     3.105743     3.098100     3.090456
      3.082813     3.075170     3.067527     3.059884     3.052240     3.044597     3.036954     3.029311     3.021667     3.014024
      3.006381     2.998738     2.991095     2.983451     2.975808     2.968165     2.960522     2.952878     2.945235     2.937592
      2.929949     2.922306     2.914662     2.907019     2.899376     2.891733     2.884089     2.876446     2.868803     2.861160
      2.853517     2.845873     2.838230     2.830587     2.822944     2.815300     2.807657     2.800014     2.792371     2.784728
      2.777084     2.769441     2.761798     2.754155     2.746511     2.738868     2.731225     2.723582     2.715939     2.708295
      2.700652     2.693009     2.685366     2.677722     2.670079     2.662436     2.654793     2.647150     2.639506     2.631863
      2.624220     2.616577     2.608933     2.601290     2.593647     2.586004     2.578361     2.570717     2.563074     2.555431
      2.547788     2.540144     2.532501     2.524858     2.517215     2.509572     2.501928     2.494285     2.486642     2.478999
      2.471355     2.463712     2.456069     2.448426     2.440783     2.433139     2.425496     2.417853     2.410210     2.402566
      2.394923     2.387280     2.379637     2.371994     2.364350     2.356707     2.349064     2.341421     2.333777     2.326134
      2.318491     2.310848     2.303205     2.295561     2.287918     2.280275     2.272632     2.264988     2.257345     2.249702
      2.242059     2.234416     2.226772     2.219129     2.211486     2.203843     2.196199     2.188556     2.180913     2.173270
      2.165627     2.157983     2.150340     2.142697     2.135054     2.127410     2.119767     2.112124     2.104481     2.096838
      2.089194     2.081551     2.073908     2.066265     2.058621     2.050978     2.043335     2.035692     2.028049     2.020405
      2.012762     2.005119     1.997476     1.989833     1.982190     1.974546     1.966903     1.959260     1.951617     1.943974
      1.936331     1.928688     1.921045     1.913402     1.905759     1.898115     1.890472     1.882829     1.875186     1.867543
      1.859900     1.852257     1.844614     1.836971     1.829327     1.821684     1.814041     1.806398     1.798755     1.791112
      1.783469     1.775826     1.768183     1.760540     1.752896     1.745253     1.737610     1.729967     1.722324     1.714681
      1.707038     1.699395     1.691752     1.684108     1.676465     1.668822     1.661179     1.653536     1.645893     1.638250
      1.630607     1.622964     1.615321     1.607677     1.600034     1.592391     1.584748     1.577105     1.569462     1.561819
      1.554176     1.546533     1.538890     1.531246     1.523603     1.515960     1.508317     1.500674     1.493031     1.485388
      1.477745     1.470102     1.462458     1.454815     1.447172     1.439529     1.431886     1.424243     1.416600     1.408957
      1.401314     1.393671     1.386027     1.378384     1.370741     1.363098     1.355455     1.347812     1.340169     1.332526
      1.324883     1.317240     1.309596     1.301953     1.294310     1.286667     1.279024     1.271381     1.263738     1.256095
      1.248452     1.240808     1.233165     1.225522     1.217879     1.210236     1.202593     1.194950     1.187307     1.179664
      1.172021     1.164377     1.156734     1.149091     1.141448     1.133805     1.126162     1.118519     1.110876     1.103233
      1.095590     1.087946     1.080303     1.072660     1.065017     1.057374     1.049731     1.042088     1.034445     1.026802
      1.019158     1.011515     1.003872     0.996229     0.988586     0.980943     0.973300     0.965657     0.958014     0.950371
      0.942727     0.935084     0.927441     0.919798     0.912155     0.904512     0.896869     0.889226     0.881583     0.873940
      0.866296     0.858653     0.851010     0.843367     0.835724     0.828081     0.820438     0.812795     0.805152     0.797508
      0.789865     0.782222     0.774579     0.766936     0.759293     0.751650     0.744007     0.736364     0.728721     0.721077
      0.713434     0.705791     0.698148     0.690505     0.682862     0.675219     0.667576     0.659933     0.652290     0.644646
      0.637003     0.629360     0.621717     0.614074     0.606431     0.598788     0.591145     0.583502     0.575858     0.568215
      0.560572     0.552929     0.545286     0.537643     0.530000     0.522357     0.514714     0.507071     0.499427     0.491784
      0.484141     0.476498     0.468855     0.461212     0.453569     0.445925     0.438282     0.430639     0.422996     0.415353
      0.407710     0.400067     0.392424     0.384780     0.377137     0.369494     0.361851     0.354208     0.346565     0.338922
      0.331278     0.323635     0.315992     0.308349     0.300706     0.293063     0.285420     0.277777     0.270133     0.262490
      0.254847     0.247204     0.239561     0.231918     0.224275     0.216631     0.208988     0.201345
 NY phased data points follow
  -2.53851E+01 -1.95852E+01 -3.95957E+00  6.86941E-01 -9.29301E+00  6.97748E+00 -5.07948E+00  1.47983E+01  3.35940E+01  3.15222E+01
   3.07295E+01  1.95212E+01  2.06614E+01  1.32979E+01  1.37348E+01 -8.93388E-01  5.33356E+00 -7.51052E+00 -1.28472E+00 -8.37245E+00
   7.12152E+00  1.01670E+01 -1.00331E+01  3.50877E+00 -1.75719E+00  1.71406E+00  1.44500E+01  1.17566E+01  8.33645E+00  7.12280E+00
   4.42087E+00  8.05471E+00  7.41150E+00  1.20930E+01 -3.06154E+00 -1.04651E+00  1.74307E+01  9.73100E+00 -4.26392E-01 -3.71863E+00
   2.20795E+00  7.14647E+00  1.57784E+00  1.34771E+01  9.46618E+00  1.48805E+01  1.77298E+01  2.18138E+01  3.40925E+01  3.39738E+01
   1.41105E+01  1.44598E+01  5.68191E+00  1.08441E+01  9.49150E+00 -1.30442E+00  1.04177E+01 -1.07291E+00  4.15630E+00 -1.46241E+01
   4.87421E+00 -1.83767E+01 -6.47868E+00 -1.47071E+01 -1.95706E+01 -1.62706E+01 -9.40667E+00 -1.25621E+01 -8.72434E+00  7.39048E-01
  -8.23027E+00 -1.30874E+01  7.15132E+00 -7.92566E-01 -1.02227E+01  1.06268E+00 -5.52253E+00  1.67927E+00 -5.05973E+00 -2.57635E+00
  -5.11793E+00 -3.58785E+00 -7.72138E-01  5.53183E+00 -8.80593E-02  5.49921E+00 -2.02059E+00  4.45663E+00  8.02436E+00  1.13748E+01
   4.30581E+00 -2.18199E+00  3.16734E+00  5.66554E+00  1.72797E+01 -1.46244E+00  1.28196E+01  3.64732E+00  1.20533E+01  4.02884E+01
   4.90446E+01  8.54124E+01  1.02580E+02  1.01065E+02  8.69457E+01  7.43138E+01  5.21683E+01  3.71563E+01  1.59982E+01  6.35490E-01
   7.52982E+00  4.50213E+00  2.20640E+00  1.20241E+01 -2.12761E+00  5.61617E-01 -2.75129E+00 -5.08686E+00  8.25433E+00  4.92341E+00
   2.51495E+00  3.09293E+00 -2.85746E-01  3.13035E+00  4.26839E+01  5.59560E+01  6.61962E+01  7.26717E+01  7.28584E+01  5.26038E+01
   3.55867E+01  2.51569E+01  2.36958E+00  1.37523E+01  5.11275E+00 -2.78240E+00 -1.96282E-02 -1.42883E+01 -4.80017E+00 -1.01575E+01
   7.83725E-01  7.84491E+00  5.31839E+00  6.46685E+00  4.85857E+00 -1.01013E-01 -1.05485E+01  2.91826E+00 -8.01469E+00 -1.33137E+00
  -5.24122E+00 -7.93944E-02 -3.46714E+00  9.71033E+00 -1.06434E+00 -1.06331E+01 -8.73016E+00 -1.93040E-01  8.24130E+00  1.09907E+01
  -1.06020E+01  1.24793E+00 -7.07508E+00 -8.30050E+00 -1.11245E+01 -5.92754E+00 -3.49274E+00 -7.52214E+00 -1.52832E+01 -1.60948E+01
  -2.27844E+01 -1.95793E+01 -2.03586E+01 -2.76863E+01 -3.63171E+01 -3.13252E+01 -1.87736E+01 -4.14799E+01 -2.37082E+01 -2.37055E+01
  -1.51841E+01 -2.13793E+01 -2.17381E+01 -1.78295E+01 -2.68906E+01 -1.72325E+01 -1.96219E+01 -3.32570E+01 -9.06963E+00 -6.53981E+00
  -4.01993E-01  6.51391E+00  6.12962E-01  4.04280E-01  3.09743E-02 -1.40920E+01 -1.22994E+01 -1.29357E+01 -3.31799E+00 -2.88423E+00
   8.90225E+00 -8.23779E+00 -2.41776E+00 -2.22987E+00  1.78360E-01  4.07482E+00 -8.22953E+00 -1.40477E+00 -7.34020E-02 -3.82682E+00
  -1.13490E+01 -5.67632E+00  8.79650E-01  8.85465E+00  1.33884E+01  1.47492E+01  1.87494E+01  2.54161E+01  1.30299E+01  9.23934E+00
  -1.06032E+01  3.02106E+00 -9.24673E-01 -7.07693E+00 -4.40906E+00  8.19784E+00  8.39150E+00  1.47278E+01  1.06097E+01  2.44927E+01
   1.76111E+01  1.99269E+01  1.65598E+01  1.16249E+01  2.21665E+01  1.68032E+01  1.89985E+01  1.80349E+01  1.60376E+01  2.18039E+01
   1.55671E+01  1.97068E+01  9.15162E+00  3.51055E+00  1.56703E+01  1.45408E+01  2.80747E+01  2.47046E+01  1.98397E+01  2.00279E+01
   1.99505E+01  2.89197E+01  2.66644E+01  4.02386E+01  5.73107E+01  8.13510E+01  7.03106E+01  1.07256E+02  1.12242E+02  1.49127E+02
   1.73339E+02  1.51770E+02  1.50773E+02  1.16393E+02  7.47458E+01  6.24351E+01  4.87361E+01  2.20463E+01  1.70791E+01  1.38036E+01
   1.69219E+01  1.72081E+01  1.21563E+01  3.10283E+01  2.23348E+01  2.35259E+01  5.84010E+00  1.21103E+01  1.52632E+01 -3.65025E-01
   2.68258E+00  6.08582E+00  6.79080E+00  2.50681E+01  1.58398E+01  1.99633E+01  7.49601E+00  1.16303E+01  1.83679E+01  1.27937E+01
   3.90912E+00  2.17593E+01  1.85821E+01  1.10307E+01  1.82521E+01  1.16488E+01  1.25763E+01  9.34878E+00  1.14268E+01  6.77623E+00
   2.16589E+01  4.86857E+00  1.40215E+01  1.82903E+01  1.25065E+01  1.06225E+01  1.08272E+01  1.21743E+01  2.46465E+01  1.22861E+01
  -1.13241E+00 -6.70881E+00  6.94582E+00  1.22498E+01  8.01391E+00  2.21716E+00 -4.95154E+00  1.04794E+01  1.43547E+01  1.68951E+01
   1.14486E-01  1.43397E+01  9.88852E+00  2.36077E+01  5.51021E-01  9.01127E+00  7.99150E+00 -8.05481E-01  8.76290E+00  1.46541E+01
   1.36930E+01  9.76342E+00  6.28251E+00  5.32313E+00  1.28529E+01  2.01027E+01  1.11850E+01  1.46666E+01  1.37142E+01  5.50748E+00
   2.32638E+00  1.20103E+01  1.69512E+01  1.52840E+01  2.79466E+01  2.18152E+01  3.05116E+01  2.08043E+01  1.49048E+01  1.41537E+01
   1.20167E+01  4.25992E+00  3.49379E+00  7.21144E+00  1.70807E+01  1.69482E+01  1.18193E+01  1.46317E+01  5.66592E+00  2.64158E+01
   2.02610E+01  1.72196E+01  2.02441E+01  3.02568E+01  1.18345E+01  2.48984E+01  1.90375E+01  2.67707E+01  2.32601E+01  1.77269E+01
   9.16361E+00  1.43287E+01  1.00394E+01  1.71272E+01  1.89201E+01  1.72345E+01  1.41262E+01  1.45349E+01  6.93742E+00  1.46307E+01
   1.67666E+00  1.54902E+00  1.47391E+01  4.79294E+00  1.82524E+01  3.47843E+00  2.43544E+01  1.25408E+01  2.01600E+01  1.48267E+01
   2.58007E+01  2.02985E+01  2.00868E+01  1.52832E+01  1.95042E+01  1.78174E+01  2.83859E+01  2.24653E+01  2.85397E+01  1.26413E+01
   1.98718E+01  2.07557E+01  3.00303E+01  2.36961E+01  2.47926E+01  3.12886E+01  2.14111E+01  3.47659E+01  2.38120E+01  1.93487E+01
   3.01437E+01  3.36137E+01  1.53597E+01  2.65010E+01  2.30868E+01  2.27695E+01  2.08195E+01  1.92470E+01  2.23239E+01  2.40265E+01
   2.23882E+01  2.29464E+01  1.13609E+01  2.13753E+01  1.89262E+01  1.13558E+01  2.00418E+01  1.51209E+01  1.40608E+01  2.38275E+01
   2.13895E+01  1.18160E+01  7.91439E+00  1.27317E+01  1.66699E+01  9.57776E+00 -1.28252E+00  9.76267E+00  2.33361E+01  1.12384E+01
   1.20048E+01  1.63590E+01  1.32814E+01  2.07312E+01  1.66767E+01  1.21275E+01  1.35559E+01  2.38047E+01  9.35142E+00  1.89432E+01
   9.60786E+00  1.70074E+01  1.79403E+01  9.22217E+00  1.08896E+01  9.47639E+00 -1.95649E+00  1.29014E+01 -2.95229E+00  6.71945E+00
   1.29098E+01  1.24864E+01  7.82626E+00  7.64803E+00  9.49241E+00  4.18273E+00 -1.22905E-01  8.64734E+00  1.50633E+00  5.55702E+00
   1.45949E+01 -9.97207E-01  1.73703E+01  1.30391E+01  1.54346E+01  1.37576E+01  8.60614E+00  2.15463E+01  1.29526E+01  4.53114E+00
   4.99096E+00  7.33525E+00  9.23669E+00  1.22077E+01  5.24090E+00  7.17257E+00  9.42026E+00  2.27324E+00  1.50550E+01  5.19796E+00
   5.51041E+00 -3.65286E-01  1.57546E+01  5.66537E+00  5.99410E+00  8.62866E+00  5.47219E+00  7.99927E+00
 NY points of the fit to the data follow
  -4.44690E+00 -4.73880E+00 -4.19463E+00 -2.25615E+00 -9.16024E-02  3.86109E+00  9.82156E+00  1.72490E+01  2.45971E+01  2.88097E+01
   2.93566E+01  2.60955E+01  2.00677E+01  1.39247E+01  8.78259E+00  4.85973E+00  1.86840E+00 -1.39000E-01 -1.36332E+00 -2.09539E+00
  -2.59072E+00 -2.97666E+00 -3.41785E+00 -3.01908E+00 -2.56863E+00 -2.05568E+00  3.00192E-01  3.87403E+00  8.15683E+00  1.15040E+01
   1.34375E+01  1.45585E+01  1.36796E+01  1.13551E+01  8.62323E+00  5.44051E+00  2.12320E+00 -7.67414E-01 -2.78477E+00 -3.60346E+00
  -3.25157E+00 -1.92349E+00 -4.89797E-03  2.54492E+00  6.71848E+00  1.22486E+01  1.75717E+01  2.05032E+01  1.97707E+01  1.56774E+01
   9.64078E+00  3.59553E+00 -1.06241E+00 -3.79659E+00 -5.12896E+00 -5.34735E+00 -4.29972E+00 -2.36295E+00  1.27896E-01  2.13243E+00
   3.02477E+00  2.52732E+00  5.63129E-01 -1.93521E+00 -4.14056E+00 -5.37669E+00 -5.46911E+00 -4.93392E+00 -3.75604E+00 -2.27437E+00
  -7.39088E-01  4.38373E-01  9.69306E-01  1.03968E+00  6.73016E-01 -1.94269E-02 -7.60028E-01 -1.41955E+00 -1.99760E+00 -2.45725E+00
  -2.44295E+00 -1.89717E+00 -1.52936E+00 -6.45654E-02  2.49436E+00  5.05815E+00  6.20501E+00  5.05380E+00  2.71228E+00 -1.07576E-01
  -2.50302E+00 -3.54832E+00 -3.46359E+00 -2.85262E+00 -2.11644E+00 -7.39076E-01  2.65121E+00  8.06390E+00  1.35642E+01  2.92942E+01
   5.47937E+01  8.34930E+01  1.03190E+02  1.05630E+02  9.48186E+01  7.36391E+01  4.90530E+01  2.96911E+01  1.60490E+01  5.98795E+00
  -9.49956E-01 -3.42716E+00 -3.91963E+00 -3.97179E+00 -3.86352E+00 -3.69329E+00 -3.52910E+00 -3.39182E+00 -3.16209E+00 -2.62028E+00
  -6.89180E-01  3.61926E+00  7.23353E+00  1.68386E+01  3.32500E+01  5.27924E+01  6.79651E+01  7.18687E+01  6.66406E+01  5.44276E+01
   3.90690E+01  2.63565E+01  1.68671E+01  8.84172E+00  1.75495E+00 -2.27119E+00 -4.24300E+00 -4.61760E+00 -3.67145E+00 -2.17122E+00
  -6.62703E-01  3.20539E-01  6.29682E-01  3.24668E-01 -3.63172E-01 -1.09884E+00 -1.77487E+00 -2.33842E+00 -2.89581E+00 -3.36061E+00
  -3.77687E+00 -4.30281E+00 -4.83455E+00 -5.24137E+00 -5.43157E+00 -5.39806E+00 -5.07242E+00 -4.84688E+00 -5.22147E+00 -6.19088E+00
  -7.47156E+00 -8.13922E+00 -7.96059E+00 -7.29888E+00 -6.66420E+00 -6.71782E+00 -7.48898E+00 -8.64966E+00 -9.79969E+00 -1.05769E+01
  -1.09257E+01 -1.10668E+01 -1.13337E+01 -1.21502E+01 -1.31975E+01 -1.40256E+01 -1.39102E+01 -1.30885E+01 -1.24339E+01 -1.21970E+01
  -1.23431E+01 -1.25936E+01 -1.23169E+01 -1.17185E+01 -1.11880E+01 -1.05022E+01 -9.19379E+00 -6.84047E+00 -3.65199E+00 -4.27041E-01
   1.98629E+00  2.95179E+00  2.33825E+00  8.34713E-01 -1.03181E+00 -2.81774E+00 -3.89996E+00 -3.90722E+00 -2.84008E+00 -1.17700E+00
   1.01306E+00  3.42156E+00  5.63879E+00  7.25563E+00  7.39149E+00  6.33024E+00  3.51406E+00 -7.64100E-01 -4.99961E+00 -8.27280E+00
  -9.46288E+00 -8.90566E+00 -6.18151E+00 -5.41441E-01  6.02507E+00  1.15020E+01  1.38943E+01  1.28405E+01  8.96799E+00  2.69022E+00
  -4.34724E+00 -9.76174E+00 -1.20546E+01 -1.06082E+01 -6.23064E+00 -4.47437E-01  5.26027E+00  9.23654E+00  1.10070E+01  1.13161E+01
   1.08509E+01  1.05861E+01  1.07376E+01  1.18495E+01  1.37414E+01  1.56674E+01  1.70277E+01  1.72860E+01  1.70376E+01  1.59660E+01
   1.41468E+01  1.25594E+01  1.22339E+01  1.35366E+01  1.58352E+01  1.85780E+01  2.12078E+01  2.29868E+01  2.36525E+01  2.41333E+01
   2.58151E+01  2.73200E+01  3.19267E+01  4.13717E+01  5.66719E+01  7.15869E+01  8.12127E+01  9.92433E+01  1.24403E+02  1.50364E+02
   1.64678E+02  1.61143E+02  1.44116E+02  1.15430E+02  8.52639E+01  6.26302E+01  4.60863E+01  3.28189E+01  2.33839E+01  1.93162E+01
   1.72150E+01  1.58984E+01  1.52147E+01  1.49169E+01  1.46131E+01  1.41529E+01  1.35330E+01  1.27790E+01  1.19660E+01  1.12244E+01
   1.06759E+01  1.03242E+01  1.01622E+01  1.01574E+01  1.02557E+01  1.03797E+01  1.04928E+01  1.05883E+01  1.07171E+01  1.09034E+01
   1.11871E+01  1.15756E+01  1.20059E+01  1.24177E+01  1.27882E+01  1.30570E+01  1.32166E+01  1.32855E+01  1.32843E+01  1.32380E+01
   1.31624E+01  1.30637E+01  1.29338E+01  1.27464E+01  1.24940E+01  1.21850E+01  1.18301E+01  1.14356E+01  1.10185E+01  1.05963E+01
   1.01806E+01  9.78186E+00  9.40952E+00  9.07094E+00  8.77288E+00  8.51962E+00  8.31466E+00  8.16027E+00  8.05767E+00  8.00671E+00
   8.00674E+00  8.05613E+00  8.14794E+00  8.28397E+00  8.46235E+00  8.66917E+00  8.89114E+00  9.11793E+00  9.35358E+00  9.60690E+00
   9.87838E+00  1.01716E+01  1.04953E+01  1.08485E+01  1.12305E+01  1.16337E+01  1.20514E+01  1.24874E+01  1.29539E+01  1.34861E+01
   1.41663E+01  1.51557E+01  1.61769E+01  1.73478E+01  1.93757E+01  2.11898E+01  2.17375E+01  2.00516E+01  1.65568E+01  1.28315E+01
   9.07426E+00  6.20962E+00  5.72621E+00  7.54190E+00  1.12138E+01  1.54296E+01  1.90859E+01  2.14757E+01  2.21818E+01  2.17377E+01
   2.09795E+01  2.01493E+01  1.91797E+01  1.82470E+01  1.75861E+01  1.70662E+01  1.66082E+01  1.61810E+01  1.57712E+01  1.53735E+01
   1.49872E+01  1.46141E+01  1.42576E+01  1.39217E+01  1.36111E+01  1.33310E+01  1.30864E+01  1.28824E+01  1.27240E+01  1.26161E+01
   1.25634E+01  1.25705E+01  1.26419E+01  1.27817E+01  1.29938E+01  1.32817E+01  1.36483E+01  1.40958E+01  1.46253E+01  1.52369E+01
   1.59289E+01  1.66978E+01  1.75379E+01  1.84414E+01  1.93977E+01  2.03937E+01  2.14140E+01  2.24408E+01  2.34544E+01  2.44340E+01
   2.53578E+01  2.62047E+01  2.69540E+01  2.75874E+01  2.80888E+01  2.84459E+01  2.86501E+01  2.86971E+01  2.85873E+01  2.83255E+01
   2.79204E+01  2.73846E+01  2.67334E+01  2.59846E+01  2.51572E+01  2.42710E+01  2.33450E+01  2.23980E+01  2.14468E+01  2.05065E+01
   1.95898E+01  1.87074E+01  1.78671E+01  1.70751E+01  1.63348E+01  1.56485E+01  1.50163E+01  1.44375E+01  1.39100E+01  1.34314E+01
   1.29985E+01  1.26081E+01  1.22566E+01  1.19407E+01  1.16568E+01  1.14020E+01  1.11731E+01  1.09677E+01  1.07831E+01  1.06172E+01
   1.04679E+01  1.03335E+01  1.02125E+01  1.01035E+01  1.00052E+01  9.91658E+00  9.83661E+00  9.76462E+00  9.69972E+00  9.64139E+00
   9.58885E+00  9.54175E+00  9.49948E+00  9.46184E+00  9.42829E+00  9.39865E+00  9.37242E+00  9.34951E+00  9.32952E+00  9.31243E+00
   9.29784E+00  9.28572E+00  9.27571E+00  9.26788E+00  9.26192E+00  9.25791E+00  9.25549E+00  9.25473E+00  9.25533E+00  9.25743E+00
   9.26076E+00  9.26545E+00  9.27117E+00  9.27805E+00  9.28584E+00  9.29473E+00  9.30446E+00  9.31514E+00  9.32649E+00  9.33865E+00
   9.35142E+00  9.36498E+00  9.37908E+00  9.39385E+00  9.40900E+00  9.42475E+00  9.44087E+00  9.45757E+00  9.47456E+00  9.49198E+00
   9.50956E+00  9.52753E+00  9.54566E+00  9.56417E+00  9.58270E+00  9.60143E+00  9.62008E+00  9.63890E+00
 NY background values follow
    -1.341E+01   -1.336E+01   -1.332E+01   -1.328E+01   -1.324E+01   -1.320E+01   -1.316E+01   -1.311E+01   -1.307E+01   -1.303E+01
    -1.299E+01   -1.295E+01   -1.291E+01   -1.286E+01   -1.282E+01   -1.278E+01   -1.274E+01   -1.270E+01   -1.265E+01   -1.261E+01
    -1.257E+01   -1.253E+01   -1.249E+01   -1.245E+01   -1.240E+01   -1.236E+01   -1.232E+01   -1.228E+01   -1.224E+01   -1.219E+01
    -1.215E+01   -1.211E+01   -1.207E+01   -1.203E+01   -1.198E+01   -1.194E+01   -1.190E+01   -1.186E+01   -1.182E+01   -1.178E+01
    -1.173E+01   -1.169E+01   -1.165E+01   -1.161E+01   -1.157E+01   -1.152E+01   -1.148E+01   -1.144E+01   -1.140E+01   -1.136E+01
    -1.131E+01   -1.127E+01   -1.123E+01   -1.119E+01   -1.115E+01   -1.110E+01   -1.106E+01   -1.102E+01   -1.098E+01   -1.093E+01
    -1.089E+01   -1.085E+01   -1.081E+01   -1.077E+01   -1.072E+01   -1.068E+01   -1.064E+01   -1.060E+01   -1.056E+01   -1.051E+01
    -1.047E+01   -1.043E+01   -1.039E+01   -1.035E+01   -1.030E+01   -1.026E+01   -1.022E+01   -1.018E+01   -1.013E+01   -1.009E+01
    -1.005E+01   -1.001E+01   -9.966E+00   -9.923E+00   -9.881E+00   -9.839E+00   -9.797E+00   -9.755E+00   -9.712E+00   -9.670E+00
    -9.628E+00   -9.586E+00   -9.543E+00   -9.501E+00   -9.459E+00   -9.417E+00   -9.374E+00   -9.332E+00   -9.290E+00   -9.248E+00
    -9.205E+00   -9.163E+00   -9.121E+00   -9.078E+00   -9.036E+00   -8.994E+00   -8.951E+00   -8.909E+00   -8.867E+00   -8.824E+00
    -8.782E+00   -8.740E+00   -8.697E+00   -8.655E+00   -8.613E+00   -8.570E+00   -8.528E+00   -8.486E+00   -8.443E+00   -8.401E+00
    -8.359E+00   -8.316E+00   -8.274E+00   -8.231E+00   -8.189E+00   -8.147E+00   -8.104E+00   -8.062E+00   -8.019E+00   -7.977E+00
    -7.935E+00   -7.892E+00   -7.850E+00   -7.807E+00   -7.765E+00   -7.723E+00   -7.680E+00   -7.638E+00   -7.595E+00   -7.553E+00
    -7.510E+00   -7.468E+00   -7.426E+00   -7.383E+00   -7.341E+00   -7.298E+00   -7.256E+00   -7.213E+00   -7.171E+00   -7.128E+00
    -7.086E+00   -7.043E+00   -7.001E+00   -6.958E+00   -6.916E+00   -6.874E+00   -6.831E+00   -6.789E+00   -6.746E+00   -6.704E+00
    -6.661E+00   -6.619E+00   -6.576E+00   -6.534E+00   -6.491E+00   -6.449E+00   -6.406E+00   -6.364E+00   -6.321E+00   -6.279E+00
    -6.236E+00   -6.194E+00   -6.151E+00   -6.108E+00   -6.066E+00   -6.023E+00   -5.981E+00   -5.938E+00   -5.896E+00   -5.853E+00
    -5.811E+00   -5.768E+00   -5.726E+00   -5.683E+00   -5.641E+00   -5.598E+00   -5.556E+00   -5.513E+00   -5.471E+00   -5.428E+00
    -5.385E+00   -5.343E+00   -5.300E+00   -5.258E+00   -5.215E+00   -5.173E+00   -5.130E+00   -5.088E+00   -5.045E+00   -5.003E+00
    -4.960E+00   -4.917E+00   -4.875E+00   -4.832E+00   -4.790E+00   -4.747E+00   -4.705E+00   -4.662E+00   -4.620E+00   -4.577E+00
    -4.534E+00   -4.492E+00   -4.449E+00   -4.407E+00   -4.364E+00   -4.322E+00   -4.279E+00   -4.236E+00   -4.194E+00   -4.151E+00
    -4.109E+00   -4.066E+00   -4.024E+00   -3.981E+00   -3.939E+00   -3.896E+00   -3.853E+00   -3.811E+00   -3.768E+00   -3.726E+00
    -3.683E+00   -3.641E+00   -3.598E+00   -3.556E+00   -3.513E+00   -3.470E+00   -3.428E+00   -3.385E+00   -3.343E+00   -3.300E+00
    -3.258E+00   -3.215E+00   -3.173E+00   -3.130E+00   -3.087E+00   -3.045E+00   -3.002E+00   -2.960E+00   -2.917E+00   -2.875E+00
    -2.832E+00   -2.790E+00   -2.747E+00   -2.705E+00   -2.662E+00   -2.620E+00   -2.577E+00   -2.534E+00   -2.492E+00   -2.449E+00
    -2.407E+00   -2.364E+00   -2.322E+00   -2.279E+00   -2.237E+00   -2.194E+00   -2.152E+00   -2.109E+00   -2.067E+00   -2.024E+00
    -1.982E+00   -1.939E+00   -1.897E+00   -1.854E+00   -1.812E+00   -1.769E+00   -1.727E+00   -1.684E+00   -1.642E+00   -1.599E+00
    -1.557E+00   -1.514E+00   -1.472E+00   -1.429E+00   -1.387E+00   -1.344E+00   -1.302E+00   -1.260E+00   -1.217E+00   -1.175E+00
    -1.132E+00   -1.090E+00   -1.047E+00   -1.005E+00   -9.623E-01   -9.199E-01   -8.775E-01   -8.350E-01   -7.926E-01   -7.502E-01
    -7.077E-01   -6.653E-01   -6.229E-01   -5.805E-01   -5.381E-01   -4.957E-01   -4.532E-01   -4.108E-01   -3.684E-01   -3.260E-01
    -2.837E-01   -2.413E-01   -1.989E-01   -1.565E-01   -1.141E-01   -7.175E-02   -2.938E-02    1.298E-02    5.535E-02    9.770E-02
     1.401E-01    1.824E-01    2.248E-01    2.671E-01    3.094E-01    3.518E-01    3.941E-01    4.364E-01    4.787E-01    5.211E-01
     5.634E-01    6.057E-01    6.480E-01    6.903E-01    7.326E-01    7.749E-01    8.171E-01    8.594E-01    9.017E-01    9.440E-01
     9.862E-01    1.029E+00    1.071E+00    1.113E+00    1.155E+00    1.197E+00    1.240E+00    1.282E+00    1.324E+00    1.366E+00
     1.409E+00    1.451E+00    1.493E+00    1.535E+00    1.577E+00    1.620E+00    1.662E+00    1.704E+00    1.746E+00    1.788E+00
     1.830E+00    1.873E+00    1.915E+00    1.957E+00    1.999E+00    2.041E+00    2.083E+00    2.125E+00    2.168E+00    2.210E+00
     2.252E+00    2.294E+00    2.336E+00    2.378E+00    2.420E+00    2.462E+00    2.504E+00    2.546E+00    2.588E+00    2.630E+00
     2.673E+00    2.715E+00    2.757E+00    2.799E+00    2.841E+00    2.883E+00    2.925E+00    2.967E+00    3.009E+00    3.051E+00
     3.093E+00    3.135E+00    3.177E+00    3.218E+00    3.260E+00    3.302E+00    3.344E+00    3.386E+00    3.428E+00    3.470E+00
     3.512E+00    3.554E+00    3.596E+00    3.638E+00    3.680E+00    3.721E+00    3.763E+00    3.805E+00    3.847E+00    3.889E+00
     3.931E+00    3.972E+00    4.014E+00    4.056E+00    4.098E+00    4.140E+00    4.181E+00    4.223E+00    4.265E+00    4.307E+00
     4.349E+00    4.390E+00    4.432E+00    4.474E+00    4.516E+00    4.557E+00    4.599E+00    4.641E+00    4.682E+00    4.724E+00
     4.766E+00    4.807E+00    4.849E+00    4.891E+00    4.932E+00    4.974E+00    5.016E+00    5.057E+00    5.099E+00    5.140E+00
     5.182E+00    5.224E+00    5.265E+00    5.307E+00    5.348E+00    5.390E+00    5.431E+00    5.473E+00    5.514E+00    5.556E+00
     5.597E+00    5.639E+00    5.680E+00    5.722E+00    5.763E+00    5.805E+00    5.846E+00    5.888E+00    5.929E+00    5.971E+00
     6.012E+00    6.053E+00    6.095E+00    6.136E+00    6.178E+00    6.219E+00    6.260E+00    6.302E+00    6.343E+00    6.384E+00
     6.426E+00    6.467E+00    6.508E+00    6.549E+00    6.591E+00    6.632E+00    6.673E+00    6.714E+00    6.756E+00    6.797E+00
     6.838E+00    6.879E+00    6.921E+00    6.962E+00    7.003E+00    7.044E+00    7.085E+00    7.126E+00    7.167E+00    7.209E+00
     7.250E+00    7.291E+00    7.332E+00    7.373E+00    7.414E+00    7.455E+00    7.496E+00    7.537E+00
 Ala      Conc. = 5.97E+00
