 LCModel (Version 6.3-1L) Copyright: S.W. Provencher.          Ref.: Magn. Reson. Med. 30:672-679 (1993).                
 Slice#2 Row#2 Col#9  PD_05_press_2_raw_act
 36 lines in following concentration table = NCONC+1
    Conc.  %SD /Cr+PCr  Metabolite                                         
 9.32E+03  20% 705.530 Ala                                                 
   81.276  36%   6.152 Asp                                                 
   13.212 999%   1.000 Cr                                                  
    0.000 999%   0.000 PCr                                                 
   49.233  36%   3.726 GABA                                                
   49.259  36%   3.728 Glc                                                 
 4.02E+03  48% 303.950 Gln                                                 
    0.000 999%   0.000 Glu                                                 
   67.934 103%   5.142 GPC                                                 
    0.000 999%   0.000 PCh                                                 
  671.099  51%  50.793 GSH                                                 
    0.000 999%   0.000 Ins                                                 
 3.05E+03  57% 231.177 Lac                                                 
 1.37E+03  46% 103.681 NAA                                                 
   54.191 999%   4.102 NAAG                                                
   16.392  36%   1.241 Scyllo                                              
   82.430  36%   6.239 Tau                                                 
    0.754 999% 5.7E-02 -CrCH2                                              
   67.934 103%   5.142 GPC+PCh                                             
 1.42E+03  19% 107.783 NAA+NAAG                                            
   13.212 999%   1.000 Cr+PCr                                              
 4.02E+03  48% 303.950 Glu+Gln                                             
    0.000 999%   0.000 Lip13a                                              
  544.193  55%  41.188 Lip13b                                              
    0.000 999%   0.000 Lip09                                               
 1.15E+03  27%  86.858 MM09                                                
  262.944 120%  19.901 Lip20                                               
 1.90E+03  34% 144.074 MM20                                                
  355.798  52%  26.929 MM12                                                
 3.02E+03  14% 228.573 MM14                                                
    0.000 999%   0.000 MM17                                                
  544.193  55%  41.188 Lip13a+Lip13b                                       
 3.92E+03  16% 296.690 MM14+Lip13a+Lip13b+MM12                             
 1.15E+03  27%  86.858 MM09+Lip09                                          
 2.17E+03  32% 163.975 MM20+Lip20                                          
   6 lines in following misc. output table
  FWHM = 0.168 ppm    S/N =   2                                            
  Data shift = 0.061 ppm                                                   
  Ph: 157 deg      37.1 deg/ppm                                            
  alphaB,S = 8.5E+01,   4.1E+02                                            
    8 spline knots.   Ns = 9(2)                                            
   2 inflections.     1 extrema                                            
  498 points on ppm-axis = NY
      4.000000     3.992357     3.984714     3.977070     3.969427     3.961784     3.954141     3.946497     3.938854     3.931211
      3.923568     3.915925     3.908281     3.900638     3.892995     3.885352     3.877708     3.870065     3.862422     3.854779
      3.847136     3.839492     3.831849     3.824206     3.816563     3.808919     3.801276     3.793633     3.785990     3.778347
      3.770703     3.763060     3.755417     3.747774     3.740130     3.732487     3.724844     3.717201     3.709558     3.701914
      3.694271     3.686628     3.678985     3.671341     3.663698     3.656055     3.648412     3.640769     3.633125     3.625482
      3.617839     3.610196     3.602552     3.594909     3.587266     3.579623     3.571980     3.564336     3.556693     3.549050
      3.541407     3.533763     3.526120     3.518477     3.510834     3.503191     3.495547     3.487904     3.480261     3.472618
      3.464974     3.457331     3.449688     3.442045     3.434402     3.426758     3.419115     3.411472     3.403829     3.396185
      3.388542     3.380899     3.373256     3.365613     3.357969     3.350326     3.342683     3.335040     3.327396     3.319753
      3.312110     3.304467     3.296824     3.289180     3.281537     3.273894     3.266251     3.258607     3.250964     3.243321
      3.235678     3.228034     3.220391     3.212748     3.205105     3.197462     3.189818     3.182175     3.174532     3.166889
      3.159245     3.151602     3.143959     3.136316     3.128673     3.121029     3.113386     3.105743     3.098100     3.090456
      3.082813     3.075170     3.067527     3.059884     3.052240     3.044597     3.036954     3.029311     3.021667     3.014024
      3.006381     2.998738     2.991095     2.983451     2.975808     2.968165     2.960522     2.952878     2.945235     2.937592
      2.929949     2.922306     2.914662     2.907019     2.899376     2.891733     2.884089     2.876446     2.868803     2.861160
      2.853517     2.845873     2.838230     2.830587     2.822944     2.815300     2.807657     2.800014     2.792371     2.784728
      2.777084     2.769441     2.761798     2.754155     2.746511     2.738868     2.731225     2.723582     2.715939     2.708295
      2.700652     2.693009     2.685366     2.677722     2.670079     2.662436     2.654793     2.647150     2.639506     2.631863
      2.624220     2.616577     2.608933     2.601290     2.593647     2.586004     2.578361     2.570717     2.563074     2.555431
      2.547788     2.540144     2.532501     2.524858     2.517215     2.509572     2.501928     2.494285     2.486642     2.478999
      2.471355     2.463712     2.456069     2.448426     2.440783     2.433139     2.425496     2.417853     2.410210     2.402566
      2.394923     2.387280     2.379637     2.371994     2.364350     2.356707     2.349064     2.341421     2.333777     2.326134
      2.318491     2.310848     2.303205     2.295561     2.287918     2.280275     2.272632     2.264988     2.257345     2.249702
      2.242059     2.234416     2.226772     2.219129     2.211486     2.203843     2.196199     2.188556     2.180913     2.173270
      2.165627     2.157983     2.150340     2.142697     2.135054     2.127410     2.119767     2.112124     2.104481     2.096838
      2.089194     2.081551     2.073908     2.066265     2.058621     2.050978     2.043335     2.035692     2.028049     2.020405
      2.012762     2.005119     1.997476     1.989833     1.982190     1.974546     1.966903     1.959260     1.951617     1.943974
      1.936331     1.928688     1.921045     1.913402     1.905759     1.898115     1.890472     1.882829     1.875186     1.867543
      1.859900     1.852257     1.844614     1.836971     1.829327     1.821684     1.814041     1.806398     1.798755     1.791112
      1.783469     1.775826     1.768183     1.760540     1.752896     1.745253     1.737610     1.729967     1.722324     1.714681
      1.707038     1.699395     1.691752     1.684108     1.676465     1.668822     1.661179     1.653536     1.645893     1.638250
      1.630607     1.622964     1.615321     1.607677     1.600034     1.592391     1.584748     1.577105     1.569462     1.561819
      1.554176     1.546533     1.538890     1.531246     1.523603     1.515960     1.508317     1.500674     1.493031     1.485388
      1.477745     1.470102     1.462458     1.454815     1.447172     1.439529     1.431886     1.424243     1.416600     1.408957
      1.401314     1.393671     1.386027     1.378384     1.370741     1.363098     1.355455     1.347812     1.340169     1.332526
      1.324883     1.317240     1.309596     1.301953     1.294310     1.286667     1.279024     1.271381     1.263738     1.256095
      1.248452     1.240808     1.233165     1.225522     1.217879     1.210236     1.202593     1.194950     1.187307     1.179664
      1.172021     1.164377     1.156734     1.149091     1.141448     1.133805     1.126162     1.118519     1.110876     1.103233
      1.095590     1.087946     1.080303     1.072660     1.065017     1.057374     1.049731     1.042088     1.034445     1.026802
      1.019158     1.011515     1.003872     0.996229     0.988586     0.980943     0.973300     0.965657     0.958014     0.950371
      0.942727     0.935084     0.927441     0.919798     0.912155     0.904512     0.896869     0.889226     0.881583     0.873940
      0.866296     0.858653     0.851010     0.843367     0.835724     0.828081     0.820438     0.812795     0.805152     0.797508
      0.789865     0.782222     0.774579     0.766936     0.759293     0.751650     0.744007     0.736364     0.728721     0.721077
      0.713434     0.705791     0.698148     0.690505     0.682862     0.675219     0.667576     0.659933     0.652290     0.644646
      0.637003     0.629360     0.621717     0.614074     0.606431     0.598788     0.591145     0.583502     0.575858     0.568215
      0.560572     0.552929     0.545286     0.537643     0.530000     0.522357     0.514714     0.507071     0.499427     0.491784
      0.484141     0.476498     0.468855     0.461212     0.453569     0.445925     0.438282     0.430639     0.422996     0.415353
      0.407710     0.400067     0.392424     0.384780     0.377137     0.369494     0.361851     0.354208     0.346565     0.338922
      0.331278     0.323635     0.315992     0.308349     0.300706     0.293063     0.285420     0.277777     0.270133     0.262490
      0.254847     0.247204     0.239561     0.231918     0.224275     0.216631     0.208988     0.201345
 NY phased data points follow
   9.67951E-02 -6.65465E+00 -3.39411E+01 -3.56741E+01 -1.19729E+01  5.02381E+00  8.04480E+00  2.28089E+00 -8.63787E+00 -1.48013E+01
  -2.62819E+01  4.87707E+00  7.75723E+00  3.33992E+00 -6.91146E+00  4.03103E-01  1.20778E+00 -4.77528E+00 -4.31883E+00 -1.18224E+01
  -1.49849E+01 -2.14371E-01 -6.67132E+00  5.48146E+00  1.34600E+01 -4.04297E+00 -3.67918E-01  3.79821E+00 -1.19169E+00 -6.13150E+00
  -1.12699E+01 -7.32379E+00 -2.62338E-01 -6.97920E+00  8.06172E-01 -5.58691E+00  9.16234E-01 -3.32800E+00 -1.11699E+00 -1.83502E+01
  -1.65026E+01 -6.57329E+00 -1.22173E+01  2.01048E+00  8.67215E+00  7.11227E+00 -4.96349E+00  8.86135E+00 -4.08695E+00 -1.16716E+01
  -6.09641E-01 -1.20635E+01 -4.11930E+00 -2.45594E+01 -1.29457E+01 -7.52035E+00 -7.06919E+00 -1.10836E+01 -1.33625E+01  1.06308E+01
  -8.43231E+00 -6.93836E+00  5.97918E-01 -8.25959E+00 -1.79266E+01 -6.03776E+00 -4.82004E+00 -2.53523E-01  7.30411E+00  8.43406E-01
   1.46903E+00 -4.97114E+00 -9.20752E+00 -7.00782E+00 -1.65124E+01  9.20905E-01 -1.10449E+01 -1.19662E+01 -9.91189E+00 -8.02264E+00
  -2.94667E+00 -3.74772E+00  4.51663E-01 -1.09559E+00 -1.08506E+01 -4.24873E+00 -1.17755E+01 -9.39364E+00 -3.51857E+00 -6.42685E+00
  -1.26592E+01 -6.90055E+00 -1.61621E+01 -6.36124E+00 -4.24118E+00  2.13713E+00 -9.27976E+00 -4.60429E+00 -4.61114E+00  1.04646E+01
  -1.06529E+01 -3.41646E+00 -9.59860E-01 -9.18864E+00 -3.02933E-01 -3.73449E+00 -2.00657E+00 -3.77353E+00  1.12006E+00 -7.56503E+00
  -6.83998E+00  4.30607E+00 -5.83117E+00 -2.11947E+01 -3.11725E+00 -1.45521E+00 -6.76412E-01 -1.75518E+01 -9.81811E+00 -2.43419E+01
  -9.10539E+00 -1.32490E+01 -1.04461E+01  9.52582E-01 -4.91419E+00 -5.68735E+00  7.98613E+00  2.93291E+00 -1.37472E+00 -1.21535E+01
   1.10994E+01 -7.67773E+00 -8.05081E+00 -7.60981E+00  6.42805E+00 -9.96575E+00 -2.05603E+01  8.71175E+00 -7.35884E+00  8.25058E+00
  -3.29089E+00  6.37137E+00 -2.70507E+00 -3.05094E+00 -1.39564E+01  6.37751E-01  6.01310E+00  4.01946E+00 -5.96226E+00  3.07098E-01
  -7.43461E+00 -1.97713E+01  2.71288E+00 -1.12184E+00  3.06440E+00  1.69728E+00  2.65019E-01  8.94177E+00 -8.52612E+00 -5.88833E+00
  -8.65459E+00 -5.06487E+00 -1.35090E+01  1.89558E+00 -8.91509E-01 -2.38194E+01  1.67785E+00 -1.76933E+00 -3.71831E+00  4.59590E+00
  -6.54951E+00 -1.70474E+01 -1.63128E+01 -1.75249E+01 -8.49908E+00  3.26069E+00 -2.20842E+01 -6.29217E-01 -2.16964E+01 -2.54656E+01
  -1.24901E+01 -1.61021E+01 -7.05678E+00 -1.66509E+01 -1.50234E+01 -1.87157E+01 -2.11251E+01 -6.04901E+00 -1.97161E+01 -9.21278E+00
  -2.40802E+00 -3.67753E-01 -8.98975E-01 -2.20291E+01 -1.27411E+01 -4.61883E+00  8.05357E+00 -1.37973E+01 -9.45525E+00 -2.17490E+00
   1.17363E+01 -4.77686E+00 -4.28182E+00  2.48014E+00 -1.12679E+00 -1.11198E+01 -6.82445E+00  2.44544E+00 -1.30376E+01 -1.09063E+01
  -2.24484E+00  1.17687E+01 -7.12008E+00 -1.23917E+01  1.02676E+00 -1.12875E+01 -7.65913E+00  4.34890E+00  1.12394E+01 -3.30928E+00
  -2.32831E-01  4.84308E+00  4.71467E+00  4.65176E-01 -8.19865E+00 -4.15074E+00  8.43039E+00  1.56656E+01  1.37575E+00  1.17517E+00
   5.87019E+00  7.33133E+00 -3.25493E+00  1.42804E+01 -8.23838E+00 -9.48073E-01  4.78184E+00  3.13841E+00  1.38493E+01  6.29619E+00
  -1.85994E+00  1.23690E+01  4.06596E+00  8.24899E+00  1.25041E+01 -1.79669E+00 -1.22825E+01 -3.00286E+00 -1.64188E+00  9.52180E+00
   6.19160E+00 -1.05009E+00  5.55034E+00  2.23461E+01  2.08005E+01  1.36099E+01  1.90438E+01  1.82878E+01  2.47962E+01  2.14030E+01
   3.24031E+01  2.68131E+01  2.56522E+01  2.02034E+01  4.58698E+00  1.57889E+01  1.27733E+01  2.38211E+01  8.49625E+00 -5.84053E+00
   5.37432E+00  8.23402E+00  1.04877E+00  7.66543E+00 -2.35898E+00  3.84896E+00  1.07669E+01 -4.62112E+00  3.24966E+00  7.57165E+00
   6.97106E+00  4.53827E+00  4.57936E+00 -3.63104E-01 -6.74839E+00 -2.24986E+01 -1.30349E+01  2.13580E+00 -1.61218E+01 -3.23248E-01
  -4.29696E+00 -2.21814E+00 -1.68853E+01 -7.54669E+00 -2.03446E-01  1.18837E+01 -1.23153E+01 -4.35225E+00 -1.62729E+00 -2.15447E+01
   2.24591E+00 -1.54983E+01 -6.36381E+00  7.55657E-01 -1.03261E+01  2.59920E+00  1.16073E+01  4.23169E+00  3.23126E+00 -3.60895E+00
   8.31256E+00  1.84674E+01  1.13541E+01  2.67581E+01  3.40852E+01  2.18219E+01  2.02089E+01  1.75604E+01  3.06236E+01  2.58970E+01
   3.39805E+01  2.64868E+01  2.77746E+01  2.73075E+01  4.62663E+01  3.43516E+01  3.62506E+01  3.87013E+01  5.18945E+01  3.71979E+01
   3.85893E+01  2.77944E+01  3.98191E+01  1.25702E+01  2.54705E+01  2.88572E+01  2.15322E+01  2.12824E+01  3.29230E+01  3.15023E+01
   2.88630E+01  2.87036E+01  1.66917E+01  1.85759E+01  3.22044E+01  2.33959E+01  3.58362E+01  2.49739E+01  2.87656E+01  2.44750E+01
   2.97499E+01  1.49377E+01  9.22659E+00  1.85936E+01  2.59019E+01  3.40510E+01  1.61967E+01  1.41371E+01  1.82812E+01  1.29913E+01
   2.62987E+01  1.02717E+01  2.20400E+01 -1.71823E+00  1.70048E+01 -1.87600E+00  7.68864E+00  1.10791E+01  8.14059E+00  5.15957E+00
   3.52944E+00  3.36353E+00  9.23237E+00  1.15313E+00  1.38010E+01  1.48380E+00  5.88612E+00  6.90413E+00 -1.98507E+00  1.43500E+01
   6.72896E+00  8.50614E+00  4.95634E+00  2.88018E+00 -9.17785E+00  1.22422E+01  5.00282E+00 -6.64608E+00 -5.37677E+00  8.67236E+00
  -5.27410E+00  1.49223E+01 -1.45030E+00  1.29846E-01  1.42002E+01  1.48292E+00 -5.97179E+00 -1.19786E+00 -2.07155E+00  2.11613E+01
   7.78848E-01 -8.65823E-01  1.27539E+01 -5.03369E+00 -1.18063E+00 -1.83564E+00  3.26389E+00  4.85771E+00  3.30283E+00  4.36014E+00
   6.87571E+00  3.76365E+00  5.83589E+00 -3.32119E+00  4.83672E+00 -4.79392E-01  6.88655E+00  2.64849E-01 -2.61256E+00  8.63032E+00
   1.42230E+01  5.84248E+00 -1.23737E+01 -9.95206E-01 -1.46802E+00  1.90855E+00 -7.22085E-01 -1.34324E+00 -9.69412E+00  5.21374E+00
   9.41601E+00 -6.07415E+00 -8.15301E+00  1.28766E+01  8.97459E+00  5.96835E+00 -3.39363E+00 -1.20855E+01 -9.92802E+00 -1.30945E+01
  -4.43626E+00 -2.05509E+00 -4.39027E+00  5.86396E+00 -9.27295E+00  3.94997E-01 -7.78129E-01 -1.17492E+01  1.85281E+01  3.75842E+00
   5.95786E+00  3.97176E+00  2.09089E+00  8.03651E+00 -1.39480E+01 -3.49758E+00 -6.03605E-01  3.33601E+00 -6.76963E+00 -9.70283E+00
  -3.72881E-01  7.32725E-01  1.31616E+00 -6.89124E+00  4.15746E+00 -4.56540E+00 -8.14626E+00 -4.12787E+00  4.79462E-01  7.64561E+00
  -9.04623E+00  2.00698E+00 -6.87978E+00 -6.55187E+00 -1.32930E+01  1.65174E+01  5.32722E+00 -4.25095E+00  2.00875E+00  3.41599E+00
   3.26677E-01  2.54976E+00 -7.71158E+00  5.24632E+00 -7.52318E+00  1.17602E+01 -6.80587E+00  8.86388E+00 -5.28927E+00  2.14638E+00
   3.97595E+00 -1.06983E+00  6.37377E+00 -4.53246E+00 -6.90197E+00 -5.72951E+00 -1.57720E+01 -6.10331E+00
 NY points of the fit to the data follow
  -8.15539E+00 -7.57072E+00 -8.09029E+00 -7.47935E+00 -7.88548E+00 -7.18470E+00 -7.43635E+00 -6.51177E+00 -6.86536E+00 -5.96499E+00
  -6.51753E+00 -5.66159E+00 -6.25953E+00 -5.46468E+00 -6.01219E+00 -5.24992E+00 -5.47631E+00 -4.80922E+00 -4.63613E+00 -4.19135E+00
  -3.60225E+00 -3.33169E+00 -2.40830E+00 -2.60572E+00 -1.44072E+00 -2.27818E+00 -8.47547E-01 -2.36798E+00 -5.62983E-01 -2.65964E+00
  -3.68428E-01 -2.83840E+00 -1.23704E-01 -2.86545E+00 -5.64882E-03 -2.98815E+00 -2.64128E-01 -3.40551E+00 -9.73652E-01 -4.12496E+00
  -2.02666E+00 -4.86999E+00 -2.95229E+00 -5.33098E+00 -3.68591E+00 -5.55793E+00 -4.29402E+00 -5.67925E+00 -5.07373E+00 -6.35477E+00
  -6.10299E+00 -7.05803E+00 -6.85280E+00 -7.49715E+00 -7.28769E+00 -7.53269E+00 -7.22983E+00 -7.32502E+00 -7.12261E+00 -7.14939E+00
  -7.06778E+00 -7.00942E+00 -7.05035E+00 -7.05166E+00 -7.10448E+00 -7.09554E+00 -7.14580E+00 -7.12438E+00 -7.15642E+00 -7.12482E+00
  -7.14169E+00 -7.10324E+00 -7.10261E+00 -7.06264E+00 -7.04710E+00 -7.01430E+00 -6.99183E+00 -6.97151E+00 -6.94540E+00 -6.93871E+00
  -6.90635E+00 -6.90562E+00 -6.86603E+00 -6.86105E+00 -6.78407E+00 -6.70119E+00 -6.61560E+00 -6.45310E+00 -6.39084E+00 -6.15087E+00
  -6.13557E+00 -5.82248E+00 -5.86957E+00 -5.49576E+00 -5.60343E+00 -5.17336E+00 -5.34208E+00 -4.86408E+00 -5.08629E+00 -4.56924E+00
  -4.84658E+00 -4.30883E+00 -4.65039E+00 -4.12693E+00 -4.52620E+00 -4.05677E+00 -4.49430E+00 -4.10277E+00 -4.54192E+00 -4.22859E+00
  -4.64622E+00 -4.40019E+00 -4.77305E+00 -4.58157E+00 -4.88407E+00 -4.71258E+00 -4.92523E+00 -4.80253E+00 -4.93881E+00 -4.87000E+00
  -4.93957E+00 -4.88987E+00 -4.88560E+00 -4.82035E+00 -4.71916E+00 -4.61387E+00 -4.46474E+00 -4.39653E+00 -4.20762E+00 -4.19706E+00
  -3.97177E+00 -4.03829E+00 -3.79382E+00 -3.95401E+00 -3.70765E+00 -3.95904E+00 -3.71791E+00 -4.03987E+00 -3.79221E+00 -4.15353E+00
  -3.89187E+00 -4.27426E+00 -4.01820E+00 -4.43203E+00 -4.20283E+00 -4.63372E+00 -4.44163E+00 -4.85140E+00 -4.71127E+00 -5.07806E+00
  -4.98873E+00 -5.30344E+00 -5.26268E+00 -5.52659E+00 -5.53343E+00 -5.74893E+00 -5.81129E+00 -6.03313E+00 -6.17839E+00 -6.38582E+00
  -6.56514E+00 -6.72748E+00 -6.89546E+00 -7.03012E+00 -7.17136E+00 -7.30371E+00 -7.42189E+00 -7.57253E+00 -7.67341E+00 -7.85913E+00
  -7.92222E+00 -8.12055E+00 -8.11562E+00 -8.29992E+00 -8.20408E+00 -8.37876E+00 -8.23616E+00 -8.41282E+00 -8.29160E+00 -8.51033E+00
  -8.45447E+00 -8.68148E+00 -8.68017E+00 -8.80483E+00 -8.75292E+00 -8.67594E+00 -8.55665E+00 -8.19301E+00 -8.05819E+00 -7.48432E+00
  -7.45474E+00 -6.86485E+00 -7.26656E+00 -6.63773E+00 -7.35174E+00 -6.65747E+00 -7.57156E+00 -6.74201E+00 -7.70982E+00 -6.69609E+00
  -7.58597E+00 -6.42892E+00 -7.26391E+00 -6.07182E+00 -6.88945E+00 -5.77342E+00 -6.60782E+00 -5.60658E+00 -6.37274E+00 -5.42093E+00
  -5.93933E+00 -4.95692E+00 -5.13596E+00 -4.15162E+00 -4.05009E+00 -3.15921E+00 -2.92490E+00 -2.23673E+00 -2.09454E+00 -1.52322E+00
  -1.36853E+00 -7.62032E-01 -4.91323E-01  3.06351E-01  6.52260E-01  1.40664E+00  1.63725E+00  2.16856E+00  2.13176E+00  2.29858E+00
   1.97516E+00  1.75973E+00  1.20791E+00  9.34395E-01  5.98218E-01  3.44973E-01  2.92173E-01  1.05129E-01  3.76541E-01  1.75145E-01
   7.66362E-01  5.04556E-01  1.78672E+00  1.63361E+00  3.36885E+00  3.36498E+00  5.38154E+00  5.60685E+00  7.73010E+00  8.21903E+00
   1.02246E+01  1.09006E+01  1.26165E+01  1.34001E+01  1.46634E+01  1.55362E+01  1.63480E+01  1.73153E+01  1.75624E+01  1.86853E+01
   1.83776E+01  1.94867E+01  1.84881E+01  1.94045E+01  1.76524E+01  1.80893E+01  1.57954E+01  1.58345E+01  1.32948E+01  1.30646E+01
   1.04982E+01  1.00900E+01  7.65704E+00  7.16858E+00  4.97106E+00  4.40792E+00  2.57123E+00  1.99786E+00  6.55421E-01  1.45071E-01
  -6.48851E-01 -9.90046E-01 -1.13791E+00 -1.24334E+00 -1.31115E+00 -1.36471E+00 -1.38856E+00 -1.40120E+00 -1.38758E+00 -1.36398E+00
  -1.31527E+00 -1.25627E+00 -1.17262E+00 -1.07511E+00 -9.51760E-01 -8.09923E-01 -6.38561E-01 -4.41295E-01 -2.06090E-01  6.66613E-02
   3.91046E-01  7.72558E-01  1.23062E+00  1.77868E+00  2.44722E+00  3.26838E+00  4.30296E+00  5.65005E+00  7.55360E+00  1.03142E+01
   1.23818E+01  1.54181E+01  1.72118E+01  1.98745E+01  2.10611E+01  2.26875E+01  2.27749E+01  2.39354E+01  2.44418E+01  2.51607E+01
   2.65959E+01  2.66207E+01  2.92622E+01  2.84072E+01  3.21664E+01  2.98302E+01  3.42809E+01  2.99570E+01  3.50865E+01  2.89265E+01
   3.46482E+01  2.67594E+01  3.35280E+01  2.46077E+01  3.27377E+01  2.31621E+01  3.22165E+01  2.24402E+01  3.19950E+01  2.21904E+01
   3.14665E+01  2.20105E+01  3.06263E+01  2.22825E+01  3.01749E+01  2.32686E+01  3.01494E+01  2.46053E+01  3.02351E+01  2.58429E+01
   2.92280E+01  2.46257E+01  2.62827E+01  2.22167E+01  2.27331E+01  1.93482E+01  1.91169E+01  1.67548E+01  1.70083E+01  1.46898E+01
   1.46948E+01  1.23348E+01  1.21708E+01  1.01413E+01  1.00493E+01  8.58670E+00  8.63683E+00  7.69906E+00  7.81270E+00  7.20621E+00
   7.02618E+00  6.09586E+00  5.63950E+00  4.62731E+00  4.02649E+00  3.12383E+00  2.53508E+00  2.14392E+00  1.86152E+00  1.65465E+00
   1.50745E+00  1.41149E+00  1.36194E+00  1.35611E+00  1.39236E+00  1.46971E+00  1.58732E+00  1.74439E+00  1.93977E+00  2.17185E+00
   2.43824E+00  2.73571E+00  3.05995E+00  3.40563E+00  3.76630E+00  4.13450E+00  4.50179E+00  4.85908E+00  5.19677E+00  5.50529E+00
   5.77528E+00  5.99821E+00  6.16656E+00  6.27435E+00  6.31733E+00  6.29335E+00  6.20225E+00  6.04608E+00  5.82875E+00  5.55602E+00
   5.23501E+00  4.87401E+00  4.48187E+00  4.06778E+00  3.64069E+00  3.20913E+00  2.78080E+00  2.36247E+00  1.95971E+00  1.57699E+00
   1.21750E+00  8.83423E-01  5.75862E-01  2.95131E-01  4.07554E-02 -1.88230E-01 -3.93264E-01 -5.75988E-01 -7.38252E-01 -8.81913E-01
  -1.00887E+00 -1.12089E+00 -1.21969E+00 -1.30679E+00 -1.38362E+00 -1.45140E+00 -1.51127E+00 -1.56419E+00 -1.61103E+00 -1.65250E+00
  -1.68927E+00 -1.72184E+00 -1.75076E+00 -1.77638E+00 -1.79912E+00 -1.81921E+00 -1.83699E+00 -1.85263E+00 -1.86641E+00 -1.87843E+00
  -1.88891E+00 -1.89794E+00 -1.90569E+00 -1.91222E+00 -1.91768E+00 -1.92210E+00 -1.92562E+00 -1.92824E+00 -1.93009E+00 -1.93118E+00
  -1.93160E+00 -1.93135E+00 -1.93051E+00 -1.92910E+00 -1.92717E+00 -1.92473E+00 -1.92183E+00 -1.91849E+00 -1.91474E+00 -1.91058E+00
  -1.90607E+00 -1.90119E+00 -1.89600E+00 -1.89047E+00 -1.88465E+00 -1.87853E+00 -1.87215E+00 -1.86549E+00 -1.85859E+00 -1.85144E+00
  -1.84406E+00 -1.83644E+00 -1.82861E+00 -1.82055E+00 -1.81230E+00 -1.80382E+00 -1.79515E+00 -1.78625E+00 -1.77716E+00 -1.76784E+00
  -1.75832E+00 -1.74855E+00 -1.73856E+00 -1.72829E+00 -1.71775E+00 -1.70686E+00 -1.69563E+00 -1.68392E+00
 NY background values follow
    -8.913E+00   -8.899E+00   -8.885E+00   -8.871E+00   -8.857E+00   -8.843E+00   -8.829E+00   -8.815E+00   -8.801E+00   -8.787E+00
    -8.773E+00   -8.759E+00   -8.745E+00   -8.731E+00   -8.717E+00   -8.703E+00   -8.689E+00   -8.675E+00   -8.661E+00   -8.647E+00
    -8.633E+00   -8.619E+00   -8.605E+00   -8.591E+00   -8.577E+00   -8.563E+00   -8.549E+00   -8.535E+00   -8.522E+00   -8.508E+00
    -8.494E+00   -8.480E+00   -8.466E+00   -8.452E+00   -8.438E+00   -8.424E+00   -8.410E+00   -8.396E+00   -8.382E+00   -8.368E+00
    -8.354E+00   -8.340E+00   -8.326E+00   -8.312E+00   -8.298E+00   -8.284E+00   -8.270E+00   -8.256E+00   -8.242E+00   -8.228E+00
    -8.214E+00   -8.200E+00   -8.186E+00   -8.172E+00   -8.158E+00   -8.144E+00   -8.130E+00   -8.116E+00   -8.102E+00   -8.089E+00
    -8.075E+00   -8.061E+00   -8.047E+00   -8.033E+00   -8.019E+00   -8.005E+00   -7.991E+00   -7.977E+00   -7.963E+00   -7.949E+00
    -7.935E+00   -7.921E+00   -7.907E+00   -7.893E+00   -7.879E+00   -7.865E+00   -7.851E+00   -7.837E+00   -7.823E+00   -7.809E+00
    -7.795E+00   -7.781E+00   -7.767E+00   -7.753E+00   -7.739E+00   -7.725E+00   -7.711E+00   -7.697E+00   -7.683E+00   -7.669E+00
    -7.656E+00   -7.642E+00   -7.628E+00   -7.614E+00   -7.600E+00   -7.586E+00   -7.572E+00   -7.558E+00   -7.544E+00   -7.530E+00
    -7.516E+00   -7.502E+00   -7.488E+00   -7.474E+00   -7.460E+00   -7.446E+00   -7.432E+00   -7.418E+00   -7.404E+00   -7.390E+00
    -7.376E+00   -7.362E+00   -7.348E+00   -7.334E+00   -7.320E+00   -7.306E+00   -7.292E+00   -7.278E+00   -7.264E+00   -7.251E+00
    -7.237E+00   -7.223E+00   -7.209E+00   -7.195E+00   -7.181E+00   -7.167E+00   -7.153E+00   -7.139E+00   -7.125E+00   -7.111E+00
    -7.097E+00   -7.083E+00   -7.069E+00   -7.055E+00   -7.041E+00   -7.027E+00   -7.013E+00   -6.999E+00   -6.985E+00   -6.971E+00
    -6.957E+00   -6.943E+00   -6.929E+00   -6.915E+00   -6.901E+00   -6.887E+00   -6.873E+00   -6.859E+00   -6.845E+00   -6.832E+00
    -6.818E+00   -6.804E+00   -6.790E+00   -6.776E+00   -6.762E+00   -6.748E+00   -6.734E+00   -6.720E+00   -6.706E+00   -6.692E+00
    -6.678E+00   -6.664E+00   -6.650E+00   -6.636E+00   -6.622E+00   -6.608E+00   -6.594E+00   -6.580E+00   -6.566E+00   -6.552E+00
    -6.538E+00   -6.524E+00   -6.510E+00   -6.496E+00   -6.482E+00   -6.468E+00   -6.454E+00   -6.441E+00   -6.427E+00   -6.413E+00
    -6.399E+00   -6.385E+00   -6.371E+00   -6.357E+00   -6.343E+00   -6.329E+00   -6.315E+00   -6.301E+00   -6.287E+00   -6.273E+00
    -6.259E+00   -6.245E+00   -6.231E+00   -6.217E+00   -6.203E+00   -6.189E+00   -6.175E+00   -6.161E+00   -6.147E+00   -6.133E+00
    -6.119E+00   -6.105E+00   -6.091E+00   -6.077E+00   -6.063E+00   -6.049E+00   -6.036E+00   -6.022E+00   -6.008E+00   -5.994E+00
    -5.980E+00   -5.966E+00   -5.952E+00   -5.938E+00   -5.924E+00   -5.910E+00   -5.896E+00   -5.882E+00   -5.868E+00   -5.854E+00
    -5.840E+00   -5.826E+00   -5.812E+00   -5.798E+00   -5.784E+00   -5.770E+00   -5.756E+00   -5.742E+00   -5.728E+00   -5.714E+00
    -5.700E+00   -5.686E+00   -5.672E+00   -5.658E+00   -5.644E+00   -5.631E+00   -5.617E+00   -5.603E+00   -5.589E+00   -5.575E+00
    -5.561E+00   -5.547E+00   -5.533E+00   -5.519E+00   -5.505E+00   -5.491E+00   -5.477E+00   -5.463E+00   -5.449E+00   -5.435E+00
    -5.421E+00   -5.407E+00   -5.393E+00   -5.379E+00   -5.365E+00   -5.351E+00   -5.337E+00   -5.323E+00   -5.309E+00   -5.295E+00
    -5.281E+00   -5.267E+00   -5.253E+00   -5.239E+00   -5.226E+00   -5.212E+00   -5.198E+00   -5.184E+00   -5.170E+00   -5.156E+00
    -5.142E+00   -5.128E+00   -5.114E+00   -5.100E+00   -5.086E+00   -5.072E+00   -5.058E+00   -5.044E+00   -5.030E+00   -5.016E+00
    -5.002E+00   -4.988E+00   -4.974E+00   -4.960E+00   -4.946E+00   -4.932E+00   -4.918E+00   -4.904E+00   -4.890E+00   -4.876E+00
    -4.862E+00   -4.848E+00   -4.834E+00   -4.820E+00   -4.806E+00   -4.793E+00   -4.779E+00   -4.765E+00   -4.751E+00   -4.737E+00
    -4.723E+00   -4.709E+00   -4.695E+00   -4.681E+00   -4.667E+00   -4.653E+00   -4.639E+00   -4.625E+00   -4.611E+00   -4.597E+00
    -4.583E+00   -4.569E+00   -4.555E+00   -4.541E+00   -4.527E+00   -4.513E+00   -4.499E+00   -4.485E+00   -4.471E+00   -4.457E+00
    -4.443E+00   -4.429E+00   -4.415E+00   -4.401E+00   -4.387E+00   -4.373E+00   -4.359E+00   -4.345E+00   -4.331E+00   -4.318E+00
    -4.304E+00   -4.290E+00   -4.276E+00   -4.262E+00   -4.248E+00   -4.234E+00   -4.220E+00   -4.206E+00   -4.192E+00   -4.178E+00
    -4.164E+00   -4.150E+00   -4.136E+00   -4.122E+00   -4.108E+00   -4.094E+00   -4.080E+00   -4.066E+00   -4.052E+00   -4.038E+00
    -4.024E+00   -4.010E+00   -3.996E+00   -3.982E+00   -3.968E+00   -3.954E+00   -3.940E+00   -3.926E+00   -3.912E+00   -3.898E+00
    -3.884E+00   -3.870E+00   -3.856E+00   -3.842E+00   -3.828E+00   -3.814E+00   -3.800E+00   -3.787E+00   -3.773E+00   -3.759E+00
    -3.745E+00   -3.731E+00   -3.717E+00   -3.703E+00   -3.689E+00   -3.675E+00   -3.661E+00   -3.647E+00   -3.633E+00   -3.619E+00
    -3.605E+00   -3.591E+00   -3.577E+00   -3.563E+00   -3.549E+00   -3.535E+00   -3.521E+00   -3.507E+00   -3.493E+00   -3.479E+00
    -3.465E+00   -3.451E+00   -3.437E+00   -3.423E+00   -3.409E+00   -3.395E+00   -3.381E+00   -3.367E+00   -3.353E+00   -3.339E+00
    -3.325E+00   -3.311E+00   -3.297E+00   -3.283E+00   -3.269E+00   -3.255E+00   -3.241E+00   -3.227E+00   -3.214E+00   -3.200E+00
    -3.186E+00   -3.172E+00   -3.158E+00   -3.144E+00   -3.130E+00   -3.116E+00   -3.102E+00   -3.088E+00   -3.074E+00   -3.060E+00
    -3.046E+00   -3.032E+00   -3.018E+00   -3.004E+00   -2.990E+00   -2.976E+00   -2.962E+00   -2.948E+00   -2.934E+00   -2.920E+00
    -2.906E+00   -2.892E+00   -2.878E+00   -2.864E+00   -2.850E+00   -2.836E+00   -2.822E+00   -2.808E+00   -2.794E+00   -2.780E+00
    -2.766E+00   -2.752E+00   -2.738E+00   -2.724E+00   -2.710E+00   -2.696E+00   -2.682E+00   -2.668E+00   -2.654E+00   -2.640E+00
    -2.626E+00   -2.613E+00   -2.599E+00   -2.585E+00   -2.571E+00   -2.557E+00   -2.543E+00   -2.529E+00   -2.515E+00   -2.501E+00
    -2.487E+00   -2.473E+00   -2.459E+00   -2.445E+00   -2.431E+00   -2.417E+00   -2.403E+00   -2.389E+00   -2.375E+00   -2.361E+00
    -2.347E+00   -2.333E+00   -2.319E+00   -2.305E+00   -2.291E+00   -2.277E+00   -2.263E+00   -2.249E+00   -2.235E+00   -2.221E+00
    -2.207E+00   -2.193E+00   -2.179E+00   -2.165E+00   -2.151E+00   -2.137E+00   -2.123E+00   -2.109E+00   -2.095E+00   -2.081E+00
    -2.067E+00   -2.053E+00   -2.039E+00   -2.025E+00   -2.011E+00   -1.997E+00   -1.984E+00   -1.970E+00
 Ala      Conc. = 9.32E+03
