 LCModel (Version 6.3-1L) Copyright: S.W. Provencher.          Ref.: Magn. Reson. Med. 30:672-679 (1993).                
 Slice#3 Row#9 Col#9  PD_05_press_2_raw_act
 36 lines in following concentration table = NCONC+1
    Conc.  %SD /Cr+PCr  Metabolite                                         
  190.025 110% 6.5E-02 Ala                                                 
    0.000 999%   0.000 Asp                                                 
   84.350 517% 2.9E-02 Cr                                                  
 2.83E+03  16%   0.971 PCr                                                 
   65.517 449% 2.2E-02 GABA                                                
    0.000 999%   0.000 Glc                                                 
 1.89E+03  25%   0.650 Gln                                                 
 3.31E+03  17%   1.136 Glu                                                 
  959.511   4%   0.329 GPC                                                 
    0.000 999%   0.000 PCh                                                 
 1.17E+03  11%   0.402 GSH                                                 
 1.93E+03  24%   0.663 Ins                                                 
    0.000 999%   0.000 Lac                                                 
 4.76E+03   3%   1.632 NAA                                                 
    0.000 999%   0.000 NAAG                                                
  198.283  23% 6.8E-02 Scyllo                                              
    0.000 999%   0.000 Tau                                                 
  133.640 136% 4.6E-02 -CrCH2                                              
  959.511   4%   0.329 GPC+PCh                                             
 4.76E+03   3%   1.632 NAA+NAAG                                            
 2.91E+03   3%   1.000 Cr+PCr                                              
 5.20E+03  16%   1.785 Glu+Gln                                             
 2.06E+03  27%   0.707 Lip13a                                              
    0.000 999%   0.000 Lip13b                                              
    0.000 999%   0.000 Lip09                                               
 1.91E+03  16%   0.656 MM09                                                
  442.009  58%   0.152 Lip20                                               
 5.15E+03  11%   1.768 MM20                                                
  635.535  30%   0.218 MM12                                                
 1.40E+03  32%   0.481 MM14                                                
  965.844  34%   0.331 MM17                                                
 2.06E+03  27%   0.707 Lip13a+Lip13b                                       
 4.10E+03  15%   1.406 MM14+Lip13a+Lip13b+MM12                             
 1.91E+03  16%   0.656 MM09+Lip09                                          
 5.59E+03  10%   1.920 MM20+Lip20                                          
   6 lines in following misc. output table
  FWHM = 0.069 ppm    S/N =  14                                            
  Data shift = 0.008 ppm                                                   
  Ph: -26 deg      -7.1 deg/ppm                                            
  alphaB,S = 1.1E+00,   2.3E+02                                            
   14 spline knots.   Ns = 8(1)                                            
  ( 9) 4 infls.   ( 3) 1 extrs.                                            
  498 points on ppm-axis = NY
      4.000000     3.992357     3.984714     3.977070     3.969427     3.961784     3.954141     3.946497     3.938854     3.931211
      3.923568     3.915925     3.908281     3.900638     3.892995     3.885352     3.877708     3.870065     3.862422     3.854779
      3.847136     3.839492     3.831849     3.824206     3.816563     3.808919     3.801276     3.793633     3.785990     3.778347
      3.770703     3.763060     3.755417     3.747774     3.740130     3.732487     3.724844     3.717201     3.709558     3.701914
      3.694271     3.686628     3.678985     3.671341     3.663698     3.656055     3.648412     3.640769     3.633125     3.625482
      3.617839     3.610196     3.602552     3.594909     3.587266     3.579623     3.571980     3.564336     3.556693     3.549050
      3.541407     3.533763     3.526120     3.518477     3.510834     3.503191     3.495547     3.487904     3.480261     3.472618
      3.464974     3.457331     3.449688     3.442045     3.434402     3.426758     3.419115     3.411472     3.403829     3.396185
      3.388542     3.380899     3.373256     3.365613     3.357969     3.350326     3.342683     3.335040     3.327396     3.319753
      3.312110     3.304467     3.296824     3.289180     3.281537     3.273894     3.266251     3.258607     3.250964     3.243321
      3.235678     3.228034     3.220391     3.212748     3.205105     3.197462     3.189818     3.182175     3.174532     3.166889
      3.159245     3.151602     3.143959     3.136316     3.128673     3.121029     3.113386     3.105743     3.098100     3.090456
      3.082813     3.075170     3.067527     3.059884     3.052240     3.044597     3.036954     3.029311     3.021667     3.014024
      3.006381     2.998738     2.991095     2.983451     2.975808     2.968165     2.960522     2.952878     2.945235     2.937592
      2.929949     2.922306     2.914662     2.907019     2.899376     2.891733     2.884089     2.876446     2.868803     2.861160
      2.853517     2.845873     2.838230     2.830587     2.822944     2.815300     2.807657     2.800014     2.792371     2.784728
      2.777084     2.769441     2.761798     2.754155     2.746511     2.738868     2.731225     2.723582     2.715939     2.708295
      2.700652     2.693009     2.685366     2.677722     2.670079     2.662436     2.654793     2.647150     2.639506     2.631863
      2.624220     2.616577     2.608933     2.601290     2.593647     2.586004     2.578361     2.570717     2.563074     2.555431
      2.547788     2.540144     2.532501     2.524858     2.517215     2.509572     2.501928     2.494285     2.486642     2.478999
      2.471355     2.463712     2.456069     2.448426     2.440783     2.433139     2.425496     2.417853     2.410210     2.402566
      2.394923     2.387280     2.379637     2.371994     2.364350     2.356707     2.349064     2.341421     2.333777     2.326134
      2.318491     2.310848     2.303205     2.295561     2.287918     2.280275     2.272632     2.264988     2.257345     2.249702
      2.242059     2.234416     2.226772     2.219129     2.211486     2.203843     2.196199     2.188556     2.180913     2.173270
      2.165627     2.157983     2.150340     2.142697     2.135054     2.127410     2.119767     2.112124     2.104481     2.096838
      2.089194     2.081551     2.073908     2.066265     2.058621     2.050978     2.043335     2.035692     2.028049     2.020405
      2.012762     2.005119     1.997476     1.989833     1.982190     1.974546     1.966903     1.959260     1.951617     1.943974
      1.936331     1.928688     1.921045     1.913402     1.905759     1.898115     1.890472     1.882829     1.875186     1.867543
      1.859900     1.852257     1.844614     1.836971     1.829327     1.821684     1.814041     1.806398     1.798755     1.791112
      1.783469     1.775826     1.768183     1.760540     1.752896     1.745253     1.737610     1.729967     1.722324     1.714681
      1.707038     1.699395     1.691752     1.684108     1.676465     1.668822     1.661179     1.653536     1.645893     1.638250
      1.630607     1.622964     1.615321     1.607677     1.600034     1.592391     1.584748     1.577105     1.569462     1.561819
      1.554176     1.546533     1.538890     1.531246     1.523603     1.515960     1.508317     1.500674     1.493031     1.485388
      1.477745     1.470102     1.462458     1.454815     1.447172     1.439529     1.431886     1.424243     1.416600     1.408957
      1.401314     1.393671     1.386027     1.378384     1.370741     1.363098     1.355455     1.347812     1.340169     1.332526
      1.324883     1.317240     1.309596     1.301953     1.294310     1.286667     1.279024     1.271381     1.263738     1.256095
      1.248452     1.240808     1.233165     1.225522     1.217879     1.210236     1.202593     1.194950     1.187307     1.179664
      1.172021     1.164377     1.156734     1.149091     1.141448     1.133805     1.126162     1.118519     1.110876     1.103233
      1.095590     1.087946     1.080303     1.072660     1.065017     1.057374     1.049731     1.042088     1.034445     1.026802
      1.019158     1.011515     1.003872     0.996229     0.988586     0.980943     0.973300     0.965657     0.958014     0.950371
      0.942727     0.935084     0.927441     0.919798     0.912155     0.904512     0.896869     0.889226     0.881583     0.873940
      0.866296     0.858653     0.851010     0.843367     0.835724     0.828081     0.820438     0.812795     0.805152     0.797508
      0.789865     0.782222     0.774579     0.766936     0.759293     0.751650     0.744007     0.736364     0.728721     0.721077
      0.713434     0.705791     0.698148     0.690505     0.682862     0.675219     0.667576     0.659933     0.652290     0.644646
      0.637003     0.629360     0.621717     0.614074     0.606431     0.598788     0.591145     0.583502     0.575858     0.568215
      0.560572     0.552929     0.545286     0.537643     0.530000     0.522357     0.514714     0.507071     0.499427     0.491784
      0.484141     0.476498     0.468855     0.461212     0.453569     0.445925     0.438282     0.430639     0.422996     0.415353
      0.407710     0.400067     0.392424     0.384780     0.377137     0.369494     0.361851     0.354208     0.346565     0.338922
      0.331278     0.323635     0.315992     0.308349     0.300706     0.293063     0.285420     0.277777     0.270133     0.262490
      0.254847     0.247204     0.239561     0.231918     0.224275     0.216631     0.208988     0.201345
 NY phased data points follow
  -1.96427E+01 -1.47781E+01 -1.72863E+01 -3.70768E+00  2.61085E+00  8.08253E+00  8.68534E+00  1.77427E+01  3.00404E+01  3.16690E+01
   3.29155E+01  3.52389E+01  2.34132E+01  1.06137E+01 -1.87700E+00  4.95130E-01 -4.99478E+00 -9.08016E+00 -1.58567E+01 -1.42634E+01
  -1.50256E+01 -1.47968E+01 -1.67063E+01 -1.16580E+01 -3.71823E+00 -7.49767E+00 -7.86749E+00  9.14187E-01 -4.75233E+00 -6.43343E+00
   3.72442E+00  4.11807E-01 -3.80347E+00 -7.45136E+00 -1.33270E+00 -6.62369E+00 -9.06701E+00 -1.27813E+01 -1.46907E+01 -1.63109E+01
  -1.45516E+01 -9.96311E+00 -8.95568E+00 -1.02295E+01 -9.11466E+00 -6.44192E+00 -6.08495E+00 -1.12740E+00 -8.38627E+00  2.51205E+00
  -4.27173E+00 -9.24894E+00 -8.14113E+00 -6.71160E+00 -1.97914E+01 -6.49419E+00 -1.75016E+01 -7.58255E+00 -1.58057E+01 -1.75172E+01
  -2.08266E+01 -2.49753E+01 -2.58556E+01 -2.97578E+01 -2.58594E+01 -3.37946E+01 -2.31750E+01 -3.63572E+01 -2.82850E+01 -1.50154E+01
  -2.64130E+01 -2.28079E+01 -2.13037E+01 -2.33429E+01 -2.63706E+01 -2.65402E+01 -2.56101E+01 -2.15876E+01 -2.25882E+01 -1.97930E+01
  -1.79348E+01 -2.19314E+01 -2.26888E+01 -1.75842E+01 -1.45578E+01 -1.70454E+01 -1.37147E+01 -1.68171E+01 -1.10432E+01 -1.34764E+01
  -2.12755E+01 -1.09845E+01 -1.19359E+01 -1.38721E+01 -1.61255E+01 -8.29622E+00 -3.57161E-01  6.20925E+00  1.18807E+01  2.51005E+01
   2.98739E+01  4.03591E+01  4.72690E+01  4.92961E+01  4.78247E+01  4.08806E+01  3.23903E+01  1.51915E+01  3.45001E+00  6.37512E+00
  -6.27271E+00 -5.81649E+00 -1.11855E+01 -9.06447E+00 -9.86334E+00 -8.99888E+00 -1.25389E+01 -1.70100E+01 -1.45968E+01 -1.31288E+01
  -1.26344E-01  6.04549E+00  1.49944E+01  2.66350E+01  3.77923E+01  4.60688E+01  5.97068E+01  6.14478E+01  6.10478E+01  5.56207E+01
   4.63365E+01  2.89372E+01  1.89036E+01  9.18732E+00 -5.36866E+00 -6.01378E+00 -1.02862E+01 -1.80997E+01 -1.66000E+01 -1.74506E+01
  -1.55686E+01 -1.47481E+01 -2.08239E+01 -1.36822E+01 -1.99880E+01 -1.76749E+01 -2.04146E+01 -1.93494E+01 -1.56899E+01 -1.45846E+01
  -1.35225E+01 -1.65531E+01 -2.02521E+01 -1.79475E+01 -1.66654E+01 -1.88849E+01 -1.84603E+01 -1.97347E+01 -2.23374E+01 -2.63045E+01
  -2.27561E+01 -3.56722E+01 -2.81031E+01 -2.35767E+01 -2.37013E+01 -2.29331E+01 -1.94707E+01 -2.09354E+01 -2.58897E+01 -2.46826E+01
  -3.42066E+01 -2.63734E+01 -3.06403E+01 -3.99278E+01 -3.64940E+01 -3.89546E+01 -3.80908E+01 -4.38422E+01 -3.56429E+01 -3.36119E+01
  -3.71204E+01 -4.04012E+01 -3.65400E+01 -3.10774E+01 -2.21736E+01 -2.82496E+01 -2.25347E+01 -2.62121E+01 -2.45230E+01 -1.71793E+01
  -1.11577E+01 -1.01048E+01 -1.41772E+01 -3.80686E+00 -4.23280E+00 -8.01421E+00 -1.57304E+01 -1.59955E+01 -1.63736E+01 -1.79991E+01
  -2.05632E+01 -1.57620E+01 -1.39436E+01 -8.52902E+00 -1.19724E+01 -7.96581E+00 -1.49353E+01 -2.11297E+01 -1.53494E+01 -1.00745E+01
  -1.57730E+01 -8.16324E+00 -1.00463E+01 -1.82069E+00  3.86658E+00  3.13975E+00  2.69576E+00  9.52732E+00  7.39261E+00 -9.66530E-02
  -8.37395E+00 -9.77676E+00 -9.35720E+00 -7.38739E+00 -1.18621E+01 -5.93198E+00 -6.27268E+00  2.32196E+00  3.45468E+00 -2.04499E+00
   8.79417E+00 -3.90018E+00  9.44079E+00  8.17486E+00  9.60638E-05  4.35986E+00  9.17449E+00 -5.28627E-01  8.69576E+00  2.06419E+00
  -1.53571E-01 -8.62885E-01  3.38953E-02 -1.70937E+00 -3.36474E-01  5.43305E+00  1.13444E+01  9.22702E+00  1.43764E+01  1.58473E+01
   1.18239E+01  1.34338E+01  2.30351E+01  2.97161E+01  4.10069E+01  5.89714E+01  7.03868E+01  7.92327E+01  1.02700E+02  1.22504E+02
   1.33661E+02  1.42341E+02  1.33995E+02  1.13954E+02  8.97634E+01  6.39859E+01  5.37543E+01  3.35138E+01  2.82913E+01  1.54508E+01
   1.10425E+01  1.17854E+01  3.69770E+00  2.76776E+00  8.07642E+00  4.56254E+00  5.28626E+00  4.48348E+00  4.49962E+00 -9.52801E-01
   4.43671E-01  1.00273E+00 -4.21110E+00 -5.12939E+00 -7.00775E-02 -1.19763E+00 -9.40641E-01 -8.05454E+00 -6.27665E+00  1.66127E+00
  -1.76901E+00 -2.96862E-01 -7.49450E+00 -2.56674E+00 -4.21387E-01 -1.05695E-01 -1.78003E+00 -8.75573E+00 -3.68689E+00 -7.46392E+00
  -2.91167E+00  2.89651E+00 -2.05124E+00 -1.46347E+00  1.82391E-01 -3.60271E+00  1.24773E-01 -1.66277E+00  1.24731E+00  9.38064E-01
   1.02505E+00 -1.99428E+00  4.04661E+00  1.82398E+00 -4.49517E+00 -1.02055E+00  1.08736E+00  8.73239E+00  5.71332E+00  1.34416E-01
  -4.50881E+00 -4.42053E-01 -8.41261E-01  2.30684E+00  1.45785E+00  1.34791E+00  4.47116E-01  2.71190E+00  2.62602E+00  6.70792E+00
   2.47370E+00 -2.16217E+00  2.25816E+00 -2.61843E+00  3.64383E+00 -5.80173E-01  4.14734E+00  6.96412E+00  1.28462E+00  5.43348E-01
   4.25930E+00  3.14594E+00  3.46914E+00  6.21329E+00  1.59991E+01  1.03395E+01  8.06066E+00  1.19181E+01  8.75477E+00  3.26375E+00
   4.93778E+00  7.69682E+00  6.07900E+00  1.06696E+01  1.03632E+01  7.37816E+00  6.66935E+00  1.20349E+01  1.99497E+00  5.45507E+00
  -4.02737E-01  7.11557E+00  5.41745E+00  1.00250E+01  8.16465E+00  1.08239E+01  7.74119E+00  8.00658E+00  3.58882E+00  1.03087E+01
   9.81705E+00  1.00490E+01  8.45541E+00  4.73097E+00  6.93326E+00 -3.85614E+00  1.29751E+00  1.63812E+00 -2.72526E+00  2.41844E+00
  -3.89893E-01  2.78317E-01  6.82155E+00 -6.68224E+00  9.55636E-01  4.67282E-01  1.70453E+00  2.41918E+00  2.57277E-01 -3.81714E+00
   1.38698E+00  1.79922E+00  3.74842E+00  4.15653E+00  3.34194E+00  4.64939E+00  1.84908E+00  6.25397E-01  3.91686E+00  3.28462E+00
   7.08287E+00  7.34502E+00  5.44535E+00  1.62075E+00  1.05412E+01  3.24142E+00  2.30763E-01  2.43663E+00  5.56062E+00  8.03853E+00
   1.01852E+01  1.15919E+01  2.12612E+00  5.72744E+00  8.00848E+00  6.49299E+00  9.29335E+00  5.97526E+00  8.35339E+00  1.09337E+01
   2.81349E+00  9.36939E+00  1.82869E+00  6.31398E+00 -2.42078E+00 -2.15627E+00 -3.86677E+00  1.40141E+00  3.44302E-01  2.41025E-01
  -6.00586E+00  1.04550E+00 -2.27256E+00 -7.08856E+00  3.76632E+00  4.61548E+00 -7.35369E-01 -4.44911E+00 -6.96859E+00 -2.14239E+00
  -3.58026E+00  5.23487E-01 -8.40345E+00 -1.66351E+00 -1.50655E+00  6.72770E-01 -4.72358E+00  1.53829E-01  2.85389E+00 -2.20232E+00
  -3.01666E+00 -7.44154E+00 -2.89959E+00 -1.99901E+00 -4.10379E+00 -1.26690E+00 -1.93897E+00 -8.43631E-01 -5.52232E+00 -5.63458E+00
  -2.94638E+00 -5.51533E+00  3.81589E+00 -3.82177E-01  2.45098E-01  1.17364E+00 -2.65859E+00  4.90312E+00 -3.30112E+00 -3.75185E+00
   1.02788E+00  4.97647E-01  6.07028E+00  1.19310E+00 -9.32952E-02  2.70828E+00 -3.90601E+00 -4.08252E-01  4.51858E+00  7.22023E+00
  -2.76886E+00 -1.44003E+00 -1.14250E+00 -2.10540E+00 -1.98065E+00  6.36372E-01  1.33855E+00  3.04379E+00 -1.36526E+00  4.87208E-01
  -1.85993E-01  1.43224E+00  4.10313E+00 -2.45634E+00 -1.99445E+00  3.08664E+00 -7.78516E+00  1.86243E-01
 NY points of the fit to the data follow
  -1.77256E+01 -1.54020E+01 -1.07650E+01 -5.03318E+00  9.64836E-01  7.25377E+00  1.41396E+01  2.12959E+01  2.75810E+01  3.14880E+01
   3.17648E+01  2.80353E+01  2.11791E+01  1.30786E+01  5.63416E+00 -3.52526E-01 -5.23043E+00 -9.64427E+00 -1.35989E+01 -1.59411E+01
  -1.68691E+01 -1.71237E+01 -1.63242E+01 -1.48417E+01 -1.30790E+01 -1.10524E+01 -8.46701E+00 -5.15937E+00 -1.56830E+00  1.63921E+00
   3.81795E+00  4.33988E+00  2.96930E+00  2.44181E-02 -3.72581E+00 -7.47134E+00 -1.08965E+01 -1.38860E+01 -1.62885E+01 -1.74096E+01
  -1.68000E+01 -1.53183E+01 -1.36020E+01 -1.18854E+01 -1.01816E+01 -8.60614E+00 -7.49240E+00 -7.04804E+00 -7.43544E+00 -8.84399E+00
  -1.11055E+01 -1.36338E+01 -1.58065E+01 -1.72998E+01 -1.82478E+01 -1.89096E+01 -1.93048E+01 -1.93319E+01 -1.90556E+01 -1.87203E+01
  -1.85418E+01 -1.86607E+01 -1.91177E+01 -1.98120E+01 -2.04846E+01 -2.09281E+01 -2.10677E+01 -2.09630E+01 -2.07174E+01 -2.03606E+01
  -1.99492E+01 -1.95766E+01 -1.93100E+01 -1.92199E+01 -1.93105E+01 -1.95370E+01 -1.98108E+01 -2.00042E+01 -1.99341E+01 -1.94184E+01
  -1.87331E+01 -1.81014E+01 -1.74733E+01 -1.67656E+01 -1.59620E+01 -1.52008E+01 -1.47129E+01 -1.47088E+01 -1.52370E+01 -1.61633E+01
  -1.71954E+01 -1.79666E+01 -1.82302E+01 -1.78514E+01 -1.60141E+01 -1.10017E+01 -3.63893E+00  4.52126E+00  1.27732E+01  2.15143E+01
   3.11409E+01  4.08351E+01  4.85742E+01  5.21012E+01  4.99489E+01  4.22121E+01  3.08549E+01  1.88430E+01  8.47500E+00  2.52584E-01
  -6.59061E+00 -1.27095E+01 -1.73590E+01 -1.91216E+01 -1.93196E+01 -1.90986E+01 -1.86317E+01 -1.78244E+01 -1.59532E+01 -1.08136E+01
  -2.63251E+00  6.53655E+00  1.58302E+01  2.56044E+01  3.64063E+01  4.77331E+01  5.75529E+01  6.31794E+01  6.26823E+01  5.57469E+01
   4.40637E+01  3.08074E+01  1.87576E+01  8.83907E+00  3.39777E-01 -7.58934E+00 -1.43065E+01 -1.75909E+01 -1.80587E+01 -1.74631E+01
  -1.65052E+01 -1.56436E+01 -1.51217E+01 -1.49216E+01 -1.50134E+01 -1.53917E+01 -1.59267E+01 -1.65425E+01 -1.72066E+01 -1.78281E+01
  -1.83814E+01 -1.87905E+01 -1.90666E+01 -1.93680E+01 -1.97382E+01 -2.00885E+01 -2.03494E+01 -2.04770E+01 -2.05938E+01 -2.08628E+01
  -2.12569E+01 -2.16067E+01 -2.17525E+01 -2.16687E+01 -2.14966E+01 -2.14603E+01 -2.17422E+01 -2.24010E+01 -2.33466E+01 -2.43613E+01
  -2.51439E+01 -2.57378E+01 -2.63039E+01 -2.69705E+01 -2.76873E+01 -2.81359E+01 -2.82158E+01 -2.80509E+01 -2.77625E+01 -2.75513E+01
  -2.74714E+01 -2.73243E+01 -2.69102E+01 -2.60907E+01 -2.48774E+01 -2.34497E+01 -2.19440E+01 -2.03278E+01 -1.84521E+01 -1.64608E+01
  -1.47869E+01 -1.38263E+01 -1.36593E+01 -1.39851E+01 -1.44643E+01 -1.47827E+01 -1.45142E+01 -1.35807E+01 -1.20766E+01 -1.01394E+01
  -8.19198E+00 -6.70090E+00 -5.98689E+00 -6.08149E+00 -7.01013E+00 -8.91058E+00 -1.16464E+01 -1.46128E+01 -1.69148E+01 -1.77193E+01
  -1.70267E+01 -1.50489E+01 -1.21381E+01 -8.75435E+00 -5.45209E+00 -3.06223E+00 -2.01729E+00 -2.33738E+00 -4.17235E+00 -7.41272E+00
  -1.12553E+01 -1.44448E+01 -1.61915E+01 -1.64120E+01 -1.51914E+01 -1.26320E+01 -9.14805E+00 -5.65009E+00 -3.05712E+00 -1.25873E+00
   1.20371E-01  1.26491E+00  2.18869E+00  2.83401E+00  3.37617E+00  4.01054E+00  4.57875E+00  4.98305E+00  5.15199E+00  4.84177E+00
   3.96318E+00  2.76544E+00  1.81606E+00  1.63463E+00  2.30732E+00  3.63596E+00  5.46972E+00  7.59095E+00  9.57459E+00  1.12278E+01
   1.27457E+01  1.47157E+01  1.98033E+01  3.06302E+01  4.43750E+01  5.85614E+01  7.29100E+01  8.83908E+01  1.05214E+02  1.21440E+02
   1.33339E+02  1.37079E+02  1.30492E+02  1.14488E+02  9.31233E+01  7.16730E+01  5.35589E+01  3.88986E+01  2.60359E+01  1.42721E+01
   5.96389E+00  2.73907E+00  1.42764E+00  6.72127E-01  2.19880E-01 -6.21073E-02 -3.57561E-01 -7.09526E-01 -1.11594E+00 -1.55867E+00
  -1.99980E+00 -2.40827E+00 -2.78059E+00 -3.10117E+00 -3.33672E+00 -3.48193E+00 -3.56028E+00 -3.58993E+00 -3.57869E+00 -3.52778E+00
  -3.44094E+00 -3.33076E+00 -3.19624E+00 -3.03437E+00 -2.84829E+00 -2.64061E+00 -2.41336E+00 -2.17115E+00 -1.92100E+00 -1.67064E+00
  -1.42545E+00 -1.19067E+00 -9.71850E-01 -7.73236E-01 -5.98849E-01 -4.51973E-01 -3.34520E-01 -2.46367E-01 -1.85323E-01 -1.47617E-01
  -1.28774E-01 -1.23808E-01 -1.27020E-01 -1.31296E-01 -1.28307E-01 -1.09681E-01 -6.62291E-02  1.42272E-02  1.53109E-01  3.87448E-01
   6.81457E-01  9.46244E-01  1.16453E+00  1.35414E+00  1.51836E+00  1.61579E+00  1.57491E+00  1.39759E+00  1.17779E+00  9.69633E-01
   8.35509E-01  8.62129E-01  1.12342E+00  1.63094E+00  2.32697E+00  3.12449E+00  3.94548E+00  4.72512E+00  5.34936E+00  5.74677E+00
   5.98861E+00  6.16681E+00  6.32701E+00  6.46270E+00  6.55244E+00  6.64016E+00  6.79338E+00  6.98610E+00  7.19471E+00  7.40681E+00
   7.61327E+00  7.80618E+00  7.97820E+00  8.12251E+00  8.23271E+00  8.30304E+00  8.32852E+00  8.30534E+00  8.23098E+00  8.10428E+00
   7.92542E+00  7.69588E+00  7.41846E+00  7.09723E+00  6.73738E+00  6.34493E+00  5.92640E+00  5.48871E+00  5.03896E+00  4.58436E+00
   4.13187E+00  3.68813E+00  3.25914E+00  2.85040E+00  2.46680E+00  2.11273E+00  1.79189E+00  1.50740E+00  1.26174E+00  1.05699E+00
   8.94897E-01  7.76953E-01  7.04339E-01  6.78012E-01  6.98696E-01  7.67059E-01  8.83627E-01  1.04877E+00  1.26245E+00  1.52426E+00
   1.83319E+00  2.18771E+00  2.58544E+00  3.02307E+00  3.49606E+00  3.99869E+00  4.52397E+00  5.06376E+00  5.60875E+00  6.14859E+00
   6.67212E+00  7.16775E+00  7.62383E+00  8.02920E+00  8.37346E+00  8.64746E+00  8.84367E+00  8.95661E+00  8.98310E+00  8.92245E+00
   8.77635E+00  8.54880E+00  8.24590E+00  7.87569E+00  7.44761E+00  6.97219E+00  6.46040E+00  5.92330E+00  5.37161E+00  4.81548E+00
   4.26404E+00  3.72530E+00  3.20585E+00  2.71097E+00  2.24457E+00  1.80942E+00  1.40709E+00  1.03817E+00  7.02352E-01  3.98685E-01
   1.25736E-01 -1.18200E-01 -3.35114E-01 -5.27116E-01 -6.96422E-01 -8.45133E-01 -9.75254E-01 -1.08861E+00 -1.18695E+00 -1.27189E+00
  -1.34494E+00 -1.40736E+00 -1.46027E+00 -1.50465E+00 -1.54143E+00 -1.57142E+00 -1.59538E+00 -1.61388E+00 -1.62743E+00 -1.63647E+00
  -1.64147E+00 -1.64281E+00 -1.64087E+00 -1.63586E+00 -1.62803E+00 -1.61759E+00 -1.60481E+00 -1.58989E+00 -1.57301E+00 -1.55425E+00
  -1.53375E+00 -1.51164E+00 -1.48810E+00 -1.46322E+00 -1.43707E+00 -1.40970E+00 -1.38120E+00 -1.35165E+00 -1.32118E+00 -1.28983E+00
  -1.25762E+00 -1.22456E+00 -1.19075E+00 -1.15624E+00 -1.12111E+00 -1.08536E+00 -1.04900E+00 -1.01204E+00 -9.74579E-01 -9.36649E-01
  -8.98304E-01 -8.59508E-01 -8.20281E-01 -7.80639E-01 -7.40668E-01 -7.00384E-01 -6.59806E-01 -6.18891E-01 -5.77669E-01 -5.36164E-01
  -4.94450E-01 -4.52517E-01 -4.10364E-01 -3.67946E-01 -3.25306E-01 -2.82465E-01 -2.39476E-01 -1.96290E-01
 NY background values follow
    -2.880E+01   -2.876E+01   -2.872E+01   -2.868E+01   -2.864E+01   -2.860E+01   -2.856E+01   -2.852E+01   -2.848E+01   -2.844E+01
    -2.840E+01   -2.836E+01   -2.832E+01   -2.828E+01   -2.824E+01   -2.820E+01   -2.816E+01   -2.812E+01   -2.808E+01   -2.805E+01
    -2.801E+01   -2.797E+01   -2.793E+01   -2.789E+01   -2.785E+01   -2.781E+01   -2.777E+01   -2.773E+01   -2.769E+01   -2.765E+01
    -2.761E+01   -2.757E+01   -2.754E+01   -2.750E+01   -2.746E+01   -2.742E+01   -2.738E+01   -2.734E+01   -2.730E+01   -2.726E+01
    -2.722E+01   -2.718E+01   -2.714E+01   -2.710E+01   -2.706E+01   -2.702E+01   -2.698E+01   -2.694E+01   -2.690E+01   -2.687E+01
    -2.683E+01   -2.679E+01   -2.675E+01   -2.671E+01   -2.667E+01   -2.663E+01   -2.659E+01   -2.655E+01   -2.650E+01   -2.646E+01
    -2.642E+01   -2.638E+01   -2.634E+01   -2.630E+01   -2.626E+01   -2.622E+01   -2.618E+01   -2.614E+01   -2.609E+01   -2.605E+01
    -2.601E+01   -2.597E+01   -2.593E+01   -2.588E+01   -2.584E+01   -2.580E+01   -2.576E+01   -2.571E+01   -2.567E+01   -2.563E+01
    -2.558E+01   -2.554E+01   -2.549E+01   -2.545E+01   -2.541E+01   -2.536E+01   -2.532E+01   -2.527E+01   -2.522E+01   -2.518E+01
    -2.513E+01   -2.509E+01   -2.504E+01   -2.499E+01   -2.494E+01   -2.490E+01   -2.485E+01   -2.480E+01   -2.475E+01   -2.470E+01
    -2.465E+01   -2.461E+01   -2.456E+01   -2.451E+01   -2.446E+01   -2.440E+01   -2.435E+01   -2.430E+01   -2.425E+01   -2.420E+01
    -2.415E+01   -2.409E+01   -2.404E+01   -2.399E+01   -2.393E+01   -2.388E+01   -2.382E+01   -2.377E+01   -2.371E+01   -2.366E+01
    -2.360E+01   -2.355E+01   -2.349E+01   -2.343E+01   -2.337E+01   -2.331E+01   -2.326E+01   -2.320E+01   -2.314E+01   -2.308E+01
    -2.302E+01   -2.296E+01   -2.289E+01   -2.283E+01   -2.277E+01   -2.271E+01   -2.264E+01   -2.258E+01   -2.252E+01   -2.245E+01
    -2.239E+01   -2.232E+01   -2.226E+01   -2.219E+01   -2.212E+01   -2.205E+01   -2.199E+01   -2.192E+01   -2.185E+01   -2.178E+01
    -2.171E+01   -2.164E+01   -2.156E+01   -2.149E+01   -2.142E+01   -2.135E+01   -2.127E+01   -2.120E+01   -2.112E+01   -2.105E+01
    -2.097E+01   -2.089E+01   -2.081E+01   -2.073E+01   -2.066E+01   -2.058E+01   -2.049E+01   -2.041E+01   -2.033E+01   -2.025E+01
    -2.017E+01   -2.008E+01   -2.000E+01   -1.991E+01   -1.982E+01   -1.974E+01   -1.965E+01   -1.956E+01   -1.947E+01   -1.938E+01
    -1.929E+01   -1.920E+01   -1.910E+01   -1.901E+01   -1.892E+01   -1.882E+01   -1.873E+01   -1.863E+01   -1.853E+01   -1.844E+01
    -1.834E+01   -1.824E+01   -1.814E+01   -1.804E+01   -1.794E+01   -1.784E+01   -1.774E+01   -1.764E+01   -1.754E+01   -1.744E+01
    -1.734E+01   -1.723E+01   -1.713E+01   -1.703E+01   -1.693E+01   -1.682E+01   -1.672E+01   -1.662E+01   -1.651E+01   -1.641E+01
    -1.631E+01   -1.621E+01   -1.610E+01   -1.600E+01   -1.590E+01   -1.580E+01   -1.569E+01   -1.559E+01   -1.549E+01   -1.539E+01
    -1.529E+01   -1.519E+01   -1.509E+01   -1.499E+01   -1.489E+01   -1.479E+01   -1.469E+01   -1.459E+01   -1.450E+01   -1.440E+01
    -1.430E+01   -1.421E+01   -1.411E+01   -1.402E+01   -1.393E+01   -1.383E+01   -1.374E+01   -1.365E+01   -1.356E+01   -1.346E+01
    -1.337E+01   -1.328E+01   -1.319E+01   -1.311E+01   -1.302E+01   -1.293E+01   -1.284E+01   -1.276E+01   -1.267E+01   -1.258E+01
    -1.250E+01   -1.242E+01   -1.233E+01   -1.225E+01   -1.217E+01   -1.209E+01   -1.201E+01   -1.192E+01   -1.184E+01   -1.177E+01
    -1.169E+01   -1.161E+01   -1.153E+01   -1.146E+01   -1.138E+01   -1.130E+01   -1.123E+01   -1.116E+01   -1.108E+01   -1.101E+01
    -1.094E+01   -1.087E+01   -1.080E+01   -1.073E+01   -1.066E+01   -1.059E+01   -1.052E+01   -1.045E+01   -1.039E+01   -1.032E+01
    -1.025E+01   -1.019E+01   -1.013E+01   -1.006E+01   -9.999E+00   -9.936E+00   -9.874E+00   -9.813E+00   -9.752E+00   -9.692E+00
    -9.633E+00   -9.574E+00   -9.516E+00   -9.458E+00   -9.401E+00   -9.344E+00   -9.288E+00   -9.232E+00   -9.177E+00   -9.123E+00
    -9.069E+00   -9.015E+00   -8.962E+00   -8.910E+00   -8.858E+00   -8.806E+00   -8.755E+00   -8.705E+00   -8.655E+00   -8.606E+00
    -8.557E+00   -8.508E+00   -8.460E+00   -8.412E+00   -8.365E+00   -8.318E+00   -8.272E+00   -8.226E+00   -8.181E+00   -8.136E+00
    -8.091E+00   -8.047E+00   -8.004E+00   -7.960E+00   -7.917E+00   -7.875E+00   -7.833E+00   -7.791E+00   -7.749E+00   -7.708E+00
    -7.668E+00   -7.627E+00   -7.587E+00   -7.547E+00   -7.508E+00   -7.469E+00   -7.430E+00   -7.392E+00   -7.354E+00   -7.316E+00
    -7.278E+00   -7.241E+00   -7.204E+00   -7.167E+00   -7.130E+00   -7.094E+00   -7.058E+00   -7.022E+00   -6.987E+00   -6.951E+00
    -6.916E+00   -6.881E+00   -6.846E+00   -6.812E+00   -6.777E+00   -6.743E+00   -6.709E+00   -6.675E+00   -6.642E+00   -6.608E+00
    -6.575E+00   -6.541E+00   -6.508E+00   -6.475E+00   -6.442E+00   -6.409E+00   -6.377E+00   -6.344E+00   -6.311E+00   -6.279E+00
    -6.246E+00   -6.214E+00   -6.182E+00   -6.149E+00   -6.117E+00   -6.085E+00   -6.052E+00   -6.020E+00   -5.988E+00   -5.955E+00
    -5.923E+00   -5.890E+00   -5.858E+00   -5.825E+00   -5.793E+00   -5.760E+00   -5.727E+00   -5.694E+00   -5.661E+00   -5.628E+00
    -5.595E+00   -5.561E+00   -5.528E+00   -5.494E+00   -5.460E+00   -5.426E+00   -5.392E+00   -5.358E+00   -5.323E+00   -5.288E+00
    -5.253E+00   -5.218E+00   -5.182E+00   -5.147E+00   -5.111E+00   -5.074E+00   -5.038E+00   -5.001E+00   -4.964E+00   -4.926E+00
    -4.888E+00   -4.850E+00   -4.812E+00   -4.774E+00   -4.735E+00   -4.696E+00   -4.656E+00   -4.617E+00   -4.577E+00   -4.537E+00
    -4.496E+00   -4.455E+00   -4.414E+00   -4.373E+00   -4.332E+00   -4.290E+00   -4.248E+00   -4.206E+00   -4.164E+00   -4.121E+00
    -4.078E+00   -4.035E+00   -3.991E+00   -3.948E+00   -3.904E+00   -3.860E+00   -3.816E+00   -3.771E+00   -3.726E+00   -3.681E+00
    -3.636E+00   -3.591E+00   -3.545E+00   -3.500E+00   -3.454E+00   -3.407E+00   -3.361E+00   -3.314E+00   -3.268E+00   -3.221E+00
    -3.174E+00   -3.126E+00   -3.079E+00   -3.031E+00   -2.983E+00   -2.935E+00   -2.887E+00   -2.839E+00   -2.790E+00   -2.741E+00
    -2.693E+00   -2.644E+00   -2.595E+00   -2.545E+00   -2.496E+00   -2.447E+00   -2.397E+00   -2.347E+00   -2.298E+00   -2.248E+00
    -2.198E+00   -2.148E+00   -2.098E+00   -2.048E+00   -1.997E+00   -1.947E+00   -1.897E+00   -1.846E+00   -1.796E+00   -1.746E+00
    -1.695E+00   -1.645E+00   -1.594E+00   -1.543E+00   -1.493E+00   -1.442E+00   -1.392E+00   -1.341E+00   -1.291E+00   -1.240E+00
    -1.190E+00   -1.139E+00   -1.089E+00   -1.038E+00   -9.882E-01   -9.379E-01   -8.877E-01   -8.375E-01
 Ala      Conc. = 1.90E+02
