 LCModel (Version 6.3-1L) Copyright: S.W. Provencher.          Ref.: Magn. Reson. Med. 30:672-679 (1993).                
 Slice#1 Row#7 Col#12  PD_05_press_2_raw_act
 36 lines in following concentration table = NCONC+1
    Conc.  %SD /Cr+PCr  Metabolite                                         
  169.335  60%   0.000 Ala                                                 
   59.503 114%   0.000 Asp                                                 
    0.000 999%   0.000 Cr                                                  
    0.000 999%   0.000 PCr                                                 
   27.580 148%   0.000 GABA                                                
   45.342  90%   0.000 Glc                                                 
  195.906 101%   0.000 Gln                                                 
  584.537  38%   0.000 Glu                                                 
    0.000 999%   0.000 GPC                                                 
    0.000 999%   0.000 PCh                                                 
   67.645  98%   0.000 GSH                                                 
  176.110 110%   0.000 Ins                                                 
    0.000 999%   0.000 Lac                                                 
 1.18E+03  13%   0.000 NAA                                                 
  141.108 114%   0.000 NAAG                                                
   16.441  74%   0.000 Scyllo                                              
   37.684 174%   0.000 Tau                                                 
 5.41E-02 999%   0.000 -CrCH2                                              
    0.000 999%   0.000 GPC+PCh                                             
 1.33E+03   7%   0.000 NAA+NAAG                                            
    0.000 999%   0.000 Cr+PCr                                              
  780.443  39%   0.000 Glu+Gln                                             
  749.151  54%   0.000 Lip13a                                              
    0.000 999%   0.000 Lip13b                                              
  159.063  83%   0.000 Lip09                                               
 1.29E+03  16%   0.000 MM09                                                
  130.521  60%   0.000 Lip20                                               
 2.46E+03  15%   0.000 MM20                                                
  382.383  37%   0.000 MM12                                                
 2.12E+03  17%   0.000 MM14                                                
 1.17E+03  19%   0.000 MM17                                                
  749.151  54%   0.000 Lip13a+Lip13b                                       
 3.26E+03  10%   0.000 MM14+Lip13a+Lip13b+MM12                             
 1.45E+03  11%   0.000 MM09+Lip09                                          
 2.59E+03  13%   0.000 MM20+Lip20                                          
   6 lines in following misc. output table
  FWHM = 0.054 ppm    S/N =   7                                            
  Data shift =-0.015 ppm                                                   
  Ph: -41 deg     -14.6 deg/ppm                                            
  alphaB,S = 8.5E+01,   2.6E+01                                            
   14 spline knots.   Ns = 7(1)                                            
   2 inflections.     1 extrema                                            
  498 points on ppm-axis = NY
      4.000000     3.992357     3.984714     3.977070     3.969427     3.961784     3.954141     3.946497     3.938854     3.931211
      3.923568     3.915925     3.908281     3.900638     3.892995     3.885352     3.877708     3.870065     3.862422     3.854779
      3.847136     3.839492     3.831849     3.824206     3.816563     3.808919     3.801276     3.793633     3.785990     3.778347
      3.770703     3.763060     3.755417     3.747774     3.740130     3.732487     3.724844     3.717201     3.709558     3.701914
      3.694271     3.686628     3.678985     3.671341     3.663698     3.656055     3.648412     3.640769     3.633125     3.625482
      3.617839     3.610196     3.602552     3.594909     3.587266     3.579623     3.571980     3.564336     3.556693     3.549050
      3.541407     3.533763     3.526120     3.518477     3.510834     3.503191     3.495547     3.487904     3.480261     3.472618
      3.464974     3.457331     3.449688     3.442045     3.434402     3.426758     3.419115     3.411472     3.403829     3.396185
      3.388542     3.380899     3.373256     3.365613     3.357969     3.350326     3.342683     3.335040     3.327396     3.319753
      3.312110     3.304467     3.296824     3.289180     3.281537     3.273894     3.266251     3.258607     3.250964     3.243321
      3.235678     3.228034     3.220391     3.212748     3.205105     3.197462     3.189818     3.182175     3.174532     3.166889
      3.159245     3.151602     3.143959     3.136316     3.128673     3.121029     3.113386     3.105743     3.098100     3.090456
      3.082813     3.075170     3.067527     3.059884     3.052240     3.044597     3.036954     3.029311     3.021667     3.014024
      3.006381     2.998738     2.991095     2.983451     2.975808     2.968165     2.960522     2.952878     2.945235     2.937592
      2.929949     2.922306     2.914662     2.907019     2.899376     2.891733     2.884089     2.876446     2.868803     2.861160
      2.853517     2.845873     2.838230     2.830587     2.822944     2.815300     2.807657     2.800014     2.792371     2.784728
      2.777084     2.769441     2.761798     2.754155     2.746511     2.738868     2.731225     2.723582     2.715939     2.708295
      2.700652     2.693009     2.685366     2.677722     2.670079     2.662436     2.654793     2.647150     2.639506     2.631863
      2.624220     2.616577     2.608933     2.601290     2.593647     2.586004     2.578361     2.570717     2.563074     2.555431
      2.547788     2.540144     2.532501     2.524858     2.517215     2.509572     2.501928     2.494285     2.486642     2.478999
      2.471355     2.463712     2.456069     2.448426     2.440783     2.433139     2.425496     2.417853     2.410210     2.402566
      2.394923     2.387280     2.379637     2.371994     2.364350     2.356707     2.349064     2.341421     2.333777     2.326134
      2.318491     2.310848     2.303205     2.295561     2.287918     2.280275     2.272632     2.264988     2.257345     2.249702
      2.242059     2.234416     2.226772     2.219129     2.211486     2.203843     2.196199     2.188556     2.180913     2.173270
      2.165627     2.157983     2.150340     2.142697     2.135054     2.127410     2.119767     2.112124     2.104481     2.096838
      2.089194     2.081551     2.073908     2.066265     2.058621     2.050978     2.043335     2.035692     2.028049     2.020405
      2.012762     2.005119     1.997476     1.989833     1.982190     1.974546     1.966903     1.959260     1.951617     1.943974
      1.936331     1.928688     1.921045     1.913402     1.905759     1.898115     1.890472     1.882829     1.875186     1.867543
      1.859900     1.852257     1.844614     1.836971     1.829327     1.821684     1.814041     1.806398     1.798755     1.791112
      1.783469     1.775826     1.768183     1.760540     1.752896     1.745253     1.737610     1.729967     1.722324     1.714681
      1.707038     1.699395     1.691752     1.684108     1.676465     1.668822     1.661179     1.653536     1.645893     1.638250
      1.630607     1.622964     1.615321     1.607677     1.600034     1.592391     1.584748     1.577105     1.569462     1.561819
      1.554176     1.546533     1.538890     1.531246     1.523603     1.515960     1.508317     1.500674     1.493031     1.485388
      1.477745     1.470102     1.462458     1.454815     1.447172     1.439529     1.431886     1.424243     1.416600     1.408957
      1.401314     1.393671     1.386027     1.378384     1.370741     1.363098     1.355455     1.347812     1.340169     1.332526
      1.324883     1.317240     1.309596     1.301953     1.294310     1.286667     1.279024     1.271381     1.263738     1.256095
      1.248452     1.240808     1.233165     1.225522     1.217879     1.210236     1.202593     1.194950     1.187307     1.179664
      1.172021     1.164377     1.156734     1.149091     1.141448     1.133805     1.126162     1.118519     1.110876     1.103233
      1.095590     1.087946     1.080303     1.072660     1.065017     1.057374     1.049731     1.042088     1.034445     1.026802
      1.019158     1.011515     1.003872     0.996229     0.988586     0.980943     0.973300     0.965657     0.958014     0.950371
      0.942727     0.935084     0.927441     0.919798     0.912155     0.904512     0.896869     0.889226     0.881583     0.873940
      0.866296     0.858653     0.851010     0.843367     0.835724     0.828081     0.820438     0.812795     0.805152     0.797508
      0.789865     0.782222     0.774579     0.766936     0.759293     0.751650     0.744007     0.736364     0.728721     0.721077
      0.713434     0.705791     0.698148     0.690505     0.682862     0.675219     0.667576     0.659933     0.652290     0.644646
      0.637003     0.629360     0.621717     0.614074     0.606431     0.598788     0.591145     0.583502     0.575858     0.568215
      0.560572     0.552929     0.545286     0.537643     0.530000     0.522357     0.514714     0.507071     0.499427     0.491784
      0.484141     0.476498     0.468855     0.461212     0.453569     0.445925     0.438282     0.430639     0.422996     0.415353
      0.407710     0.400067     0.392424     0.384780     0.377137     0.369494     0.361851     0.354208     0.346565     0.338922
      0.331278     0.323635     0.315992     0.308349     0.300706     0.293063     0.285420     0.277777     0.270133     0.262490
      0.254847     0.247204     0.239561     0.231918     0.224275     0.216631     0.208988     0.201345
 NY phased data points follow
  -1.86750E+00 -2.71327E+00  8.96070E+00  7.22509E+00  2.90369E+00  2.12770E+00 -4.88711E+00  4.43644E+00  1.31018E+00  7.78262E-01
  -7.51449E+00 -4.60574E+00  1.80634E+00 -1.56333E+00  1.17750E+00 -3.03500E+00 -1.26546E+01  4.54154E+00  5.13001E-01 -2.42991E+00
   2.59405E-01  5.28417E-02 -3.72326E-01  8.94018E-01  2.93684E+00  2.69364E+00 -2.17348E+00  3.31921E+00  6.26438E+00 -8.28563E-02
   6.03977E-01  3.69723E+00 -1.29318E-01 -3.77456E+00 -6.55303E+00  1.41058E+00 -1.42901E+00 -2.94377E-02  2.64309E+00 -9.38901E+00
  -2.03407E+00  6.74045E+00 -1.17180E+00 -3.65271E-01  3.75048E+00  1.25609E+00  5.01102E+00 -2.41122E+00 -1.37356E+00  4.58952E+00
   3.31519E+00  8.92986E+00  3.91470E+00  1.46845E+00 -1.60259E-01 -3.95863E+00 -4.14440E+00 -1.72978E+00 -2.94654E-01 -2.53095E-01
  -2.65512E+00 -3.14261E+00  8.29572E-01  9.29178E+00  3.72740E+00  1.82164E+00 -8.02321E-01 -2.13846E+00  1.82372E+00  3.78293E+00
  -7.08610E+00  5.41523E+00 -1.89057E+00  8.99977E+00 -3.56338E+00 -3.48819E+00  3.54377E+00 -6.76323E+00  2.62304E+00 -5.93646E+00
  -2.00736E+00  3.60729E-01  4.67953E-01  7.11368E+00  2.05978E+00  1.01260E+00  5.37716E+00 -1.61136E+00 -7.22895E-01 -4.04871E+00
  -1.07184E-01  7.66681E-02  2.49723E+00  4.43573E+00  3.58431E+00 -2.11085E+00  2.63413E+00 -4.22817E+00  6.02232E+00  6.15664E+00
  -1.57903E+00 -2.52182E+00 -3.42623E-01  4.93974E+00 -4.28977E+00 -6.30879E+00 -4.18143E+00 -9.76338E+00 -9.37565E+00 -3.20193E+00
  -7.87481E+00  8.27461E-01 -2.18632E+00  3.58456E+00 -1.44463E+00  1.53770E+00  8.21602E-01  3.59808E+00  4.88911E+00  6.82440E-01
   5.94039E+00 -1.43667E+00 -3.52651E-01  5.46677E+00  2.49028E+00  8.29275E-01 -4.93032E+00  2.18579E+00 -7.60316E-01 -1.46624E+00
  -2.11773E+00 -5.57703E+00 -2.11094E+00  1.02094E+00 -1.13386E+00  1.64362E+00  4.50914E+00  6.02670E+00  2.36380E+00 -6.74454E-01
  -5.56557E-01  3.96131E+00  6.93917E+00  8.50963E+00 -3.29863E-01  6.47155E+00  7.26192E+00  5.31146E+00 -1.94016E+00  1.02946E+00
   9.47370E-01 -7.10799E-01  6.58811E+00  9.56301E-01  4.12362E+00  1.72554E+00  5.50651E+00  5.02790E+00 -2.88981E+00  2.29474E+00
  -6.61902E-01  5.22443E+00  1.82504E+00 -1.58107E+00  1.70583E+00  1.77449E+00 -7.88993E+00 -2.38308E+00  4.35608E+00  3.50066E+00
  -2.70118E+00 -5.32975E-01  6.70156E-01 -1.26797E+00 -4.31926E+00  6.46331E+00  5.60223E+00  2.16574E+00  3.14303E+00 -1.64168E+00
   2.75367E+00 -2.16875E+00 -3.27830E+00 -2.00737E-01  3.39558E+00 -1.01466E-01  4.35018E-01 -8.01539E-01  2.36124E+00  4.87532E+00
   3.31395E+00 -3.69598E-01 -4.05323E-01  6.85184E+00  6.37553E+00 -1.68437E+00 -1.80066E+00 -2.79798E+00 -5.80288E-01 -2.35404E+00
  -5.25999E-01  3.84785E+00  1.81244E+00  6.61857E+00  5.38714E+00 -1.75277E+00  8.14290E-02  1.27111E+00 -4.52714E+00  5.40700E+00
   4.78647E-01 -5.04438E+00  5.71064E+00  1.80849E+00  1.43260E+00  4.85434E+00  1.10341E+01  1.00020E+01  1.01957E+01  6.03538E+00
  -1.68623E+00 -3.43822E+00 -2.70248E+00 -1.02908E+00  6.32762E-01  8.71171E+00  1.25689E+01  3.01479E+00  9.44277E+00  2.24544E+00
  -1.53159E-01  5.40266E+00  4.84831E+00  8.80422E+00  2.09694E+00  9.95157E+00  8.57293E+00  6.42371E+00  8.99348E+00  3.68985E+00
   1.23047E+01  5.24194E+00  5.34156E+00  8.62348E+00  8.45270E+00  7.17320E+00  8.56524E+00  1.20685E+01  1.00422E+01  1.77382E+01
   1.65885E+01  1.39339E+01  1.37058E+01  1.51861E+01  1.84535E+01  2.33511E+01  3.40353E+01  4.22607E+01  5.31698E+01  5.17736E+01
   5.54883E+01  5.04621E+01  4.42341E+01  3.53811E+01  3.18170E+01  6.89993E+00  8.68865E+00  7.28450E+00  1.55007E+01  1.16780E+01
   1.10002E+01  1.97459E+00  1.45542E+01  1.36526E-01  2.95632E+00  3.95621E+00  3.23472E+00  9.85157E+00  8.48180E+00  4.50533E+00
   3.12354E+00  5.36555E+00  2.49671E+00  5.18912E+00  6.21564E-01  3.77100E+00 -1.84280E+00  1.00179E+00  1.77898E+00 -7.53511E+00
   4.39754E+00  4.45693E+00  5.15144E+00  3.58937E+00 -8.33123E-01  2.96639E+00  5.02512E+00  5.32622E+00  8.80591E+00  6.21684E+00
   1.10606E+01  9.57583E+00  6.27072E+00  6.09883E+00  1.61807E+01  9.62164E+00  1.29975E+01  1.28336E+01  1.11655E+01  1.55642E+01
   7.36968E+00  1.78890E+01  2.07223E+01  1.57390E+01  1.27649E+01  1.26079E+01  1.57684E+01  1.23492E+01  7.81104E+00  1.08077E+01
   1.12759E+01  1.06634E+01  1.34280E+01  8.24839E+00  8.62819E+00  1.42316E+01  1.59758E+01  1.10466E+01  1.17741E+01  1.17089E+01
   9.42793E+00  1.03711E+01  1.17732E+01  1.92760E+01  1.26058E+01  1.54606E+01  1.51140E+01  2.25355E+01  1.96034E+01  1.96597E+01
   1.80642E+01  1.69367E+01  1.54692E+01  1.31685E+01  1.33991E+01  1.00347E+01  1.00256E+01  1.30879E+01  8.68738E+00  1.10561E+01
   1.73022E+01  9.18860E+00  1.03989E+01  8.27096E+00  1.33479E+01  4.75477E+00  6.39603E+00  9.39581E+00  3.63491E+00  7.98171E+00
   9.05969E+00  9.84957E+00  1.29502E+01  1.16069E+01  8.84565E+00  1.21078E+01  1.00371E+01  7.13955E+00  8.06372E+00  4.00075E+00
   1.01656E+01  1.44807E+01 -1.97460E-01 -5.45853E-02  1.33052E+00  5.81187E+00  6.16720E+00  2.37254E+00 -4.42589E+00  4.95449E+00
  -8.25010E-02  2.44455E+00  9.75558E+00  6.68222E+00 -3.26313E+00  5.72194E+00 -3.17898E+00  6.46166E+00 -1.62605E+00 -9.25744E-01
   1.95618E+00  1.28592E+01  3.47627E+00  1.01151E+01  2.48734E+00  1.10879E+01  7.97684E+00  7.37005E+00  9.60803E+00  5.91885E+00
   1.13036E+01  1.27769E+01  1.40482E+01  1.17875E+01  1.07786E+01  1.04165E+01  5.44290E+00  1.76284E+01  1.21872E+01  1.38700E+01
   1.31560E+01  1.26321E+01  1.41781E+01  7.75758E+00  1.10028E+01  1.93589E+01  6.45453E+00  6.17386E+00  1.06913E+01  6.02826E+00
   9.05548E+00  5.65101E+00  9.30708E-01  2.51878E+00  6.78310E+00  4.12774E+00  6.08316E+00  7.40905E+00  1.47473E+00  4.09263E-01
  -3.80091E-01  5.15976E+00  7.69146E+00  8.24247E+00 -2.95537E-01  3.66089E+00  4.23600E+00  7.86436E+00  4.44295E+00  6.35673E-01
  -1.16256E+00  7.33196E+00  3.72418E+00  6.21518E-01  4.26193E-01  6.92554E+00  4.38094E+00  1.65748E+00  2.13923E+00  8.12191E-01
   4.52249E+00 -2.18958E+00  8.21138E-01  3.07269E+00  2.89528E+00  6.06450E-01  6.80131E+00  3.20996E-01  5.72970E-01  4.70394E-01
   6.24644E-01  5.24544E+00  3.50714E+00  2.77869E+00  4.87667E+00  6.91418E+00  3.37477E+00  2.00486E-01  4.32175E+00  2.41489E+00
   4.20978E+00  3.81071E+00  2.19304E+00 -1.56775E+00  2.86964E+00  2.96497E+00  2.68933E+00  4.06741E+00  4.00186E+00  2.16715E-01
   7.31566E-01  5.02814E+00  5.17705E+00  2.22443E+00 -1.63512E+00 -2.29345E+00  1.78333E+00  5.53798E-01  2.04865E+00 -4.83486E-03
   6.39790E+00  9.19489E+00 -9.98446E-01  1.19652E+00  1.16531E+00 -1.12134E+00  2.26754E+00 -2.34782E-01
 NY points of the fit to the data follow
  -1.88989E-01 -2.65989E-01 -2.91574E-01 -2.83495E-01 -3.06394E-01 -3.51923E-01 -3.91119E-01 -4.15191E-01 -4.27380E-01 -4.34732E-01
  -4.35049E-01 -4.10823E-01 -3.66239E-01 -3.41619E-01 -3.68755E-01 -4.22082E-01 -4.33630E-01 -3.56920E-01 -1.84457E-01  7.55833E-02
   3.92882E-01  7.33252E-01  9.79626E-01  9.69457E-01  7.31576E-01  4.33044E-01  2.47810E-01  2.79445E-01  5.60561E-01  1.10483E+00
   1.84168E+00  2.55932E+00  3.01152E+00  2.91951E+00  2.24414E+00  1.30594E+00  4.81528E-01 -1.91764E-01 -7.13901E-01 -8.29727E-01
  -5.42274E-01 -9.84564E-02  3.45610E-01  7.60766E-01  1.12444E+00  1.33779E+00  1.41726E+00  1.40993E+00  1.28844E+00  1.04650E+00
   7.10309E-01  3.04677E-01 -9.26113E-02 -3.23096E-01 -2.92097E-01 -1.03450E-01  9.14120E-02  2.58282E-01  4.00000E-01  4.90464E-01
   5.07455E-01  4.68059E-01  3.97515E-01  2.95853E-01  1.70234E-01  7.25271E-02  5.99753E-02  1.28225E-01  2.37639E-01  3.59587E-01
   4.68849E-01  5.68631E-01  6.56996E-01  7.14020E-01  7.26822E-01  6.93076E-01  6.11849E-01  5.05180E-01  4.19721E-01  3.58876E-01
   3.50684E-01  4.79150E-01  7.22628E-01  9.44200E-01  1.03442E+00  9.99024E-01  8.82401E-01  7.12443E-01  5.10558E-01  2.78288E-01
   2.50339E-02 -1.17579E-01 -5.10385E-02  1.14649E-01  1.90594E-01  1.90796E-01  1.82574E-01  1.74572E-01  1.63665E-01  1.39095E-01
   9.79893E-02  6.50564E-02  6.51415E-02  1.01021E-01  1.71296E-01  2.63638E-01  3.58267E-01  4.48797E-01  5.47626E-01  6.32513E-01
   6.97564E-01  7.66125E-01  8.44965E-01  9.28545E-01  1.01152E+00  1.08692E+00  1.14821E+00  1.20688E+00  1.26781E+00  1.33334E+00
   1.40797E+00  1.49840E+00  1.60641E+00  1.72976E+00  1.86544E+00  1.99991E+00  2.12329E+00  2.24847E+00  2.38719E+00  2.50945E+00
   2.57884E+00  2.57096E+00  2.47346E+00  2.31160E+00  2.12593E+00  1.95525E+00  1.83935E+00  1.78542E+00  1.79659E+00  1.88936E+00
   2.02303E+00  2.11665E+00  2.13051E+00  2.07047E+00  1.94051E+00  1.78467E+00  1.64930E+00  1.53794E+00  1.43126E+00  1.30591E+00
   1.16360E+00  1.04530E+00  9.70788E-01  9.42493E-01  9.39202E-01  8.92578E-01  7.22178E-01  4.22139E-01  9.22836E-02 -1.15541E-01
  -1.62323E-01 -1.16853E-01 -4.23677E-02  1.55979E-02  8.06449E-02  1.70759E-01  1.29360E-01 -1.71590E-01 -6.21393E-01 -1.01174E+00
  -1.26617E+00 -1.44046E+00 -1.62895E+00 -1.84054E+00 -1.89385E+00 -1.81887E+00 -1.78674E+00 -1.78934E+00 -1.72066E+00 -1.51779E+00
  -1.22868E+00 -1.08388E+00 -1.24424E+00 -1.44246E+00 -1.27906E+00 -7.01236E-01 -3.18884E-02  5.24716E-01  9.73727E-01  1.44680E+00
   1.92163E+00  2.30290E+00  2.41662E+00  2.18303E+00  1.82185E+00  1.58272E+00  1.47687E+00  1.49068E+00  1.70090E+00  2.08473E+00
   2.57439E+00  3.09831E+00  3.57378E+00  3.84249E+00  3.67351E+00  2.98565E+00  2.01404E+00  9.02538E-01 -1.71435E-01 -8.98178E-01
  -9.43171E-01 -1.30667E-01  1.29030E+00  2.90751E+00  4.31360E+00  5.15150E+00  5.25099E+00  4.61214E+00  3.35269E+00  1.62614E+00
  -7.32611E-03 -7.76168E-01 -4.43275E-01  6.23086E-01  1.92133E+00  3.28371E+00  4.67512E+00  5.74412E+00  6.14639E+00  5.93406E+00
   5.62404E+00  5.55807E+00  5.65468E+00  5.84879E+00  6.23380E+00  6.75428E+00  7.27109E+00  7.60213E+00  7.68318E+00  7.66720E+00
   7.70791E+00  7.81072E+00  7.98323E+00  8.30820E+00  8.83224E+00  9.43315E+00  1.00168E+01  1.05562E+01  1.09535E+01  1.12141E+01
   1.17265E+01  1.28753E+01  1.44437E+01  1.60206E+01  1.84761E+01  2.40530E+01  3.29802E+01  4.28867E+01  5.04778E+01  5.39551E+01
   5.38207E+01  5.08017E+01  4.51383E+01  3.65553E+01  2.47541E+01  1.33611E+01  8.07799E+00  8.47388E+00  8.80270E+00  7.31519E+00
   6.58077E+00  6.23581E+00  5.95558E+00  5.70845E+00  5.50987E+00  5.28903E+00  5.02971E+00  4.73337E+00  4.40852E+00  4.09030E+00
   3.83265E+00  3.64504E+00  3.49712E+00  3.37085E+00  3.26855E+00  3.19556E+00  3.14287E+00  3.10528E+00  3.09947E+00  3.14939E+00
   3.25424E+00  3.41295E+00  3.63385E+00  3.92064E+00  4.26865E+00  4.67845E+00  5.14998E+00  5.68704E+00  6.29443E+00  6.96706E+00
   7.68716E+00  8.43775E+00  9.20108E+00  9.95491E+00  1.06720E+01  1.13266E+01  1.19001E+01  1.23789E+01  1.27483E+01  1.30006E+01
   1.31351E+01  1.31560E+01  1.30736E+01  1.29047E+01  1.26707E+01  1.23969E+01  1.21114E+01  1.18434E+01  1.16226E+01  1.14799E+01
   1.14577E+01  1.16518E+01  1.20760E+01  1.25499E+01  1.28432E+01  1.28293E+01  1.25709E+01  1.21789E+01  1.16532E+01  1.10688E+01
   1.06865E+01  1.07880E+01  1.16281E+01  1.30651E+01  1.44968E+01  1.55214E+01  1.62583E+01  1.67821E+01  1.69400E+01  1.65907E+01
   1.58189E+01  1.50785E+01  1.46425E+01  1.42826E+01  1.38064E+01  1.33306E+01  1.28677E+01  1.24161E+01  1.19791E+01  1.15609E+01
   1.11645E+01  1.07918E+01  1.04432E+01  1.01179E+01  9.81438E+00  9.53016E+00  9.26223E+00  9.00716E+00  8.76153E+00  8.52225E+00
   8.28677E+00  8.05303E+00  7.81946E+00  7.58505E+00  7.34946E+00  7.11308E+00  6.87688E+00  6.64222E+00  6.41061E+00  6.18382E+00
   5.96382E+00  5.75281E+00  5.55300E+00  5.36641E+00  5.19490E+00  5.04027E+00  4.90433E+00  4.78889E+00  4.69566E+00  4.62619E+00
   4.58200E+00  4.56472E+00  4.57620E+00  4.61839E+00  4.69327E+00  4.80279E+00  4.94892E+00  5.13372E+00  5.35916E+00  5.62684E+00
   5.93775E+00  6.29209E+00  6.68916E+00  7.12717E+00  7.60295E+00  8.11166E+00  8.64667E+00  9.19955E+00  9.76032E+00  1.03176E+01
   1.08587E+01  1.13704E+01  1.18387E+01  1.22503E+01  1.25930E+01  1.28561E+01  1.30311E+01  1.31119E+01  1.30955E+01  1.29820E+01
   1.27748E+01  1.24799E+01  1.21062E+01  1.16644E+01  1.11667E+01  1.06263E+01  1.00567E+01  9.47101E+00  8.88151E+00  8.29904E+00
   7.73301E+00  7.19116E+00  6.67947E+00  6.20210E+00  5.76149E+00  5.35869E+00  4.99358E+00  4.66517E+00  4.37169E+00  4.11078E+00
   3.87972E+00  3.67568E+00  3.49593E+00  3.33784E+00  3.19885E+00  3.07656E+00  2.96876E+00  2.87356E+00  2.78935E+00  2.71474E+00
   2.64844E+00  2.58929E+00  2.53631E+00  2.48875E+00  2.44600E+00  2.40751E+00  2.37272E+00  2.34113E+00  2.31237E+00  2.28619E+00
   2.26237E+00  2.24068E+00  2.22083E+00  2.20260E+00  2.18586E+00  2.17053E+00  2.15653E+00  2.14371E+00  2.13189E+00  2.12098E+00
   2.11095E+00  2.10179E+00  2.09345E+00  2.08580E+00  2.07874E+00  2.07223E+00  2.06631E+00  2.06097E+00  2.05615E+00  2.05175E+00
   2.04771E+00  2.04405E+00  2.04082E+00  2.03799E+00  2.03550E+00  2.03327E+00  2.03128E+00  2.02958E+00  2.02820E+00  2.02711E+00
   2.02622E+00  2.02550E+00  2.02495E+00  2.02465E+00  2.02460E+00  2.02475E+00  2.02502E+00  2.02540E+00  2.02593E+00  2.02668E+00
   2.02763E+00  2.02870E+00  2.02984E+00  2.03107E+00  2.03247E+00  2.03405E+00  2.03578E+00  2.03759E+00
 NY background values follow
    -6.906E-01   -6.856E-01   -6.805E-01   -6.754E-01   -6.703E-01   -6.652E-01   -6.601E-01   -6.550E-01   -6.499E-01   -6.448E-01
    -6.398E-01   -6.347E-01   -6.296E-01   -6.245E-01   -6.194E-01   -6.143E-01   -6.092E-01   -6.041E-01   -5.990E-01   -5.940E-01
    -5.889E-01   -5.838E-01   -5.787E-01   -5.736E-01   -5.685E-01   -5.634E-01   -5.583E-01   -5.532E-01   -5.481E-01   -5.431E-01
    -5.380E-01   -5.329E-01   -5.278E-01   -5.227E-01   -5.176E-01   -5.125E-01   -5.074E-01   -5.023E-01   -4.973E-01   -4.922E-01
    -4.871E-01   -4.820E-01   -4.769E-01   -4.718E-01   -4.667E-01   -4.616E-01   -4.565E-01   -4.515E-01   -4.464E-01   -4.413E-01
    -4.362E-01   -4.311E-01   -4.260E-01   -4.209E-01   -4.158E-01   -4.107E-01   -4.057E-01   -4.006E-01   -3.955E-01   -3.904E-01
    -3.853E-01   -3.802E-01   -3.751E-01   -3.700E-01   -3.649E-01   -3.598E-01   -3.548E-01   -3.497E-01   -3.446E-01   -3.395E-01
    -3.344E-01   -3.293E-01   -3.242E-01   -3.191E-01   -3.140E-01   -3.090E-01   -3.039E-01   -2.988E-01   -2.937E-01   -2.886E-01
    -2.835E-01   -2.784E-01   -2.733E-01   -2.682E-01   -2.632E-01   -2.581E-01   -2.530E-01   -2.479E-01   -2.428E-01   -2.377E-01
    -2.326E-01   -2.275E-01   -2.224E-01   -2.173E-01   -2.123E-01   -2.072E-01   -2.021E-01   -1.970E-01   -1.919E-01   -1.868E-01
    -1.817E-01   -1.766E-01   -1.715E-01   -1.665E-01   -1.614E-01   -1.563E-01   -1.512E-01   -1.461E-01   -1.410E-01   -1.359E-01
    -1.308E-01   -1.257E-01   -1.207E-01   -1.156E-01   -1.105E-01   -1.054E-01   -1.003E-01   -9.521E-02   -9.012E-02   -8.503E-02
    -7.994E-02   -7.485E-02   -6.976E-02   -6.467E-02   -5.958E-02   -5.449E-02   -4.940E-02   -4.431E-02   -3.922E-02   -3.413E-02
    -2.905E-02   -2.396E-02   -1.887E-02   -1.378E-02   -8.689E-03   -3.599E-03    1.490E-03    6.579E-03    1.167E-02    1.676E-02
     2.185E-02    2.694E-02    3.202E-02    3.711E-02    4.220E-02    4.729E-02    5.238E-02    5.747E-02    6.256E-02    6.765E-02
     7.274E-02    7.783E-02    8.292E-02    8.800E-02    9.309E-02    9.818E-02    1.033E-01    1.084E-01    1.134E-01    1.185E-01
     1.236E-01    1.287E-01    1.338E-01    1.389E-01    1.440E-01    1.491E-01    1.542E-01    1.593E-01    1.643E-01    1.694E-01
     1.745E-01    1.796E-01    1.847E-01    1.898E-01    1.949E-01    2.000E-01    2.051E-01    2.101E-01    2.152E-01    2.203E-01
     2.254E-01    2.305E-01    2.356E-01    2.407E-01    2.458E-01    2.508E-01    2.559E-01    2.610E-01    2.661E-01    2.712E-01
     2.763E-01    2.814E-01    2.865E-01    2.916E-01    2.966E-01    3.017E-01    3.068E-01    3.119E-01    3.170E-01    3.221E-01
     3.272E-01    3.323E-01    3.374E-01    3.424E-01    3.475E-01    3.526E-01    3.577E-01    3.628E-01    3.679E-01    3.730E-01
     3.781E-01    3.832E-01    3.882E-01    3.933E-01    3.984E-01    4.035E-01    4.086E-01    4.137E-01    4.188E-01    4.239E-01
     4.289E-01    4.340E-01    4.391E-01    4.442E-01    4.493E-01    4.544E-01    4.595E-01    4.646E-01    4.697E-01    4.747E-01
     4.798E-01    4.849E-01    4.900E-01    4.951E-01    5.002E-01    5.053E-01    5.104E-01    5.154E-01    5.205E-01    5.256E-01
     5.307E-01    5.358E-01    5.409E-01    5.460E-01    5.511E-01    5.562E-01    5.612E-01    5.663E-01    5.714E-01    5.765E-01
     5.816E-01    5.867E-01    5.918E-01    5.969E-01    6.019E-01    6.070E-01    6.121E-01    6.172E-01    6.223E-01    6.274E-01
     6.325E-01    6.376E-01    6.426E-01    6.477E-01    6.528E-01    6.579E-01    6.630E-01    6.681E-01    6.732E-01    6.783E-01
     6.833E-01    6.884E-01    6.935E-01    6.986E-01    7.037E-01    7.088E-01    7.139E-01    7.190E-01    7.240E-01    7.291E-01
     7.342E-01    7.393E-01    7.444E-01    7.495E-01    7.546E-01    7.597E-01    7.647E-01    7.698E-01    7.749E-01    7.800E-01
     7.851E-01    7.902E-01    7.953E-01    8.004E-01    8.054E-01    8.105E-01    8.156E-01    8.207E-01    8.258E-01    8.309E-01
     8.360E-01    8.411E-01    8.461E-01    8.512E-01    8.563E-01    8.614E-01    8.665E-01    8.716E-01    8.767E-01    8.818E-01
     8.868E-01    8.919E-01    8.970E-01    9.021E-01    9.072E-01    9.123E-01    9.174E-01    9.225E-01    9.275E-01    9.326E-01
     9.377E-01    9.428E-01    9.479E-01    9.530E-01    9.581E-01    9.632E-01    9.682E-01    9.733E-01    9.784E-01    9.835E-01
     9.886E-01    9.937E-01    9.988E-01    1.004E+00    1.009E+00    1.014E+00    1.019E+00    1.024E+00    1.029E+00    1.034E+00
     1.039E+00    1.045E+00    1.050E+00    1.055E+00    1.060E+00    1.065E+00    1.070E+00    1.075E+00    1.080E+00    1.085E+00
     1.090E+00    1.095E+00    1.101E+00    1.106E+00    1.111E+00    1.116E+00    1.121E+00    1.126E+00    1.131E+00    1.136E+00
     1.141E+00    1.146E+00    1.151E+00    1.156E+00    1.162E+00    1.167E+00    1.172E+00    1.177E+00    1.182E+00    1.187E+00
     1.192E+00    1.197E+00    1.202E+00    1.207E+00    1.212E+00    1.218E+00    1.223E+00    1.228E+00    1.233E+00    1.238E+00
     1.243E+00    1.248E+00    1.253E+00    1.258E+00    1.263E+00    1.268E+00    1.273E+00    1.279E+00    1.284E+00    1.289E+00
     1.294E+00    1.299E+00    1.304E+00    1.309E+00    1.314E+00    1.319E+00    1.324E+00    1.329E+00    1.335E+00    1.340E+00
     1.345E+00    1.350E+00    1.355E+00    1.360E+00    1.365E+00    1.370E+00    1.375E+00    1.380E+00    1.385E+00    1.390E+00
     1.396E+00    1.401E+00    1.406E+00    1.411E+00    1.416E+00    1.421E+00    1.426E+00    1.431E+00    1.436E+00    1.441E+00
     1.446E+00    1.452E+00    1.457E+00    1.462E+00    1.467E+00    1.472E+00    1.477E+00    1.482E+00    1.487E+00    1.492E+00
     1.497E+00    1.502E+00    1.507E+00    1.513E+00    1.518E+00    1.523E+00    1.528E+00    1.533E+00    1.538E+00    1.543E+00
     1.548E+00    1.553E+00    1.558E+00    1.563E+00    1.569E+00    1.574E+00    1.579E+00    1.584E+00    1.589E+00    1.594E+00
     1.599E+00    1.604E+00    1.609E+00    1.614E+00    1.619E+00    1.624E+00    1.630E+00    1.635E+00    1.640E+00    1.645E+00
     1.650E+00    1.655E+00    1.660E+00    1.665E+00    1.670E+00    1.675E+00    1.680E+00    1.686E+00    1.691E+00    1.696E+00
     1.701E+00    1.706E+00    1.711E+00    1.716E+00    1.721E+00    1.726E+00    1.731E+00    1.736E+00    1.742E+00    1.747E+00
     1.752E+00    1.757E+00    1.762E+00    1.767E+00    1.772E+00    1.777E+00    1.782E+00    1.787E+00    1.792E+00    1.797E+00
     1.803E+00    1.808E+00    1.813E+00    1.818E+00    1.823E+00    1.828E+00    1.833E+00    1.838E+00
 Ala      Conc. = 1.69E+02
