 LCModel (Version 6.3-1L) Copyright: S.W. Provencher.          Ref.: Magn. Reson. Med. 30:672-679 (1993).                
 Slice#2 Row#9 Col#7  PD_05_press_2_raw_act
 36 lines in following concentration table = NCONC+1
    Conc.  %SD /Cr+PCr  Metabolite                                         
  209.758 121% 6.2E-02 Ala                                                 
    0.000 999%   0.000 Asp                                                 
 1.15E+03  40%   0.341 Cr                                                  
 2.22E+03  21%   0.659 PCr                                                 
    0.000 999%   0.000 GABA                                                
    0.000 999%   0.000 Glc                                                 
 2.78E+03  18%   0.826 Gln                                                 
 3.57E+03  16%   1.062 Glu                                                 
  704.335   6%   0.210 GPC                                                 
    0.000 999%   0.000 PCh                                                 
 1.26E+03  12%   0.375 GSH                                                 
 1.76E+03  29%   0.524 Ins                                                 
  189.341 142% 5.6E-02 Lac                                                 
 5.34E+03   3%   1.588 NAA                                                 
    0.000 999%   0.000 NAAG                                                
   91.032  56% 2.7E-02 Scyllo                                              
    0.000 999%   0.000 Tau                                                 
    0.000 999%   0.000 -CrCH2                                              
  704.335   6%   0.210 GPC+PCh                                             
 5.34E+03   3%   1.588 NAA+NAAG                                            
 3.36E+03   3%   1.000 Cr+PCr                                              
 6.35E+03  13%   1.888 Glu+Gln                                             
 2.97E+03  30%   0.884 Lip13a                                              
    0.000 999%   0.000 Lip13b                                              
    0.000 999%   0.000 Lip09                                               
 3.47E+03  13%   1.033 MM09                                                
  508.531  68%   0.151 Lip20                                               
 9.29E+03   9%   2.764 MM20                                                
 1.37E+03  26%   0.407 MM12                                                
 6.71E+03  14%   1.996 MM14                                                
 3.25E+03  22%   0.965 MM17                                                
 2.97E+03  30%   0.884 Lip13a+Lip13b                                       
 1.10E+04   9%   3.286 MM14+Lip13a+Lip13b+MM12                             
 3.47E+03  13%   1.033 MM09+Lip09                                          
 9.80E+03   9%   2.915 MM20+Lip20                                          
   6 lines in following misc. output table
  FWHM = 0.054 ppm    S/N =  15                                            
  Data shift = 0.000 ppm                                                   
  Ph: -15 deg       0.2 deg/ppm                                            
  alphaB,S = 1.1E+00,   1.8E+02                                            
   14 spline knots.   Ns = 8(1)                                            
  (12) 4 infls.   ( 9) 1 extrs.                                            
  498 points on ppm-axis = NY
      4.000000     3.992357     3.984714     3.977070     3.969427     3.961784     3.954141     3.946497     3.938854     3.931211
      3.923568     3.915925     3.908281     3.900638     3.892995     3.885352     3.877708     3.870065     3.862422     3.854779
      3.847136     3.839492     3.831849     3.824206     3.816563     3.808919     3.801276     3.793633     3.785990     3.778347
      3.770703     3.763060     3.755417     3.747774     3.740130     3.732487     3.724844     3.717201     3.709558     3.701914
      3.694271     3.686628     3.678985     3.671341     3.663698     3.656055     3.648412     3.640769     3.633125     3.625482
      3.617839     3.610196     3.602552     3.594909     3.587266     3.579623     3.571980     3.564336     3.556693     3.549050
      3.541407     3.533763     3.526120     3.518477     3.510834     3.503191     3.495547     3.487904     3.480261     3.472618
      3.464974     3.457331     3.449688     3.442045     3.434402     3.426758     3.419115     3.411472     3.403829     3.396185
      3.388542     3.380899     3.373256     3.365613     3.357969     3.350326     3.342683     3.335040     3.327396     3.319753
      3.312110     3.304467     3.296824     3.289180     3.281537     3.273894     3.266251     3.258607     3.250964     3.243321
      3.235678     3.228034     3.220391     3.212748     3.205105     3.197462     3.189818     3.182175     3.174532     3.166889
      3.159245     3.151602     3.143959     3.136316     3.128673     3.121029     3.113386     3.105743     3.098100     3.090456
      3.082813     3.075170     3.067527     3.059884     3.052240     3.044597     3.036954     3.029311     3.021667     3.014024
      3.006381     2.998738     2.991095     2.983451     2.975808     2.968165     2.960522     2.952878     2.945235     2.937592
      2.929949     2.922306     2.914662     2.907019     2.899376     2.891733     2.884089     2.876446     2.868803     2.861160
      2.853517     2.845873     2.838230     2.830587     2.822944     2.815300     2.807657     2.800014     2.792371     2.784728
      2.777084     2.769441     2.761798     2.754155     2.746511     2.738868     2.731225     2.723582     2.715939     2.708295
      2.700652     2.693009     2.685366     2.677722     2.670079     2.662436     2.654793     2.647150     2.639506     2.631863
      2.624220     2.616577     2.608933     2.601290     2.593647     2.586004     2.578361     2.570717     2.563074     2.555431
      2.547788     2.540144     2.532501     2.524858     2.517215     2.509572     2.501928     2.494285     2.486642     2.478999
      2.471355     2.463712     2.456069     2.448426     2.440783     2.433139     2.425496     2.417853     2.410210     2.402566
      2.394923     2.387280     2.379637     2.371994     2.364350     2.356707     2.349064     2.341421     2.333777     2.326134
      2.318491     2.310848     2.303205     2.295561     2.287918     2.280275     2.272632     2.264988     2.257345     2.249702
      2.242059     2.234416     2.226772     2.219129     2.211486     2.203843     2.196199     2.188556     2.180913     2.173270
      2.165627     2.157983     2.150340     2.142697     2.135054     2.127410     2.119767     2.112124     2.104481     2.096838
      2.089194     2.081551     2.073908     2.066265     2.058621     2.050978     2.043335     2.035692     2.028049     2.020405
      2.012762     2.005119     1.997476     1.989833     1.982190     1.974546     1.966903     1.959260     1.951617     1.943974
      1.936331     1.928688     1.921045     1.913402     1.905759     1.898115     1.890472     1.882829     1.875186     1.867543
      1.859900     1.852257     1.844614     1.836971     1.829327     1.821684     1.814041     1.806398     1.798755     1.791112
      1.783469     1.775826     1.768183     1.760540     1.752896     1.745253     1.737610     1.729967     1.722324     1.714681
      1.707038     1.699395     1.691752     1.684108     1.676465     1.668822     1.661179     1.653536     1.645893     1.638250
      1.630607     1.622964     1.615321     1.607677     1.600034     1.592391     1.584748     1.577105     1.569462     1.561819
      1.554176     1.546533     1.538890     1.531246     1.523603     1.515960     1.508317     1.500674     1.493031     1.485388
      1.477745     1.470102     1.462458     1.454815     1.447172     1.439529     1.431886     1.424243     1.416600     1.408957
      1.401314     1.393671     1.386027     1.378384     1.370741     1.363098     1.355455     1.347812     1.340169     1.332526
      1.324883     1.317240     1.309596     1.301953     1.294310     1.286667     1.279024     1.271381     1.263738     1.256095
      1.248452     1.240808     1.233165     1.225522     1.217879     1.210236     1.202593     1.194950     1.187307     1.179664
      1.172021     1.164377     1.156734     1.149091     1.141448     1.133805     1.126162     1.118519     1.110876     1.103233
      1.095590     1.087946     1.080303     1.072660     1.065017     1.057374     1.049731     1.042088     1.034445     1.026802
      1.019158     1.011515     1.003872     0.996229     0.988586     0.980943     0.973300     0.965657     0.958014     0.950371
      0.942727     0.935084     0.927441     0.919798     0.912155     0.904512     0.896869     0.889226     0.881583     0.873940
      0.866296     0.858653     0.851010     0.843367     0.835724     0.828081     0.820438     0.812795     0.805152     0.797508
      0.789865     0.782222     0.774579     0.766936     0.759293     0.751650     0.744007     0.736364     0.728721     0.721077
      0.713434     0.705791     0.698148     0.690505     0.682862     0.675219     0.667576     0.659933     0.652290     0.644646
      0.637003     0.629360     0.621717     0.614074     0.606431     0.598788     0.591145     0.583502     0.575858     0.568215
      0.560572     0.552929     0.545286     0.537643     0.530000     0.522357     0.514714     0.507071     0.499427     0.491784
      0.484141     0.476498     0.468855     0.461212     0.453569     0.445925     0.438282     0.430639     0.422996     0.415353
      0.407710     0.400067     0.392424     0.384780     0.377137     0.369494     0.361851     0.354208     0.346565     0.338922
      0.331278     0.323635     0.315992     0.308349     0.300706     0.293063     0.285420     0.277777     0.270133     0.262490
      0.254847     0.247204     0.239561     0.231918     0.224275     0.216631     0.208988     0.201345
 NY phased data points follow
   3.96393E+01  4.42829E+01  4.44156E+01  5.50174E+01  5.35372E+01  6.51936E+01  7.06722E+01  8.20186E+01  1.10536E+02  1.08543E+02
   1.13489E+02  1.06126E+02  8.97198E+01  9.39400E+01  9.23171E+01  6.36122E+01  6.84388E+01  6.72537E+01  5.75921E+01  5.44764E+01
   4.77482E+01  5.50896E+01  5.37766E+01  5.36551E+01  5.69137E+01  5.26966E+01  5.11689E+01  5.35560E+01  6.30399E+01  6.33131E+01
   5.90808E+01  6.43215E+01  6.11908E+01  5.64720E+01  4.83780E+01  5.02426E+01  5.42460E+01  4.27997E+01  4.85091E+01  3.87378E+01
   4.16042E+01  4.41174E+01  5.09188E+01  4.01524E+01  3.89847E+01  4.94989E+01  5.63382E+01  5.50603E+01  4.78059E+01  4.98245E+01
   3.60232E+01  3.13503E+01  3.75953E+01  4.00545E+01  3.00838E+01  3.18517E+01  3.87855E+01  4.66945E+01  3.39301E+01  3.23786E+01
   3.43622E+01  2.91917E+01  2.54452E+01  2.84606E+01  2.35580E+01  2.66256E+01  2.21274E+01  2.44135E+01  1.17123E+01  2.04257E+01
   1.39654E+01  2.34940E+01  2.55783E+01  2.16838E+01  1.24956E+01  2.16917E+01  2.18971E+01  1.55551E+01  1.77938E+01  1.56565E+01
   1.76857E+01  1.59114E+01  1.61321E+01  2.31587E+01  2.66082E+01  2.10873E+01  1.29348E+01  2.09917E+01  2.35160E+01  1.95390E+01
   2.45720E+01  1.93435E+01  2.69966E+01  2.33990E+01  2.25555E+01  1.88562E+01  3.13726E+01  2.49371E+01  3.48567E+01  3.66805E+01
   4.24698E+01  5.87489E+01  7.73126E+01  7.91916E+01  6.84809E+01  6.39021E+01  5.88867E+01  4.44175E+01  4.16473E+01  3.89605E+01
   3.84242E+01  2.81008E+01  2.59420E+01  2.06405E+01  2.33815E+01  2.06568E+01  2.25273E+01  3.27883E+01  2.03688E+01  1.55452E+01
   2.56782E+01  2.53097E+01  4.75986E+01  6.09232E+01  7.90476E+01  9.47662E+01  1.15389E+02  1.24623E+02  1.12994E+02  1.00942E+02
   9.17983E+01  7.04883E+01  6.65024E+01  4.24140E+01  3.41826E+01  3.42884E+01  3.32863E+01  2.12849E+01  2.43646E+01  2.31984E+01
   2.13611E+01  1.40770E+01  1.35914E+01  2.46342E+01  1.06435E+01  1.38798E+01  1.23246E+01  1.77800E+01  1.19729E+01  1.81351E+01
   1.84909E+01  7.47802E+00  2.03524E+01  1.33446E+01  1.82985E+00  6.70829E+00  4.86410E+00  1.01370E+00  7.16919E+00  5.74559E+00
  -1.05767E+00 -2.68035E+00  4.86612E+00  4.88346E+00  1.14245E+01  7.71958E+00  7.76897E+00  8.28020E+00 -1.57157E+00  8.43690E+00
  -8.00709E+00 -1.29154E+01 -1.66527E+01 -7.20615E+00 -1.44193E+01 -1.41063E+01 -1.52180E+01 -1.62285E+01 -8.71385E+00 -1.80424E+01
  -1.87790E+01 -2.21864E+01 -2.09891E+01 -1.36590E+01 -1.72931E+01 -1.34750E+01 -5.23521E+00 -4.25828E+00  6.24006E+00  8.27086E+00
   4.36651E+00  1.28837E+01  1.07634E+01  1.30253E+01  7.93529E+00  9.43162E+00  4.37995E+00  1.39815E-01  1.00004E+01  5.78070E+00
   4.78216E+00  1.62520E+01  1.57015E+01  1.28078E+01  1.53962E+01  1.12707E+01  7.14903E+00 -3.92341E+00 -5.68718E+00 -9.99324E-02
   2.38332E+00  3.43604E+00  9.79048E+00  2.12437E+01  2.19075E+01  2.83072E+01  2.48634E+01  2.19802E+01  2.32058E+01  9.25611E+00
   1.38152E+01  1.79724E+01  7.68456E+00  6.43766E+00  1.26204E+01  1.60220E+01  2.56473E+01  1.61134E+01  3.08568E+01  2.86168E+01
   3.21252E+01  2.99651E+01  2.25386E+01  3.13801E+01  2.98207E+01  3.10284E+01  2.71203E+01  2.81927E+01  2.58337E+01  2.14989E+01
   2.11176E+01  2.87193E+01  2.48882E+01  2.01826E+01  3.05885E+01  3.27764E+01  3.58308E+01  3.79517E+01  2.81703E+01  3.88838E+01
   4.39189E+01  5.00008E+01  5.28890E+01  6.22928E+01  6.16443E+01  7.91227E+01  1.02875E+02  1.32374E+02  1.63030E+02  1.89567E+02
   2.10405E+02  1.86210E+02  1.61372E+02  1.28572E+02  1.08624E+02  8.90643E+01  7.26156E+01  5.81986E+01  4.98054E+01  4.37963E+01
   3.49715E+01  3.21052E+01  3.17694E+01  2.74661E+01  2.36645E+01  2.19526E+01  1.96403E+01  1.54595E+01  1.31982E+01  1.84314E+01
   1.55931E+01  3.04518E+01  9.98787E+00  1.93415E+01  1.38081E+01  1.50244E+01  1.58447E+01  4.22763E+00  9.14375E+00  1.83335E+01
   1.11184E+01  1.03679E+01  2.95003E+00  7.91371E+00  1.11697E+01  2.86859E+01  1.38247E+01  1.82172E+01  1.88019E+01  2.14782E+01
   1.78915E+01  1.14780E+01  2.16967E+01  1.14805E+01  1.96921E+01  2.73342E+01  1.79053E+01  3.01766E+01  2.83268E+01  2.98540E+01
   3.21727E+01  3.38122E+01  3.49972E+01  3.62617E+01  3.16167E+01  3.88191E+01  3.50842E+01  3.66717E+01  4.01863E+01  4.10575E+01
   3.57315E+01  4.13830E+01  3.32006E+01  4.21185E+01  4.28834E+01  4.17803E+01  3.90754E+01  4.79571E+01  4.07072E+01  4.76290E+01
   4.81660E+01  4.41129E+01  4.89330E+01  4.72014E+01  5.66437E+01  4.38435E+01  5.65407E+01  5.06329E+01  4.73913E+01  4.03579E+01
   4.24889E+01  4.20275E+01  3.70559E+01  3.63116E+01  4.02567E+01  3.55056E+01  2.48245E+01  2.62363E+01  2.75741E+01  2.57354E+01
   1.98980E+01  2.94386E+01  2.59286E+01  2.62144E+01  2.55118E+01  2.76993E+01  2.50497E+01  3.41690E+01  2.71488E+01  2.33355E+01
   1.63364E+01  1.56035E+01  1.51660E+01  1.69476E+01  1.82873E+01  2.36757E+01  2.39333E+01  2.89759E+01  3.06947E+01  2.42052E+01
   2.22603E+01  1.52156E+01  2.26584E+01  1.68997E+01  1.59702E+01  1.18940E+01  1.90894E+01  1.71437E+01  1.51483E+01  1.93646E+01
   1.11493E+01  1.18579E+01  1.79373E+00  3.51457E+00  1.53753E+01  1.18701E+01  6.70332E+00  1.36585E+01  1.45788E+01  5.01398E+00
   1.25856E+01  5.94632E+00  1.82941E+01  1.33089E+01  1.58229E+01  1.58136E+01  2.00371E+01  1.15288E+01  1.56370E+01  1.98969E+01
   1.65488E+01  1.97732E+01  1.77770E+01  1.92999E+01  1.33989E+01  2.05329E+01  1.96047E+01  1.66733E+01  1.79701E+01  1.95798E+01
   1.91684E+01  2.46345E+01  2.77974E+01  1.85489E+01  1.30172E+01  2.43643E+01  1.46839E+01  2.00547E+01  2.28676E+01  2.07658E+00
   1.13761E+01  1.04799E+01  1.56602E+01  1.20119E+01  2.09373E+00  6.37798E+00  7.15871E+00  7.31900E+00  1.14720E+01  3.74889E-01
   3.18047E+00  6.16755E-01  2.79577E+00  5.91799E+00  5.76467E+00  2.04997E+00 -1.36889E+00  5.74387E+00  6.44186E+00  1.15563E-01
   3.72687E+00  1.30944E+01  8.33852E+00 -2.50116E+00 -5.49535E+00 -1.55418E+00 -7.02053E+00  3.21147E+00  3.38524E+00  1.44884E+00
  -5.70401E+00  1.13163E+00 -3.52062E+00  9.66111E+00  6.60371E+00  1.44509E+01 -4.46685E+00  7.31922E-01  3.63861E+00  1.06122E+01
  -6.95736E-01 -6.15970E+00 -1.62396E+00  3.63169E+00  3.37552E+00  3.85170E+00 -2.73009E-02 -6.84163E+00  2.80831E+00  5.02375E+00
  -2.47652E+00  3.78913E-01  5.43227E+00  3.72072E+00 -1.07508E+00 -4.76286E-01 -9.33903E+00  4.74915E-01  1.32008E-01  2.35189E+00
  -1.08974E+00 -1.03073E+00  6.00582E+00  1.10778E+00  4.43785E+00 -3.42277E-01  5.40448E+00 -6.45273E+00 -4.30531E+00  8.07563E+00
  -2.69777E+00 -7.54831E+00 -5.79862E+00  6.82337E-01  1.06824E+01  3.52761E+00  1.21153E+01  1.30142E+00
 NY points of the fit to the data follow
   4.46141E+01  4.46101E+01  4.62860E+01  4.97562E+01  5.52606E+01  6.31807E+01  7.37703E+01  8.61727E+01  9.81126E+01  1.06446E+02
   1.08790E+02  1.05034E+02  9.71668E+01  8.79140E+01  7.93073E+01  7.21300E+01  6.63356E+01  6.13575E+01  5.64293E+01  5.17604E+01
   4.84424E+01  4.65854E+01  4.60635E+01  4.60495E+01  4.68300E+01  4.88700E+01  5.24237E+01  5.72812E+01  6.23848E+01  6.62405E+01
   6.77760E+01  6.68034E+01  6.36567E+01  5.88071E+01  5.30701E+01  4.76591E+01  4.34023E+01  4.04363E+01  3.85356E+01  3.81338E+01
   3.88901E+01  3.97221E+01  4.08116E+01  4.24184E+01  4.43999E+01  4.62968E+01  4.73309E+01  4.69249E+01  4.49867E+01  4.21042E+01
   3.92039E+01  3.68203E+01  3.50057E+01  3.37546E+01  3.29953E+01  3.24376E+01  3.20025E+01  3.19314E+01  3.21295E+01  3.21191E+01
   3.15823E+01  3.05965E+01  2.93742E+01  2.82113E+01  2.73432E+01  2.68510E+01  2.67082E+01  2.67509E+01  2.68209E+01  2.68857E+01
   2.69021E+01  2.67987E+01  2.65328E+01  2.61021E+01  2.55807E+01  2.50359E+01  2.45035E+01  2.40254E+01  2.36530E+01  2.33913E+01
   2.31362E+01  2.29338E+01  2.28707E+01  2.28563E+01  2.27143E+01  2.22609E+01  2.14332E+01  2.03839E+01  1.94414E+01  1.88375E+01
   1.85965E+01  1.86046E+01  1.86997E+01  1.87442E+01  1.87407E+01  1.93947E+01  2.17950E+01  2.56635E+01  3.13945E+01  3.98009E+01
   5.07978E+01  6.27491E+01  7.25395E+01  7.68215E+01  7.43037E+01  6.67645E+01  5.74092E+01  4.87040E+01  4.16116E+01  3.60482E+01
   3.15669E+01  2.73921E+01  2.29635E+01  1.93335E+01  1.79933E+01  1.76554E+01  1.76025E+01  1.77638E+01  1.84139E+01  2.09418E+01
   2.65708E+01  3.45437E+01  4.56423E+01  6.09660E+01  8.00468E+01  1.00003E+02  1.15612E+02  1.21692E+02  1.16858E+02  1.04403E+02
   8.92339E+01  7.48039E+01  6.21589E+01  5.12079E+01  4.17097E+01  3.30958E+01  2.51511E+01  1.99984E+01  1.91531E+01  1.97166E+01
   2.01155E+01  1.98973E+01  1.91890E+01  1.83991E+01  1.76464E+01  1.68797E+01  1.60819E+01  1.51821E+01  1.41578E+01  1.31138E+01
   1.21101E+01  1.13285E+01  1.07587E+01  1.02655E+01  9.79131E+00  9.30529E+00  8.69723E+00  7.92923E+00  6.98908E+00  5.99334E+00
   5.27291E+00  5.09422E+00  5.39200E+00  5.76115E+00  5.71561E+00  5.03107E+00  3.87361E+00  2.56603E+00  1.32499E+00  2.45190E-01
  -6.26042E-01 -1.58641E+00 -2.79044E+00 -4.13139E+00 -5.29324E+00 -5.78807E+00 -5.64382E+00 -5.28408E+00 -5.09942E+00 -5.32193E+00
  -5.76317E+00 -6.01143E+00 -5.91441E+00 -5.45794E+00 -4.53040E+00 -2.95104E+00 -6.79240E-01  2.12631E+00  5.05610E+00  7.35349E+00
   8.41893E+00  7.99661E+00  6.42090E+00  4.55213E+00  3.10419E+00  2.59152E+00  3.35494E+00  5.27924E+00  8.10094E+00  1.15636E+01
   1.51342E+01  1.81359E+01  1.96806E+01  1.93983E+01  1.70754E+01  1.26765E+01  6.83534E+00  9.42745E-01 -3.27132E+00 -4.64578E+00
  -2.91453E+00  1.52862E+00  7.63022E+00  1.40112E+01  1.92138E+01  2.19463E+01  2.16034E+01  1.85809E+01  1.39786E+01  9.03523E+00
   4.60730E+00  2.20809E+00  2.77231E+00  5.67585E+00  9.65110E+00  1.35973E+01  1.70355E+01  1.95110E+01  2.07578E+01  2.14075E+01
   2.20827E+01  2.31161E+01  2.43266E+01  2.54324E+01  2.65499E+01  2.77753E+01  2.90035E+01  2.99504E+01  3.02646E+01  2.98509E+01
   2.89314E+01  2.78454E+01  2.72136E+01  2.76388E+01  2.90869E+01  3.09527E+01  3.26634E+01  3.43340E+01  3.59802E+01  3.76201E+01
   3.94835E+01  4.21262E+01  4.74750E+01  5.68859E+01  6.88839E+01  8.50780E+01  1.07642E+02  1.36110E+02  1.66036E+02  1.89130E+02
   1.96797E+02  1.86492E+02  1.63746E+02  1.37086E+02  1.12680E+02  9.27126E+01  7.67863E+01  6.36191E+01  5.10201E+01  3.77440E+01
   2.73818E+01  2.33697E+01  2.16846E+01  2.05696E+01  1.96870E+01  1.88571E+01  1.79400E+01  1.69994E+01  1.60790E+01  1.52144E+01
   1.44446E+01  1.37831E+01  1.31969E+01  1.26793E+01  1.22541E+01  1.19254E+01  1.16840E+01  1.15286E+01  1.14671E+01  1.15091E+01
   1.16520E+01  1.18842E+01  1.22138E+01  1.26467E+01  1.31838E+01  1.38250E+01  1.45691E+01  1.54129E+01  1.63484E+01  1.73645E+01
   1.84512E+01  1.95944E+01  2.07763E+01  2.19785E+01  2.31819E+01  2.43679E+01  2.55207E+01  2.66274E+01  2.76784E+01  2.86682E+01
   2.95958E+01  3.04651E+01  3.12855E+01  3.20721E+01  3.28434E+01  3.36203E+01  3.44261E+01  3.52871E+01  3.62376E+01  3.73150E+01
   3.84817E+01  3.97126E+01  4.10047E+01  4.22940E+01  4.34546E+01  4.43343E+01  4.48265E+01  4.50042E+01  4.50532E+01  4.51237E+01
   4.53175E+01  4.56702E+01  4.61591E+01  4.67043E+01  4.71354E+01  4.72357E+01  4.69063E+01  4.62208E+01  4.52320E+01  4.40379E+01
   4.27183E+01  4.13253E+01  3.99123E+01  3.84402E+01  3.68072E+01  3.50020E+01  3.30457E+01  3.10184E+01  2.90882E+01  2.74395E+01
   2.62126E+01  2.54587E+01  2.51449E+01  2.51607E+01  2.53078E+01  2.53684E+01  2.52582E+01  2.50441E+01  2.47368E+01  2.43382E+01
   2.38902E+01  2.34109E+01  2.28901E+01  2.22848E+01  2.15790E+01  2.08682E+01  2.01763E+01  1.94775E+01  1.87661E+01  1.80446E+01
   1.73193E+01  1.65978E+01  1.58888E+01  1.52016E+01  1.45451E+01  1.39281E+01  1.33583E+01  1.28430E+01  1.23885E+01  1.20004E+01
   1.16835E+01  1.14416E+01  1.12777E+01  1.11940E+01  1.11922E+01  1.12735E+01  1.14382E+01  1.16858E+01  1.20149E+01  1.24233E+01
   1.29076E+01  1.34634E+01  1.40846E+01  1.47632E+01  1.54898E+01  1.62530E+01  1.70398E+01  1.78356E+01  1.86241E+01  1.93877E+01
   2.01086E+01  2.07687E+01  2.13505E+01  2.18376E+01  2.22152E+01  2.24712E+01  2.25961E+01  2.25842E+01  2.24332E+01  2.21447E+01
   2.17236E+01  2.11784E+01  2.05205E+01  1.97640E+01  1.89246E+01  1.80193E+01  1.70653E+01  1.60799E+01  1.50795E+01  1.40795E+01
   1.30934E+01  1.21328E+01  1.12073E+01  1.03246E+01  9.49014E+00  8.70777E+00  7.97940E+00  7.30548E+00  6.68532E+00  6.11734E+00
   5.59929E+00  5.12828E+00  4.70105E+00  4.31418E+00  3.96430E+00  3.64818E+00  3.36267E+00  3.10474E+00  2.87152E+00  2.66045E+00
   2.46925E+00  2.29591E+00  2.13858E+00  1.99552E+00  1.86519E+00  1.74626E+00  1.63765E+00  1.53839E+00  1.44753E+00  1.36420E+00
   1.28765E+00  1.21730E+00  1.15266E+00  1.09326E+00  1.03861E+00  9.88227E-01  9.41763E-01  8.98957E-01  8.59576E-01  8.23351E-01
   7.89985E-01  7.59228E-01  7.30921E-01  7.04963E-01  6.81224E-01  6.59508E-01  6.39613E-01  6.21406E-01  6.04835E-01  5.89863E-01
   5.76395E-01  5.64288E-01  5.53413E-01  5.43720E-01  5.35209E-01  5.27856E-01  5.21567E-01  5.16221E-01  5.11749E-01  5.08153E-01
   5.05456E-01  5.03629E-01  5.02582E-01  5.02228E-01  5.02548E-01  5.03584E-01  5.05357E-01  5.07824E-01  5.10903E-01  5.14549E-01
   5.18792E-01  5.23691E-01  5.29262E-01  5.35458E-01  5.42226E-01  5.49580E-01  5.57598E-01  5.66361E-01
 NY background values follow
     4.022E+01    3.995E+01    3.968E+01    3.941E+01    3.914E+01    3.887E+01    3.861E+01    3.834E+01    3.807E+01    3.780E+01
     3.753E+01    3.726E+01    3.699E+01    3.672E+01    3.645E+01    3.619E+01    3.592E+01    3.565E+01    3.538E+01    3.511E+01
     3.484E+01    3.457E+01    3.430E+01    3.404E+01    3.377E+01    3.350E+01    3.323E+01    3.296E+01    3.270E+01    3.243E+01
     3.216E+01    3.189E+01    3.163E+01    3.136E+01    3.109E+01    3.083E+01    3.056E+01    3.030E+01    3.003E+01    2.977E+01
     2.950E+01    2.924E+01    2.898E+01    2.871E+01    2.845E+01    2.819E+01    2.793E+01    2.766E+01    2.740E+01    2.714E+01
     2.688E+01    2.662E+01    2.636E+01    2.610E+01    2.585E+01    2.559E+01    2.533E+01    2.508E+01    2.482E+01    2.456E+01
     2.431E+01    2.406E+01    2.380E+01    2.355E+01    2.330E+01    2.305E+01    2.280E+01    2.255E+01    2.230E+01    2.206E+01
     2.181E+01    2.156E+01    2.132E+01    2.108E+01    2.083E+01    2.059E+01    2.035E+01    2.011E+01    1.987E+01    1.964E+01
     1.940E+01    1.917E+01    1.893E+01    1.870E+01    1.847E+01    1.824E+01    1.801E+01    1.778E+01    1.755E+01    1.733E+01
     1.710E+01    1.688E+01    1.666E+01    1.644E+01    1.622E+01    1.600E+01    1.578E+01    1.557E+01    1.535E+01    1.514E+01
     1.493E+01    1.472E+01    1.451E+01    1.430E+01    1.410E+01    1.390E+01    1.369E+01    1.349E+01    1.329E+01    1.309E+01
     1.290E+01    1.270E+01    1.251E+01    1.232E+01    1.212E+01    1.194E+01    1.175E+01    1.156E+01    1.138E+01    1.119E+01
     1.101E+01    1.083E+01    1.065E+01    1.048E+01    1.030E+01    1.013E+01    9.953E+00    9.783E+00    9.614E+00    9.446E+00
     9.280E+00    9.116E+00    8.953E+00    8.792E+00    8.633E+00    8.475E+00    8.319E+00    8.165E+00    8.012E+00    7.862E+00
     7.712E+00    7.565E+00    7.419E+00    7.275E+00    7.133E+00    6.992E+00    6.853E+00    6.716E+00    6.581E+00    6.447E+00
     6.315E+00    6.185E+00    6.057E+00    5.931E+00    5.806E+00    5.683E+00    5.563E+00    5.443E+00    5.326E+00    5.211E+00
     5.097E+00    4.985E+00    4.875E+00    4.767E+00    4.661E+00    4.557E+00    4.455E+00    4.354E+00    4.256E+00    4.159E+00
     4.064E+00    3.972E+00    3.881E+00    3.792E+00    3.705E+00    3.620E+00    3.537E+00    3.456E+00    3.377E+00    3.300E+00
     3.225E+00    3.152E+00    3.081E+00    3.012E+00    2.945E+00    2.880E+00    2.816E+00    2.755E+00    2.695E+00    2.637E+00
     2.581E+00    2.527E+00    2.474E+00    2.422E+00    2.373E+00    2.325E+00    2.278E+00    2.233E+00    2.190E+00    2.147E+00
     2.107E+00    2.067E+00    2.029E+00    1.992E+00    1.956E+00    1.922E+00    1.889E+00    1.857E+00    1.826E+00    1.796E+00
     1.767E+00    1.739E+00    1.713E+00    1.687E+00    1.662E+00    1.638E+00    1.614E+00    1.592E+00    1.570E+00    1.549E+00
     1.529E+00    1.509E+00    1.490E+00    1.472E+00    1.454E+00    1.437E+00    1.420E+00    1.404E+00    1.388E+00    1.373E+00
     1.358E+00    1.343E+00    1.329E+00    1.315E+00    1.302E+00    1.289E+00    1.276E+00    1.264E+00    1.252E+00    1.240E+00
     1.229E+00    1.218E+00    1.207E+00    1.197E+00    1.187E+00    1.177E+00    1.167E+00    1.158E+00    1.149E+00    1.140E+00
     1.132E+00    1.123E+00    1.115E+00    1.107E+00    1.099E+00    1.091E+00    1.084E+00    1.076E+00    1.069E+00    1.062E+00
     1.054E+00    1.047E+00    1.041E+00    1.034E+00    1.027E+00    1.020E+00    1.014E+00    1.007E+00    1.000E+00    9.936E-01
     9.869E-01    9.803E-01    9.736E-01    9.669E-01    9.602E-01    9.534E-01    9.466E-01    9.398E-01    9.330E-01    9.261E-01
     9.191E-01    9.121E-01    9.051E-01    8.981E-01    8.909E-01    8.838E-01    8.765E-01    8.693E-01    8.619E-01    8.546E-01
     8.471E-01    8.396E-01    8.320E-01    8.244E-01    8.167E-01    8.089E-01    8.011E-01    7.932E-01    7.852E-01    7.771E-01
     7.690E-01    7.608E-01    7.525E-01    7.441E-01    7.356E-01    7.270E-01    7.184E-01    7.096E-01    7.008E-01    6.919E-01
     6.828E-01    6.737E-01    6.645E-01    6.551E-01    6.457E-01    6.361E-01    6.265E-01    6.167E-01    6.068E-01    5.969E-01
     5.868E-01    5.766E-01    5.663E-01    5.559E-01    5.455E-01    5.349E-01    5.243E-01    5.136E-01    5.028E-01    4.919E-01
     4.810E-01    4.700E-01    4.589E-01    4.478E-01    4.366E-01    4.253E-01    4.140E-01    4.027E-01    3.913E-01    3.799E-01
     3.684E-01    3.569E-01    3.454E-01    3.338E-01    3.223E-01    3.106E-01    2.990E-01    2.874E-01    2.757E-01    2.641E-01
     2.524E-01    2.407E-01    2.291E-01    2.174E-01    2.057E-01    1.941E-01    1.825E-01    1.708E-01    1.592E-01    1.477E-01
     1.361E-01    1.246E-01    1.131E-01    1.017E-01    9.027E-02    7.893E-02    6.765E-02    5.643E-02    4.530E-02    3.425E-02
     2.329E-02    1.244E-02    1.696E-03   -8.931E-03   -1.943E-02   -2.980E-02   -4.003E-02   -5.011E-02   -6.003E-02   -6.979E-02
    -7.937E-02   -8.878E-02   -9.800E-02   -1.070E-01   -1.158E-01   -1.244E-01   -1.328E-01   -1.410E-01   -1.489E-01   -1.566E-01
    -1.640E-01   -1.712E-01   -1.781E-01   -1.847E-01   -1.911E-01   -1.972E-01   -2.029E-01   -2.084E-01   -2.135E-01   -2.183E-01
    -2.228E-01   -2.270E-01   -2.308E-01   -2.342E-01   -2.373E-01   -2.401E-01   -2.424E-01   -2.444E-01   -2.460E-01   -2.472E-01
    -2.480E-01   -2.484E-01   -2.485E-01   -2.482E-01   -2.476E-01   -2.466E-01   -2.453E-01   -2.436E-01   -2.416E-01   -2.392E-01
    -2.365E-01   -2.335E-01   -2.302E-01   -2.266E-01   -2.226E-01   -2.184E-01   -2.138E-01   -2.090E-01   -2.038E-01   -1.984E-01
    -1.927E-01   -1.868E-01   -1.805E-01   -1.741E-01   -1.673E-01   -1.603E-01   -1.530E-01   -1.455E-01   -1.378E-01   -1.298E-01
    -1.216E-01   -1.132E-01   -1.045E-01   -9.566E-02   -8.659E-02   -7.731E-02   -6.783E-02   -5.816E-02   -4.830E-02   -3.826E-02
    -2.803E-02   -1.763E-02   -7.059E-03    3.677E-03    1.457E-02    2.563E-02    3.684E-02    4.820E-02    5.970E-02    7.135E-02
     8.313E-02    9.505E-02    1.071E-01    1.193E-01    1.316E-01    1.440E-01    1.565E-01    1.692E-01    1.819E-01    1.948E-01
     2.077E-01    2.208E-01    2.339E-01    2.471E-01    2.605E-01    2.739E-01    2.873E-01    3.009E-01    3.145E-01    3.282E-01
     3.419E-01    3.557E-01    3.695E-01    3.834E-01    3.974E-01    4.114E-01    4.254E-01    4.394E-01    4.535E-01    4.676E-01
     4.818E-01    4.959E-01    5.101E-01    5.243E-01    5.385E-01    5.527E-01    5.668E-01    5.810E-01
 Ala      Conc. = 2.10E+02
