 LCModel (Version 6.3-1L) Copyright: S.W. Provencher.          Ref.: Magn. Reson. Med. 30:672-679 (1993).                
 Slice#3 Row#10 Col#8  PD_05_press_2_raw_act
 36 lines in following concentration table = NCONC+1
    Conc.  %SD /Cr+PCr  Metabolite                                         
    1.127 999% 6.0E-04 Ala                                                 
  182.797 154% 9.7E-02 Asp                                                 
    0.000 999%   0.000 Cr                                                  
 1.88E+03   4%   1.000 PCr                                                 
    0.000 999%   0.000 GABA                                                
    0.000 999%   0.000 Glc                                                 
    0.000 999%   0.000 Gln                                                 
    0.000 999%   0.000 Glu                                                 
  310.448  62%   0.165 GPC                                                 
  191.786 100%   0.102 PCh                                                 
  204.721  53%   0.109 GSH                                                 
    0.000 999%   0.000 Ins                                                 
  503.050  54%   0.267 Lac                                                 
 2.71E+03   4%   1.442 NAA                                                 
    0.000 999%   0.000 NAAG                                                
  131.871  27% 7.0E-02 Scyllo                                              
  110.116 257% 5.9E-02 Tau                                                 
 1.13E+03  13%   0.599 -CrCH2                                              
  502.235   5%   0.267 GPC+PCh                                             
 2.71E+03   4%   1.442 NAA+NAAG                                            
 1.88E+03   4%   1.000 Cr+PCr                                              
    0.000 999%   0.000 Glu+Gln                                             
    0.000 999%   0.000 Lip13a                                              
    0.000 999%   0.000 Lip13b                                              
    0.000 999%   0.000 Lip09                                               
 1.09E+03  16%   0.580 MM09                                                
 8.70E-03 999% 4.6E-06 Lip20                                               
 1.55E+03  25%   0.825 MM20                                                
  262.590  54%   0.140 MM12                                                
 1.65E+03  19%   0.876 MM14                                                
  815.020  31%   0.433 MM17                                                
    0.000 999%   0.000 Lip13a+Lip13b                                       
 1.91E+03  19%   1.015 MM14+Lip13a+Lip13b+MM12                             
 1.09E+03  16%   0.580 MM09+Lip09                                          
 1.55E+03  25%   0.825 MM20+Lip20                                          
   6 lines in following misc. output table
  FWHM = 0.076 ppm    S/N =   9                                            
  Data shift =-0.008 ppm                                                   
  Ph: -56 deg     -17.7 deg/ppm                                            
  alphaB,S = 2.3E+00,   1.0E+02                                            
   14 spline knots.   Ns =11(1)                                            
  (16) 7 infls.   (15) 1 extrs.                                            
  498 points on ppm-axis = NY
      4.000000     3.992357     3.984714     3.977070     3.969427     3.961784     3.954141     3.946497     3.938854     3.931211
      3.923568     3.915925     3.908281     3.900638     3.892995     3.885352     3.877708     3.870065     3.862422     3.854779
      3.847136     3.839492     3.831849     3.824206     3.816563     3.808919     3.801276     3.793633     3.785990     3.778347
      3.770703     3.763060     3.755417     3.747774     3.740130     3.732487     3.724844     3.717201     3.709558     3.701914
      3.694271     3.686628     3.678985     3.671341     3.663698     3.656055     3.648412     3.640769     3.633125     3.625482
      3.617839     3.610196     3.602552     3.594909     3.587266     3.579623     3.571980     3.564336     3.556693     3.549050
      3.541407     3.533763     3.526120     3.518477     3.510834     3.503191     3.495547     3.487904     3.480261     3.472618
      3.464974     3.457331     3.449688     3.442045     3.434402     3.426758     3.419115     3.411472     3.403829     3.396185
      3.388542     3.380899     3.373256     3.365613     3.357969     3.350326     3.342683     3.335040     3.327396     3.319753
      3.312110     3.304467     3.296824     3.289180     3.281537     3.273894     3.266251     3.258607     3.250964     3.243321
      3.235678     3.228034     3.220391     3.212748     3.205105     3.197462     3.189818     3.182175     3.174532     3.166889
      3.159245     3.151602     3.143959     3.136316     3.128673     3.121029     3.113386     3.105743     3.098100     3.090456
      3.082813     3.075170     3.067527     3.059884     3.052240     3.044597     3.036954     3.029311     3.021667     3.014024
      3.006381     2.998738     2.991095     2.983451     2.975808     2.968165     2.960522     2.952878     2.945235     2.937592
      2.929949     2.922306     2.914662     2.907019     2.899376     2.891733     2.884089     2.876446     2.868803     2.861160
      2.853517     2.845873     2.838230     2.830587     2.822944     2.815300     2.807657     2.800014     2.792371     2.784728
      2.777084     2.769441     2.761798     2.754155     2.746511     2.738868     2.731225     2.723582     2.715939     2.708295
      2.700652     2.693009     2.685366     2.677722     2.670079     2.662436     2.654793     2.647150     2.639506     2.631863
      2.624220     2.616577     2.608933     2.601290     2.593647     2.586004     2.578361     2.570717     2.563074     2.555431
      2.547788     2.540144     2.532501     2.524858     2.517215     2.509572     2.501928     2.494285     2.486642     2.478999
      2.471355     2.463712     2.456069     2.448426     2.440783     2.433139     2.425496     2.417853     2.410210     2.402566
      2.394923     2.387280     2.379637     2.371994     2.364350     2.356707     2.349064     2.341421     2.333777     2.326134
      2.318491     2.310848     2.303205     2.295561     2.287918     2.280275     2.272632     2.264988     2.257345     2.249702
      2.242059     2.234416     2.226772     2.219129     2.211486     2.203843     2.196199     2.188556     2.180913     2.173270
      2.165627     2.157983     2.150340     2.142697     2.135054     2.127410     2.119767     2.112124     2.104481     2.096838
      2.089194     2.081551     2.073908     2.066265     2.058621     2.050978     2.043335     2.035692     2.028049     2.020405
      2.012762     2.005119     1.997476     1.989833     1.982190     1.974546     1.966903     1.959260     1.951617     1.943974
      1.936331     1.928688     1.921045     1.913402     1.905759     1.898115     1.890472     1.882829     1.875186     1.867543
      1.859900     1.852257     1.844614     1.836971     1.829327     1.821684     1.814041     1.806398     1.798755     1.791112
      1.783469     1.775826     1.768183     1.760540     1.752896     1.745253     1.737610     1.729967     1.722324     1.714681
      1.707038     1.699395     1.691752     1.684108     1.676465     1.668822     1.661179     1.653536     1.645893     1.638250
      1.630607     1.622964     1.615321     1.607677     1.600034     1.592391     1.584748     1.577105     1.569462     1.561819
      1.554176     1.546533     1.538890     1.531246     1.523603     1.515960     1.508317     1.500674     1.493031     1.485388
      1.477745     1.470102     1.462458     1.454815     1.447172     1.439529     1.431886     1.424243     1.416600     1.408957
      1.401314     1.393671     1.386027     1.378384     1.370741     1.363098     1.355455     1.347812     1.340169     1.332526
      1.324883     1.317240     1.309596     1.301953     1.294310     1.286667     1.279024     1.271381     1.263738     1.256095
      1.248452     1.240808     1.233165     1.225522     1.217879     1.210236     1.202593     1.194950     1.187307     1.179664
      1.172021     1.164377     1.156734     1.149091     1.141448     1.133805     1.126162     1.118519     1.110876     1.103233
      1.095590     1.087946     1.080303     1.072660     1.065017     1.057374     1.049731     1.042088     1.034445     1.026802
      1.019158     1.011515     1.003872     0.996229     0.988586     0.980943     0.973300     0.965657     0.958014     0.950371
      0.942727     0.935084     0.927441     0.919798     0.912155     0.904512     0.896869     0.889226     0.881583     0.873940
      0.866296     0.858653     0.851010     0.843367     0.835724     0.828081     0.820438     0.812795     0.805152     0.797508
      0.789865     0.782222     0.774579     0.766936     0.759293     0.751650     0.744007     0.736364     0.728721     0.721077
      0.713434     0.705791     0.698148     0.690505     0.682862     0.675219     0.667576     0.659933     0.652290     0.644646
      0.637003     0.629360     0.621717     0.614074     0.606431     0.598788     0.591145     0.583502     0.575858     0.568215
      0.560572     0.552929     0.545286     0.537643     0.530000     0.522357     0.514714     0.507071     0.499427     0.491784
      0.484141     0.476498     0.468855     0.461212     0.453569     0.445925     0.438282     0.430639     0.422996     0.415353
      0.407710     0.400067     0.392424     0.384780     0.377137     0.369494     0.361851     0.354208     0.346565     0.338922
      0.331278     0.323635     0.315992     0.308349     0.300706     0.293063     0.285420     0.277777     0.270133     0.262490
      0.254847     0.247204     0.239561     0.231918     0.224275     0.216631     0.208988     0.201345
 NY phased data points follow
  -4.99468E+01 -4.06835E+01 -4.93466E+01 -3.62064E+01 -4.02403E+01 -3.95962E+01 -3.66434E+01 -2.90065E+01 -2.58262E+01 -1.90393E+01
  -2.56780E+01 -2.56471E+01 -3.01004E+01 -3.41521E+01 -3.69118E+01 -3.80957E+01 -4.09949E+01 -4.50965E+01 -4.69653E+01 -4.56626E+01
  -4.18120E+01 -4.22072E+01 -4.69753E+01 -3.94505E+01 -4.34541E+01 -4.18409E+01 -3.77230E+01 -3.46706E+01 -3.72149E+01 -2.71917E+01
  -3.30088E+01 -3.63709E+01 -3.44130E+01 -3.86713E+01 -3.68451E+01 -2.98621E+01 -3.50182E+01 -3.04570E+01 -3.78056E+01 -3.06207E+01
  -3.58194E+01 -3.38621E+01 -3.70038E+01 -3.51902E+01 -3.29241E+01 -3.00954E+01 -3.30842E+01 -2.75875E+01 -2.84637E+01 -2.88266E+01
  -3.14562E+01 -3.09218E+01 -3.35442E+01 -3.17000E+01 -3.82887E+01 -3.18164E+01 -3.53432E+01 -3.74490E+01 -3.81541E+01 -3.62873E+01
  -3.65517E+01 -3.28906E+01 -3.23816E+01 -3.72555E+01 -3.46962E+01 -4.11096E+01 -3.70986E+01 -3.61895E+01 -3.70367E+01 -3.82766E+01
  -3.37513E+01 -3.28295E+01 -2.71807E+01 -2.95661E+01 -3.16555E+01 -3.12608E+01 -2.66740E+01 -2.91487E+01 -2.94449E+01 -2.56125E+01
  -2.66497E+01 -3.07190E+01 -2.34186E+01 -2.70257E+01 -2.33292E+01 -2.74865E+01 -2.64377E+01 -2.32646E+01 -2.56165E+01 -2.19679E+01
  -2.15418E+01 -1.78656E+01 -1.71562E+01 -1.33969E+01 -1.88393E+01 -1.05939E+01 -8.75992E+00 -7.66253E+00 -7.64040E+00 -3.01092E+00
  -6.48091E-01  4.41650E+00 -3.38066E-01  6.74517E+00  1.54365E+00  1.29085E+00 -3.58378E+00 -1.52784E+00 -1.08454E+01 -8.89638E+00
  -1.27234E+01 -2.15424E+01 -1.86116E+01 -1.77695E+01 -1.71927E+01 -1.66598E+01 -1.41222E+01 -1.36969E+01 -1.53280E+00 -8.11975E+00
  -2.89005E-01  2.88975E+00  4.20673E+00  1.27809E+01  7.31695E+00  1.80451E+01  2.00785E+01  1.31108E+01  1.95214E+01  1.07947E+01
   9.12426E+00  4.12447E+00 -4.99378E+00 -7.10225E+00 -1.14575E+01 -1.33874E+01 -1.63677E+01 -1.61354E+01 -2.14505E+01 -1.70778E+01
  -1.96894E+01 -1.66989E+01 -1.57787E+01 -1.77786E+01 -2.28384E+01 -1.58462E+01 -2.52452E+01 -2.55107E+01 -2.00621E+01 -1.91406E+01
  -2.24091E+01 -1.43738E+01 -2.25481E+01 -1.56287E+01 -1.90384E+01 -1.85099E+01 -2.28446E+01 -2.23780E+01 -2.30787E+01 -1.86019E+01
  -1.81627E+01 -1.70775E+01 -2.02340E+01 -1.70127E+01 -2.08903E+01 -2.33799E+01 -2.06803E+01 -1.64510E+01 -1.27558E+01 -1.53285E+01
  -2.23916E+01 -2.36515E+01 -1.88702E+01 -2.14104E+01 -2.38774E+01 -2.45937E+01 -2.78725E+01 -2.21018E+01 -2.47856E+01 -1.63792E+01
  -1.59173E+01 -2.27916E+01 -1.85011E+01 -2.03086E+01 -2.18226E+01 -1.83284E+01 -1.39550E+01 -1.18113E+01 -9.51393E+00 -1.47080E+01
  -1.25459E+01 -6.42543E+00 -8.16827E+00 -7.87346E+00 -9.31330E+00 -3.15714E+00 -3.66280E+00 -7.97774E+00 -1.30981E+01 -1.38444E+01
  -9.67614E+00 -8.96912E+00 -9.30230E+00 -8.52741E+00 -8.30756E+00 -7.35670E+00 -1.72573E+01 -1.31197E+01 -8.66793E+00 -1.36725E+01
  -1.40535E+01 -1.54214E+01 -1.20520E+01 -9.52025E+00 -7.95922E+00 -4.61603E+00 -7.37508E+00 -1.04827E+01 -8.40636E+00 -3.62765E+00
  -7.61907E+00 -7.43249E+00 -1.14569E+01 -6.87159E+00 -1.12547E+01 -1.16940E+01 -4.30817E+00 -5.22356E+00 -1.15021E+01 -6.66830E+00
  -1.01260E+01 -8.99117E+00 -2.54672E+00 -6.90102E+00 -8.95642E+00 -4.57674E+00 -3.72404E+00 -1.00554E+01 -5.57483E+00 -5.37866E+00
  -1.10791E+01 -7.97979E+00 -7.98063E+00 -1.49271E+00 -2.19604E+00 -7.21276E+00 -3.69840E+00 -6.55281E-01  5.70973E-01  4.12634E+00
   7.05317E+00  9.15088E+00  1.32656E+01  1.83693E+01  2.47202E+01  2.98834E+01  3.40649E+01  4.00084E+01  5.07086E+01  4.99096E+01
   5.83862E+01  6.19091E+01  5.76606E+01  5.18010E+01  3.14956E+01  2.79594E+01  2.58728E+01  1.71879E+01  1.33951E+01  7.41514E+00
   8.88007E-01  5.77921E+00  2.97659E+00 -5.95681E-01 -4.32724E+00 -3.40491E+00 -1.22081E+00  1.31034E+00  1.36274E+00 -1.84375E+00
  -1.01746E+00 -3.06902E+00  5.20208E-01  1.63329E-01 -3.92945E+00 -3.17360E+00 -9.67767E-01 -8.04811E-01  4.96965E-01 -1.81343E+00
  -2.32559E+00  3.67264E-01 -1.16537E+00  2.19602E+00 -2.46080E+00  4.29326E+00  5.12201E+00 -2.11385E+00 -1.24572E+00 -2.89116E+00
  -3.67930E+00 -2.49227E+00 -5.36714E+00 -5.25415E+00  1.58341E+00 -3.65717E-01  4.78058E+00  6.36635E+00  1.16394E+00  7.14659E+00
   3.89354E+00  4.25913E+00  4.32500E+00  1.42962E+00  1.69159E+00  9.25975E+00  1.60668E+00  3.28721E+00  6.18839E+00  7.95292E+00
   7.94693E+00  8.71354E+00  3.16746E+00  7.00221E+00  5.75422E+00  1.04718E+01  6.46926E+00  3.12528E+00  5.96045E+00  4.79157E+00
   3.47769E+00  7.92449E+00  1.30713E+01  9.36344E+00  1.05701E+01  9.38007E+00  8.98931E+00  7.96502E+00  7.76431E+00  7.31591E+00
   7.22407E+00  7.14145E+00  1.20884E+01  6.46757E+00  3.69904E+00  9.66052E+00  1.08455E+01  6.30333E+00  4.94714E+00  6.61462E+00
   3.01841E+00 -6.47007E+00  2.33842E+00  3.29442E+00 -2.25820E+00  5.85658E+00  9.28851E-03  3.08527E+00  4.20805E+00  6.59500E+00
   1.60817E+00  6.04990E+00  4.22557E+00  2.92427E+00 -4.73850E+00 -1.77785E+00  3.80823E+00  3.05660E+00  3.10159E+00  9.83978E+00
  -2.02531E+00  3.52749E+00 -5.71017E-01  2.26343E+00  6.39678E+00  3.04807E+00  7.29969E+00  5.08746E+00  5.15053E+00  4.35914E+00
   2.50504E+00  2.90782E+00 -1.38217E-01  2.85012E+00  2.19678E+00  7.71574E+00  2.88571E+00  4.78617E+00  4.59369E+00  7.21191E+00
   5.52483E+00  1.14362E+00  4.79106E+00  2.17056E+00  7.07161E+00  7.76314E+00  2.01344E+00  3.66875E+00  1.20966E+01  4.01895E+00
   2.70563E+00  3.47669E+00  1.23786E+01  5.97739E+00  5.49996E+00  1.34516E+01  4.55050E+00  1.39205E+01  6.32139E+00  1.08301E+01
   1.09182E+01  1.74565E+01  1.22056E+01  1.39701E+01  1.26584E+01  1.39256E+01  1.16021E+01  8.29786E+00  4.82538E+00  5.85235E+00
   7.67172E+00  1.31340E+01  1.24679E+01  9.06773E+00  9.37496E+00  8.58058E+00  7.35669E+00  6.90736E+00  6.14263E+00  5.15326E+00
  -5.13706E-01  7.43961E+00  5.57787E+00  2.58658E+00 -2.38047E-01  5.45954E+00 -1.78227E+00  6.23842E+00  3.31040E+00  7.66332E+00
   7.05269E+00  5.68701E+00  8.26674E+00  7.12531E+00  2.98849E+00  8.44197E+00  7.70744E+00 -4.32292E-01  2.29774E+00  4.72860E+00
   4.46180E-01  3.30879E+00  6.10443E+00  6.88235E+00  1.59907E+00  6.33172E+00  5.99935E+00  4.69983E+00  3.26231E+00  2.96006E+00
   1.30542E+01  1.24430E+00  5.30752E-02  1.47684E-01 -1.81171E-01  1.29948E+00  5.69678E+00  5.38657E+00 -1.21113E+00  6.58780E+00
   6.17745E+00  1.10831E+01  3.93174E+00  7.18949E+00  5.69667E+00  6.76957E+00  6.83426E+00  2.89636E+00  6.37959E+00  7.95683E-01
   1.60797E+00  8.10916E+00  4.82652E+00  6.59099E+00  5.19409E+00  4.91009E+00  1.19185E+00  3.27224E+00  4.24171E+00  5.71454E+00
   3.12915E+00  4.75815E+00  7.17360E+00  5.59793E+00  2.75118E+00  1.37926E+00  6.15436E+00  3.06107E+00
 NY points of the fit to the data follow
  -4.05112E+01 -3.94771E+01 -3.82490E+01 -3.69433E+01 -3.56987E+01 -3.43019E+01 -3.27599E+01 -3.12482E+01 -2.98805E+01 -2.89670E+01
  -2.88581E+01 -2.97506E+01 -3.14029E+01 -3.30142E+01 -3.42435E+01 -3.53298E+01 -3.64788E+01 -3.76091E+01 -3.83044E+01 -3.82892E+01
  -3.82127E+01 -3.84830E+01 -3.84278E+01 -3.81800E+01 -3.78835E+01 -3.75453E+01 -3.71229E+01 -3.65792E+01 -3.59864E+01 -3.54483E+01
  -3.50341E+01 -3.47787E+01 -3.47630E+01 -3.49927E+01 -3.52604E+01 -3.53823E+01 -3.54233E+01 -3.54775E+01 -3.55053E+01 -3.54333E+01
  -3.52941E+01 -3.51790E+01 -3.51294E+01 -3.50406E+01 -3.49100E+01 -3.48029E+01 -3.46977E+01 -3.45618E+01 -3.44080E+01 -3.42633E+01
  -3.41358E+01 -3.40104E+01 -3.38922E+01 -3.38131E+01 -3.37665E+01 -3.37053E+01 -3.36355E+01 -3.35968E+01 -3.35622E+01 -3.34905E+01
  -3.33978E+01 -3.33060E+01 -3.32046E+01 -3.30789E+01 -3.29259E+01 -3.27477E+01 -3.25784E+01 -3.24246E+01 -3.22790E+01 -3.21372E+01
  -3.19938E+01 -3.18311E+01 -3.16461E+01 -3.14389E+01 -3.11805E+01 -3.06974E+01 -2.99816E+01 -2.93847E+01 -2.89042E+01 -2.83878E+01
  -2.77770E+01 -2.71114E+01 -2.64198E+01 -2.56784E+01 -2.49156E+01 -2.41869E+01 -2.35921E+01 -2.32836E+01 -2.33484E+01 -2.37331E+01
  -2.40272E+01 -2.31783E+01 -2.10330E+01 -1.87215E+01 -1.68390E+01 -1.48731E+01 -1.23873E+01 -9.55274E+00 -6.66215E+00 -3.58153E+00
  -2.22095E-01  3.02972E+00  5.58243E+00  6.66014E+00  5.59514E+00  2.36589E+00 -2.06926E+00 -6.39270E+00 -1.00436E+01 -1.32841E+01
  -1.63377E+01 -1.88742E+01 -2.03838E+01 -2.10017E+01 -2.11861E+01 -1.96053E+01 -1.59607E+01 -1.27555E+01 -1.00519E+01 -7.01973E+00
  -3.48771E+00  1.94456E-01  3.99374E+00  8.26031E+00  1.27192E+01  1.68131E+01  1.97601E+01  2.03979E+01  1.79619E+01  1.27769E+01
   6.60931E+00  1.33889E+00 -2.97849E+00 -7.09421E+00 -1.11201E+01 -1.43272E+01 -1.60073E+01 -1.68221E+01 -1.80501E+01 -1.91905E+01
  -1.94217E+01 -1.93809E+01 -1.93027E+01 -1.92228E+01 -1.91573E+01 -1.91205E+01 -1.91037E+01 -1.90887E+01 -1.90849E+01 -1.91072E+01
  -1.92089E+01 -1.93411E+01 -1.94217E+01 -1.94448E+01 -1.93901E+01 -1.93434E+01 -1.93634E+01 -1.94109E+01 -1.94810E+01 -1.95721E+01
  -1.96825E+01 -1.97613E+01 -1.97445E+01 -1.96225E+01 -1.94569E+01 -1.94158E+01 -1.95716E+01 -1.97485E+01 -1.99121E+01 -2.00627E+01
  -2.02699E+01 -2.05312E+01 -2.07292E+01 -2.08397E+01 -2.09004E+01 -2.09367E+01 -2.09790E+01 -2.09144E+01 -2.05898E+01 -2.01317E+01
  -1.97071E+01 -1.93488E+01 -1.89575E+01 -1.84409E+01 -1.78198E+01 -1.71753E+01 -1.65398E+01 -1.59062E+01 -1.51371E+01 -1.42462E+01
  -1.34423E+01 -1.28590E+01 -1.24622E+01 -1.20375E+01 -1.16569E+01 -1.14144E+01 -1.12908E+01 -1.12600E+01 -1.12550E+01 -1.12238E+01
  -1.11643E+01 -1.10569E+01 -1.09661E+01 -1.08987E+01 -1.08159E+01 -1.07849E+01 -1.08724E+01 -1.10745E+01 -1.13258E+01 -1.15697E+01
  -1.17803E+01 -1.19920E+01 -1.21800E+01 -1.22346E+01 -1.20849E+01 -1.17730E+01 -1.13709E+01 -1.09268E+01 -1.05162E+01 -1.01400E+01
  -9.78600E+00 -9.47157E+00 -9.20938E+00 -9.00266E+00 -8.80466E+00 -8.56772E+00 -8.32709E+00 -8.09463E+00 -7.89235E+00 -7.72687E+00
  -7.56625E+00 -7.38641E+00 -7.18025E+00 -6.94223E+00 -6.65319E+00 -6.31397E+00 -5.98262E+00 -5.69775E+00 -5.46166E+00 -5.26097E+00
  -5.07936E+00 -4.88938E+00 -4.64240E+00 -4.31229E+00 -3.91785E+00 -3.48558E+00 -3.00602E+00 -2.42534E+00 -1.43686E+00  1.80388E+00
   7.72741E+00  1.26540E+01  1.65245E+01  2.06829E+01  2.55221E+01  3.05929E+01  3.57391E+01  4.14738E+01  4.75642E+01  5.32799E+01
   5.75339E+01  5.86408E+01  5.53760E+01  4.79781E+01  3.88065E+01  3.07226E+01  2.41046E+01  1.78983E+01  1.18376E+01  6.88168E+00
   4.13289E+00  2.81376E+00  9.11392E-01 -1.15793E+00 -1.94817E+00 -2.25579E+00 -2.44726E+00 -2.58399E+00 -2.68549E+00 -2.75939E+00
  -2.80992E+00 -2.83837E+00 -2.84645E+00 -2.83458E+00 -2.80370E+00 -2.75312E+00 -2.68269E+00 -2.59131E+00 -2.47928E+00 -2.34615E+00
  -2.19234E+00 -2.01707E+00 -1.82069E+00 -1.60310E+00 -1.36601E+00 -1.11060E+00 -8.39230E-01 -5.53386E-01 -2.56034E-01  5.01013E-02
   3.60696E-01  6.72280E-01  9.80640E-01  1.28281E+00  1.57494E+00  1.85432E+00  2.11780E+00  2.36431E+00  2.59298E+00  2.80487E+00
   3.00085E+00  3.18350E+00  3.35529E+00  3.52058E+00  3.68338E+00  3.84880E+00  4.02064E+00  4.20239E+00  4.39632E+00  4.60574E+00
   4.83171E+00  5.07458E+00  5.33227E+00  5.60256E+00  5.88191E+00  6.16658E+00  6.45035E+00  6.72775E+00  6.99266E+00  7.24071E+00
   7.46784E+00  7.67281E+00  7.85576E+00  8.02175E+00  8.18462E+00  8.38715E+00  8.72281E+00  9.01631E+00  8.99312E+00  8.82183E+00
   8.62460E+00  8.36510E+00  7.96100E+00  7.41965E+00  7.02385E+00  6.77010E+00  6.33941E+00  5.62405E+00  4.65809E+00  3.56278E+00
   2.51723E+00  1.80207E+00  1.59670E+00  1.78985E+00  2.25155E+00  2.93686E+00  3.75503E+00  4.48510E+00  4.81951E+00  4.74305E+00
   4.61219E+00  4.56148E+00  4.41672E+00  4.13706E+00  3.81894E+00  3.61749E+00  3.51464E+00  3.34460E+00  3.14732E+00  3.01979E+00
   2.93189E+00  2.86585E+00  2.81397E+00  2.77319E+00  2.74141E+00  2.71837E+00  2.70356E+00  2.69764E+00  2.70068E+00  2.71383E+00
   2.73763E+00  2.77364E+00  2.82268E+00  2.88652E+00  2.96624E+00  3.06397E+00  3.18122E+00  3.32047E+00  3.48339E+00  3.67251E+00
   3.88953E+00  4.13686E+00  4.41584E+00  4.72813E+00  5.07379E+00  5.45290E+00  5.86366E+00  6.30391E+00  6.76931E+00  7.25475E+00
   7.75280E+00  8.25550E+00  8.75289E+00  9.23496E+00  9.69030E+00  1.01081E+01  1.04774E+01  1.07886E+01  1.10332E+01  1.12052E+01
   1.13002E+01  1.13168E+01  1.12554E+01  1.11200E+01  1.09160E+01  1.06513E+01  1.03348E+01  9.97716E+00  9.58861E+00  9.18040E+00
   8.76250E+00  8.34478E+00  7.93511E+00  7.54086E+00  7.16718E+00  6.81868E+00  6.49772E+00  6.20617E+00  5.94399E+00  5.71110E+00
   5.50598E+00  5.32744E+00  5.17310E+00  5.04116E+00  4.92894E+00  4.83466E+00  4.75591E+00  4.69117E+00  4.63827E+00  4.59598E+00
   4.56246E+00  4.53695E+00  4.51803E+00  4.50521E+00  4.49729E+00  4.49393E+00  4.49419E+00  4.49801E+00  4.50464E+00  4.51411E+00
   4.52568E+00  4.53944E+00  4.55480E+00  4.57202E+00  4.59057E+00  4.61065E+00  4.63169E+00  4.65396E+00  4.67701E+00  4.70120E+00
   4.72605E+00  4.75183E+00  4.77806E+00  4.80508E+00  4.83250E+00  4.86071E+00  4.88924E+00  4.91839E+00  4.94772E+00  4.97763E+00
   5.00777E+00  5.03847E+00  5.06931E+00  5.10059E+00  5.13192E+00  5.16372E+00  5.19563E+00  5.22799E+00  5.26035E+00  5.29306E+00
   5.32576E+00  5.35887E+00  5.39201E+00  5.42550E+00  5.45892E+00  5.49264E+00  5.52633E+00  5.56037E+00  5.59439E+00  5.62870E+00
   5.66290E+00  5.69737E+00  5.73180E+00  5.76655E+00  5.80123E+00  5.83616E+00  5.87095E+00  5.90602E+00
 NY background values follow
    -4.454E+01   -4.436E+01   -4.419E+01   -4.402E+01   -4.385E+01   -4.368E+01   -4.351E+01   -4.334E+01   -4.317E+01   -4.299E+01
    -4.282E+01   -4.265E+01   -4.248E+01   -4.231E+01   -4.214E+01   -4.197E+01   -4.180E+01   -4.163E+01   -4.145E+01   -4.128E+01
    -4.111E+01   -4.094E+01   -4.077E+01   -4.060E+01   -4.043E+01   -4.026E+01   -4.009E+01   -3.992E+01   -3.975E+01   -3.957E+01
    -3.940E+01   -3.923E+01   -3.906E+01   -3.889E+01   -3.872E+01   -3.855E+01   -3.838E+01   -3.821E+01   -3.804E+01   -3.787E+01
    -3.770E+01   -3.753E+01   -3.736E+01   -3.719E+01   -3.703E+01   -3.686E+01   -3.669E+01   -3.652E+01   -3.635E+01   -3.618E+01
    -3.601E+01   -3.584E+01   -3.567E+01   -3.551E+01   -3.534E+01   -3.517E+01   -3.500E+01   -3.483E+01   -3.467E+01   -3.450E+01
    -3.433E+01   -3.417E+01   -3.400E+01   -3.383E+01   -3.367E+01   -3.350E+01   -3.333E+01   -3.317E+01   -3.300E+01   -3.283E+01
    -3.267E+01   -3.250E+01   -3.234E+01   -3.217E+01   -3.201E+01   -3.184E+01   -3.168E+01   -3.152E+01   -3.135E+01   -3.119E+01
    -3.103E+01   -3.086E+01   -3.070E+01   -3.054E+01   -3.037E+01   -3.021E+01   -3.005E+01   -2.989E+01   -2.973E+01   -2.957E+01
    -2.941E+01   -2.924E+01   -2.908E+01   -2.892E+01   -2.876E+01   -2.860E+01   -2.845E+01   -2.829E+01   -2.813E+01   -2.797E+01
    -2.781E+01   -2.765E+01   -2.750E+01   -2.734E+01   -2.718E+01   -2.703E+01   -2.687E+01   -2.671E+01   -2.656E+01   -2.640E+01
    -2.625E+01   -2.609E+01   -2.594E+01   -2.578E+01   -2.563E+01   -2.548E+01   -2.532E+01   -2.517E+01   -2.502E+01   -2.487E+01
    -2.471E+01   -2.456E+01   -2.441E+01   -2.426E+01   -2.411E+01   -2.396E+01   -2.381E+01   -2.366E+01   -2.351E+01   -2.336E+01
    -2.321E+01   -2.307E+01   -2.292E+01   -2.277E+01   -2.262E+01   -2.248E+01   -2.233E+01   -2.219E+01   -2.204E+01   -2.190E+01
    -2.175E+01   -2.161E+01   -2.146E+01   -2.132E+01   -2.118E+01   -2.103E+01   -2.089E+01   -2.075E+01   -2.061E+01   -2.047E+01
    -2.033E+01   -2.019E+01   -2.005E+01   -1.991E+01   -1.977E+01   -1.963E+01   -1.949E+01   -1.935E+01   -1.922E+01   -1.908E+01
    -1.894E+01   -1.881E+01   -1.867E+01   -1.854E+01   -1.840E+01   -1.827E+01   -1.813E+01   -1.800E+01   -1.787E+01   -1.773E+01
    -1.760E+01   -1.747E+01   -1.734E+01   -1.721E+01   -1.708E+01   -1.695E+01   -1.682E+01   -1.669E+01   -1.656E+01   -1.643E+01
    -1.630E+01   -1.618E+01   -1.605E+01   -1.592E+01   -1.580E+01   -1.567E+01   -1.555E+01   -1.542E+01   -1.530E+01   -1.518E+01
    -1.505E+01   -1.493E+01   -1.481E+01   -1.469E+01   -1.457E+01   -1.444E+01   -1.432E+01   -1.420E+01   -1.409E+01   -1.397E+01
    -1.385E+01   -1.373E+01   -1.361E+01   -1.350E+01   -1.338E+01   -1.326E+01   -1.315E+01   -1.303E+01   -1.292E+01   -1.280E+01
    -1.269E+01   -1.258E+01   -1.247E+01   -1.235E+01   -1.224E+01   -1.213E+01   -1.202E+01   -1.191E+01   -1.180E+01   -1.169E+01
    -1.158E+01   -1.147E+01   -1.137E+01   -1.126E+01   -1.115E+01   -1.104E+01   -1.094E+01   -1.083E+01   -1.073E+01   -1.062E+01
    -1.052E+01   -1.042E+01   -1.031E+01   -1.021E+01   -1.011E+01   -1.001E+01   -9.904E+00   -9.804E+00   -9.703E+00   -9.603E+00
    -9.504E+00   -9.405E+00   -9.306E+00   -9.208E+00   -9.111E+00   -9.014E+00   -8.917E+00   -8.821E+00   -8.725E+00   -8.630E+00
    -8.535E+00   -8.440E+00   -8.346E+00   -8.253E+00   -8.160E+00   -8.067E+00   -7.975E+00   -7.883E+00   -7.792E+00   -7.701E+00
    -7.610E+00   -7.520E+00   -7.431E+00   -7.341E+00   -7.253E+00   -7.164E+00   -7.077E+00   -6.989E+00   -6.902E+00   -6.816E+00
    -6.729E+00   -6.644E+00   -6.558E+00   -6.473E+00   -6.389E+00   -6.305E+00   -6.221E+00   -6.138E+00   -6.055E+00   -5.973E+00
    -5.891E+00   -5.809E+00   -5.728E+00   -5.648E+00   -5.567E+00   -5.487E+00   -5.408E+00   -5.329E+00   -5.250E+00   -5.172E+00
    -5.094E+00   -5.016E+00   -4.939E+00   -4.862E+00   -4.786E+00   -4.710E+00   -4.634E+00   -4.559E+00   -4.484E+00   -4.410E+00
    -4.336E+00   -4.262E+00   -4.189E+00   -4.116E+00   -4.043E+00   -3.971E+00   -3.900E+00   -3.828E+00   -3.757E+00   -3.686E+00
    -3.616E+00   -3.546E+00   -3.477E+00   -3.407E+00   -3.339E+00   -3.270E+00   -3.202E+00   -3.134E+00   -3.067E+00   -3.000E+00
    -2.933E+00   -2.867E+00   -2.801E+00   -2.735E+00   -2.670E+00   -2.605E+00   -2.540E+00   -2.476E+00   -2.412E+00   -2.348E+00
    -2.285E+00   -2.222E+00   -2.159E+00   -2.097E+00   -2.035E+00   -1.973E+00   -1.911E+00   -1.850E+00   -1.789E+00   -1.729E+00
    -1.669E+00   -1.609E+00   -1.549E+00   -1.490E+00   -1.431E+00   -1.372E+00   -1.313E+00   -1.255E+00   -1.197E+00   -1.139E+00
    -1.082E+00   -1.025E+00   -9.680E-01   -9.114E-01   -8.550E-01   -7.989E-01   -7.431E-01   -6.876E-01   -6.322E-01   -5.772E-01
    -5.223E-01   -4.678E-01   -4.134E-01   -3.593E-01   -3.055E-01   -2.519E-01   -1.985E-01   -1.453E-01   -9.237E-02   -3.966E-02
     1.281E-02    6.507E-02    1.171E-01    1.689E-01    2.205E-01    2.719E-01    3.230E-01    3.740E-01    4.247E-01    4.753E-01
     5.256E-01    5.757E-01    6.256E-01    6.753E-01    7.249E-01    7.742E-01    8.233E-01    8.722E-01    9.210E-01    9.695E-01
     1.018E+00    1.066E+00    1.114E+00    1.162E+00    1.209E+00    1.257E+00    1.304E+00    1.351E+00    1.398E+00    1.445E+00
     1.492E+00    1.538E+00    1.584E+00    1.630E+00    1.676E+00    1.722E+00    1.768E+00    1.813E+00    1.858E+00    1.904E+00
     1.949E+00    1.993E+00    2.038E+00    2.083E+00    2.127E+00    2.171E+00    2.216E+00    2.260E+00    2.303E+00    2.347E+00
     2.391E+00    2.434E+00    2.478E+00    2.521E+00    2.564E+00    2.607E+00    2.650E+00    2.693E+00    2.736E+00    2.778E+00
     2.821E+00    2.863E+00    2.905E+00    2.947E+00    2.989E+00    3.031E+00    3.073E+00    3.115E+00    3.157E+00    3.198E+00
     3.240E+00    3.281E+00    3.323E+00    3.364E+00    3.405E+00    3.446E+00    3.487E+00    3.528E+00    3.569E+00    3.610E+00
     3.651E+00    3.691E+00    3.732E+00    3.773E+00    3.813E+00    3.854E+00    3.894E+00    3.935E+00    3.975E+00    4.015E+00
     4.055E+00    4.096E+00    4.136E+00    4.176E+00    4.216E+00    4.256E+00    4.296E+00    4.336E+00    4.376E+00    4.416E+00
     4.455E+00    4.495E+00    4.535E+00    4.575E+00    4.614E+00    4.654E+00    4.694E+00    4.733E+00    4.773E+00    4.813E+00
     4.852E+00    4.892E+00    4.931E+00    4.971E+00    5.010E+00    5.050E+00    5.089E+00    5.129E+00    5.168E+00    5.208E+00
     5.247E+00    5.287E+00    5.326E+00    5.366E+00    5.405E+00    5.445E+00    5.484E+00    5.524E+00
 Ala      Conc. = 1.13E+00
