 LCModel (Version 6.3-1L) Copyright: S.W. Provencher.          Ref.: Magn. Reson. Med. 30:672-679 (1993).                
 Slice#3 Row#5 Col#6  PD_05_press_2_raw_act
 36 lines in following concentration table = NCONC+1
    Conc.  %SD /Cr+PCr  Metabolite                                         
  517.175  64%   0.353 Ala                                                 
  296.534 102%   0.202 Asp                                                 
 1.47E+03  10%   1.000 Cr                                                  
    0.000 999%   0.000 PCr                                                 
  114.649 163% 7.8E-02 GABA                                                
  210.010  88%   0.143 Glc                                                 
  912.292  77%   0.622 Gln                                                 
 1.50E+03  53%   1.023 Glu                                                 
    0.000 999%   0.000 GPC                                                 
  788.059   7%   0.538 PCh                                                 
  588.624  36%   0.401 GSH                                                 
 4.00E+03  19%   2.726 Ins                                                 
 1.09E+03  35%   0.747 Lac                                                 
 2.01E+03   8%   1.368 NAA                                                 
    0.000 999%   0.000 NAAG                                                
  162.815  32%   0.111 Scyllo                                              
  531.089  56%   0.362 Tau                                                 
  392.361  63%   0.268 -CrCH2                                              
  788.059   7%   0.538 GPC+PCh                                             
 2.01E+03   8%   1.368 NAA+NAAG                                            
 1.47E+03  10%   1.000 Cr+PCr                                              
 2.41E+03  48%   1.645 Glu+Gln                                             
    0.000 999%   0.000 Lip13a                                              
 2.14E+03  19%   1.457 Lip13b                                              
  605.750  59%   0.413 Lip09                                               
 1.07E+03  45%   0.729 MM09                                                
  321.510  80%   0.219 Lip20                                               
 1.84E+03  43%   1.256 MM20                                                
  260.701 101%   0.178 MM12                                                
  430.756 154%   0.294 MM14                                                
  732.474  63%   0.500 MM17                                                
 2.14E+03  19%   1.457 Lip13a+Lip13b                                       
 2.83E+03  29%   1.929 MM14+Lip13a+Lip13b+MM12                             
 1.67E+03  25%   1.142 MM09+Lip09                                          
 2.16E+03  37%   1.476 MM20+Lip20                                          
   6 lines in following misc. output table
  FWHM = 0.061 ppm    S/N =   3                                            
  Data shift = 0.008 ppm                                                   
  Ph: -49 deg      -8.4 deg/ppm                                            
  alphaB,S = 9.8E-01,   9.6E+01                                            
   14 spline knots.   Ns = 7(1)                                            
  ( 8) 2 infls.   ( 1) 1 extrs.                                            
  498 points on ppm-axis = NY
      4.000000     3.992357     3.984714     3.977070     3.969427     3.961784     3.954141     3.946497     3.938854     3.931211
      3.923568     3.915925     3.908281     3.900638     3.892995     3.885352     3.877708     3.870065     3.862422     3.854779
      3.847136     3.839492     3.831849     3.824206     3.816563     3.808919     3.801276     3.793633     3.785990     3.778347
      3.770703     3.763060     3.755417     3.747774     3.740130     3.732487     3.724844     3.717201     3.709558     3.701914
      3.694271     3.686628     3.678985     3.671341     3.663698     3.656055     3.648412     3.640769     3.633125     3.625482
      3.617839     3.610196     3.602552     3.594909     3.587266     3.579623     3.571980     3.564336     3.556693     3.549050
      3.541407     3.533763     3.526120     3.518477     3.510834     3.503191     3.495547     3.487904     3.480261     3.472618
      3.464974     3.457331     3.449688     3.442045     3.434402     3.426758     3.419115     3.411472     3.403829     3.396185
      3.388542     3.380899     3.373256     3.365613     3.357969     3.350326     3.342683     3.335040     3.327396     3.319753
      3.312110     3.304467     3.296824     3.289180     3.281537     3.273894     3.266251     3.258607     3.250964     3.243321
      3.235678     3.228034     3.220391     3.212748     3.205105     3.197462     3.189818     3.182175     3.174532     3.166889
      3.159245     3.151602     3.143959     3.136316     3.128673     3.121029     3.113386     3.105743     3.098100     3.090456
      3.082813     3.075170     3.067527     3.059884     3.052240     3.044597     3.036954     3.029311     3.021667     3.014024
      3.006381     2.998738     2.991095     2.983451     2.975808     2.968165     2.960522     2.952878     2.945235     2.937592
      2.929949     2.922306     2.914662     2.907019     2.899376     2.891733     2.884089     2.876446     2.868803     2.861160
      2.853517     2.845873     2.838230     2.830587     2.822944     2.815300     2.807657     2.800014     2.792371     2.784728
      2.777084     2.769441     2.761798     2.754155     2.746511     2.738868     2.731225     2.723582     2.715939     2.708295
      2.700652     2.693009     2.685366     2.677722     2.670079     2.662436     2.654793     2.647150     2.639506     2.631863
      2.624220     2.616577     2.608933     2.601290     2.593647     2.586004     2.578361     2.570717     2.563074     2.555431
      2.547788     2.540144     2.532501     2.524858     2.517215     2.509572     2.501928     2.494285     2.486642     2.478999
      2.471355     2.463712     2.456069     2.448426     2.440783     2.433139     2.425496     2.417853     2.410210     2.402566
      2.394923     2.387280     2.379637     2.371994     2.364350     2.356707     2.349064     2.341421     2.333777     2.326134
      2.318491     2.310848     2.303205     2.295561     2.287918     2.280275     2.272632     2.264988     2.257345     2.249702
      2.242059     2.234416     2.226772     2.219129     2.211486     2.203843     2.196199     2.188556     2.180913     2.173270
      2.165627     2.157983     2.150340     2.142697     2.135054     2.127410     2.119767     2.112124     2.104481     2.096838
      2.089194     2.081551     2.073908     2.066265     2.058621     2.050978     2.043335     2.035692     2.028049     2.020405
      2.012762     2.005119     1.997476     1.989833     1.982190     1.974546     1.966903     1.959260     1.951617     1.943974
      1.936331     1.928688     1.921045     1.913402     1.905759     1.898115     1.890472     1.882829     1.875186     1.867543
      1.859900     1.852257     1.844614     1.836971     1.829327     1.821684     1.814041     1.806398     1.798755     1.791112
      1.783469     1.775826     1.768183     1.760540     1.752896     1.745253     1.737610     1.729967     1.722324     1.714681
      1.707038     1.699395     1.691752     1.684108     1.676465     1.668822     1.661179     1.653536     1.645893     1.638250
      1.630607     1.622964     1.615321     1.607677     1.600034     1.592391     1.584748     1.577105     1.569462     1.561819
      1.554176     1.546533     1.538890     1.531246     1.523603     1.515960     1.508317     1.500674     1.493031     1.485388
      1.477745     1.470102     1.462458     1.454815     1.447172     1.439529     1.431886     1.424243     1.416600     1.408957
      1.401314     1.393671     1.386027     1.378384     1.370741     1.363098     1.355455     1.347812     1.340169     1.332526
      1.324883     1.317240     1.309596     1.301953     1.294310     1.286667     1.279024     1.271381     1.263738     1.256095
      1.248452     1.240808     1.233165     1.225522     1.217879     1.210236     1.202593     1.194950     1.187307     1.179664
      1.172021     1.164377     1.156734     1.149091     1.141448     1.133805     1.126162     1.118519     1.110876     1.103233
      1.095590     1.087946     1.080303     1.072660     1.065017     1.057374     1.049731     1.042088     1.034445     1.026802
      1.019158     1.011515     1.003872     0.996229     0.988586     0.980943     0.973300     0.965657     0.958014     0.950371
      0.942727     0.935084     0.927441     0.919798     0.912155     0.904512     0.896869     0.889226     0.881583     0.873940
      0.866296     0.858653     0.851010     0.843367     0.835724     0.828081     0.820438     0.812795     0.805152     0.797508
      0.789865     0.782222     0.774579     0.766936     0.759293     0.751650     0.744007     0.736364     0.728721     0.721077
      0.713434     0.705791     0.698148     0.690505     0.682862     0.675219     0.667576     0.659933     0.652290     0.644646
      0.637003     0.629360     0.621717     0.614074     0.606431     0.598788     0.591145     0.583502     0.575858     0.568215
      0.560572     0.552929     0.545286     0.537643     0.530000     0.522357     0.514714     0.507071     0.499427     0.491784
      0.484141     0.476498     0.468855     0.461212     0.453569     0.445925     0.438282     0.430639     0.422996     0.415353
      0.407710     0.400067     0.392424     0.384780     0.377137     0.369494     0.361851     0.354208     0.346565     0.338922
      0.331278     0.323635     0.315992     0.308349     0.300706     0.293063     0.285420     0.277777     0.270133     0.262490
      0.254847     0.247204     0.239561     0.231918     0.224275     0.216631     0.208988     0.201345
 NY phased data points follow
  -2.09883E+02 -2.03697E+02 -2.04843E+02 -2.15081E+02 -2.04222E+02 -1.85714E+02 -1.76445E+02 -1.71381E+02 -1.48097E+02 -1.51770E+02
  -1.49173E+02 -1.44379E+02 -1.41880E+02 -1.57361E+02 -1.55136E+02 -1.57811E+02 -1.75372E+02 -1.65919E+02 -1.79521E+02 -1.83023E+02
  -1.65163E+02 -1.60514E+02 -1.52305E+02 -1.57709E+02 -1.55523E+02 -1.54774E+02 -1.43907E+02 -1.51176E+02 -1.34354E+02 -1.34723E+02
  -1.32540E+02 -1.40204E+02 -1.41024E+02 -1.40149E+02 -1.40823E+02 -1.39999E+02 -1.14530E+02 -1.38407E+02 -1.41203E+02 -1.23410E+02
  -1.32315E+02 -1.30009E+02 -1.47979E+02 -1.35980E+02 -1.10684E+02 -1.09953E+02 -1.10193E+02 -1.19283E+02 -1.24698E+02 -9.99311E+01
  -1.41249E+02 -1.10146E+02 -1.27957E+02 -1.22716E+02 -1.16735E+02 -1.13456E+02 -1.11887E+02 -1.08862E+02 -1.10649E+02 -1.10203E+02
  -1.11854E+02 -9.06776E+01 -1.16553E+02 -1.19813E+02 -1.08519E+02 -1.14305E+02 -1.15759E+02 -1.16602E+02 -1.21651E+02 -1.11663E+02
  -1.11135E+02 -1.26103E+02 -1.08316E+02 -1.02254E+02 -1.13029E+02 -1.09064E+02 -8.25309E+01 -9.86133E+01 -1.04484E+02 -1.10086E+02
  -9.85520E+01 -8.66389E+01 -1.15155E+02 -8.67347E+01 -9.69936E+01 -1.12902E+02 -8.73199E+01 -9.31029E+01 -1.02079E+02 -1.01742E+02
  -9.86383E+01 -7.95030E+01 -7.18913E+01 -9.59280E+01 -8.65249E+01 -8.66050E+01 -9.96913E+01 -8.33013E+01 -8.58335E+01 -6.60652E+01
  -6.56126E+01 -6.37064E+01 -4.21436E+01 -2.65479E+01 -1.45806E+01 -3.42410E+01 -3.10903E+01 -6.38344E+01 -4.68735E+01 -6.05678E+01
  -7.75763E+01 -6.32044E+01 -7.77784E+01 -7.53688E+01 -8.63134E+01 -6.86051E+01 -8.21184E+01 -8.69188E+01 -6.96540E+01 -9.20049E+01
  -8.43715E+01 -6.48353E+01 -6.66150E+01 -6.05377E+01 -5.51819E+01 -5.20608E+01 -2.61980E+01 -4.11032E+01 -3.28259E+01 -4.55315E+01
  -4.16100E+01 -5.25967E+01 -5.37358E+01 -6.70216E+01 -4.49394E+01 -7.43607E+01 -6.63627E+01 -8.97880E+01 -8.28774E+01 -7.76959E+01
  -7.74409E+01 -7.31221E+01 -5.49776E+01 -7.86447E+01 -7.71078E+01 -5.43589E+01 -8.25598E+01 -8.58782E+01 -7.90916E+01 -6.86376E+01
  -6.84153E+01 -6.43300E+01 -6.12965E+01 -7.50656E+01 -6.03746E+01 -7.31761E+01 -7.60399E+01 -6.77433E+01 -6.30957E+01 -6.94211E+01
  -5.58894E+01 -5.60694E+01 -7.21359E+01 -7.32118E+01 -8.32956E+01 -5.63953E+01 -6.32800E+01 -4.88082E+01 -5.35658E+01 -4.33584E+01
  -7.11534E+01 -6.86709E+01 -7.12709E+01 -6.25886E+01 -6.55058E+01 -6.41905E+01 -6.83759E+01 -6.26421E+01 -7.34533E+01 -6.12524E+01
  -6.51238E+01 -6.29450E+01 -4.98031E+01 -7.13663E+01 -5.57480E+01 -6.67514E+01 -5.97343E+01 -5.59688E+01 -5.85859E+01 -4.51182E+01
  -5.14557E+01 -5.48350E+01 -5.37680E+01 -5.37680E+01 -4.89166E+01 -4.05294E+01 -4.88053E+01 -4.66595E+01 -5.69292E+01 -5.13641E+01
  -5.05439E+01 -5.20694E+01 -4.70067E+01 -3.91059E+01 -4.51533E+01 -4.34013E+01 -5.38752E+01 -4.78559E+01 -3.71168E+01 -5.84269E+01
  -4.71397E+01 -5.08306E+01 -4.24884E+01 -3.74146E+01 -4.87089E+01 -3.61326E+01 -2.34426E+01 -2.82592E+01 -4.24544E+01 -3.40967E+01
  -4.02125E+01 -4.52438E+01 -4.06271E+01 -5.28895E+01 -3.44090E+01 -3.95482E+01 -3.16995E+01 -3.77468E+01 -2.79436E+01 -5.07292E+01
  -3.28734E+01 -2.73439E+01 -1.79709E+01 -1.52356E+01 -2.14067E+01 -4.17831E+01 -3.58455E+01 -3.64020E+01 -3.69974E+01 -2.82244E+01
  -2.78281E+01 -1.84707E+01 -2.22142E+01 -3.14771E+01 -3.71637E+01 -4.05111E+01 -3.41724E+01 -2.57326E+01 -3.93667E+01 -2.83906E+01
  -3.12771E+01 -2.17568E+01 -1.89402E+01 -3.07504E+01 -3.35304E+01 -1.26272E+01  8.94379E+00  3.86206E-01  2.21962E+01  3.00448E+01
   3.18272E+01  3.29298E+01  2.28536E+01  1.94309E+01  2.92868E+01 -6.51150E-01 -9.72732E+00 -1.70130E+01 -2.62810E+01 -1.95783E+01
  -2.17399E+01 -2.01337E+01 -1.59970E+01 -1.74524E+01 -1.75267E+01 -4.30020E+01 -1.74509E+01 -3.74337E+01 -2.35545E+01 -2.23758E+01
  -3.45138E+01 -3.60252E+01 -2.86338E+01 -1.62564E+01 -2.42195E+01 -2.11237E+01 -3.46298E+01 -2.73024E+01 -1.59720E+01 -3.05256E+01
  -3.19617E+01 -3.04477E+01 -3.25096E+01 -2.91412E+01 -2.88668E+01 -1.20935E+01 -7.40786E+00 -1.67882E+01 -2.45099E+01 -2.16609E+01
  -1.61521E+01 -2.01202E+01 -9.81207E+00 -1.70539E+01 -1.64099E+01 -2.88164E+01 -2.55738E+01 -1.72759E+01 -1.89949E+01 -1.17024E+01
  -2.46128E+01 -2.50481E+01  3.22635E+00 -2.90588E+01 -1.27676E+01 -3.29974E+01 -1.48065E+01 -2.63309E+01 -2.53124E+01 -1.49749E+01
  -2.06463E+01 -2.15923E+01 -1.84435E+01 -2.94915E+01 -1.77362E+01 -3.01471E+01 -2.55706E+01 -2.31120E+01 -2.50412E+01 -2.70673E+01
  -1.76764E+01 -3.56929E+01 -2.77734E+01 -1.67640E+01 -2.13489E+01 -1.19663E+01 -1.97002E+01 -5.23240E+00 -6.37017E+00 -9.16930E+00
  -6.04174E+00 -5.71792E+00  3.08008E+00  9.09411E-01  4.32089E+00  3.59855E+00 -1.15749E+01 -1.61803E+00 -3.06059E+00 -2.78908E+00
  -9.52550E+00 -2.27066E+01  6.41505E+00 -8.12733E+00  7.15759E+00  9.33395E-01  1.51090E+01  5.92378E+00 -3.07033E+00  8.49103E-01
   7.36123E+00 -7.13477E+00 -7.19760E+00 -5.98042E+00 -1.49058E+01 -3.25264E+00  9.53602E+00 -1.02781E+01  7.15716E+00 -1.74442E+00
  -1.39703E+01 -2.16988E+01 -7.73857E+00 -1.39371E+01 -6.42189E+00 -1.02520E+01 -2.87653E+01 -2.09423E+01 -3.41551E+01 -2.40091E+01
  -1.85951E+01 -1.39986E+01 -2.03265E+01 -4.45462E+00 -2.33253E+01 -7.14074E+00 -1.06188E+01 -2.09773E+01 -1.38400E+01 -1.36502E+01
   5.66684E+00 -8.83894E+00  1.15133E+01 -2.39640E+01 -1.24443E+01 -7.03529E+00 -5.75368E+00  6.70076E-01 -1.06003E+01 -6.06646E+00
  -4.95651E+00 -7.28676E+00 -3.24847E+00  2.56207E+00 -8.38635E+00 -1.87131E+00  1.19384E+00  2.81157E+00 -3.11020E+00  6.16450E+00
   8.22528E+00 -1.66570E+00 -1.21127E+00 -1.26517E+01  7.08885E-01  8.15293E+00  1.55185E+01 -5.87514E+00  7.76213E+00  4.54236E+00
   9.07450E+00  3.85617E+00 -1.22403E+01 -4.50144E+00 -1.64943E+01  2.31515E+00 -3.60823E+00  1.03980E-01 -9.34814E+00 -1.28353E+01
  -8.85331E+00  1.59626E+01 -2.03047E+01  3.53174E+00 -2.92343E+00 -7.18326E+00  5.18273E+00 -1.16201E+01  3.49999E+00  1.83160E+00
   4.48676E+00  5.81967E-01 -4.95362E+00  2.24034E+00 -9.54280E+00 -1.52777E+00 -8.85830E+00 -2.29007E+00  2.02454E+00  5.24912E+00
  -8.80901E+00 -1.29453E+01  7.23407E+00  7.46441E-01  5.32351E-01  1.37772E+00 -6.53314E+00  6.88728E+00 -1.29559E+01 -1.77239E+01
  -5.94102E+00 -6.81726E+00 -5.56932E+00 -1.04375E+01  3.75858E+00 -9.22851E+00 -9.40223E+00 -9.56100E+00 -1.16613E+01 -3.65632E+00
  -1.22927E+01 -1.06354E+01 -2.08136E+00  5.67788E+00 -5.80173E+00 -8.15347E+00 -1.08986E+01 -4.33912E+00  5.11278E+00  1.97755E+00
  -1.89760E+00  6.23235E+00  6.81325E+00  5.35749E+00 -1.04911E+01  7.57986E+00  3.03296E+00  2.58298E+00 -1.86363E+01  7.22749E-01
  -2.76683E+00  1.11172E+01  2.85899E+00 -3.84085E+00  1.01191E+01 -1.41621E+01 -4.43642E+00  4.63645E-01
 NY points of the fit to the data follow
  -1.79900E+02 -1.80717E+02 -1.81266E+02 -1.81559E+02 -1.80603E+02 -1.77905E+02 -1.73934E+02 -1.69176E+02 -1.63806E+02 -1.58226E+02
  -1.53415E+02 -1.50481E+02 -1.49838E+02 -1.50989E+02 -1.53054E+02 -1.55420E+02 -1.57768E+02 -1.59894E+02 -1.61525E+02 -1.62211E+02
  -1.61581E+02 -1.60280E+02 -1.58987E+02 -1.57478E+02 -1.55575E+02 -1.53291E+02 -1.50580E+02 -1.47359E+02 -1.43753E+02 -1.40224E+02
  -1.37243E+02 -1.35146E+02 -1.34155E+02 -1.34251E+02 -1.35226E+02 -1.36843E+02 -1.38837E+02 -1.40924E+02 -1.42582E+02 -1.42972E+02
  -1.41527E+02 -1.38112E+02 -1.33222E+02 -1.27682E+02 -1.22207E+02 -1.17568E+02 -1.14591E+02 -1.14001E+02 -1.15807E+02 -1.19072E+02
  -1.22704E+02 -1.25903E+02 -1.28148E+02 -1.29137E+02 -1.28733E+02 -1.26932E+02 -1.23921E+02 -1.20454E+02 -1.17490E+02 -1.15545E+02
  -1.14675E+02 -1.14686E+02 -1.15136E+02 -1.15627E+02 -1.15780E+02 -1.15351E+02 -1.14391E+02 -1.13008E+02 -1.11234E+02 -1.09194E+02
  -1.07105E+02 -1.05303E+02 -1.04001E+02 -1.03220E+02 -1.02890E+02 -1.02879E+02 -1.03064E+02 -1.03350E+02 -1.03548E+02 -1.03487E+02
  -1.03003E+02 -1.02310E+02 -1.01712E+02 -1.01338E+02 -1.01151E+02 -1.01128E+02 -1.01305E+02 -1.01574E+02 -1.01697E+02 -1.01448E+02
  -1.00847E+02 -1.00057E+02 -9.91982E+01 -9.83541E+01 -9.75710E+01 -9.67129E+01 -9.51669E+01 -9.11308E+01 -8.35829E+01 -7.33308E+01
  -6.16293E+01 -4.94505E+01 -3.82039E+01 -3.01205E+01 -2.71511E+01 -2.96030E+01 -3.61349E+01 -4.47296E+01 -5.39704E+01 -6.31283E+01
  -7.14929E+01 -7.84714E+01 -8.33858E+01 -8.53743E+01 -8.56364E+01 -8.54848E+01 -8.51915E+01 -8.47679E+01 -8.41462E+01 -8.29113E+01
  -7.97700E+01 -7.41730E+01 -6.67952E+01 -5.85307E+01 -5.00662E+01 -4.23367E+01 -3.67315E+01 -3.44474E+01 -3.57207E+01 -3.97104E+01
  -4.51745E+01 -5.12861E+01 -5.75899E+01 -6.35749E+01 -6.87565E+01 -7.25005E+01 -7.40402E+01 -7.41254E+01 -7.36280E+01 -7.27980E+01
  -7.18126E+01 -7.08330E+01 -6.99338E+01 -6.91622E+01 -6.86080E+01 -6.82817E+01 -6.81433E+01 -6.81392E+01 -6.81757E+01 -6.81736E+01
  -6.80945E+01 -6.79190E+01 -6.76798E+01 -6.74009E+01 -6.71347E+01 -6.69200E+01 -6.67646E+01 -6.66478E+01 -6.65079E+01 -6.63075E+01
  -6.60209E+01 -6.56164E+01 -6.50918E+01 -6.45046E+01 -6.39463E+01 -6.34731E+01 -6.30894E+01 -6.27764E+01 -6.25251E+01 -6.23766E+01
  -6.23800E+01 -6.24516E+01 -6.24839E+01 -6.24363E+01 -6.23142E+01 -6.21461E+01 -6.18993E+01 -6.15410E+01 -6.11255E+01 -6.07370E+01
  -6.04151E+01 -6.01055E+01 -5.97042E+01 -5.91488E+01 -5.84110E+01 -5.74731E+01 -5.63036E+01 -5.48987E+01 -5.34009E+01 -5.20324E+01
  -5.10314E+01 -5.05408E+01 -5.05034E+01 -5.07534E+01 -5.11061E+01 -5.13751E+01 -5.13806E+01 -5.09146E+01 -4.98448E+01 -4.82363E+01
  -4.63312E+01 -4.44640E+01 -4.29599E+01 -4.21863E+01 -4.23357E+01 -4.32996E+01 -4.48589E+01 -4.67161E+01 -4.83744E+01 -4.92393E+01
  -4.89383E+01 -4.75293E+01 -4.53403E+01 -4.27793E+01 -4.03111E+01 -3.85014E+01 -3.78686E+01 -3.84585E+01 -3.98582E+01 -4.16680E+01
  -4.33898E+01 -4.45282E+01 -4.47973E+01 -4.40930E+01 -4.26171E+01 -4.07417E+01 -3.88871E+01 -3.73339E+01 -3.61567E+01 -3.54117E+01
  -3.50110E+01 -3.47480E+01 -3.44517E+01 -3.39942E+01 -3.33460E+01 -3.25865E+01 -3.18955E+01 -3.14577E+01 -3.13487E+01 -3.15101E+01
  -3.18739E+01 -3.23044E+01 -3.25886E+01 -3.25795E+01 -3.22613E+01 -3.17454E+01 -3.10776E+01 -3.02769E+01 -2.94298E+01 -2.85866E+01
  -2.77362E+01 -2.68623E+01 -2.58867E+01 -2.36356E+01 -1.84291E+01 -1.04013E+01 -6.88734E-01  9.77054E+00  2.00687E+01  2.85593E+01
   3.32443E+01  3.29933E+01  2.83418E+01  2.09318E+01  1.23089E+01  3.33435E+00 -5.34755E+00 -1.31054E+01 -1.94170E+01 -2.33629E+01
  -2.48492E+01 -2.54200E+01 -2.56578E+01 -2.57037E+01 -2.56618E+01 -2.56236E+01 -2.56105E+01 -2.56360E+01 -2.57056E+01 -2.58080E+01
  -2.59170E+01 -2.60112E+01 -2.60638E+01 -2.60510E+01 -2.59704E+01 -2.58308E+01 -2.56424E+01 -2.54187E+01 -2.51692E+01 -2.49003E+01
  -2.46196E+01 -2.43270E+01 -2.40217E+01 -2.37046E+01 -2.33760E+01 -2.30372E+01 -2.26929E+01 -2.23493E+01 -2.20126E+01 -2.16884E+01
  -2.13834E+01 -2.11037E+01 -2.08537E+01 -2.06374E+01 -2.04572E+01 -2.03135E+01 -2.02053E+01 -2.01297E+01 -2.00828E+01 -2.00590E+01
  -2.00521E+01 -2.00549E+01 -2.00593E+01 -2.00563E+01 -2.00368E+01 -1.99901E+01 -1.99034E+01 -1.97592E+01 -1.95284E+01 -1.91479E+01
  -1.85030E+01 -1.76576E+01 -1.68609E+01 -1.63092E+01 -1.61126E+01 -1.63893E+01 -1.72794E+01 -1.88176E+01 -2.06842E+01 -2.22997E+01
  -2.32735E+01 -2.34936E+01 -2.29516E+01 -2.16477E+01 -1.97150E+01 -1.74404E+01 -1.51374E+01 -1.31447E+01 -1.15276E+01 -1.00202E+01
  -8.24782E+00 -6.21086E+00 -4.33654E+00 -2.96141E+00 -2.11962E+00 -1.94051E+00 -2.84430E+00 -4.95963E+00 -7.53100E+00 -9.46286E+00
  -1.01137E+01 -9.37902E+00 -7.35254E+00 -4.21301E+00 -4.49771E-01  3.21189E+00  6.15601E+00  7.77173E+00  7.90481E+00  6.88887E+00
   5.01781E+00  2.57946E+00 -1.72778E-01 -2.95296E+00 -5.25261E+00 -6.98969E+00 -8.34581E+00 -9.41365E+00 -1.02495E+01 -1.08972E+01
  -1.13931E+01 -1.17675E+01 -1.20450E+01 -1.22449E+01 -1.23821E+01 -1.24676E+01 -1.25092E+01 -1.25123E+01 -1.24804E+01 -1.24153E+01
  -1.23179E+01 -1.21882E+01 -1.20255E+01 -1.18285E+01 -1.15953E+01 -1.13240E+01 -1.10122E+01 -1.06579E+01 -1.02587E+01 -9.81292E+00
  -9.31932E+00 -8.77749E+00 -8.18821E+00 -7.55356E+00 -6.87718E+00 -6.16444E+00 -5.42264E+00 -4.66095E+00 -3.89040E+00 -3.12351E+00
  -2.37402E+00 -1.65640E+00 -9.85361E-01 -3.75179E-01  1.60962E-01  6.11671E-01  9.67851E-01  1.22322E+00  1.37451E+00  1.42174E+00
   1.36816E+00  1.22005E+00  9.86327E-01  6.78073E-01  3.07865E-01 -1.10754E-01 -5.63958E-01 -1.03818E+00 -1.52069E+00 -2.00001E+00
  -2.46621E+00 -2.91102E+00 -3.32799E+00 -3.71235E+00 -4.06104E+00 -4.37243E+00 -4.64617E+00 -4.88289E+00 -5.08404E+00 -5.25158E+00
  -5.38792E+00 -5.49566E+00 -5.57749E+00 -5.63602E+00 -5.67379E+00 -5.69315E+00 -5.69631E+00 -5.68524E+00 -5.66172E+00 -5.62729E+00
  -5.58333E+00 -5.53105E+00 -5.47151E+00 -5.40562E+00 -5.33419E+00 -5.25787E+00 -5.17728E+00 -5.09293E+00 -5.00530E+00 -4.91478E+00
  -4.82172E+00 -4.72639E+00 -4.62909E+00 -4.53004E+00 -4.42945E+00 -4.32747E+00 -4.22424E+00 -4.11987E+00 -4.01449E+00 -3.90821E+00
  -3.80112E+00 -3.69327E+00 -3.58474E+00 -3.47559E+00 -3.36587E+00 -3.25564E+00 -3.14495E+00 -3.03382E+00 -2.92228E+00 -2.81035E+00
  -2.69809E+00 -2.58551E+00 -2.47263E+00 -2.35944E+00 -2.24597E+00 -2.13224E+00 -2.01826E+00 -1.90405E+00 -1.78960E+00 -1.67491E+00
  -1.56000E+00 -1.44487E+00 -1.32955E+00 -1.21400E+00 -1.09825E+00 -9.82274E-01 -8.66094E-01 -7.49709E-01 -6.33121E-01 -5.16320E-01
  -3.99304E-01 -2.82074E-01 -1.64638E-01 -4.69952E-02  7.08564E-02  1.88926E-01  3.07209E-01  4.25703E-01
 NY background values follow
    -1.880E+02   -1.870E+02   -1.859E+02   -1.849E+02   -1.839E+02   -1.829E+02   -1.818E+02   -1.808E+02   -1.798E+02   -1.788E+02
    -1.778E+02   -1.767E+02   -1.757E+02   -1.747E+02   -1.737E+02   -1.727E+02   -1.716E+02   -1.706E+02   -1.696E+02   -1.686E+02
    -1.676E+02   -1.666E+02   -1.656E+02   -1.646E+02   -1.636E+02   -1.626E+02   -1.616E+02   -1.606E+02   -1.596E+02   -1.586E+02
    -1.576E+02   -1.566E+02   -1.556E+02   -1.546E+02   -1.536E+02   -1.527E+02   -1.517E+02   -1.507E+02   -1.497E+02   -1.488E+02
    -1.478E+02   -1.468E+02   -1.459E+02   -1.449E+02   -1.440E+02   -1.430E+02   -1.421E+02   -1.412E+02   -1.402E+02   -1.393E+02
    -1.384E+02   -1.374E+02   -1.365E+02   -1.356E+02   -1.347E+02   -1.338E+02   -1.329E+02   -1.320E+02   -1.311E+02   -1.302E+02
    -1.293E+02   -1.285E+02   -1.276E+02   -1.267E+02   -1.259E+02   -1.250E+02   -1.241E+02   -1.233E+02   -1.224E+02   -1.216E+02
    -1.208E+02   -1.199E+02   -1.191E+02   -1.183E+02   -1.175E+02   -1.166E+02   -1.158E+02   -1.150E+02   -1.142E+02   -1.134E+02
    -1.127E+02   -1.119E+02   -1.111E+02   -1.103E+02   -1.096E+02   -1.088E+02   -1.080E+02   -1.073E+02   -1.065E+02   -1.058E+02
    -1.051E+02   -1.043E+02   -1.036E+02   -1.029E+02   -1.022E+02   -1.015E+02   -1.008E+02   -1.001E+02   -9.939E+01   -9.870E+01
    -9.802E+01   -9.735E+01   -9.667E+01   -9.601E+01   -9.535E+01   -9.469E+01   -9.404E+01   -9.340E+01   -9.276E+01   -9.212E+01
    -9.149E+01   -9.087E+01   -9.025E+01   -8.963E+01   -8.902E+01   -8.841E+01   -8.781E+01   -8.721E+01   -8.662E+01   -8.603E+01
    -8.544E+01   -8.486E+01   -8.429E+01   -8.371E+01   -8.315E+01   -8.258E+01   -8.202E+01   -8.147E+01   -8.092E+01   -8.037E+01
    -7.983E+01   -7.929E+01   -7.875E+01   -7.822E+01   -7.769E+01   -7.717E+01   -7.665E+01   -7.613E+01   -7.562E+01   -7.511E+01
    -7.460E+01   -7.410E+01   -7.360E+01   -7.311E+01   -7.262E+01   -7.213E+01   -7.164E+01   -7.116E+01   -7.069E+01   -7.021E+01
    -6.974E+01   -6.927E+01   -6.881E+01   -6.834E+01   -6.789E+01   -6.743E+01   -6.698E+01   -6.653E+01   -6.608E+01   -6.564E+01
    -6.520E+01   -6.476E+01   -6.433E+01   -6.390E+01   -6.347E+01   -6.304E+01   -6.262E+01   -6.220E+01   -6.178E+01   -6.137E+01
    -6.095E+01   -6.054E+01   -6.014E+01   -5.973E+01   -5.933E+01   -5.893E+01   -5.854E+01   -5.814E+01   -5.775E+01   -5.736E+01
    -5.697E+01   -5.659E+01   -5.620E+01   -5.582E+01   -5.544E+01   -5.507E+01   -5.470E+01   -5.432E+01   -5.396E+01   -5.359E+01
    -5.322E+01   -5.286E+01   -5.250E+01   -5.215E+01   -5.179E+01   -5.144E+01   -5.109E+01   -5.074E+01   -5.040E+01   -5.006E+01
    -4.972E+01   -4.938E+01   -4.904E+01   -4.871E+01   -4.838E+01   -4.805E+01   -4.773E+01   -4.741E+01   -4.709E+01   -4.677E+01
    -4.645E+01   -4.614E+01   -4.583E+01   -4.553E+01   -4.522E+01   -4.492E+01   -4.462E+01   -4.432E+01   -4.403E+01   -4.374E+01
    -4.345E+01   -4.316E+01   -4.288E+01   -4.260E+01   -4.232E+01   -4.205E+01   -4.178E+01   -4.151E+01   -4.124E+01   -4.097E+01
    -4.071E+01   -4.045E+01   -4.020E+01   -3.994E+01   -3.969E+01   -3.944E+01   -3.920E+01   -3.895E+01   -3.871E+01   -3.847E+01
    -3.824E+01   -3.800E+01   -3.777E+01   -3.754E+01   -3.731E+01   -3.709E+01   -3.686E+01   -3.664E+01   -3.642E+01   -3.621E+01
    -3.599E+01   -3.578E+01   -3.557E+01   -3.536E+01   -3.515E+01   -3.495E+01   -3.475E+01   -3.455E+01   -3.435E+01   -3.415E+01
    -3.395E+01   -3.376E+01   -3.357E+01   -3.338E+01   -3.319E+01   -3.300E+01   -3.282E+01   -3.264E+01   -3.245E+01   -3.227E+01
    -3.209E+01   -3.192E+01   -3.174E+01   -3.157E+01   -3.139E+01   -3.122E+01   -3.105E+01   -3.088E+01   -3.072E+01   -3.055E+01
    -3.039E+01   -3.022E+01   -3.006E+01   -2.990E+01   -2.974E+01   -2.958E+01   -2.942E+01   -2.927E+01   -2.911E+01   -2.896E+01
    -2.880E+01   -2.865E+01   -2.850E+01   -2.835E+01   -2.820E+01   -2.805E+01   -2.790E+01   -2.776E+01   -2.761E+01   -2.747E+01
    -2.732E+01   -2.718E+01   -2.704E+01   -2.689E+01   -2.675E+01   -2.661E+01   -2.647E+01   -2.633E+01   -2.619E+01   -2.606E+01
    -2.592E+01   -2.578E+01   -2.565E+01   -2.551E+01   -2.537E+01   -2.524E+01   -2.510E+01   -2.497E+01   -2.484E+01   -2.470E+01
    -2.457E+01   -2.443E+01   -2.430E+01   -2.417E+01   -2.404E+01   -2.390E+01   -2.377E+01   -2.364E+01   -2.351E+01   -2.338E+01
    -2.325E+01   -2.312E+01   -2.299E+01   -2.285E+01   -2.272E+01   -2.259E+01   -2.246E+01   -2.233E+01   -2.220E+01   -2.207E+01
    -2.194E+01   -2.181E+01   -2.168E+01   -2.155E+01   -2.142E+01   -2.128E+01   -2.115E+01   -2.102E+01   -2.089E+01   -2.076E+01
    -2.063E+01   -2.049E+01   -2.036E+01   -2.023E+01   -2.010E+01   -1.996E+01   -1.983E+01   -1.969E+01   -1.956E+01   -1.942E+01
    -1.929E+01   -1.915E+01   -1.902E+01   -1.888E+01   -1.874E+01   -1.861E+01   -1.847E+01   -1.833E+01   -1.819E+01   -1.805E+01
    -1.791E+01   -1.777E+01   -1.763E+01   -1.749E+01   -1.735E+01   -1.721E+01   -1.707E+01   -1.693E+01   -1.679E+01   -1.664E+01
    -1.650E+01   -1.636E+01   -1.622E+01   -1.607E+01   -1.593E+01   -1.579E+01   -1.564E+01   -1.550E+01   -1.535E+01   -1.521E+01
    -1.506E+01   -1.492E+01   -1.477E+01   -1.463E+01   -1.448E+01   -1.434E+01   -1.419E+01   -1.404E+01   -1.390E+01   -1.375E+01
    -1.361E+01   -1.346E+01   -1.331E+01   -1.317E+01   -1.302E+01   -1.287E+01   -1.273E+01   -1.258E+01   -1.243E+01   -1.229E+01
    -1.214E+01   -1.199E+01   -1.185E+01   -1.170E+01   -1.155E+01   -1.141E+01   -1.126E+01   -1.111E+01   -1.097E+01   -1.082E+01
    -1.068E+01   -1.053E+01   -1.038E+01   -1.024E+01   -1.009E+01   -9.948E+00   -9.803E+00   -9.658E+00   -9.513E+00   -9.369E+00
    -9.225E+00   -9.081E+00   -8.937E+00   -8.794E+00   -8.651E+00   -8.508E+00   -8.366E+00   -8.224E+00   -8.082E+00   -7.941E+00
    -7.800E+00   -7.659E+00   -7.519E+00   -7.379E+00   -7.239E+00   -7.100E+00   -6.962E+00   -6.824E+00   -6.686E+00   -6.549E+00
    -6.413E+00   -6.276E+00   -6.141E+00   -6.006E+00   -5.871E+00   -5.737E+00   -5.603E+00   -5.470E+00   -5.338E+00   -5.205E+00
    -5.073E+00   -4.942E+00   -4.811E+00   -4.680E+00   -4.550E+00   -4.420E+00   -4.290E+00   -4.160E+00   -4.031E+00   -3.902E+00
    -3.774E+00   -3.645E+00   -3.517E+00   -3.389E+00   -3.261E+00   -3.134E+00   -3.006E+00   -2.879E+00   -2.752E+00   -2.625E+00
    -2.498E+00   -2.371E+00   -2.244E+00   -2.117E+00   -1.990E+00   -1.864E+00   -1.737E+00   -1.610E+00   -1.483E+00   -1.356E+00
    -1.229E+00   -1.102E+00   -9.754E-01   -8.481E-01   -7.208E-01   -5.933E-01   -4.656E-01   -3.378E-01
 Ala      Conc. = 5.17E+02
