 LCModel (Version 6.3-1L) Copyright: S.W. Provencher.          Ref.: Magn. Reson. Med. 30:672-679 (1993).                
 Slice#3 Row#2 Col#1  PD_05_press_2_raw_act
 36 lines in following concentration table = NCONC+1
    Conc.  %SD /Cr+PCr  Metabolite                                         
 4.99E+03  13%  16.028 Ala                                                 
   15.579  72% 5.0E-02 Asp                                                 
    0.000 999%   0.000 Cr                                                  
  311.593  42%   1.000 PCr                                                 
    9.347  72% 3.0E-02 GABA                                                
    9.347  72% 3.0E-02 Glc                                                 
    0.000 999%   0.000 Gln                                                 
    0.000 999%   0.000 Glu                                                 
    0.000 999%   0.000 GPC                                                 
    0.000 999%   0.000 PCh                                                 
  336.674  59%   1.080 GSH                                                 
  626.093  71%   2.009 Ins                                                 
    0.000 999%   0.000 Lac                                                 
    0.000 999%   0.000 NAA                                                 
    0.000 999%   0.000 NAAG                                                
    3.115  72% 1.0E-02 Scyllo                                              
   15.578  72% 5.0E-02 Tau                                                 
   31.160  43%   0.100 -CrCH2                                              
    0.000 999%   0.000 GPC+PCh                                             
    0.000 999%   0.000 NAA+NAAG                                            
  311.593  42%   1.000 Cr+PCr                                              
    0.000 999%   0.000 Glu+Gln                                             
    0.000 999%   0.000 Lip13a                                              
    0.000 999%   0.000 Lip13b                                              
    0.000 999%   0.000 Lip09                                               
 4.94E-03 999% 1.6E-05 MM09                                                
    0.000 999%   0.000 Lip20                                               
    0.000 999%   0.000 MM20                                                
 1.95E-03 999% 6.2E-06 MM12                                                
    0.000 999%   0.000 MM14                                                
 2.35E-02 999% 7.5E-05 MM17                                                
    0.000 999%   0.000 Lip13a+Lip13b                                       
 1.95E-03 999% 6.2E-06 MM14+Lip13a+Lip13b+MM12                             
 4.94E-03 999% 1.6E-05 MM09+Lip09                                          
    0.000 999%   0.000 MM20+Lip20                                          
   6 lines in following misc. output table
  FWHM = 0.183 ppm    S/N =   1                                            
  Data shift = 0.115 ppm                                                   
  Ph: -82 deg      12.4 deg/ppm                                            
  alphaB,S = 8.5E+01,   4.1E+02                                            
   11 spline knots.   Ns = 9(2)                                            
   2 inflections.     1 extrema                                            
  498 points on ppm-axis = NY
      4.000000     3.992357     3.984714     3.977070     3.969427     3.961784     3.954141     3.946497     3.938854     3.931211
      3.923568     3.915925     3.908281     3.900638     3.892995     3.885352     3.877708     3.870065     3.862422     3.854779
      3.847136     3.839492     3.831849     3.824206     3.816563     3.808919     3.801276     3.793633     3.785990     3.778347
      3.770703     3.763060     3.755417     3.747774     3.740130     3.732487     3.724844     3.717201     3.709558     3.701914
      3.694271     3.686628     3.678985     3.671341     3.663698     3.656055     3.648412     3.640769     3.633125     3.625482
      3.617839     3.610196     3.602552     3.594909     3.587266     3.579623     3.571980     3.564336     3.556693     3.549050
      3.541407     3.533763     3.526120     3.518477     3.510834     3.503191     3.495547     3.487904     3.480261     3.472618
      3.464974     3.457331     3.449688     3.442045     3.434402     3.426758     3.419115     3.411472     3.403829     3.396185
      3.388542     3.380899     3.373256     3.365613     3.357969     3.350326     3.342683     3.335040     3.327396     3.319753
      3.312110     3.304467     3.296824     3.289180     3.281537     3.273894     3.266251     3.258607     3.250964     3.243321
      3.235678     3.228034     3.220391     3.212748     3.205105     3.197462     3.189818     3.182175     3.174532     3.166889
      3.159245     3.151602     3.143959     3.136316     3.128673     3.121029     3.113386     3.105743     3.098100     3.090456
      3.082813     3.075170     3.067527     3.059884     3.052240     3.044597     3.036954     3.029311     3.021667     3.014024
      3.006381     2.998738     2.991095     2.983451     2.975808     2.968165     2.960522     2.952878     2.945235     2.937592
      2.929949     2.922306     2.914662     2.907019     2.899376     2.891733     2.884089     2.876446     2.868803     2.861160
      2.853517     2.845873     2.838230     2.830587     2.822944     2.815300     2.807657     2.800014     2.792371     2.784728
      2.777084     2.769441     2.761798     2.754155     2.746511     2.738868     2.731225     2.723582     2.715939     2.708295
      2.700652     2.693009     2.685366     2.677722     2.670079     2.662436     2.654793     2.647150     2.639506     2.631863
      2.624220     2.616577     2.608933     2.601290     2.593647     2.586004     2.578361     2.570717     2.563074     2.555431
      2.547788     2.540144     2.532501     2.524858     2.517215     2.509572     2.501928     2.494285     2.486642     2.478999
      2.471355     2.463712     2.456069     2.448426     2.440783     2.433139     2.425496     2.417853     2.410210     2.402566
      2.394923     2.387280     2.379637     2.371994     2.364350     2.356707     2.349064     2.341421     2.333777     2.326134
      2.318491     2.310848     2.303205     2.295561     2.287918     2.280275     2.272632     2.264988     2.257345     2.249702
      2.242059     2.234416     2.226772     2.219129     2.211486     2.203843     2.196199     2.188556     2.180913     2.173270
      2.165627     2.157983     2.150340     2.142697     2.135054     2.127410     2.119767     2.112124     2.104481     2.096838
      2.089194     2.081551     2.073908     2.066265     2.058621     2.050978     2.043335     2.035692     2.028049     2.020405
      2.012762     2.005119     1.997476     1.989833     1.982190     1.974546     1.966903     1.959260     1.951617     1.943974
      1.936331     1.928688     1.921045     1.913402     1.905759     1.898115     1.890472     1.882829     1.875186     1.867543
      1.859900     1.852257     1.844614     1.836971     1.829327     1.821684     1.814041     1.806398     1.798755     1.791112
      1.783469     1.775826     1.768183     1.760540     1.752896     1.745253     1.737610     1.729967     1.722324     1.714681
      1.707038     1.699395     1.691752     1.684108     1.676465     1.668822     1.661179     1.653536     1.645893     1.638250
      1.630607     1.622964     1.615321     1.607677     1.600034     1.592391     1.584748     1.577105     1.569462     1.561819
      1.554176     1.546533     1.538890     1.531246     1.523603     1.515960     1.508317     1.500674     1.493031     1.485388
      1.477745     1.470102     1.462458     1.454815     1.447172     1.439529     1.431886     1.424243     1.416600     1.408957
      1.401314     1.393671     1.386027     1.378384     1.370741     1.363098     1.355455     1.347812     1.340169     1.332526
      1.324883     1.317240     1.309596     1.301953     1.294310     1.286667     1.279024     1.271381     1.263738     1.256095
      1.248452     1.240808     1.233165     1.225522     1.217879     1.210236     1.202593     1.194950     1.187307     1.179664
      1.172021     1.164377     1.156734     1.149091     1.141448     1.133805     1.126162     1.118519     1.110876     1.103233
      1.095590     1.087946     1.080303     1.072660     1.065017     1.057374     1.049731     1.042088     1.034445     1.026802
      1.019158     1.011515     1.003872     0.996229     0.988586     0.980943     0.973300     0.965657     0.958014     0.950371
      0.942727     0.935084     0.927441     0.919798     0.912155     0.904512     0.896869     0.889226     0.881583     0.873940
      0.866296     0.858653     0.851010     0.843367     0.835724     0.828081     0.820438     0.812795     0.805152     0.797508
      0.789865     0.782222     0.774579     0.766936     0.759293     0.751650     0.744007     0.736364     0.728721     0.721077
      0.713434     0.705791     0.698148     0.690505     0.682862     0.675219     0.667576     0.659933     0.652290     0.644646
      0.637003     0.629360     0.621717     0.614074     0.606431     0.598788     0.591145     0.583502     0.575858     0.568215
      0.560572     0.552929     0.545286     0.537643     0.530000     0.522357     0.514714     0.507071     0.499427     0.491784
      0.484141     0.476498     0.468855     0.461212     0.453569     0.445925     0.438282     0.430639     0.422996     0.415353
      0.407710     0.400067     0.392424     0.384780     0.377137     0.369494     0.361851     0.354208     0.346565     0.338922
      0.331278     0.323635     0.315992     0.308349     0.300706     0.293063     0.285420     0.277777     0.270133     0.262490
      0.254847     0.247204     0.239561     0.231918     0.224275     0.216631     0.208988     0.201345
 NY phased data points follow
   9.58180E+00  1.03984E+00  1.05783E+00  5.88120E+00  1.01416E+01  1.69403E+01  1.82322E+01  1.58488E+01  1.07656E+01  1.52960E+01
   1.20132E+01  4.02281E+00  1.12151E+01  2.04932E+00  5.15494E+00  2.21612E+00  7.88039E+00  8.70604E+00  6.63312E+00  9.49861E+00
   2.19595E+00  9.91740E+00  4.96008E+00  6.52457E+00  1.17870E+01  1.39313E+01  9.47928E+00  6.10026E+00  8.35765E+00  1.03216E+01
   9.84144E+00  8.24078E+00  1.22595E+01  6.34156E+00  3.32214E+00  3.95230E+00  1.14558E+01  9.81217E+00  9.12463E+00  6.62216E+00
   6.16129E+00  5.96921E+00  4.13987E+00  2.55106E+00  1.38214E+01  1.27267E+01  9.47715E+00  9.36621E+00  7.05130E+00  1.46507E+01
   7.59914E+00  1.13783E+01  6.45348E+00  2.10967E+01  5.55313E+00  1.13209E+01  1.06818E+01  4.34420E+00  1.85542E-01  1.10655E+01
   5.13432E-01  1.26539E+01  2.47103E+00  6.33675E+00  1.31262E+01  1.51640E+00 -1.58130E+00  4.67599E+00  7.06520E+00  3.41435E+00
   8.00625E+00  4.57113E+00  8.69270E+00  5.30457E+00  8.43681E+00 -3.10366E-01  4.62392E+00  9.36834E+00  3.55233E+00  1.42969E+01
   6.48699E+00 -2.50418E+00  5.86403E+00  2.65926E+00  3.75038E+00  1.81019E+00 -6.95300E+00 -1.34076E+00  1.26811E+00  6.15881E+00
   3.88340E+00  1.90973E+00  6.42914E+00  5.41818E+00  7.89707E+00  8.45261E+00  5.82138E+00  3.61526E+00  7.23554E+00 -2.26732E+00
   1.15163E+01  9.19270E+00 -4.99398E-01  3.55023E+00  2.14153E+00  1.14147E+01 -1.96437E+00  6.56978E+00  1.25819E+01  9.30012E+00
   4.31000E+00 -1.30344E+00  2.01422E+00  6.29576E+00  3.33771E+00  1.42918E+01  5.58943E+00  1.34217E+01  2.14800E+00  3.79411E+00
   8.62486E+00  7.54348E+00  1.26475E+01  7.00496E+00  1.17380E+01  1.02326E+01  3.43980E+00  1.86691E+01  5.01819E+00  2.68353E+00
   6.49333E+00  1.51983E+01 -8.64492E-01  1.56687E+01  1.36358E+01  1.31804E+01  6.01221E+00 -1.09598E+00  6.67840E+00  5.24134E+00
   9.88942E+00  4.98688E+00  5.14886E+00  5.06950E+00  4.96686E+00  4.15150E+00  6.74285E+00  7.94306E+00  9.85105E+00  7.59219E+00
   1.03529E+01  9.95094E+00  4.81352E+00  7.73996E+00  5.70547E+00  1.02604E+01  1.46758E+01  5.27562E+00  5.19812E+00 -8.72514E-01
   8.17190E+00  4.82132E+00  1.06748E+01  1.93147E+00  9.41730E-01  7.00153E+00  3.63015E-01  1.64576E+01  9.67167E+00 -2.15197E-01
   1.16159E+01  1.07185E+01  5.20898E+00  1.62816E+01  1.58688E+01  5.67473E+00  6.80437E+00  7.49665E+00  1.20798E+01  1.61718E+01
   4.22389E+00  9.38737E+00  6.54425E+00  9.91229E+00  4.48801E+00  1.40935E+01  1.17996E+01  2.31415E+00  6.60694E+00  5.97456E-02
   4.21326E+00  9.31473E+00  1.53386E+00  6.55795E+00  4.07031E+00  8.75255E+00  9.93465E+00  8.21611E+00  1.43219E+01  2.75736E+00
   5.84377E+00  4.65608E+00  1.93488E+00  4.34802E+00  1.48510E+00  4.98660E+00  6.94458E+00  9.85513E+00  5.04869E+00  7.61781E+00
   1.80266E+00  6.97398E+00  5.91391E+00  1.68592E+00  7.09145E+00  6.10217E+00  1.19197E+01  3.31173E+00  2.05543E+00  5.56316E+00
   1.04674E+01  1.46021E+00  4.21841E+00  1.14771E-01  8.65928E+00 -6.01869E-01  9.39563E+00  2.19155E+00  3.88992E+00  4.59630E-01
   3.68530E+00  4.99677E+00  5.91936E+00  5.18380E+00 -5.94210E-01 -6.32690E-01  4.32365E+00  1.15669E+01 -2.13796E+00 -3.22671E+00
   2.93363E+00 -4.14209E+00  1.68651E+00 -2.00393E+00 -1.65134E+00 -8.11627E+00 -1.42022E+00  7.94716E+00  3.08896E-01  3.48012E+00
  -4.13807E+00  1.30785E+00  6.43020E+00 -6.28405E-01  8.44188E+00  3.43862E+00  4.73443E+00  1.89261E+00  1.51404E+00  8.53068E+00
  -5.64682E+00 -7.42149E+00  1.06007E+01 -6.32070E+00 -3.32472E+00  1.97041E+00 -7.57188E+00  4.89111E+00 -4.57622E+00  2.09263E+00
  -7.09831E+00 -6.09656E-02 -3.44383E+00  9.55430E-01 -5.20202E+00 -4.39418E+00  2.54123E-01  5.33224E+00 -5.31940E-01 -3.09090E+00
  -7.02754E+00 -1.07198E+01  8.49369E-02  1.65802E+00  5.62581E+00  6.13085E-01 -7.08800E-01  1.56718E-01 -6.70188E+00 -3.47950E+00
  -7.16618E+00  9.82767E+00 -5.65591E+00 -2.41402E-02 -3.01752E+00  1.22790E-01  7.48994E+00  4.47361E+00  6.62410E+00  9.66139E+00
   7.48714E+00  1.20486E+01  1.01464E+01  1.07443E+01  1.91215E+01  1.95767E+01  1.65672E+01  2.20499E+01  2.29733E+01  2.51686E+01
   2.63456E+01  2.72210E+01  1.96007E+01  2.42655E+01  2.50642E+01  2.21932E+01  9.39957E+00  9.35959E+00  1.70443E+01  3.10221E+00
   7.32682E+00  1.03399E+01  1.53564E+01  6.07530E+00  4.14954E+00  4.93156E+00  4.45645E+00  3.99002E+00  7.90038E+00  1.13579E+01
   4.11245E+00  7.72216E+00 -2.22333E+00  3.98598E+00  4.40131E+00  1.53222E+01  5.08906E+00  3.63392E+00 -3.52791E+00  1.11038E+01
  -2.90637E+00  6.53150E+00 -4.40378E+00 -2.52440E+00  5.74259E+00  8.10699E+00  2.74367E+00  8.60396E+00  3.77229E+00  3.25498E-01
   1.49086E+00  1.00060E+00  2.87155E+00  1.04509E+01  1.28495E+01  7.76841E+00  4.38343E+00  3.98030E+00  4.27187E+00  5.21213E+00
   5.57324E+00  1.11358E+01 -6.23585E+00  1.15786E+01  5.93083E+00  1.02315E+01  7.79256E+00  7.43179E+00  1.26086E+00  1.36620E+01
   7.83648E+00  1.33141E+01  6.55273E+00  5.02756E+00  1.31169E+01  6.47166E+00  3.50766E+00  9.20743E+00  6.67053E+00  4.03846E+00
   7.59099E+00  3.70489E+00  6.78039E+00  3.30124E+00  8.25109E+00  1.27556E+01  2.98682E+00  5.19484E+00  5.15455E+00  6.34686E+00
   7.68887E+00 -1.02079E+01  6.38473E+00  2.38484E+00 -7.85961E+00  6.89879E+00  4.61470E+00  3.58598E+00  3.35519E+00  8.90424E+00
   2.55894E+00 -3.29227E+00  1.98587E+00  4.69052E+00 -1.18931E+00  1.24454E+01  9.58861E-01 -1.91377E+00 -3.49127E-01  5.39655E+00
  -1.00768E+01  5.69850E+00 -7.03877E-01  2.82186E-01  1.35142E+00  4.42014E+00 -4.09275E+00  1.53967E+00  6.37192E+00  2.62475E+00
  -1.49156E+00  4.13916E+00  9.88463E+00  8.11737E+00  7.39513E+00 -1.99315E+00  1.55901E+00  2.00996E+00  1.34554E+00  9.55662E+00
   8.67996E+00 -1.88069E-01  5.30131E+00  1.79356E+00  3.46879E+00  4.59112E+00 -1.72570E+00  9.38234E+00  7.16781E-01  8.29857E+00
   7.07052E+00  4.84619E+00 -3.17639E+00 -2.43552E+00  4.62345E+00  8.45547E+00  4.38076E-01  2.87528E+00 -1.90660E+00  2.82888E+00
   5.25944E-02  5.53868E+00  2.53449E+00 -5.38268E+00  3.33637E+00  2.59408E+00 -9.17779E-01  6.79286E-01  3.91220E+00 -5.82624E-01
   7.42088E-01  4.82711E+00  1.42853E+00  3.40216E+00  2.49588E+00  7.19699E+00  1.49418E+00  3.37643E+00  7.74850E+00  5.58591E+00
   9.85719E+00  5.50654E+00  2.34348E+00  3.41218E-01 -4.10555E+00  5.13821E-01  8.89162E+00  2.48949E-01  4.71755E+00  2.60335E+00
   7.61257E+00  4.83923E+00 -2.54533E+00  6.60213E-01 -2.48339E+00  3.95361E-01  2.20442E+00  8.72831E+00  5.17112E+00  1.29487E+01
  -3.09553E+00  9.67770E-01  2.91378E+00 -2.30021E-01  9.71178E-01 -6.61448E+00 -2.63705E+00 -3.35391E+00
 NY points of the fit to the data follow
   9.05459E+00  9.16714E+00  8.90095E+00  8.98808E+00  8.83332E+00  9.03342E+00  9.17702E+00  9.24432E+00  9.44848E+00  9.25824E+00
   9.39232E+00  8.95986E+00  9.08420E+00  8.33910E+00  8.67688E+00  7.95839E+00  8.49136E+00  7.90706E+00  8.53893E+00  8.13999E+00
   8.76593E+00  8.42896E+00  8.85007E+00  8.59577E+00  8.76457E+00  8.64562E+00  8.55994E+00  8.63400E+00  8.34283E+00  8.69484E+00
   8.26622E+00  8.87872E+00  8.26510E+00  8.99983E+00  8.18864E+00  8.97092E+00  8.00094E+00  8.80654E+00  7.76047E+00  8.54610E+00
   7.54593E+00  8.38511E+00  7.48245E+00  8.33385E+00  7.53993E+00  8.31466E+00  7.63161E+00  8.13863E+00  7.43888E+00  7.74453E+00
   7.13902E+00  7.32171E+00  6.91746E+00  7.00296E+00  6.84277E+00  6.97732E+00  6.94023E+00  7.03337E+00  7.05881E+00  7.08626E+00
   7.13156E+00  7.05886E+00  7.06289E+00  6.96824E+00  6.97501E+00  6.87922E+00  6.89762E+00  6.81283E+00  6.84551E+00  6.76665E+00
   6.79583E+00  6.67636E+00  6.67144E+00  6.51197E+00  6.48888E+00  6.31105E+00  6.28953E+00  6.11061E+00  6.10803E+00  5.93291E+00
   5.94264E+00  5.77435E+00  5.79203E+00  5.62251E+00  5.63549E+00  5.45831E+00  5.46107E+00  5.28764E+00  5.28744E+00  5.13023E+00
   5.13477E+00  4.99840E+00  5.01079E+00  4.89604E+00  4.92217E+00  4.82537E+00  4.85987E+00  4.78147E+00  4.82380E+00  4.76565E+00
   4.81441E+00  4.77558E+00  4.82323E+00  4.80125E+00  4.84431E+00  4.83755E+00  4.87959E+00  4.90620E+00  5.04224E+00  5.27989E+00
   5.42842E+00  5.87749E+00  5.96027E+00  6.58901E+00  6.55969E+00  7.33901E+00  7.18620E+00  8.02859E+00  7.73001E+00  8.57028E+00
   8.11220E+00  8.91818E+00  8.33909E+00  9.09841E+00  8.45821E+00  9.14188E+00  8.48361E+00  9.06754E+00  8.41965E+00  8.88179E+00
   8.26824E+00  8.60790E+00  8.04247E+00  8.26015E+00  7.75576E+00  7.85846E+00  7.41373E+00  7.39946E+00  7.01764E+00  6.88996E+00
   6.58298E+00  6.36413E+00  6.14165E+00  5.86500E+00  5.73248E+00  5.44027E+00  5.39626E+00  5.14066E+00  5.18584E+00  5.03171E+00
   5.07670E+00  4.95409E+00  4.98569E+00  4.89096E+00  4.90833E+00  4.84187E+00  4.84285E+00  4.77958E+00  4.75315E+00  4.69826E+00
   4.65659E+00  4.61935E+00  4.58145E+00  4.55892E+00  4.53045E+00  4.50914E+00  4.48454E+00  4.45112E+00  4.42785E+00  4.38089E+00
   4.36013E+00  4.30957E+00  4.30888E+00  4.27335E+00  4.30387E+00  4.28103E+00  4.32970E+00  4.30743E+00  4.35503E+00  4.30806E+00
   4.32780E+00  4.28145E+00  4.28141E+00  4.25463E+00  4.24014E+00  4.24121E+00  4.21476E+00  4.24427E+00  4.20662E+00  4.26045E+00
   4.21416E+00  4.29119E+00  4.23905E+00  4.33511E+00  4.27919E+00  4.38926E+00  4.32819E+00  4.44218E+00  4.37738E+00  4.48957E+00
   4.42352E+00  4.52686E+00  4.46005E+00  4.54981E+00  4.48521E+00  4.55915E+00  4.50220E+00  4.56057E+00  4.51653E+00  4.56595E+00
   4.53990E+00  4.58131E+00  4.57196E+00  4.58594E+00  4.56970E+00  4.55654E+00  4.52851E+00  4.50346E+00  4.47559E+00  4.46879E+00
   4.45517E+00  4.45848E+00  4.45027E+00  4.43529E+00  4.41828E+00  4.37120E+00  4.33995E+00  4.27752E+00  4.25678E+00  4.19224E+00
   4.19234E+00  4.12835E+00  4.14871E+00  4.08178E+00  4.11243E+00  4.03839E+00  4.07074E+00  3.99352E+00  4.02714E+00  3.95179E+00
   3.98552E+00  3.91762E+00  3.95175E+00  3.89377E+00  3.92738E+00  3.87976E+00  3.91101E+00  3.87056E+00  3.89518E+00  3.86070E+00
   3.87760E+00  3.85096E+00  3.85981E+00  3.84121E+00  3.84388E+00  3.84581E+00  3.85196E+00  3.87117E+00  3.88015E+00  3.91039E+00
   3.91678E+00  3.93381E+00  3.92711E+00  3.93574E+00  3.92462E+00  3.93140E+00  3.92275E+00  3.93673E+00  3.94131E+00  3.95843E+00
   3.96939E+00  3.98635E+00  4.00051E+00  4.01613E+00  4.03025E+00  4.04527E+00  4.06044E+00  4.07767E+00  4.09542E+00  4.11577E+00
   4.13691E+00  4.16116E+00  4.18656E+00  4.21569E+00  4.24654E+00  4.28167E+00  4.31917E+00  4.36161E+00  4.40725E+00  4.45879E+00
   4.51477E+00  4.57793E+00  4.64719E+00  4.72585E+00  4.81303E+00  4.91262E+00  5.02435E+00  5.15290E+00  5.29927E+00  5.46965E+00
   5.66731E+00  5.90172E+00  6.18115E+00  6.52276E+00  6.94860E+00  7.50178E+00  8.26413E+00  9.45889E+00  1.13557E+01  1.22824E+01
   1.41815E+01  1.43075E+01  1.54861E+01  1.45503E+01  1.44615E+01  1.22166E+01  1.18349E+01  9.87878E+00  9.40625E+00  8.38562E+00
   7.65482E+00  7.77632E+00  6.58722E+00  7.79339E+00  6.02704E+00  8.15091E+00  5.86573E+00  8.76386E+00  6.01377E+00  9.51995E+00
   6.41590E+00  1.03037E+01  6.91505E+00  1.09700E+01  7.43207E+00  1.14445E+01  7.79343E+00  1.16046E+01  7.98024E+00  1.15924E+01
   8.21740E+00  1.16031E+01  8.70798E+00  1.18613E+01  9.53344E+00  1.23251E+01  1.05310E+01  1.27264E+01  1.14302E+01  1.24406E+01
   1.09125E+01  1.09920E+01  9.51267E+00  8.94380E+00  7.69908E+00  6.81824E+00  6.24519E+00  5.82178E+00  5.48672E+00  5.21310E+00
   4.98262E+00  4.78649E+00  4.61567E+00  4.46676E+00  4.33410E+00  4.21654E+00  4.11003E+00  4.01455E+00  3.92688E+00  3.84757E+00
   3.77390E+00  3.70679E+00  3.64381E+00  3.58615E+00  3.53156E+00  3.48135E+00  3.43341E+00  3.38916E+00  3.34660E+00  3.30722E+00
   3.26906E+00  3.23368E+00  3.19916E+00  3.16710E+00  3.13562E+00  3.10637E+00  3.07746E+00  3.05057E+00  3.02384E+00  2.99896E+00
   2.97411E+00  2.95097E+00  2.92773E+00  2.90608E+00  2.88423E+00  2.86388E+00  2.84325E+00  2.82405E+00  2.80449E+00  2.78628E+00
   2.76765E+00  2.75032E+00  2.73252E+00  2.71598E+00  2.69891E+00  2.68305E+00  2.66664E+00  2.65140E+00  2.63558E+00  2.62089E+00
   2.60559E+00  2.59140E+00  2.57657E+00  2.56283E+00  2.54843E+00  2.53509E+00  2.52107E+00  2.50809E+00  2.49442E+00  2.48179E+00
   2.46844E+00  2.45610E+00  2.44303E+00  2.43097E+00  2.41817E+00  2.40637E+00  2.39381E+00  2.38224E+00  2.36990E+00  2.35853E+00
   2.34641E+00  2.33524E+00  2.32329E+00  2.31230E+00  2.30053E+00  2.28971E+00  2.27810E+00  2.26743E+00  2.25597E+00  2.24544E+00
   2.23411E+00  2.22371E+00  2.21251E+00  2.20224E+00  2.19116E+00  2.18099E+00  2.17002E+00  2.15997E+00  2.14910E+00  2.13915E+00
   2.12837E+00  2.11851E+00  2.10783E+00  2.09806E+00  2.08746E+00  2.07777E+00  2.06725E+00  2.05763E+00  2.04719E+00  2.03765E+00
   2.02728E+00  2.01780E+00  2.00750E+00  1.99809E+00  1.98785E+00  1.97851E+00  1.96832E+00  1.95904E+00  1.94891E+00  1.93969E+00
   1.92962E+00  1.92045E+00  1.91044E+00  1.90132E+00  1.89136E+00  1.88229E+00  1.87239E+00  1.86338E+00  1.85352E+00  1.84456E+00
   1.83477E+00  1.82586E+00  1.81613E+00  1.80728E+00  1.79760E+00  1.78882E+00  1.77922E+00  1.77051E+00  1.76099E+00  1.75237E+00
   1.74294E+00  1.73444E+00  1.72514E+00  1.71679E+00  1.70767E+00  1.69953E+00  1.69069E+00  1.68292E+00
 NY background values follow
     5.826E+00    5.818E+00    5.809E+00    5.801E+00    5.792E+00    5.784E+00    5.775E+00    5.767E+00    5.759E+00    5.750E+00
     5.742E+00    5.733E+00    5.725E+00    5.716E+00    5.708E+00    5.699E+00    5.691E+00    5.682E+00    5.674E+00    5.665E+00
     5.657E+00    5.649E+00    5.640E+00    5.632E+00    5.623E+00    5.615E+00    5.606E+00    5.598E+00    5.589E+00    5.581E+00
     5.572E+00    5.564E+00    5.555E+00    5.547E+00    5.539E+00    5.530E+00    5.522E+00    5.513E+00    5.505E+00    5.496E+00
     5.488E+00    5.479E+00    5.471E+00    5.462E+00    5.454E+00    5.446E+00    5.437E+00    5.429E+00    5.420E+00    5.412E+00
     5.403E+00    5.395E+00    5.386E+00    5.378E+00    5.369E+00    5.361E+00    5.352E+00    5.344E+00    5.336E+00    5.327E+00
     5.319E+00    5.310E+00    5.302E+00    5.293E+00    5.285E+00    5.276E+00    5.268E+00    5.259E+00    5.251E+00    5.242E+00
     5.234E+00    5.226E+00    5.217E+00    5.209E+00    5.200E+00    5.192E+00    5.183E+00    5.175E+00    5.166E+00    5.158E+00
     5.149E+00    5.141E+00    5.132E+00    5.124E+00    5.116E+00    5.107E+00    5.099E+00    5.090E+00    5.082E+00    5.073E+00
     5.065E+00    5.056E+00    5.048E+00    5.039E+00    5.031E+00    5.022E+00    5.014E+00    5.006E+00    4.997E+00    4.989E+00
     4.980E+00    4.972E+00    4.963E+00    4.955E+00    4.946E+00    4.938E+00    4.929E+00    4.921E+00    4.913E+00    4.904E+00
     4.896E+00    4.887E+00    4.879E+00    4.870E+00    4.862E+00    4.853E+00    4.845E+00    4.836E+00    4.828E+00    4.819E+00
     4.811E+00    4.803E+00    4.794E+00    4.786E+00    4.777E+00    4.769E+00    4.760E+00    4.752E+00    4.743E+00    4.735E+00
     4.726E+00    4.718E+00    4.709E+00    4.701E+00    4.693E+00    4.684E+00    4.676E+00    4.667E+00    4.659E+00    4.650E+00
     4.642E+00    4.633E+00    4.625E+00    4.616E+00    4.608E+00    4.599E+00    4.591E+00    4.583E+00    4.574E+00    4.566E+00
     4.557E+00    4.549E+00    4.540E+00    4.532E+00    4.523E+00    4.515E+00    4.506E+00    4.498E+00    4.490E+00    4.481E+00
     4.473E+00    4.464E+00    4.456E+00    4.447E+00    4.439E+00    4.430E+00    4.422E+00    4.413E+00    4.405E+00    4.396E+00
     4.388E+00    4.380E+00    4.371E+00    4.363E+00    4.354E+00    4.346E+00    4.337E+00    4.329E+00    4.320E+00    4.312E+00
     4.303E+00    4.295E+00    4.286E+00    4.278E+00    4.270E+00    4.261E+00    4.253E+00    4.244E+00    4.236E+00    4.227E+00
     4.219E+00    4.210E+00    4.202E+00    4.193E+00    4.185E+00    4.176E+00    4.168E+00    4.160E+00    4.151E+00    4.143E+00
     4.134E+00    4.126E+00    4.117E+00    4.109E+00    4.100E+00    4.092E+00    4.083E+00    4.075E+00    4.066E+00    4.058E+00
     4.050E+00    4.041E+00    4.033E+00    4.024E+00    4.016E+00    4.007E+00    3.999E+00    3.990E+00    3.982E+00    3.973E+00
     3.965E+00    3.956E+00    3.948E+00    3.940E+00    3.931E+00    3.923E+00    3.914E+00    3.906E+00    3.897E+00    3.889E+00
     3.880E+00    3.872E+00    3.863E+00    3.855E+00    3.846E+00    3.838E+00    3.830E+00    3.821E+00    3.813E+00    3.804E+00
     3.796E+00    3.787E+00    3.779E+00    3.770E+00    3.762E+00    3.753E+00    3.745E+00    3.737E+00    3.728E+00    3.720E+00
     3.711E+00    3.703E+00    3.694E+00    3.686E+00    3.677E+00    3.669E+00    3.660E+00    3.652E+00    3.643E+00    3.635E+00
     3.627E+00    3.618E+00    3.610E+00    3.601E+00    3.593E+00    3.584E+00    3.576E+00    3.567E+00    3.559E+00    3.550E+00
     3.542E+00    3.533E+00    3.525E+00    3.517E+00    3.508E+00    3.500E+00    3.491E+00    3.483E+00    3.474E+00    3.466E+00
     3.457E+00    3.449E+00    3.440E+00    3.432E+00    3.424E+00    3.415E+00    3.407E+00    3.398E+00    3.390E+00    3.381E+00
     3.373E+00    3.364E+00    3.356E+00    3.347E+00    3.339E+00    3.330E+00    3.322E+00    3.314E+00    3.305E+00    3.297E+00
     3.288E+00    3.280E+00    3.271E+00    3.263E+00    3.254E+00    3.246E+00    3.237E+00    3.229E+00    3.221E+00    3.212E+00
     3.204E+00    3.195E+00    3.187E+00    3.178E+00    3.170E+00    3.161E+00    3.153E+00    3.144E+00    3.136E+00    3.127E+00
     3.119E+00    3.111E+00    3.102E+00    3.094E+00    3.085E+00    3.077E+00    3.068E+00    3.060E+00    3.051E+00    3.043E+00
     3.034E+00    3.026E+00    3.018E+00    3.009E+00    3.001E+00    2.992E+00    2.984E+00    2.975E+00    2.967E+00    2.958E+00
     2.950E+00    2.941E+00    2.933E+00    2.924E+00    2.916E+00    2.908E+00    2.899E+00    2.891E+00    2.882E+00    2.874E+00
     2.865E+00    2.857E+00    2.848E+00    2.840E+00    2.831E+00    2.823E+00    2.815E+00    2.806E+00    2.798E+00    2.789E+00
     2.781E+00    2.772E+00    2.764E+00    2.755E+00    2.747E+00    2.738E+00    2.730E+00    2.722E+00    2.713E+00    2.705E+00
     2.696E+00    2.688E+00    2.679E+00    2.671E+00    2.662E+00    2.654E+00    2.645E+00    2.637E+00    2.629E+00    2.620E+00
     2.612E+00    2.603E+00    2.595E+00    2.586E+00    2.578E+00    2.569E+00    2.561E+00    2.552E+00    2.544E+00    2.535E+00
     2.527E+00    2.519E+00    2.510E+00    2.502E+00    2.493E+00    2.485E+00    2.476E+00    2.468E+00    2.459E+00    2.451E+00
     2.442E+00    2.434E+00    2.426E+00    2.417E+00    2.409E+00    2.400E+00    2.392E+00    2.383E+00    2.375E+00    2.366E+00
     2.358E+00    2.349E+00    2.341E+00    2.333E+00    2.324E+00    2.316E+00    2.307E+00    2.299E+00    2.290E+00    2.282E+00
     2.273E+00    2.265E+00    2.256E+00    2.248E+00    2.240E+00    2.231E+00    2.223E+00    2.214E+00    2.206E+00    2.197E+00
     2.189E+00    2.180E+00    2.172E+00    2.163E+00    2.155E+00    2.147E+00    2.138E+00    2.130E+00    2.121E+00    2.113E+00
     2.104E+00    2.096E+00    2.087E+00    2.079E+00    2.070E+00    2.062E+00    2.054E+00    2.045E+00    2.037E+00    2.028E+00
     2.020E+00    2.011E+00    2.003E+00    1.994E+00    1.986E+00    1.977E+00    1.969E+00    1.960E+00    1.952E+00    1.944E+00
     1.935E+00    1.927E+00    1.918E+00    1.910E+00    1.901E+00    1.893E+00    1.884E+00    1.876E+00    1.867E+00    1.859E+00
     1.851E+00    1.842E+00    1.834E+00    1.825E+00    1.817E+00    1.808E+00    1.800E+00    1.791E+00    1.783E+00    1.774E+00
     1.766E+00    1.758E+00    1.749E+00    1.741E+00    1.732E+00    1.724E+00    1.715E+00    1.707E+00    1.698E+00    1.690E+00
     1.681E+00    1.673E+00    1.665E+00    1.656E+00    1.648E+00    1.639E+00    1.631E+00    1.622E+00
 Ala      Conc. = 4.99E+03
