 LCModel (Version 6.3-1L) Copyright: S.W. Provencher.          Ref.: Magn. Reson. Med. 30:672-679 (1993).                
 Slice#2 Row#12 Col#3  PD_05_press_2_raw_act
 36 lines in following concentration table = NCONC+1
    Conc.  %SD /Cr+PCr  Metabolite                                         
 3.26E+03  13%   0.000 Ala                                                 
    3.856 103%   0.000 Asp                                                 
    0.000 999%   0.000 Cr                                                  
    0.000 999%   0.000 PCr                                                 
    2.301 104%   0.000 GABA                                                
    2.308 104%   0.000 Glc                                                 
  254.790 234%   0.000 Gln                                                 
    0.000 999%   0.000 Glu                                                 
   25.660  96%   0.000 GPC                                                 
    0.000 999%   0.000 PCh                                                 
  108.840  95%   0.000 GSH                                                 
  276.533  88%   0.000 Ins                                                 
 3.47E+03  11%   0.000 Lac                                                 
    0.000 999%   0.000 NAA                                                 
    0.000 999%   0.000 NAAG                                                
    0.773 103%   0.000 Scyllo                                              
    3.845 103%   0.000 Tau                                                 
    0.000 999%   0.000 -CrCH2                                              
   25.660  96%   0.000 GPC+PCh                                             
    0.000 999%   0.000 NAA+NAAG                                            
    0.000 999%   0.000 Cr+PCr                                              
  254.790 234%   0.000 Glu+Gln                                             
    0.000 999%   0.000 Lip13a                                              
    0.000 999%   0.000 Lip13b                                              
    0.000 999%   0.000 Lip09                                               
 1.08E+03   8%   0.000 MM09                                                
    0.000 999%   0.000 Lip20                                               
 1.62E+03   8%   0.000 MM20                                                
  324.080   8%   0.000 MM12                                                
  812.725   8%   0.000 MM14                                                
  406.225   8%   0.000 MM17                                                
    0.000 999%   0.000 Lip13a+Lip13b                                       
 1.14E+03   8%   0.000 MM14+Lip13a+Lip13b+MM12                             
 1.08E+03   8%   0.000 MM09+Lip09                                          
 1.62E+03   8%   0.000 MM20+Lip20                                          
   6 lines in following misc. output table
  FWHM = 0.168 ppm    S/N =   3                                            
  Data shift = 0.099 ppm                                                   
  Ph:  81 deg      67.2 deg/ppm                                            
  alphaB,S = 8.5E+01,   4.9E+02                                            
    7 spline knots.   Ns = 9(2)                                            
  (12) 2 infls.   ( 5) 1 extrs.                                            
  498 points on ppm-axis = NY
      4.000000     3.992357     3.984714     3.977070     3.969427     3.961784     3.954141     3.946497     3.938854     3.931211
      3.923568     3.915925     3.908281     3.900638     3.892995     3.885352     3.877708     3.870065     3.862422     3.854779
      3.847136     3.839492     3.831849     3.824206     3.816563     3.808919     3.801276     3.793633     3.785990     3.778347
      3.770703     3.763060     3.755417     3.747774     3.740130     3.732487     3.724844     3.717201     3.709558     3.701914
      3.694271     3.686628     3.678985     3.671341     3.663698     3.656055     3.648412     3.640769     3.633125     3.625482
      3.617839     3.610196     3.602552     3.594909     3.587266     3.579623     3.571980     3.564336     3.556693     3.549050
      3.541407     3.533763     3.526120     3.518477     3.510834     3.503191     3.495547     3.487904     3.480261     3.472618
      3.464974     3.457331     3.449688     3.442045     3.434402     3.426758     3.419115     3.411472     3.403829     3.396185
      3.388542     3.380899     3.373256     3.365613     3.357969     3.350326     3.342683     3.335040     3.327396     3.319753
      3.312110     3.304467     3.296824     3.289180     3.281537     3.273894     3.266251     3.258607     3.250964     3.243321
      3.235678     3.228034     3.220391     3.212748     3.205105     3.197462     3.189818     3.182175     3.174532     3.166889
      3.159245     3.151602     3.143959     3.136316     3.128673     3.121029     3.113386     3.105743     3.098100     3.090456
      3.082813     3.075170     3.067527     3.059884     3.052240     3.044597     3.036954     3.029311     3.021667     3.014024
      3.006381     2.998738     2.991095     2.983451     2.975808     2.968165     2.960522     2.952878     2.945235     2.937592
      2.929949     2.922306     2.914662     2.907019     2.899376     2.891733     2.884089     2.876446     2.868803     2.861160
      2.853517     2.845873     2.838230     2.830587     2.822944     2.815300     2.807657     2.800014     2.792371     2.784728
      2.777084     2.769441     2.761798     2.754155     2.746511     2.738868     2.731225     2.723582     2.715939     2.708295
      2.700652     2.693009     2.685366     2.677722     2.670079     2.662436     2.654793     2.647150     2.639506     2.631863
      2.624220     2.616577     2.608933     2.601290     2.593647     2.586004     2.578361     2.570717     2.563074     2.555431
      2.547788     2.540144     2.532501     2.524858     2.517215     2.509572     2.501928     2.494285     2.486642     2.478999
      2.471355     2.463712     2.456069     2.448426     2.440783     2.433139     2.425496     2.417853     2.410210     2.402566
      2.394923     2.387280     2.379637     2.371994     2.364350     2.356707     2.349064     2.341421     2.333777     2.326134
      2.318491     2.310848     2.303205     2.295561     2.287918     2.280275     2.272632     2.264988     2.257345     2.249702
      2.242059     2.234416     2.226772     2.219129     2.211486     2.203843     2.196199     2.188556     2.180913     2.173270
      2.165627     2.157983     2.150340     2.142697     2.135054     2.127410     2.119767     2.112124     2.104481     2.096838
      2.089194     2.081551     2.073908     2.066265     2.058621     2.050978     2.043335     2.035692     2.028049     2.020405
      2.012762     2.005119     1.997476     1.989833     1.982190     1.974546     1.966903     1.959260     1.951617     1.943974
      1.936331     1.928688     1.921045     1.913402     1.905759     1.898115     1.890472     1.882829     1.875186     1.867543
      1.859900     1.852257     1.844614     1.836971     1.829327     1.821684     1.814041     1.806398     1.798755     1.791112
      1.783469     1.775826     1.768183     1.760540     1.752896     1.745253     1.737610     1.729967     1.722324     1.714681
      1.707038     1.699395     1.691752     1.684108     1.676465     1.668822     1.661179     1.653536     1.645893     1.638250
      1.630607     1.622964     1.615321     1.607677     1.600034     1.592391     1.584748     1.577105     1.569462     1.561819
      1.554176     1.546533     1.538890     1.531246     1.523603     1.515960     1.508317     1.500674     1.493031     1.485388
      1.477745     1.470102     1.462458     1.454815     1.447172     1.439529     1.431886     1.424243     1.416600     1.408957
      1.401314     1.393671     1.386027     1.378384     1.370741     1.363098     1.355455     1.347812     1.340169     1.332526
      1.324883     1.317240     1.309596     1.301953     1.294310     1.286667     1.279024     1.271381     1.263738     1.256095
      1.248452     1.240808     1.233165     1.225522     1.217879     1.210236     1.202593     1.194950     1.187307     1.179664
      1.172021     1.164377     1.156734     1.149091     1.141448     1.133805     1.126162     1.118519     1.110876     1.103233
      1.095590     1.087946     1.080303     1.072660     1.065017     1.057374     1.049731     1.042088     1.034445     1.026802
      1.019158     1.011515     1.003872     0.996229     0.988586     0.980943     0.973300     0.965657     0.958014     0.950371
      0.942727     0.935084     0.927441     0.919798     0.912155     0.904512     0.896869     0.889226     0.881583     0.873940
      0.866296     0.858653     0.851010     0.843367     0.835724     0.828081     0.820438     0.812795     0.805152     0.797508
      0.789865     0.782222     0.774579     0.766936     0.759293     0.751650     0.744007     0.736364     0.728721     0.721077
      0.713434     0.705791     0.698148     0.690505     0.682862     0.675219     0.667576     0.659933     0.652290     0.644646
      0.637003     0.629360     0.621717     0.614074     0.606431     0.598788     0.591145     0.583502     0.575858     0.568215
      0.560572     0.552929     0.545286     0.537643     0.530000     0.522357     0.514714     0.507071     0.499427     0.491784
      0.484141     0.476498     0.468855     0.461212     0.453569     0.445925     0.438282     0.430639     0.422996     0.415353
      0.407710     0.400067     0.392424     0.384780     0.377137     0.369494     0.361851     0.354208     0.346565     0.338922
      0.331278     0.323635     0.315992     0.308349     0.300706     0.293063     0.285420     0.277777     0.270133     0.262490
      0.254847     0.247204     0.239561     0.231918     0.224275     0.216631     0.208988     0.201345
 NY phased data points follow
   2.80195E+00  5.87621E+00  4.53502E+00  5.75736E+00  4.21831E+00  3.95521E+00  8.27417E-01  3.54871E+00  1.40895E+00  3.30520E+00
   1.24935E+00  8.14149E-01  3.51026E+00  5.07184E+00  2.96311E+00  2.25609E+00  2.47600E+00  2.67809E+00  3.72077E+00  2.33667E+00
   9.07326E-01  2.40866E+00  3.05241E+00  3.67038E+00 -6.70637E-01  6.52796E+00 -9.38434E-01 -1.16629E+00 -1.12278E+00  2.24013E+00
   6.24628E-01  5.13393E+00  2.83483E-01  1.48413E+00  8.19160E-01  5.54472E+00  1.49427E-01  5.14890E+00  3.49564E+00  2.41922E+00
  -7.52978E-02  1.72557E+00  3.80409E+00  3.88856E+00  3.47415E-01 -2.69024E+00  2.51984E+00  1.26353E+00  1.40776E-01  1.13528E+00
   2.20879E+00 -1.01470E+00 -1.15223E+00 -2.18179E+00 -2.25381E+00 -2.41990E-01 -8.82688E-01  2.27583E+00 -6.63893E-01 -6.82561E-01
   4.07231E+00  1.86643E+00  2.15815E-01 -2.37157E-01  2.58666E-01  2.67446E+00  9.49283E-01  4.32060E+00 -1.13934E+00  8.89783E-01
   7.79893E-01  1.31526E+00  1.78770E+00  5.47392E-01 -1.88350E+00  4.44470E+00  1.64668E+00  4.28057E-01 -1.36591E+00 -1.08687E+00
   1.41132E+00 -1.34753E+00  1.14848E+00 -2.99750E+00  4.83891E-01 -7.09423E-01  7.40953E-01  2.81755E+00  4.73702E+00 -7.71238E-01
   2.87700E-01  1.33983E+00  1.23677E+00  3.58541E+00  2.19553E+00 -5.68766E-01 -2.61963E+00 -9.75353E-01 -4.90730E+00 -1.49334E+00
  -1.98228E+00 -1.91905E+00  6.82535E-01  1.45158E+00  3.17862E+00 -2.72372E+00 -1.01290E+00  4.96559E-01 -1.12860E+00 -1.58503E+00
  -8.46741E-01 -2.06412E+00 -1.81808E+00 -7.63322E-02 -4.32967E+00  6.68468E-01  2.90790E-01  7.53424E-01 -4.83265E-01  2.09943E+00
  -1.55369E+00 -4.61936E+00 -8.87630E-01 -4.32579E+00 -5.65039E+00  1.48758E+00 -1.98590E+00 -2.18492E+00  1.03228E+00  9.75168E-01
  -2.87636E+00  4.28594E-01 -1.82034E+00  1.33575E+00 -7.57547E-01  4.05413E-01 -7.56696E-01 -1.85242E+00  6.01629E-01 -6.00555E-02
   1.81744E+00 -1.01605E+00  8.52680E-01  1.24403E+00 -3.10063E+00 -7.66847E-01  1.43706E+00  2.71407E+00 -1.90646E+00 -3.50301E+00
  -1.40900E+00 -2.51954E+00 -5.11700E-01 -1.91569E+00 -6.77899E-01 -1.49016E+00  1.31322E+00  1.10786E+00  9.56158E-02  1.52838E+00
   9.42833E-02  4.04241E-01  1.39699E+00 -2.52429E+00 -1.90930E+00  7.82142E-01 -5.54574E-01  2.49675E+00 -9.45243E-01  3.76778E-01
  -2.41278E+00  9.70708E-01  4.09292E+00 -3.16076E+00  9.97095E-01 -3.81664E-01  3.26933E+00  3.20460E-01 -6.20536E-01 -2.06999E+00
   9.88958E-01  2.08163E+00  4.15116E-01 -2.08059E+00  1.54917E+00 -9.34537E-01  1.06170E+00  1.31813E+00 -1.72168E+00  6.90265E-01
  -8.32857E-01  3.47656E+00 -1.24695E-01 -2.61831E+00  2.82539E+00  8.34549E+00  2.77557E+00  4.95546E+00 -1.22314E+00 -1.62048E+00
   1.74227E+00  2.16230E+00  2.96730E+00  3.34744E+00  5.38423E+00  6.37964E-01  7.78784E+00 -1.69992E-01  2.55774E-01  4.72638E+00
   3.21400E+00  3.22316E+00  4.02773E+00  2.41636E+00  2.16175E+00  4.28214E+00  3.68822E+00 -2.41204E-01  1.04263E+00  2.46141E+00
  -1.08832E+00  1.63086E+00  1.92436E+00 -2.13731E+00  7.58714E-01  2.20641E+00  2.77554E+00  2.28262E+00  5.12162E+00  6.23566E-01
   3.72539E+00  7.02282E-01  9.70477E-02 -8.18772E-01  2.29606E+00  3.44569E+00  1.11335E-01  3.43026E-02 -2.75303E-01  3.30102E+00
   2.45529E+00 -1.90220E+00  3.29832E+00 -8.65270E-01 -2.09695E+00 -8.97688E-02 -7.31871E-01 -1.51854E+00  2.32405E+00  3.42888E+00
   1.92209E+00 -1.65017E+00 -1.97522E+00 -6.71836E+00 -3.53892E+00  1.63344E-01 -5.24703E+00 -3.50562E+00 -2.51219E+00 -1.73538E+00
  -2.80208E+00  1.65318E+00 -1.52032E+00 -5.37012E-01 -2.77908E+00 -4.62413E+00 -2.31687E+00  1.64324E-01 -8.57756E-01  3.74840E-01
  -3.18892E+00 -1.86094E+00 -2.12674E+00  7.96608E-01  2.12317E+00 -1.32947E+00  4.25964E-01  2.13051E+00 -1.78733E+00  1.50542E-01
  -2.12823E+00  1.40851E+00 -1.53938E+00 -2.09436E+00 -3.46380E-01  3.76838E-01  4.90857E-01 -1.65410E+00 -7.36137E-01  1.02747E+00
  -9.33508E-01  2.25302E+00 -7.79309E-01  2.87265E+00  9.42581E-01 -3.43192E+00  3.73933E-01  2.50540E+00  1.84958E+00  4.68740E+00
   8.23553E+00  5.78323E+00  5.36914E+00  8.42303E+00  8.99812E+00  1.07250E+01  9.83469E+00  1.01878E+01  9.52219E+00  1.03813E+01
   9.98879E+00  1.62312E+01  1.34222E+01  1.48454E+01  1.49222E+01  1.38447E+01  1.57032E+01  1.25838E+01  1.20911E+01  1.15804E+01
   1.49679E+01  1.37701E+01  1.45998E+01  1.73547E+01  1.37483E+01  1.36557E+01  1.74285E+01  1.24563E+01  1.12856E+01  8.27677E+00
   9.76055E+00  1.13730E+01  8.85053E+00  8.61059E+00  7.40200E+00  8.99528E+00  5.24665E+00  7.81413E+00  8.49782E+00  8.24999E+00
   4.31052E+00  6.64453E+00  6.56165E+00  6.97648E+00  3.30428E+00  5.58710E+00  6.92128E+00  2.45900E+00  1.95219E+00 -1.42989E+00
  -4.37607E-01  1.55192E+00  1.00704E+00 -1.36769E+00  1.36952E+00 -2.77847E+00 -1.95071E+00 -4.51485E-01 -2.82540E-01 -2.06124E+00
  -4.13730E-02  1.15889E+00  2.26044E+00  1.16151E+00  4.08706E+00 -1.97544E+00  1.11719E+00  2.48623E+00  2.01941E+00  2.67527E-01
   2.65972E+00  1.78208E+00  9.68533E-01  4.23533E+00 -8.78762E-01  9.18046E-01 -4.86734E+00  8.59938E-02  2.76924E+00  9.63166E-01
   3.03959E+00 -1.95565E+00 -2.71171E+00 -1.29632E+00 -2.08708E-01 -2.61982E+00 -4.12461E+00 -7.73640E-01 -9.66326E-01  6.40403E-01
   3.92513E-01  6.12329E-02 -1.12467E+00 -2.51027E+00  1.59133E-01 -6.11896E-01  1.97782E+00 -2.74700E+00  1.17396E+00 -1.03397E+00
  -6.75762E-01 -2.17304E+00 -1.14511E+00 -3.06736E+00  4.47575E-02 -1.93362E+00 -1.96693E+00 -9.83869E-01 -2.40471E+00 -2.80586E+00
  -1.60932E+00 -1.28119E+00 -5.17788E+00 -1.83144E+00 -4.87234E-01 -3.35917E+00  5.75464E-01 -2.96622E-01  1.45693E+00 -1.62512E+00
  -2.65879E+00 -3.53602E+00 -4.12239E+00 -2.42050E+00 -7.26897E-02 -5.03790E+00 -4.26806E+00 -3.18114E+00 -2.12577E+00 -3.19452E+00
  -1.76212E+00 -4.87091E+00 -1.22666E+00  6.19927E-01 -2.15049E+00 -1.83223E+00 -1.20476E+00 -1.98576E+00 -5.44154E+00 -4.24887E-01
  -3.07542E+00 -4.99523E+00 -1.27737E+00 -3.40486E+00 -1.58430E+00 -8.73683E-01 -4.19634E+00 -2.20591E+00 -9.40094E-01 -7.00758E-01
  -2.25545E+00 -1.87408E-01 -2.69395E+00 -7.68364E+00 -2.58246E+00 -2.69003E+00 -2.01772E+00 -4.81026E+00 -1.03721E+00 -2.35444E+00
  -3.38756E+00 -1.89284E+00 -5.93211E-01  1.59366E+00 -3.15002E+00 -1.28019E+00  1.26866E+00 -1.90536E+00  3.09682E+00 -5.55504E-01
  -2.46320E+00  2.13666E+00 -3.57731E+00  2.00071E-01  7.56970E-01 -1.92883E+00 -5.43212E+00 -3.57449E+00  1.18243E+00  2.86975E+00
  -4.26143E-01 -3.95988E+00 -1.45422E-01 -4.58689E-01 -3.85242E+00 -4.50210E-01 -3.50333E+00 -8.46433E-01 -8.93348E-01 -3.12919E+00
  -4.39723E+00 -1.41114E+00 -3.34563E-01 -1.39246E+00 -3.65535E+00  6.88179E-01 -1.86261E+00 -4.02687E+00
 NY points of the fit to the data follow
   3.83952E+00  2.95454E+00  3.65588E+00  3.03057E+00  3.48124E+00  3.00129E+00  3.29782E+00  2.98774E+00  3.00857E+00  2.93654E+00
   2.73485E+00  2.98157E+00  2.61922E+00  3.01273E+00  2.49955E+00  3.16877E+00  2.45964E+00  3.35397E+00  2.41566E+00  3.47973E+00
   2.35489E+00  3.49686E+00  2.12033E+00  3.34769E+00  1.81310E+00  3.14238E+00  1.55557E+00  2.98718E+00  1.45846E+00  2.94457E+00
   1.49372E+00  2.91176E+00  1.53912E+00  2.80737E+00  1.53028E+00  2.59224E+00  1.45389E+00  2.30213E+00  1.35597E+00  2.01425E+00
   1.29930E+00  1.83635E+00  1.33182E+00  1.71421E+00  1.37847E+00  1.58677E+00  1.34694E+00  1.37022E+00  1.10615E+00  1.08215E+00
   9.09378E-01  8.87788E-01  8.07256E-01  8.05379E-01  8.23445E-01  9.05848E-01  9.07580E-01  9.47387E-01  9.18473E-01  9.21044E-01
   8.56047E-01  8.27550E-01  7.24128E-01  7.16381E-01  6.36451E-01  6.43592E-01  5.78285E-01  5.94728E-01  5.36104E-01  5.48580E-01
   4.78702E-01  4.74256E-01  4.03399E-01  3.96192E-01  3.36494E-01  3.32826E-01  2.88790E-01  2.90248E-01  2.63430E-01  2.65811E-01
   2.56977E-01  2.63453E-01  2.71464E-01  2.86606E-01  3.25732E-01  3.41616E-01  3.89313E-01  4.08760E-01  4.53544E-01  4.79765E-01
   5.11857E-01  5.43765E-01  5.55575E-01  5.93037E-01  5.83582E-01  6.23032E-01  5.93275E-01  6.35576E-01  5.82929E-01  6.25740E-01
   5.40689E-01  5.82735E-01  4.63016E-01  5.04902E-01  3.55208E-01  3.99907E-01  2.34855E-01  2.82725E-01  1.15217E-01  1.65116E-01
   8.65672E-03  6.26544E-02 -7.28397E-02 -1.73973E-02 -1.26324E-01 -7.40645E-02 -1.64257E-01 -1.27308E-01 -2.00499E-01 -1.82899E-01
  -2.37039E-01 -2.27943E-01 -2.59955E-01 -2.52316E-01 -2.71489E-01 -2.76582E-01 -3.23324E-01 -3.36810E-01 -4.04540E-01 -4.23566E-01
  -5.08918E-01 -5.32187E-01 -6.30064E-01 -6.53389E-01 -7.57753E-01 -7.76149E-01 -8.81529E-01 -8.91163E-01 -9.94032E-01 -9.95853E-01
  -1.09468E+00 -1.09203E+00 -1.18366E+00 -1.17768E+00 -1.25773E+00 -1.24892E+00 -1.31475E+00 -1.30412E+00 -1.35550E+00 -1.34356E+00
  -1.37973E+00 -1.36659E+00 -1.38680E+00 -1.37212E+00 -1.37848E+00 -1.36443E+00 -1.36587E+00 -1.35752E+00 -1.34957E+00 -1.33974E+00
  -1.32100E+00 -1.30376E+00 -1.27884E+00 -1.25621E+00 -1.23125E+00 -1.20797E+00 -1.18425E+00 -1.16099E+00 -1.13631E+00 -1.11240E+00
  -1.08445E+00 -1.05759E+00 -1.02475E+00 -9.95697E-01 -9.60957E-01 -9.36126E-01 -9.03163E-01 -8.83995E-01 -8.56580E-01 -8.39785E-01
  -8.10052E-01 -7.83705E-01 -7.45173E-01 -6.99416E-01 -6.53482E-01 -5.91886E-01 -5.44674E-01 -4.71777E-01 -4.37396E-01 -3.61332E-01
  -3.50596E-01 -2.79339E-01 -2.88613E-01 -1.92205E-01 -2.11731E-01 -7.86622E-02 -1.05696E-01  6.47128E-02  2.91040E-02  2.29079E-01
   1.80028E-01  3.97383E-01  3.31833E-01  5.57646E-01  4.79324E-01  7.12190E-01  6.29286E-01  8.70990E-01  7.93966E-01  1.04208E+00
   9.76089E-01  1.22346E+00  1.16760E+00  1.39512E+00  1.34810E+00  1.54702E+00  1.50937E+00  1.67757E+00  1.65450E+00  1.80998E+00
   1.80798E+00  1.95754E+00  1.97296E+00  2.11282E+00  2.12515E+00  2.24554E+00  2.24967E+00  2.35762E+00  2.35165E+00  2.45177E+00
   2.44037E+00  2.54396E+00  2.53880E+00  2.67408E+00  2.67247E+00  2.81741E+00  2.80575E+00  2.94469E+00  2.91086E+00  3.02705E+00
   2.96564E+00  3.04716E+00  2.95874E+00  2.99848E+00  2.88615E+00  2.87932E+00  2.74524E+00  2.68909E+00  2.53453E+00  2.43093E+00
   2.25915E+00  2.11437E+00  1.93147E+00  1.75646E+00  1.57488E+00  1.38712E+00  1.21601E+00  1.02677E+00  8.73843E-01  7.05399E-01
   5.73550E-01  4.22621E-01  3.12648E-01  1.82993E-01  8.69764E-02 -2.13337E-02 -9.30148E-02 -1.72814E-01 -2.19334E-01 -2.70289E-01
  -2.91456E-01 -3.14538E-01 -3.09996E-01 -3.06366E-01 -2.81509E-01 -2.54676E-01 -2.11182E-01 -1.62573E-01 -1.01800E-01 -3.20060E-02
   4.75815E-02  1.37646E-01  2.38070E-01  3.48511E-01  4.69229E-01  5.99722E-01  7.40716E-01  8.91620E-01  1.05344E+00  1.22591E+00
   1.41043E+00  1.60707E+00  1.81780E+00  2.04321E+00  2.28577E+00  2.54685E+00  2.82962E+00  3.13634E+00  3.47097E+00  3.83666E+00
   4.23829E+00  4.68025E+00  5.16856E+00  5.70921E+00  6.31036E+00  6.98178E+00  7.73857E+00  8.60546E+00  9.62689E+00  1.07037E+01
   1.12656E+01  1.22546E+01  1.21814E+01  1.30077E+01  1.22896E+01  1.29376E+01  1.17199E+01  1.28457E+01  1.14964E+01  1.30109E+01
   1.15564E+01  1.32664E+01  1.16181E+01  1.33343E+01  1.13808E+01  1.29408E+01  1.08411E+01  1.23624E+01  1.05024E+01  1.15266E+01
   9.78307E+00  1.04048E+01  8.86963E+00  9.08242E+00  7.73534E+00  7.62409E+00  7.14208E+00  6.77580E+00  7.06112E+00  6.39813E+00
   7.22372E+00  6.22973E+00  7.30079E+00  5.87218E+00  6.80366E+00  5.04639E+00  5.75229E+00  3.95233E+00  4.43591E+00  2.87988E+00
   2.88616E+00  1.50857E+00  1.48701E+00  4.61254E-01  4.22645E-01 -1.36744E-01 -1.92858E-01  2.45529E-02  1.01795E-01  4.56404E-01
   4.70829E-01  8.41828E-01  7.58964E-01  1.08506E+00  9.03408E-01  1.19584E+00  1.00732E+00  1.19992E+00  9.83838E-01  6.56046E-01
  -4.93957E-02 -5.05474E-01 -1.34847E+00 -1.75968E+00 -2.42915E+00 -2.60530E+00 -2.58115E+00 -2.47949E+00 -2.33446E+00 -2.16062E+00
  -1.96592E+00 -1.75569E+00 -1.53405E+00 -1.30475E+00 -1.07147E+00 -8.38001E-01 -6.08224E-01 -3.86181E-01 -1.75994E-01  1.81250E-02
   1.92043E-01  3.41802E-01  4.63821E-01  5.55001E-01  6.12852E-01  6.35580E-01  6.22205E-01  5.72639E-01  4.87724E-01  3.69203E-01
   2.19649E-01  4.23667E-02 -1.58718E-01 -3.79191E-01 -6.14316E-01 -8.59229E-01 -1.10912E+00 -1.35940E+00 -1.60579E+00 -1.84446E+00
  -2.07212E+00 -2.28605E+00 -2.48417E+00 -2.66499E+00 -2.82760E+00 -2.97157E+00 -3.09694E+00 -3.20414E+00 -3.29392E+00 -3.36725E+00
  -3.42526E+00 -3.46917E+00 -3.50026E+00 -3.51981E+00 -3.52907E+00 -3.52924E+00 -3.52142E+00 -3.50663E+00 -3.48578E+00 -3.45972E+00
  -3.42920E+00 -3.39487E+00 -3.35728E+00 -3.31693E+00 -3.27426E+00 -3.22963E+00 -3.18338E+00 -3.13576E+00 -3.08701E+00 -3.03732E+00
  -2.98687E+00 -2.93580E+00 -2.88425E+00 -2.83230E+00 -2.78004E+00 -2.72755E+00 -2.67490E+00 -2.62214E+00 -2.56933E+00 -2.51648E+00
  -2.46364E+00 -2.41084E+00 -2.35810E+00 -2.30544E+00 -2.25288E+00 -2.20042E+00 -2.14808E+00 -2.09586E+00 -2.04378E+00 -1.99184E+00
  -1.94005E+00 -1.88839E+00 -1.83688E+00 -1.78551E+00 -1.73430E+00 -1.68323E+00 -1.63230E+00 -1.58151E+00 -1.53085E+00 -1.48033E+00
  -1.42995E+00 -1.37969E+00 -1.32954E+00 -1.27950E+00 -1.22958E+00 -1.17976E+00 -1.13004E+00 -1.08039E+00 -1.03083E+00 -9.81332E-01
  -9.31904E-01 -8.82525E-01 -8.33184E-01 -7.83862E-01 -7.34553E-01 -6.85241E-01 -6.35913E-01 -5.86543E-01 -5.37107E-01 -4.87576E-01
  -4.37927E-01 -3.88126E-01 -3.38129E-01 -2.87880E-01 -2.37312E-01 -1.86349E-01 -1.34892E-01 -8.28017E-02
 NY background values follow
     1.163E+00    1.118E+00    1.072E+00    1.027E+00    9.823E-01    9.375E-01    8.930E-01    8.486E-01    8.043E-01    7.603E-01
     7.164E-01    6.727E-01    6.292E-01    5.858E-01    5.426E-01    4.996E-01    4.568E-01    4.142E-01    3.717E-01    3.294E-01
     2.873E-01    2.453E-01    2.036E-01    1.620E-01    1.206E-01    7.939E-02    3.835E-02   -2.514E-03   -4.319E-02   -8.369E-02
    -1.240E-01   -1.641E-01   -2.041E-01   -2.439E-01   -2.835E-01   -3.229E-01   -3.621E-01   -4.011E-01   -4.400E-01   -4.787E-01
    -5.172E-01   -5.555E-01   -5.936E-01   -6.315E-01   -6.693E-01   -7.069E-01   -7.443E-01   -7.815E-01   -8.185E-01   -8.553E-01
    -8.920E-01   -9.284E-01   -9.647E-01   -1.001E+00   -1.037E+00   -1.072E+00   -1.108E+00   -1.143E+00   -1.178E+00   -1.213E+00
    -1.248E+00   -1.283E+00   -1.317E+00   -1.351E+00   -1.385E+00   -1.419E+00   -1.453E+00   -1.486E+00   -1.519E+00   -1.553E+00
    -1.585E+00   -1.618E+00   -1.651E+00   -1.683E+00   -1.715E+00   -1.747E+00   -1.779E+00   -1.810E+00   -1.842E+00   -1.873E+00
    -1.904E+00   -1.935E+00   -1.965E+00   -1.996E+00   -2.026E+00   -2.056E+00   -2.086E+00   -2.115E+00   -2.145E+00   -2.174E+00
    -2.203E+00   -2.232E+00   -2.260E+00   -2.289E+00   -2.317E+00   -2.345E+00   -2.373E+00   -2.401E+00   -2.428E+00   -2.456E+00
    -2.483E+00   -2.510E+00   -2.536E+00   -2.563E+00   -2.589E+00   -2.615E+00   -2.641E+00   -2.667E+00   -2.693E+00   -2.718E+00
    -2.743E+00   -2.768E+00   -2.793E+00   -2.817E+00   -2.842E+00   -2.866E+00   -2.890E+00   -2.914E+00   -2.937E+00   -2.961E+00
    -2.984E+00   -3.007E+00   -3.030E+00   -3.052E+00   -3.075E+00   -3.097E+00   -3.119E+00   -3.141E+00   -3.163E+00   -3.184E+00
    -3.205E+00   -3.226E+00   -3.247E+00   -3.268E+00   -3.288E+00   -3.309E+00   -3.329E+00   -3.348E+00   -3.368E+00   -3.388E+00
    -3.407E+00   -3.426E+00   -3.445E+00   -3.464E+00   -3.482E+00   -3.500E+00   -3.519E+00   -3.536E+00   -3.554E+00   -3.572E+00
    -3.589E+00   -3.606E+00   -3.623E+00   -3.640E+00   -3.656E+00   -3.673E+00   -3.689E+00   -3.705E+00   -3.721E+00   -3.736E+00
    -3.751E+00   -3.767E+00   -3.782E+00   -3.796E+00   -3.811E+00   -3.825E+00   -3.840E+00   -3.854E+00   -3.867E+00   -3.881E+00
    -3.894E+00   -3.908E+00   -3.921E+00   -3.934E+00   -3.946E+00   -3.959E+00   -3.971E+00   -3.983E+00   -3.995E+00   -4.006E+00
    -4.018E+00   -4.029E+00   -4.040E+00   -4.051E+00   -4.062E+00   -4.072E+00   -4.083E+00   -4.093E+00   -4.103E+00   -4.112E+00
    -4.122E+00   -4.131E+00   -4.141E+00   -4.149E+00   -4.158E+00   -4.167E+00   -4.175E+00   -4.183E+00   -4.191E+00   -4.199E+00
    -4.207E+00   -4.214E+00   -4.222E+00   -4.229E+00   -4.235E+00   -4.242E+00   -4.249E+00   -4.255E+00   -4.261E+00   -4.267E+00
    -4.273E+00   -4.278E+00   -4.283E+00   -4.289E+00   -4.294E+00   -4.298E+00   -4.303E+00   -4.307E+00   -4.311E+00   -4.315E+00
    -4.319E+00   -4.323E+00   -4.326E+00   -4.330E+00   -4.333E+00   -4.336E+00   -4.338E+00   -4.341E+00   -4.343E+00   -4.345E+00
    -4.347E+00   -4.349E+00   -4.351E+00   -4.352E+00   -4.353E+00   -4.354E+00   -4.355E+00   -4.356E+00   -4.356E+00   -4.357E+00
    -4.357E+00   -4.357E+00   -4.357E+00   -4.356E+00   -4.355E+00   -4.355E+00   -4.354E+00   -4.353E+00   -4.351E+00   -4.350E+00
    -4.348E+00   -4.346E+00   -4.344E+00   -4.342E+00   -4.339E+00   -4.337E+00   -4.334E+00   -4.331E+00   -4.328E+00   -4.325E+00
    -4.321E+00   -4.317E+00   -4.314E+00   -4.310E+00   -4.305E+00   -4.301E+00   -4.297E+00   -4.292E+00   -4.287E+00   -4.282E+00
    -4.277E+00   -4.271E+00   -4.266E+00   -4.260E+00   -4.254E+00   -4.248E+00   -4.241E+00   -4.235E+00   -4.228E+00   -4.222E+00
    -4.215E+00   -4.207E+00   -4.200E+00   -4.193E+00   -4.185E+00   -4.177E+00   -4.169E+00   -4.161E+00   -4.153E+00   -4.144E+00
    -4.135E+00   -4.127E+00   -4.118E+00   -4.108E+00   -4.099E+00   -4.090E+00   -4.080E+00   -4.070E+00   -4.060E+00   -4.050E+00
    -4.040E+00   -4.029E+00   -4.018E+00   -4.008E+00   -3.997E+00   -3.985E+00   -3.974E+00   -3.963E+00   -3.951E+00   -3.939E+00
    -3.927E+00   -3.915E+00   -3.903E+00   -3.891E+00   -3.878E+00   -3.865E+00   -3.852E+00   -3.839E+00   -3.826E+00   -3.813E+00
    -3.799E+00   -3.785E+00   -3.772E+00   -3.758E+00   -3.743E+00   -3.729E+00   -3.715E+00   -3.700E+00   -3.685E+00   -3.670E+00
    -3.655E+00   -3.640E+00   -3.625E+00   -3.609E+00   -3.594E+00   -3.578E+00   -3.562E+00   -3.546E+00   -3.529E+00   -3.513E+00
    -3.497E+00   -3.480E+00   -3.463E+00   -3.446E+00   -3.429E+00   -3.412E+00   -3.394E+00   -3.377E+00   -3.359E+00   -3.341E+00
    -3.323E+00   -3.305E+00   -3.287E+00   -3.268E+00   -3.250E+00   -3.231E+00   -3.212E+00   -3.193E+00   -3.174E+00   -3.155E+00
    -3.135E+00   -3.116E+00   -3.096E+00   -3.076E+00   -3.056E+00   -3.036E+00   -3.016E+00   -2.996E+00   -2.975E+00   -2.955E+00
    -2.934E+00   -2.913E+00   -2.892E+00   -2.871E+00   -2.850E+00   -2.828E+00   -2.807E+00   -2.785E+00   -2.763E+00   -2.741E+00
    -2.719E+00   -2.697E+00   -2.675E+00   -2.652E+00   -2.630E+00   -2.607E+00   -2.585E+00   -2.562E+00   -2.539E+00   -2.515E+00
    -2.492E+00   -2.469E+00   -2.445E+00   -2.422E+00   -2.398E+00   -2.374E+00   -2.350E+00   -2.326E+00   -2.302E+00   -2.277E+00
    -2.253E+00   -2.228E+00   -2.204E+00   -2.179E+00   -2.154E+00   -2.129E+00   -2.104E+00   -2.078E+00   -2.053E+00   -2.028E+00
    -2.002E+00   -1.976E+00   -1.950E+00   -1.925E+00   -1.899E+00   -1.872E+00   -1.846E+00   -1.820E+00   -1.793E+00   -1.767E+00
    -1.740E+00   -1.713E+00   -1.687E+00   -1.660E+00   -1.633E+00   -1.605E+00   -1.578E+00   -1.551E+00   -1.523E+00   -1.496E+00
    -1.468E+00   -1.440E+00   -1.412E+00   -1.384E+00   -1.356E+00   -1.328E+00   -1.300E+00   -1.272E+00   -1.243E+00   -1.215E+00
    -1.186E+00   -1.157E+00   -1.128E+00   -1.100E+00   -1.071E+00   -1.042E+00   -1.012E+00   -9.831E-01   -9.538E-01   -9.244E-01
    -8.949E-01   -8.653E-01   -8.356E-01   -8.058E-01   -7.760E-01   -7.461E-01   -7.161E-01   -6.860E-01   -6.558E-01   -6.255E-01
    -5.952E-01   -5.648E-01   -5.343E-01   -5.037E-01   -4.731E-01   -4.424E-01   -4.116E-01   -3.807E-01   -3.498E-01   -3.187E-01
    -2.877E-01   -2.565E-01   -2.253E-01   -1.939E-01   -1.626E-01   -1.311E-01   -9.960E-02   -6.801E-02   -3.636E-02   -4.638E-03
     2.715E-02    5.900E-02    9.092E-02    1.229E-01    1.550E-01    1.871E-01    2.192E-01    2.515E-01    2.838E-01    3.161E-01
     3.485E-01    3.810E-01    4.135E-01    4.461E-01    4.788E-01    5.115E-01    5.443E-01    5.771E-01
 Ala      Conc. = 3.26E+03
