 LCModel (Version 6.3-1L) Copyright: S.W. Provencher.          Ref.: Magn. Reson. Med. 30:672-679 (1993).                
 Slice#1 Row#4 Col#12  PD_05_press_2_raw_act
 36 lines in following concentration table = NCONC+1
    Conc.  %SD /Cr+PCr  Metabolite                                         
 8.78E+03  13%   0.000 Ala                                                 
    6.646 101%   0.000 Asp                                                 
    0.000 999%   0.000 Cr                                                  
    0.000 999%   0.000 PCr                                                 
    3.988 101%   0.000 GABA                                                
    3.988 101%   0.000 Glc                                                 
    0.000 999%   0.000 Gln                                                 
    0.000 999%   0.000 Glu                                                 
    0.000 999%   0.000 GPC                                                 
   44.308 101%   0.000 PCh                                                 
    4.289 999%   0.000 GSH                                                 
    0.000 999%   0.000 Ins                                                 
 8.90E+03  12%   0.000 Lac                                                 
    0.000 999%   0.000 NAA                                                 
    0.000 999%   0.000 NAAG                                                
    1.329 101%   0.000 Scyllo                                              
    6.646 101%   0.000 Tau                                                 
    0.119 999%   0.000 -CrCH2                                              
   44.308 101%   0.000 GPC+PCh                                             
    0.000 999%   0.000 NAA+NAAG                                            
    0.000 999%   0.000 Cr+PCr                                              
    0.000 999%   0.000 Glu+Gln                                             
    0.000 999%   0.000 Lip13a                                              
    0.000 999%   0.000 Lip13b                                              
  590.522  33%   0.000 Lip09                                               
 2.09E+03   9%   0.000 MM09                                                
    0.000 999%   0.000 Lip20                                               
 2.67E+03  12%   0.000 MM20                                                
  626.178  12%   0.000 MM12                                                
 2.35E+03   8%   0.000+MM14                                                
 1.16E+03  12%   0.000 MM17                                                
    0.000 999%   0.000 Lip13a+Lip13b                                       
 2.98E+03   8%   0.000 MM14+Lip13a+Lip13b+MM12                             
 2.68E+03  10%   0.000 MM09+Lip09                                          
 2.67E+03  12%   0.000 MM20+Lip20                                          
   6 lines in following misc. output table
  FWHM = 0.168 ppm    S/N =   4                                            
  Data shift = 0.038 ppm                                                   
  Ph: -80 deg      73.8 deg/ppm                                            
  alphaB,S = 3.0E+00,   1.9E+02                                            
    7 spline knots.   Ns = 9(2)                                            
  (12) 2 infls.   ( 9) 1 extrs.                                            
  498 points on ppm-axis = NY
      4.000000     3.992357     3.984714     3.977070     3.969427     3.961784     3.954141     3.946497     3.938854     3.931211
      3.923568     3.915925     3.908281     3.900638     3.892995     3.885352     3.877708     3.870065     3.862422     3.854779
      3.847136     3.839492     3.831849     3.824206     3.816563     3.808919     3.801276     3.793633     3.785990     3.778347
      3.770703     3.763060     3.755417     3.747774     3.740130     3.732487     3.724844     3.717201     3.709558     3.701914
      3.694271     3.686628     3.678985     3.671341     3.663698     3.656055     3.648412     3.640769     3.633125     3.625482
      3.617839     3.610196     3.602552     3.594909     3.587266     3.579623     3.571980     3.564336     3.556693     3.549050
      3.541407     3.533763     3.526120     3.518477     3.510834     3.503191     3.495547     3.487904     3.480261     3.472618
      3.464974     3.457331     3.449688     3.442045     3.434402     3.426758     3.419115     3.411472     3.403829     3.396185
      3.388542     3.380899     3.373256     3.365613     3.357969     3.350326     3.342683     3.335040     3.327396     3.319753
      3.312110     3.304467     3.296824     3.289180     3.281537     3.273894     3.266251     3.258607     3.250964     3.243321
      3.235678     3.228034     3.220391     3.212748     3.205105     3.197462     3.189818     3.182175     3.174532     3.166889
      3.159245     3.151602     3.143959     3.136316     3.128673     3.121029     3.113386     3.105743     3.098100     3.090456
      3.082813     3.075170     3.067527     3.059884     3.052240     3.044597     3.036954     3.029311     3.021667     3.014024
      3.006381     2.998738     2.991095     2.983451     2.975808     2.968165     2.960522     2.952878     2.945235     2.937592
      2.929949     2.922306     2.914662     2.907019     2.899376     2.891733     2.884089     2.876446     2.868803     2.861160
      2.853517     2.845873     2.838230     2.830587     2.822944     2.815300     2.807657     2.800014     2.792371     2.784728
      2.777084     2.769441     2.761798     2.754155     2.746511     2.738868     2.731225     2.723582     2.715939     2.708295
      2.700652     2.693009     2.685366     2.677722     2.670079     2.662436     2.654793     2.647150     2.639506     2.631863
      2.624220     2.616577     2.608933     2.601290     2.593647     2.586004     2.578361     2.570717     2.563074     2.555431
      2.547788     2.540144     2.532501     2.524858     2.517215     2.509572     2.501928     2.494285     2.486642     2.478999
      2.471355     2.463712     2.456069     2.448426     2.440783     2.433139     2.425496     2.417853     2.410210     2.402566
      2.394923     2.387280     2.379637     2.371994     2.364350     2.356707     2.349064     2.341421     2.333777     2.326134
      2.318491     2.310848     2.303205     2.295561     2.287918     2.280275     2.272632     2.264988     2.257345     2.249702
      2.242059     2.234416     2.226772     2.219129     2.211486     2.203843     2.196199     2.188556     2.180913     2.173270
      2.165627     2.157983     2.150340     2.142697     2.135054     2.127410     2.119767     2.112124     2.104481     2.096838
      2.089194     2.081551     2.073908     2.066265     2.058621     2.050978     2.043335     2.035692     2.028049     2.020405
      2.012762     2.005119     1.997476     1.989833     1.982190     1.974546     1.966903     1.959260     1.951617     1.943974
      1.936331     1.928688     1.921045     1.913402     1.905759     1.898115     1.890472     1.882829     1.875186     1.867543
      1.859900     1.852257     1.844614     1.836971     1.829327     1.821684     1.814041     1.806398     1.798755     1.791112
      1.783469     1.775826     1.768183     1.760540     1.752896     1.745253     1.737610     1.729967     1.722324     1.714681
      1.707038     1.699395     1.691752     1.684108     1.676465     1.668822     1.661179     1.653536     1.645893     1.638250
      1.630607     1.622964     1.615321     1.607677     1.600034     1.592391     1.584748     1.577105     1.569462     1.561819
      1.554176     1.546533     1.538890     1.531246     1.523603     1.515960     1.508317     1.500674     1.493031     1.485388
      1.477745     1.470102     1.462458     1.454815     1.447172     1.439529     1.431886     1.424243     1.416600     1.408957
      1.401314     1.393671     1.386027     1.378384     1.370741     1.363098     1.355455     1.347812     1.340169     1.332526
      1.324883     1.317240     1.309596     1.301953     1.294310     1.286667     1.279024     1.271381     1.263738     1.256095
      1.248452     1.240808     1.233165     1.225522     1.217879     1.210236     1.202593     1.194950     1.187307     1.179664
      1.172021     1.164377     1.156734     1.149091     1.141448     1.133805     1.126162     1.118519     1.110876     1.103233
      1.095590     1.087946     1.080303     1.072660     1.065017     1.057374     1.049731     1.042088     1.034445     1.026802
      1.019158     1.011515     1.003872     0.996229     0.988586     0.980943     0.973300     0.965657     0.958014     0.950371
      0.942727     0.935084     0.927441     0.919798     0.912155     0.904512     0.896869     0.889226     0.881583     0.873940
      0.866296     0.858653     0.851010     0.843367     0.835724     0.828081     0.820438     0.812795     0.805152     0.797508
      0.789865     0.782222     0.774579     0.766936     0.759293     0.751650     0.744007     0.736364     0.728721     0.721077
      0.713434     0.705791     0.698148     0.690505     0.682862     0.675219     0.667576     0.659933     0.652290     0.644646
      0.637003     0.629360     0.621717     0.614074     0.606431     0.598788     0.591145     0.583502     0.575858     0.568215
      0.560572     0.552929     0.545286     0.537643     0.530000     0.522357     0.514714     0.507071     0.499427     0.491784
      0.484141     0.476498     0.468855     0.461212     0.453569     0.445925     0.438282     0.430639     0.422996     0.415353
      0.407710     0.400067     0.392424     0.384780     0.377137     0.369494     0.361851     0.354208     0.346565     0.338922
      0.331278     0.323635     0.315992     0.308349     0.300706     0.293063     0.285420     0.277777     0.270133     0.262490
      0.254847     0.247204     0.239561     0.231918     0.224275     0.216631     0.208988     0.201345
 NY phased data points follow
   2.00484E+00  1.80560E+00 -1.16487E+01 -9.76298E-01  2.85866E+00  6.41463E-01 -6.37497E+00 -4.40829E+00 -4.54813E+00 -2.69605E+00
  -2.81131E+00 -7.71485E-01  8.34338E+00 -5.97500E-01 -3.09012E+00  2.46331E+00 -3.58551E+00  3.48502E-01  1.51119E+00 -9.71885E-01
  -3.81523E+00 -7.06634E-01 -7.95558E+00 -1.07643E+01 -4.09803E+00  4.19348E-01 -4.94838E+00 -5.60291E+00 -1.82527E+00  5.52231E-01
  -3.12636E+00 -3.78218E+00 -3.18829E-01 -1.02342E+00 -3.59766E-01 -2.33978E+00 -2.28581E+00 -3.84694E+00  6.23721E-01 -4.16749E+00
  -4.39718E+00 -9.89823E+00  7.39536E-01 -1.58685E+00  2.98805E+00 -5.22707E+00 -5.73361E+00  7.50862E-01 -8.75100E+00  2.55790E+00
  -2.13820E+00 -2.08279E+00 -6.10745E-01 -4.69219E+00 -7.52666E-01 -5.81269E+00 -6.99490E+00 -6.64719E+00 -7.21861E+00 -4.01171E+00
   2.16343E+00  3.17703E+00  6.20511E-01 -8.37219E+00  3.90101E+00 -1.21782E+00  5.11595E+00 -5.47577E+00  2.69029E+00 -1.21985E+00
  -9.84967E+00 -2.61256E+00  5.65781E+00 -8.67082E+00 -3.69037E+00  1.10292E+00 -5.03643E+00 -5.25108E+00 -2.76106E+00 -7.44707E-01
  -2.31876E+00 -1.60869E+00 -6.69704E+00 -5.38616E+00 -2.46653E+00  2.24532E+00  6.77676E+00 -4.80545E-01 -4.93590E+00  3.32878E-01
  -6.55878E+00  4.54106E+00  5.29262E+00  8.12683E-01 -3.81643E-01  5.74139E+00 -3.44911E+00 -1.31518E-01 -1.25544E+00 -2.58595E+00
  -6.18008E+00 -4.47973E+00  7.27383E-01 -3.80836E+00 -3.20970E+00 -6.76773E+00 -1.12163E-01 -8.39524E+00 -8.13833E-02 -2.37354E+00
  -4.05812E+00  3.07964E+00 -7.48895E+00 -4.58350E+00 -6.13041E+00 -1.13366E+01  4.90088E-01 -6.30604E+00 -4.02834E+00 -1.73535E+00
  -6.61473E+00  2.30821E+00 -5.53363E+00 -2.10446E+00 -7.02966E-01  1.24877E+00 -3.39976E+00 -1.09498E+01  6.14146E-02 -4.57458E+00
  -1.09744E+00 -6.31628E-01 -1.48280E+00 -4.31886E+00  6.10135E-01 -1.52482E+00 -4.77808E+00 -1.03382E+01 -7.95223E+00 -5.12824E+00
   8.92924E-01 -8.17510E+00 -1.02763E+01 -2.20178E+00 -6.71227E+00 -3.86404E+00 -5.94638E+00 -1.25350E+01  2.49402E-01 -7.45212E+00
  -7.09585E+00 -5.90306E+00 -1.95799E+00 -5.87861E+00 -6.47032E-01 -5.41731E+00 -2.27453E+00 -7.94601E+00 -5.01431E+00 -5.87353E+00
  -7.43857E+00 -1.19649E+00 -2.08969E+00 -1.19245E+01 -4.52126E+00 -1.30493E+01 -2.77947E+00 -8.30623E+00 -6.56221E+00  3.08175E+00
  -9.99690E+00 -4.04324E+00 -8.90365E+00 -1.32118E+01 -3.13985E+00  3.72659E-01  2.40503E+00 -9.88040E+00 -7.81935E-02 -3.26448E+00
  -9.09579E+00 -4.98065E+00 -1.64824E+00 -1.06254E+01 -7.65968E+00 -8.51295E+00  1.36537E+00 -5.84395E+00 -6.93710E+00 -5.98875E+00
  -5.23693E+00  1.33264E+00 -2.67403E+00 -1.12261E+01 -7.07073E+00 -5.80304E+00  4.54368E-01 -5.89036E-01  2.33237E+00 -6.59968E+00
  -2.22546E+00 -5.34026E+00 -1.14597E+01 -1.09567E+01 -1.34123E+01 -6.88602E+00 -1.01997E+01 -4.52200E+00 -5.16336E+00 -5.42779E+00
  -8.17312E+00 -5.88106E+00 -8.01094E+00 -8.49915E+00  1.93364E+00 -1.31605E+01 -5.43146E+00 -9.59003E+00 -4.50145E+00 -3.12474E+00
  -1.15322E+01 -9.43600E+00 -1.08121E+01 -9.65036E+00 -4.51049E+00 -1.02702E+01 -1.10257E+01 -8.64389E+00 -1.33223E+01 -1.13612E+01
  -1.38656E+01 -1.52119E+01 -1.48833E+01 -1.22148E+01 -8.77704E+00 -9.62521E+00 -8.30926E+00 -1.49670E+01 -6.63672E+00 -7.15992E+00
  -8.23397E+00 -8.19041E+00 -6.99004E+00 -1.20879E+01 -7.78446E+00 -6.20408E+00 -4.57764E+00 -5.75936E+00 -1.50452E+00 -3.88104E+00
  -1.50094E+01 -5.90476E+00 -1.00641E+01 -7.01959E+00 -8.43483E+00 -1.84404E+01 -1.11177E+01 -5.61250E+00 -1.82936E+01 -1.30311E+01
  -3.80572E+00 -2.06043E+00 -1.26723E+01 -1.08633E+01 -1.28462E+01 -8.09340E+00 -7.36107E+00 -1.31957E+01 -1.66865E+01 -1.26200E+01
  -1.05687E+01 -1.56492E+01 -5.75554E+00 -1.19550E+01 -1.66796E+01 -1.59412E+01 -1.35930E+01 -1.24684E+01 -1.79373E+01 -1.55201E+01
  -1.06508E+01 -2.13658E+01 -1.92402E+01 -1.56737E+01 -2.15645E+01 -1.68739E+01 -1.19385E+01 -1.15962E+01 -1.22859E+01 -1.97035E+01
  -1.42995E+01 -1.74901E+01 -1.01893E+01 -2.30254E+01 -1.79372E+01 -1.05323E+01 -1.93156E+01 -1.51059E+01 -1.07625E+01 -1.11201E+01
  -1.72773E+01 -3.95159E+00 -5.81892E+00 -6.72180E+00 -4.73765E+00  6.80595E+00 -1.89758E+00  4.39543E+00  5.44879E+00  7.87225E+00
   8.02431E+00  1.30268E+01  9.74489E+00  1.27361E+01  2.24984E+01  2.71591E+01  2.49438E+01  3.07034E+01  2.71672E+01  3.29693E+01
   3.42295E+01  3.31098E+01  3.50217E+01  3.52764E+01  3.99556E+01  4.34499E+01  3.71101E+01  3.66834E+01  3.74062E+01  4.32488E+01
   3.73351E+01  2.93592E+01  3.73771E+01  3.57834E+01  3.14137E+01  3.34781E+01  2.80698E+01  3.01750E+01  2.96041E+01  2.92321E+01
   1.72332E+01  2.67928E+01  2.31235E+01  2.18898E+01  3.29889E+01  1.81349E+01  2.09966E+01  1.93983E+01  1.87488E+01  1.44045E+01
   2.60039E+01  2.37829E+01  1.72093E+01  1.21231E+01  9.83766E+00  1.17754E+01  1.04666E+01  1.30172E+01  6.35553E+00  1.01898E+01
   1.00959E+01 -3.41794E-01  7.39754E+00  9.28462E+00  1.13773E+01  1.80088E+01  1.33543E+01  1.28125E+01  1.28865E+01  1.77558E+01
   1.67636E+01  1.39645E+01  1.20419E+01  3.31676E+00  1.25441E+01  1.48845E+01  1.85671E+01  1.53340E+01  1.45493E+01  1.10225E+01
   1.46139E+01  1.11636E+01  1.08105E+01  5.34009E+00  1.46972E+01  1.43088E+01  8.43925E+00  6.03370E+00  6.50504E+00  4.05300E+00
   1.08827E+01  4.05330E+00  6.07749E+00  8.59001E-01  6.92627E+00  8.87688E+00  2.17375E+00  5.01182E+00  5.95820E-01  5.72238E+00
   7.11645E+00 -1.85669E-01  3.34213E+00  8.71705E+00 -2.75903E-01  4.80983E+00  4.60650E+00  2.36159E+00  6.52326E+00 -4.74974E-01
   7.35552E+00  8.45630E+00  1.25318E+00  8.62706E+00  2.95860E+00  1.40831E+00  5.06336E+00 -3.97384E+00 -1.09191E+00 -6.71468E-01
  -3.33276E+00 -1.13213E+00 -1.54499E+00  1.32635E+00 -4.78510E-01 -8.07098E-01 -1.42269E+00  1.64577E+00  1.83386E+00  1.82733E+00
  -7.40521E+00 -7.47362E+00 -1.34343E+00 -3.03256E+00  9.92351E-01  3.85222E-01 -3.03844E+00 -3.05048E+00 -8.73773E+00  4.49342E-01
  -2.02344E+00  1.51898E+00 -2.74328E+00 -9.32673E+00 -8.41872E+00 -9.69757E+00 -4.63824E+00  2.86258E+00 -7.18941E+00 -2.16352E-01
   6.33617E+00 -5.71073E+00  5.14787E+00 -3.38409E+00 -1.80302E+00  1.13517E+00 -4.06290E+00  9.58382E-01 -1.83370E+00 -8.91411E+00
  -6.30249E+00  2.40329E+00 -3.56130E+00  5.00411E+00 -2.35498E+00  3.07340E+00 -3.61853E-01 -3.93309E+00 -1.74229E+00 -1.18767E+01
  -1.82154E-01 -4.35845E+00 -8.27772E+00 -8.15689E-01  9.36407E-01 -1.68768E+00 -1.40297E+00  1.58025E-01  3.18904E+00  2.50882E-01
   9.59575E-01 -2.01383E+00  5.90728E+00  1.18373E+00 -1.09887E+00 -8.17684E+00 -7.29112E+00  5.21712E+00 -2.49178E+00 -4.10480E+00
  -6.51682E+00 -5.75008E+00 -4.65069E+00  5.12614E-01 -3.44396E+00 -7.00419E+00  2.99892E+00  6.37008E-01
 NY points of the fit to the data follow
  -1.67750E+00  4.07491E-01 -1.34641E+00  4.04500E-01 -9.29419E-01  6.71864E-01 -5.09381E-01  1.00569E+00 -3.90077E-01  7.14203E-01
  -6.60506E-01  2.18129E-01 -1.22207E+00 -1.29895E-01 -1.82905E+00 -3.67997E-01 -1.78962E+00 -2.86573E-01 -1.76328E+00 -2.75523E-01
  -1.92028E+00 -3.25779E-01 -2.03977E+00 -7.49634E-01 -2.33339E+00 -1.21076E+00 -2.63079E+00 -1.67682E+00 -2.73643E+00 -2.05850E+00
  -2.61442E+00 -2.22464E+00 -2.36527E+00 -2.30561E+00 -2.21937E+00 -2.65869E+00 -2.24887E+00 -3.02055E+00 -2.29876E+00 -3.30786E+00
  -2.38727E+00 -3.28979E+00 -2.01984E+00 -2.92094E+00 -1.63785E+00 -2.54260E+00 -1.26264E+00 -2.03764E+00 -1.26243E+00 -2.18689E+00
  -1.69463E+00 -2.49182E+00 -2.16667E+00 -2.86572E+00 -2.73338E+00 -2.97731E+00 -2.71063E+00 -2.76279E+00 -2.54487E+00 -2.52092E+00
  -2.35763E+00 -2.29796E+00 -2.30812E+00 -2.33139E+00 -2.36929E+00 -2.40446E+00 -2.44863E+00 -2.48723E+00 -2.53128E+00 -2.57019E+00
  -2.61423E+00 -2.65347E+00 -2.69607E+00 -2.73594E+00 -2.77614E+00 -2.81574E+00 -2.85504E+00 -2.89465E+00 -2.93254E+00 -2.97197E+00
  -3.00761E+00 -3.04565E+00 -3.07891E+00 -3.11236E+00 -3.12830E+00 -3.08803E+00 -3.05487E+00 -3.03432E+00 -2.98342E+00 -2.95877E+00
  -2.87488E+00 -2.84363E+00 -2.72506E+00 -2.72423E+00 -2.58487E+00 -2.60529E+00 -2.44275E+00 -2.48497E+00 -2.30209E+00 -2.38049E+00
  -2.18948E+00 -2.31407E+00 -2.12701E+00 -2.28988E+00 -2.11254E+00 -2.31261E+00 -2.15514E+00 -2.38503E+00 -2.25264E+00 -2.49342E+00
  -2.38521E+00 -2.61853E+00 -2.53515E+00 -2.77950E+00 -2.73413E+00 -2.96575E+00 -2.95265E+00 -3.15842E+00 -3.17151E+00 -3.33655E+00
  -3.36495E+00 -3.48169E+00 -3.51789E+00 -3.60395E+00 -3.64356E+00 -3.67049E+00 -3.69776E+00 -3.73342E+00 -3.77346E+00 -3.82450E+00
  -3.88025E+00 -3.94829E+00 -4.02043E+00 -4.10528E+00 -4.19331E+00 -4.29395E+00 -4.39651E+00 -4.51091E+00 -4.62566E+00 -4.75099E+00
  -4.87523E+00 -5.00857E+00 -5.13954E+00 -5.27751E+00 -5.41197E+00 -5.55148E+00 -5.68674E+00 -5.82480E+00 -5.95819E+00 -6.09213E+00
  -6.22186E+00 -6.35052E+00 -6.47537E+00 -6.59768E+00 -6.71689E+00 -6.83218E+00 -6.94550E+00 -7.05407E+00 -7.16156E+00 -7.26364E+00
  -7.36543E+00 -7.46110E+00 -7.55728E+00 -7.64720E+00 -7.73827E+00 -7.82334E+00 -7.90961E+00 -7.99038E+00 -8.07257E+00 -8.14976E+00
  -8.22833E+00 -8.30233E+00 -8.37742E+00 -8.44852E+00 -8.52064E+00 -8.58944E+00 -8.65863E+00 -8.72518E+00 -8.79161E+00 -8.85624E+00
  -8.92016E+00 -8.98234E+00 -9.04341E+00 -9.10292E+00 -9.16105E+00 -9.21764E+00 -9.27261E+00 -9.32574E+00 -9.37704E+00 -9.42619E+00
  -9.47343E+00 -9.51811E+00 -9.56074E+00 -9.60027E+00 -9.63771E+00 -9.67144E+00 -9.70298E+00 -9.73021E+00 -9.75510E+00 -9.77510E+00
  -9.79256E+00 -9.80462E+00 -9.81377E+00 -9.81704E+00 -9.81700E+00 -9.81049E+00 -9.80028E+00 -9.78338E+00 -9.76284E+00 -9.73544E+00
  -9.70433E+00 -9.66644E+00 -9.62499E+00 -9.57709E+00 -9.52537E+00 -9.46714E+00 -9.40514E+00 -9.33674E+00 -9.26455E+00 -9.18577E+00
  -9.10299E+00 -9.01329E+00 -8.91920E+00 -8.81746E+00 -8.71035E+00 -8.59455E+00 -8.47190E+00 -8.33905E+00 -8.19745E+00 -8.04434E+00
  -7.88062E+00 -7.70421E+00 -7.51574E+00 -7.31443E+00 -7.10071E+00 -6.87532E+00 -6.63869E+00 -6.39322E+00 -6.13981E+00 -5.88263E+00
  -5.62297E+00 -5.36647E+00 -5.11515E+00 -4.87552E+00 -4.64990E+00 -4.44499E+00 -4.26302E+00 -4.11027E+00 -3.98802E+00 -3.90099E+00
  -3.84934E+00 -3.83596E+00 -3.85967E+00 -3.92077E+00 -4.01676E+00 -4.14594E+00 -4.30520E+00 -4.49119E+00 -4.70023E+00 -4.92797E+00
  -5.17125E+00 -5.42562E+00 -5.68808E+00 -5.95464E+00 -6.22289E+00 -6.48967E+00 -6.75340E+00 -7.01150E+00 -7.26310E+00 -7.50651E+00
  -7.74105E+00 -7.96560E+00 -8.17971E+00 -8.38265E+00 -8.57393E+00 -8.75292E+00 -8.91912E+00 -9.07201E+00 -9.21123E+00 -9.33617E+00
  -9.44655E+00 -9.54176E+00 -9.62166E+00 -9.68573E+00 -9.73392E+00 -9.76565E+00 -9.78079E+00 -9.77866E+00 -9.75897E+00 -9.72070E+00
  -9.66310E+00 -9.58440E+00 -9.48291E+00 -9.35553E+00 -9.19924E+00 -9.00896E+00 -8.77924E+00 -8.50187E+00 -8.16772E+00 -7.76432E+00
  -7.27729E+00 -6.68762E+00 -5.97281E+00 -5.10357E+00 -4.04282E+00 -2.73831E+00 -1.10918E+00  1.00069E+00  3.98715E+00  8.02467E+00
   9.90120E+00  1.33015E+01  1.48562E+01  1.85173E+01  1.92870E+01  2.25367E+01  2.13096E+01  2.55828E+01  2.50706E+01  2.90440E+01
   2.77789E+01  3.14252E+01  2.94602E+01  3.27905E+01  3.07641E+01  3.29136E+01  3.07961E+01  3.23692E+01  3.12579E+01  3.38395E+01
   3.25064E+01  3.28260E+01  3.22650E+01  3.16155E+01  3.15202E+01  2.94813E+01  2.87468E+01  2.68015E+01  2.75546E+01  2.49391E+01
   2.60418E+01  2.35641E+01  2.50801E+01  2.37777E+01  2.60539E+01  2.43066E+01  2.58470E+01  2.39632E+01  2.50674E+01  2.39233E+01
   2.32598E+01  2.15306E+01  1.99498E+01  1.84546E+01  1.65768E+01  1.53066E+01  1.27831E+01  1.22058E+01  1.09762E+01  1.06460E+01
   1.00763E+01  1.00304E+01  1.01419E+01  1.10513E+01  1.18970E+01  1.27388E+01  1.34715E+01  1.37774E+01  1.46442E+01  1.51190E+01
   1.49313E+01  1.38308E+01  1.30264E+01  1.14630E+01  1.05048E+01  8.48723E+00  7.46527E+00  7.01082E+00  6.84823E+00  6.86629E+00
   7.00347E+00  7.21848E+00  7.47970E+00  7.76134E+00  8.04110E+00  8.29967E+00  8.52025E+00  8.68903E+00  8.79528E+00  8.83171E+00
   8.79434E+00  8.68257E+00  8.49898E+00  8.24921E+00  7.94147E+00  7.58595E+00  7.19406E+00  6.77765E+00  6.34837E+00  5.91703E+00
   5.49302E+00  5.08377E+00  4.69443E+00  4.32771E+00  3.98404E+00  3.66178E+00  3.35759E+00  3.06677E+00  2.78383E+00  2.50302E+00
   2.21896E+00  1.92704E+00  1.62382E+00  1.30714E+00  9.76344E-01  6.32232E-01  2.77026E-01 -8.59142E-02 -4.52386E-01 -8.17725E-01
  -1.17707E+00 -1.52568E+00 -1.85913E+00 -2.17362E+00 -2.46611E+00 -2.73440E+00 -2.97712E+00 -3.19365E+00 -3.38405E+00 -3.54900E+00
  -3.68968E+00 -3.80763E+00 -3.90461E+00 -3.98245E+00 -4.04302E+00 -4.08816E+00 -4.11967E+00 -4.13918E+00 -4.14819E+00 -4.14798E+00
  -4.13972E+00 -4.12442E+00 -4.10301E+00 -4.07624E+00 -4.04476E+00 -4.00910E+00 -3.96974E+00 -3.92709E+00 -3.88153E+00 -3.83336E+00
  -3.78281E+00 -3.73010E+00 -3.67543E+00 -3.61898E+00 -3.56094E+00 -3.50141E+00 -3.44050E+00 -3.37831E+00 -3.31496E+00 -3.25054E+00
  -3.18515E+00 -3.11882E+00 -3.05163E+00 -2.98362E+00 -2.91488E+00 -2.84547E+00 -2.77542E+00 -2.70477E+00 -2.63355E+00 -2.56180E+00
  -2.48958E+00 -2.41693E+00 -2.34386E+00 -2.27040E+00 -2.19655E+00 -2.12238E+00 -2.04791E+00 -1.97316E+00 -1.89814E+00 -1.82287E+00
  -1.74736E+00 -1.67164E+00 -1.59575E+00 -1.51968E+00 -1.44344E+00 -1.36703E+00 -1.29048E+00 -1.21380E+00 -1.13701E+00 -1.06009E+00
  -9.83037E-01 -9.05854E-01 -8.28545E-01 -7.51095E-01 -6.73481E-01 -5.95654E-01 -5.17568E-01 -4.39135E-01
 NY background values follow
    -7.067E-01   -7.428E-01   -7.788E-01   -8.147E-01   -8.505E-01   -8.862E-01   -9.218E-01   -9.573E-01   -9.928E-01   -1.028E+00
    -1.063E+00   -1.099E+00   -1.134E+00   -1.169E+00   -1.204E+00   -1.239E+00   -1.274E+00   -1.309E+00   -1.344E+00   -1.378E+00
    -1.413E+00   -1.448E+00   -1.483E+00   -1.518E+00   -1.553E+00   -1.587E+00   -1.622E+00   -1.657E+00   -1.692E+00   -1.727E+00
    -1.762E+00   -1.797E+00   -1.832E+00   -1.867E+00   -1.902E+00   -1.937E+00   -1.972E+00   -2.008E+00   -2.043E+00   -2.079E+00
    -2.114E+00   -2.150E+00   -2.186E+00   -2.221E+00   -2.257E+00   -2.293E+00   -2.330E+00   -2.366E+00   -2.402E+00   -2.439E+00
    -2.476E+00   -2.513E+00   -2.550E+00   -2.587E+00   -2.624E+00   -2.662E+00   -2.699E+00   -2.737E+00   -2.775E+00   -2.813E+00
    -2.852E+00   -2.890E+00   -2.929E+00   -2.968E+00   -3.008E+00   -3.047E+00   -3.087E+00   -3.127E+00   -3.167E+00   -3.207E+00
    -3.248E+00   -3.289E+00   -3.330E+00   -3.371E+00   -3.413E+00   -3.455E+00   -3.497E+00   -3.540E+00   -3.583E+00   -3.626E+00
    -3.669E+00   -3.713E+00   -3.757E+00   -3.801E+00   -3.846E+00   -3.891E+00   -3.936E+00   -3.982E+00   -4.028E+00   -4.074E+00
    -4.121E+00   -4.168E+00   -4.216E+00   -4.263E+00   -4.312E+00   -4.360E+00   -4.409E+00   -4.458E+00   -4.508E+00   -4.558E+00
    -4.609E+00   -4.660E+00   -4.711E+00   -4.763E+00   -4.815E+00   -4.868E+00   -4.921E+00   -4.975E+00   -5.029E+00   -5.083E+00
    -5.138E+00   -5.193E+00   -5.249E+00   -5.306E+00   -5.362E+00   -5.420E+00   -5.477E+00   -5.536E+00   -5.595E+00   -5.654E+00
    -5.714E+00   -5.774E+00   -5.835E+00   -5.896E+00   -5.958E+00   -6.021E+00   -6.084E+00   -6.147E+00   -6.211E+00   -6.276E+00
    -6.341E+00   -6.406E+00   -6.472E+00   -6.538E+00   -6.605E+00   -6.672E+00   -6.740E+00   -6.808E+00   -6.877E+00   -6.945E+00
    -7.014E+00   -7.084E+00   -7.154E+00   -7.224E+00   -7.294E+00   -7.365E+00   -7.436E+00   -7.507E+00   -7.578E+00   -7.650E+00
    -7.722E+00   -7.794E+00   -7.866E+00   -7.939E+00   -8.012E+00   -8.084E+00   -8.157E+00   -8.231E+00   -8.304E+00   -8.377E+00
    -8.451E+00   -8.524E+00   -8.598E+00   -8.671E+00   -8.745E+00   -8.819E+00   -8.893E+00   -8.966E+00   -9.040E+00   -9.114E+00
    -9.187E+00   -9.261E+00   -9.335E+00   -9.408E+00   -9.482E+00   -9.555E+00   -9.628E+00   -9.701E+00   -9.774E+00   -9.847E+00
    -9.920E+00   -9.992E+00   -1.006E+01   -1.014E+01   -1.021E+01   -1.028E+01   -1.035E+01   -1.042E+01   -1.049E+01   -1.056E+01
    -1.063E+01   -1.070E+01   -1.077E+01   -1.084E+01   -1.091E+01   -1.098E+01   -1.105E+01   -1.112E+01   -1.118E+01   -1.125E+01
    -1.132E+01   -1.138E+01   -1.145E+01   -1.152E+01   -1.158E+01   -1.164E+01   -1.171E+01   -1.177E+01   -1.183E+01   -1.190E+01
    -1.196E+01   -1.202E+01   -1.208E+01   -1.214E+01   -1.220E+01   -1.226E+01   -1.232E+01   -1.237E+01   -1.243E+01   -1.249E+01
    -1.254E+01   -1.260E+01   -1.265E+01   -1.271E+01   -1.276E+01   -1.281E+01   -1.286E+01   -1.291E+01   -1.296E+01   -1.301E+01
    -1.306E+01   -1.311E+01   -1.315E+01   -1.320E+01   -1.324E+01   -1.329E+01   -1.333E+01   -1.337E+01   -1.341E+01   -1.345E+01
    -1.349E+01   -1.353E+01   -1.357E+01   -1.360E+01   -1.364E+01   -1.367E+01   -1.371E+01   -1.374E+01   -1.377E+01   -1.380E+01
    -1.383E+01   -1.386E+01   -1.389E+01   -1.391E+01   -1.394E+01   -1.396E+01   -1.398E+01   -1.401E+01   -1.403E+01   -1.405E+01
    -1.407E+01   -1.408E+01   -1.410E+01   -1.412E+01   -1.413E+01   -1.415E+01   -1.416E+01   -1.417E+01   -1.418E+01   -1.419E+01
    -1.420E+01   -1.421E+01   -1.422E+01   -1.422E+01   -1.423E+01   -1.423E+01   -1.423E+01   -1.424E+01   -1.424E+01   -1.424E+01
    -1.424E+01   -1.424E+01   -1.424E+01   -1.423E+01   -1.423E+01   -1.422E+01   -1.422E+01   -1.421E+01   -1.420E+01   -1.420E+01
    -1.419E+01   -1.418E+01   -1.417E+01   -1.415E+01   -1.414E+01   -1.413E+01   -1.411E+01   -1.410E+01   -1.408E+01   -1.407E+01
    -1.405E+01   -1.403E+01   -1.401E+01   -1.399E+01   -1.397E+01   -1.395E+01   -1.392E+01   -1.390E+01   -1.388E+01   -1.385E+01
    -1.383E+01   -1.380E+01   -1.377E+01   -1.374E+01   -1.372E+01   -1.369E+01   -1.366E+01   -1.363E+01   -1.359E+01   -1.356E+01
    -1.353E+01   -1.349E+01   -1.346E+01   -1.342E+01   -1.339E+01   -1.335E+01   -1.331E+01   -1.328E+01   -1.324E+01   -1.320E+01
    -1.316E+01   -1.312E+01   -1.307E+01   -1.303E+01   -1.299E+01   -1.294E+01   -1.290E+01   -1.286E+01   -1.281E+01   -1.276E+01
    -1.272E+01   -1.267E+01   -1.262E+01   -1.257E+01   -1.252E+01   -1.247E+01   -1.242E+01   -1.237E+01   -1.232E+01   -1.227E+01
    -1.221E+01   -1.216E+01   -1.211E+01   -1.205E+01   -1.200E+01   -1.194E+01   -1.188E+01   -1.183E+01   -1.177E+01   -1.171E+01
    -1.165E+01   -1.159E+01   -1.153E+01   -1.147E+01   -1.141E+01   -1.135E+01   -1.129E+01   -1.123E+01   -1.116E+01   -1.110E+01
    -1.104E+01   -1.097E+01   -1.091E+01   -1.084E+01   -1.077E+01   -1.071E+01   -1.064E+01   -1.057E+01   -1.051E+01   -1.044E+01
    -1.037E+01   -1.030E+01   -1.023E+01   -1.016E+01   -1.009E+01   -1.002E+01   -9.949E+00   -9.877E+00   -9.805E+00   -9.732E+00
    -9.660E+00   -9.586E+00   -9.513E+00   -9.439E+00   -9.364E+00   -9.290E+00   -9.215E+00   -9.139E+00   -9.063E+00   -8.987E+00
    -8.911E+00   -8.834E+00   -8.757E+00   -8.680E+00   -8.602E+00   -8.524E+00   -8.445E+00   -8.367E+00   -8.288E+00   -8.209E+00
    -8.129E+00   -8.049E+00   -7.969E+00   -7.889E+00   -7.808E+00   -7.728E+00   -7.646E+00   -7.565E+00   -7.484E+00   -7.402E+00
    -7.320E+00   -7.238E+00   -7.155E+00   -7.073E+00   -6.990E+00   -6.907E+00   -6.824E+00   -6.740E+00   -6.657E+00   -6.573E+00
    -6.489E+00   -6.405E+00   -6.321E+00   -6.236E+00   -6.152E+00   -6.067E+00   -5.983E+00   -5.898E+00   -5.813E+00   -5.727E+00
    -5.642E+00   -5.557E+00   -5.471E+00   -5.386E+00   -5.300E+00   -5.215E+00   -5.129E+00   -5.043E+00   -4.957E+00   -4.871E+00
    -4.785E+00   -4.699E+00   -4.613E+00   -4.527E+00   -4.440E+00   -4.354E+00   -4.268E+00   -4.182E+00   -4.096E+00   -4.009E+00
    -3.923E+00   -3.837E+00   -3.751E+00   -3.664E+00   -3.578E+00   -3.492E+00   -3.406E+00   -3.320E+00   -3.234E+00   -3.148E+00
    -3.062E+00   -2.976E+00   -2.890E+00   -2.805E+00   -2.719E+00   -2.634E+00   -2.548E+00   -2.463E+00   -2.378E+00   -2.292E+00
    -2.207E+00   -2.123E+00   -2.038E+00   -1.953E+00   -1.869E+00   -1.784E+00   -1.700E+00   -1.616E+00   -1.532E+00   -1.449E+00
    -1.365E+00   -1.282E+00   -1.199E+00   -1.116E+00   -1.033E+00   -9.505E-01   -8.681E-01   -7.860E-01
 Ala      Conc. = 8.78E+03
