 LCModel (Version 6.3-1L) Copyright: S.W. Provencher.          Ref.: Magn. Reson. Med. 30:672-679 (1993).                
 Slice#1 Row#10 Col#6  PD_05_press_2_raw_act
 36 lines in following concentration table = NCONC+1
    Conc.  %SD /Cr+PCr  Metabolite                                         
  302.718  67%   0.183 Ala                                                 
    0.000 999%   0.000 Asp                                                 
  750.281  33%   0.453 Cr                                                  
  906.654  28%   0.547 PCr                                                 
   32.571 619% 2.0E-02 GABA                                                
    0.000 999%   0.000 Glc                                                 
 1.31E+03  32%   0.789 Gln                                                 
 2.13E+03  23%   1.288 Glu                                                 
  391.533   8%   0.236 GPC                                                 
    0.000 999%   0.000 PCh                                                 
  743.344  15%   0.449 GSH                                                 
 2.07E+03  17%   1.252 Ins                                                 
    0.000 999%   0.000 Lac                                                 
 3.57E+03   3%   2.156 NAA                                                 
    0.000 999%   0.000 NAAG                                                
  112.853  33% 6.8E-02 Scyllo                                              
  246.248 103%   0.149 Tau                                                 
  401.983  38%   0.243 -CrCH2                                              
  391.533   8%   0.236 GPC+PCh                                             
 3.57E+03   3%   2.156 NAA+NAAG                                            
 1.66E+03   5%   1.000 Cr+PCr                                              
 3.44E+03  21%   2.077 Glu+Gln                                             
 1.31E+03  37%   0.792 Lip13a                                              
    0.000 999%   0.000 Lip13b                                              
  244.217  95%   0.147 Lip09                                               
 1.32E+03  21%   0.795 MM09                                                
  215.655  72%   0.130 Lip20                                               
 2.61E+03  17%   1.575 MM20                                                
  334.607  61%   0.202 MM12                                                
 1.71E+03  24%   1.034 MM14                                                
  800.912  31%   0.483 MM17                                                
 1.31E+03  37%   0.792 Lip13a+Lip13b                                       
 3.36E+03  11%   2.028 MM14+Lip13a+Lip13b+MM12                             
 1.56E+03  12%   0.943 MM09+Lip09                                          
 2.82E+03  15%   1.705 MM20+Lip20                                          
   6 lines in following misc. output table
  FWHM = 0.061 ppm    S/N =  12                                            
  Data shift = 0.008 ppm                                                   
  Ph: -24 deg      -1.6 deg/ppm                                            
  alphaB,S = 3.0E+00,   3.9E+01                                            
   14 spline knots.   Ns = 8(1)                                            
  (14) 7 infls.   (17) 3 extrs.                                            
  498 points on ppm-axis = NY
      4.000000     3.992357     3.984714     3.977070     3.969427     3.961784     3.954141     3.946497     3.938854     3.931211
      3.923568     3.915925     3.908281     3.900638     3.892995     3.885352     3.877708     3.870065     3.862422     3.854779
      3.847136     3.839492     3.831849     3.824206     3.816563     3.808919     3.801276     3.793633     3.785990     3.778347
      3.770703     3.763060     3.755417     3.747774     3.740130     3.732487     3.724844     3.717201     3.709558     3.701914
      3.694271     3.686628     3.678985     3.671341     3.663698     3.656055     3.648412     3.640769     3.633125     3.625482
      3.617839     3.610196     3.602552     3.594909     3.587266     3.579623     3.571980     3.564336     3.556693     3.549050
      3.541407     3.533763     3.526120     3.518477     3.510834     3.503191     3.495547     3.487904     3.480261     3.472618
      3.464974     3.457331     3.449688     3.442045     3.434402     3.426758     3.419115     3.411472     3.403829     3.396185
      3.388542     3.380899     3.373256     3.365613     3.357969     3.350326     3.342683     3.335040     3.327396     3.319753
      3.312110     3.304467     3.296824     3.289180     3.281537     3.273894     3.266251     3.258607     3.250964     3.243321
      3.235678     3.228034     3.220391     3.212748     3.205105     3.197462     3.189818     3.182175     3.174532     3.166889
      3.159245     3.151602     3.143959     3.136316     3.128673     3.121029     3.113386     3.105743     3.098100     3.090456
      3.082813     3.075170     3.067527     3.059884     3.052240     3.044597     3.036954     3.029311     3.021667     3.014024
      3.006381     2.998738     2.991095     2.983451     2.975808     2.968165     2.960522     2.952878     2.945235     2.937592
      2.929949     2.922306     2.914662     2.907019     2.899376     2.891733     2.884089     2.876446     2.868803     2.861160
      2.853517     2.845873     2.838230     2.830587     2.822944     2.815300     2.807657     2.800014     2.792371     2.784728
      2.777084     2.769441     2.761798     2.754155     2.746511     2.738868     2.731225     2.723582     2.715939     2.708295
      2.700652     2.693009     2.685366     2.677722     2.670079     2.662436     2.654793     2.647150     2.639506     2.631863
      2.624220     2.616577     2.608933     2.601290     2.593647     2.586004     2.578361     2.570717     2.563074     2.555431
      2.547788     2.540144     2.532501     2.524858     2.517215     2.509572     2.501928     2.494285     2.486642     2.478999
      2.471355     2.463712     2.456069     2.448426     2.440783     2.433139     2.425496     2.417853     2.410210     2.402566
      2.394923     2.387280     2.379637     2.371994     2.364350     2.356707     2.349064     2.341421     2.333777     2.326134
      2.318491     2.310848     2.303205     2.295561     2.287918     2.280275     2.272632     2.264988     2.257345     2.249702
      2.242059     2.234416     2.226772     2.219129     2.211486     2.203843     2.196199     2.188556     2.180913     2.173270
      2.165627     2.157983     2.150340     2.142697     2.135054     2.127410     2.119767     2.112124     2.104481     2.096838
      2.089194     2.081551     2.073908     2.066265     2.058621     2.050978     2.043335     2.035692     2.028049     2.020405
      2.012762     2.005119     1.997476     1.989833     1.982190     1.974546     1.966903     1.959260     1.951617     1.943974
      1.936331     1.928688     1.921045     1.913402     1.905759     1.898115     1.890472     1.882829     1.875186     1.867543
      1.859900     1.852257     1.844614     1.836971     1.829327     1.821684     1.814041     1.806398     1.798755     1.791112
      1.783469     1.775826     1.768183     1.760540     1.752896     1.745253     1.737610     1.729967     1.722324     1.714681
      1.707038     1.699395     1.691752     1.684108     1.676465     1.668822     1.661179     1.653536     1.645893     1.638250
      1.630607     1.622964     1.615321     1.607677     1.600034     1.592391     1.584748     1.577105     1.569462     1.561819
      1.554176     1.546533     1.538890     1.531246     1.523603     1.515960     1.508317     1.500674     1.493031     1.485388
      1.477745     1.470102     1.462458     1.454815     1.447172     1.439529     1.431886     1.424243     1.416600     1.408957
      1.401314     1.393671     1.386027     1.378384     1.370741     1.363098     1.355455     1.347812     1.340169     1.332526
      1.324883     1.317240     1.309596     1.301953     1.294310     1.286667     1.279024     1.271381     1.263738     1.256095
      1.248452     1.240808     1.233165     1.225522     1.217879     1.210236     1.202593     1.194950     1.187307     1.179664
      1.172021     1.164377     1.156734     1.149091     1.141448     1.133805     1.126162     1.118519     1.110876     1.103233
      1.095590     1.087946     1.080303     1.072660     1.065017     1.057374     1.049731     1.042088     1.034445     1.026802
      1.019158     1.011515     1.003872     0.996229     0.988586     0.980943     0.973300     0.965657     0.958014     0.950371
      0.942727     0.935084     0.927441     0.919798     0.912155     0.904512     0.896869     0.889226     0.881583     0.873940
      0.866296     0.858653     0.851010     0.843367     0.835724     0.828081     0.820438     0.812795     0.805152     0.797508
      0.789865     0.782222     0.774579     0.766936     0.759293     0.751650     0.744007     0.736364     0.728721     0.721077
      0.713434     0.705791     0.698148     0.690505     0.682862     0.675219     0.667576     0.659933     0.652290     0.644646
      0.637003     0.629360     0.621717     0.614074     0.606431     0.598788     0.591145     0.583502     0.575858     0.568215
      0.560572     0.552929     0.545286     0.537643     0.530000     0.522357     0.514714     0.507071     0.499427     0.491784
      0.484141     0.476498     0.468855     0.461212     0.453569     0.445925     0.438282     0.430639     0.422996     0.415353
      0.407710     0.400067     0.392424     0.384780     0.377137     0.369494     0.361851     0.354208     0.346565     0.338922
      0.331278     0.323635     0.315992     0.308349     0.300706     0.293063     0.285420     0.277777     0.270133     0.262490
      0.254847     0.247204     0.239561     0.231918     0.224275     0.216631     0.208988     0.201345
 NY phased data points follow
   7.72046E+00  7.96449E+00  7.47133E+00  1.45102E+01  1.51809E+01  1.86649E+01  1.52442E+01  2.16988E+01  2.02742E+01  2.78110E+01
   2.66879E+01  2.84451E+01  2.29025E+01  2.30297E+01  2.27391E+01  1.98087E+01  1.60039E+01  2.35684E+01  1.67155E+01  1.95706E+01
   1.00209E+01  1.70493E+01  1.09715E+01  2.04957E+01  1.81942E+01  2.34607E+01  1.56531E+01  1.65168E+01  1.84005E+01  1.92880E+01
   1.70008E+01  1.94174E+01  1.35262E+01  1.75631E+01  1.38977E+01  2.04309E+01  1.68667E+01  1.92715E+01  1.29939E+01  1.82454E+01
   1.34730E+01  1.58513E+01  1.54019E+01  2.14475E+01  2.19183E+01  2.07009E+01  1.93057E+01  2.32523E+01  1.80745E+01  1.27505E+01
   1.41865E+01  9.77105E+00  1.32172E+01  1.35910E+01  1.05414E+01  1.32526E+01  1.16665E+01  1.10232E+01  1.10257E+01  1.22976E+01
   5.26831E+00  6.33587E+00  1.00211E+01  8.56177E+00  6.74817E+00  4.46069E+00  5.66244E+00  4.47757E+00  6.59616E+00  1.21347E+01
   6.04181E+00  5.90842E+00  2.22288E+00  1.10656E+01  7.03486E+00  9.89163E+00  1.05876E+00  5.37975E+00  3.03787E+00  5.72447E+00
   6.44913E-01  6.80408E+00  4.52746E+00  1.22968E+01  3.73130E+00  4.32555E+00  2.75380E+00  9.00514E+00  4.66567E+00  7.71656E+00
   6.22063E+00  1.09975E+01  1.00712E+01  6.61338E+00  7.82747E+00  6.83214E+00  1.55323E+01  9.84638E+00  1.46482E+01  1.93144E+01
   1.76649E+01  2.26968E+01  2.65753E+01  2.78631E+01  3.10091E+01  2.78507E+01  2.38215E+01  2.48318E+01  2.27178E+01  1.56575E+01
   1.19922E+01  1.41479E+01  1.32179E+01  8.82756E+00  7.18399E+00  1.16273E+01  5.20951E+00  1.56209E+01  1.12372E+01  8.82595E+00
   1.06433E+01  2.29238E+01  2.17217E+01  3.10138E+01  2.82543E+01  3.98399E+01  4.04042E+01  4.70415E+01  4.54770E+01  4.58280E+01
   4.16821E+01  3.19084E+01  3.00465E+01  2.60291E+01  1.95461E+01  1.31952E+01  1.84302E+01  1.20818E+01  1.22786E+01  1.37429E+01
   6.99444E+00  2.01465E+00  8.23242E+00  9.93373E+00  5.26992E+00  8.78607E+00  7.03732E+00  1.73094E+00  5.05848E+00  1.71079E+00
   3.43693E-01  1.61064E+00  5.80049E-01  6.46017E+00  3.05843E+00  7.18765E+00  7.10217E-01  8.41407E+00  4.58103E+00  2.83668E+00
  -1.38823E+00  3.66872E+00  2.65278E+00  7.48268E+00  3.39157E+00 -5.91656E-01  1.96263E+00 -1.81284E-01  2.61414E+00  1.44454E+00
  -8.81286E+00 -4.34509E+00 -1.03430E+01 -7.13548E+00 -1.33434E+01 -1.13001E+01 -1.57594E+01 -1.61271E+01 -1.82460E+01 -1.43920E+01
  -1.40572E+01 -1.28747E+01 -1.70740E+01 -6.26981E+00 -9.49136E+00 -8.50871E+00  4.99510E+00 -3.10458E+00 -5.35381E+00 -3.26197E+00
  -3.77539E+00 -4.87375E+00 -7.97794E-01  1.69823E-01 -6.28309E+00 -4.89825E+00 -8.32685E+00 -7.87541E+00 -2.15538E+00 -7.36433E+00
  -1.10904E+01 -5.27185E+00 -5.90344E+00  4.30726E+00  5.63975E+00  6.17487E-01  3.20540E+00  1.27322E+00 -2.57811E+00  4.09660E+00
   1.42512E-01  9.51513E-01  5.24553E+00  6.62103E+00  1.09322E+01  1.76558E+01  8.95858E+00  1.19093E+01  1.12119E+01  6.83048E+00
   2.62681E+00 -2.37985E+00 -3.65577E+00  2.06727E+00 -2.58355E+00  1.70609E+00  5.02185E+00  8.11720E+00  7.15635E+00  1.04883E+01
   1.98715E+00  6.56881E+00  3.37886E+00  9.50069E+00  9.49135E+00  1.04256E+01  6.62952E+00  8.00926E+00  9.22739E+00  4.67853E+00
   7.43219E+00  1.07749E+01  4.55045E+00  5.83846E+00  5.13634E+00  5.39304E+00  7.94576E+00  6.89002E+00  9.28272E+00  1.44629E+01
   1.01192E+01  2.07742E+01  2.45147E+01  2.46552E+01  3.19734E+01  4.43013E+01  5.37528E+01  7.13481E+01  8.17911E+01  9.36413E+01
   1.13250E+02  1.08021E+02  1.02793E+02  8.79237E+01  6.66222E+01  4.93044E+01  3.31928E+01  2.39638E+01  2.29947E+01  2.31473E+01
   1.28773E+01  9.93231E+00  8.10789E+00  3.07728E+00  4.45859E+00  3.80541E+00  7.45274E-01  3.55408E+00  1.11325E+00 -5.05414E-01
   1.20136E+00 -1.50185E+00 -7.02101E+00  8.09804E-01 -3.80417E+00  3.15164E+00 -3.91439E+00 -3.35797E+00  1.83765E+00 -1.65074E+00
   1.16586E+00 -1.43661E+00 -4.95781E+00 -1.07139E+00 -8.12244E-01  5.88978E+00  7.06154E-01  4.23114E+00  1.62430E+00  4.68700E-01
   2.95823E+00 -2.09147E+00  1.87719E+00  2.15111E+00  6.65705E+00  6.44648E+00  2.74568E+00  3.23189E+00  8.84156E+00  9.54326E+00
   7.91991E+00  7.03986E+00  1.04522E+01  6.55815E+00  7.94513E+00  8.65946E+00  8.87502E+00  8.48984E+00  7.80288E+00  6.19522E+00
   6.29973E+00  6.82216E+00  6.26444E+00  7.70987E+00  6.90995E+00  4.74870E+00  6.95446E+00  1.49603E+01  9.16794E+00  7.10525E+00
   4.49749E+00  6.44104E+00  2.13139E+00  1.02329E+01  1.18096E+01  1.21930E+01  6.03364E+00  9.88539E+00  6.93882E+00  1.26602E+01
   1.29090E+01  1.49867E+01  1.28330E+01  5.26802E+00  4.96625E+00  1.62081E+01  1.11242E+01  1.44445E+01  1.36006E+01  1.34614E+01
   9.43347E+00  1.14129E+01  9.76136E+00  2.98669E+00  1.25309E+01  1.02298E+01  8.35640E+00  7.19274E+00  7.98115E+00  9.47884E+00
   1.30454E+00  6.27143E+00  8.71916E+00  5.18620E+00  1.68983E-02  1.36913E+01  1.43254E+01  1.23121E+01  7.75141E+00  1.32935E+01
   8.03366E+00  4.17000E+00  6.59622E+00 -3.77146E+00 -8.98430E+00 -1.48565E+00 -3.21981E+00 -3.45198E+00  1.46064E+00 -3.16621E+00
  -2.01501E+00 -2.38192E+00 -5.16128E+00 -5.21458E+00 -6.87527E+00 -3.20209E+00 -6.23083E+00 -1.24238E+00  2.78879E+00  1.29200E+00
   5.88429E-01  8.40403E+00  1.47098E+00  6.98149E+00  6.53169E+00  7.82561E+00  1.01986E+01  6.22097E+00  6.62824E+00  8.64059E+00
   5.83613E+00  8.91048E+00  5.76703E+00  7.75689E+00  8.36526E+00  1.10246E+01  1.02728E+01  1.54891E+01  6.61623E+00  1.23882E+01
   1.08995E+01  6.43868E+00  7.83731E+00  7.74886E+00  6.13223E+00  8.06355E+00  2.04415E+00  9.10708E+00  3.77275E+00  5.83464E+00
   4.28109E+00  8.42833E+00  1.71515E+00  9.02833E-01 -9.41156E-01  1.08883E+01  4.89704E+00  3.86976E-01 -2.82720E+00  1.94434E+00
  -4.45475E+00 -5.43601E-01 -1.03842E+00 -6.78209E-01  2.24586E-01 -6.22905E+00  6.83534E-01 -1.36243E+00 -4.47631E+00 -4.69016E+00
  -6.39783E+00 -5.43396E+00 -1.55636E+00 -3.67474E+00 -3.15299E-01 -9.46805E-02  1.65082E+00 -3.63266E+00 -3.62230E+00  1.54806E+00
  -8.49995E+00  7.35872E-01 -1.24079E+00 -3.61965E+00  6.64422E-01 -5.75168E+00  2.27974E-01 -2.83214E+00 -5.88024E+00  4.95115E-01
   5.66463E+00  2.30665E+00 -2.15895E+00  4.10373E-01  1.38782E+00 -2.85631E-01  2.91044E+00  1.01557E+00  2.93198E-01  1.04669E+00
  -1.80362E+00  2.05278E-01 -8.19874E+00 -1.18967E+00 -3.27203E+00  1.36454E+00 -4.41547E+00  1.67116E+00 -5.14836E+00 -4.18531E-01
   2.66645E+00  1.08294E+00 -3.49967E+00  8.94757E-01 -2.29521E-02 -4.89006E+00  3.29680E+00 -1.17826E+00 -1.53624E+00  5.49513E-01
   3.91924E-01 -4.68166E+00 -3.82023E-01 -5.20216E-01  5.45418E-01 -2.43602E+00  1.65769E+00  3.69269E+00
 NY points of the fit to the data follow
   9.95305E+00  9.85087E+00  9.96125E+00  1.09703E+01  1.28582E+01  1.52086E+01  1.74219E+01  2.02086E+01  2.31611E+01  2.52938E+01
   2.65093E+01  2.72895E+01  2.73798E+01  2.62249E+01  2.41968E+01  2.20049E+01  1.99410E+01  1.73488E+01  1.45470E+01  1.35314E+01
   1.33573E+01  1.30086E+01  1.23909E+01  1.23036E+01  1.32364E+01  1.46102E+01  1.60086E+01  1.76657E+01  1.97792E+01  2.19024E+01
   2.28996E+01  2.29516E+01  2.25225E+01  2.11763E+01  1.87061E+01  1.61211E+01  1.40900E+01  1.26009E+01  1.08962E+01  1.01183E+01
   1.09488E+01  1.19993E+01  1.34688E+01  1.52338E+01  1.67632E+01  1.81694E+01  1.91296E+01  1.94265E+01  1.85348E+01  1.63411E+01
   1.37754E+01  1.15581E+01  9.81791E+00  9.17808E+00  9.65093E+00  9.94746E+00  9.40251E+00  9.19235E+00  9.77446E+00  1.03319E+01
   1.03601E+01  9.97838E+00  9.28840E+00  8.63221E+00  7.98981E+00  7.67704E+00  7.92618E+00  8.39734E+00  8.78507E+00  9.04105E+00
   9.16519E+00  9.28678E+00  9.25190E+00  9.09638E+00  8.92777E+00  8.63464E+00  8.18446E+00  7.69992E+00  7.34001E+00  7.31004E+00
   6.87146E+00  6.58507E+00  6.60098E+00  6.76899E+00  6.80659E+00  6.74493E+00  6.70110E+00  6.46843E+00  6.04458E+00  5.55618E+00
   5.17847E+00  4.91680E+00  4.66938E+00  4.56480E+00  4.88403E+00  6.34074E+00  8.40292E+00  1.00066E+01  1.24881E+01  1.59473E+01
   1.97812E+01  2.36401E+01  2.78654E+01  3.16674E+01  3.28531E+01  3.10969E+01  2.74830E+01  2.26967E+01  1.75488E+01  1.33217E+01
   1.12309E+01  1.08715E+01  9.15833E+00  5.74812E+00  4.33501E+00  3.96032E+00  3.91403E+00  4.17621E+00  5.65984E+00  8.48551E+00
   1.18872E+01  1.60005E+01  2.05956E+01  2.61444E+01  3.22702E+01  3.87423E+01  4.45667E+01  4.83052E+01  4.88906E+01  4.58598E+01
   4.00878E+01  3.30838E+01  2.61189E+01  2.06792E+01  1.71560E+01  1.40397E+01  1.04253E+01  7.29907E+00  5.36954E+00  5.36639E+00
   6.01002E+00  6.40073E+00  6.15741E+00  5.77094E+00  5.39988E+00  4.93659E+00  4.55347E+00  4.27350E+00  3.94246E+00  3.62262E+00
   3.12898E+00  2.75278E+00  2.47300E+00  2.05496E+00  1.71293E+00  1.52761E+00  1.34084E+00  1.20132E+00  9.11491E-01  4.97202E-01
   6.22669E-02 -3.22469E-01 -5.09640E-01 -4.50108E-01 -2.59777E-01 -2.40822E-01 -5.54702E-01 -1.20321E+00 -2.26614E+00 -3.43426E+00
  -3.92270E+00 -4.23429E+00 -4.60081E+00 -5.16895E+00 -5.99924E+00 -6.53676E+00 -6.77462E+00 -6.74281E+00 -6.52527E+00 -6.46934E+00
  -6.44334E+00 -6.25434E+00 -6.04641E+00 -5.77695E+00 -5.27599E+00 -4.26695E+00 -2.98091E+00 -1.87492E+00 -7.36158E-01  4.69887E-01
   1.73829E+00  2.54883E+00  2.43717E+00  1.86516E+00  1.09466E+00  5.29675E-01  9.17346E-01  1.80542E+00  2.73587E+00  3.90755E+00
   5.10166E+00  6.13559E+00  6.51042E+00  6.70234E+00  6.28348E+00  4.82738E+00  2.79637E+00  6.85966E-01 -1.14325E+00 -2.41631E+00
  -3.07255E+00 -2.19874E+00 -2.72374E-01  1.93002E+00  4.05295E+00  5.74853E+00  6.72833E+00  6.39833E+00  4.68727E+00  2.87473E+00
   5.11749E-01 -2.03196E+00 -3.31726E+00 -3.05078E+00 -1.50058E+00  3.49084E-01  1.96935E+00  3.95873E+00  5.42286E+00  6.23660E+00
   6.13104E+00  6.07499E+00  6.94036E+00  7.87276E+00  8.09009E+00  8.00257E+00  8.26501E+00  8.48316E+00  8.21834E+00  7.71817E+00
   7.46675E+00  7.19976E+00  6.57455E+00  6.07102E+00  6.36636E+00  7.35932E+00  8.15408E+00  9.04845E+00  1.01047E+01  1.08920E+01
   1.13521E+01  1.26575E+01  1.97349E+01  3.03187E+01  3.68283E+01  4.58631E+01  5.78410E+01  7.02261E+01  8.20046E+01  9.49288E+01
   1.05902E+02  1.07902E+02  1.00268E+02  8.63168E+01  6.89932E+01  5.12464E+01  3.68330E+01  2.99817E+01  2.91599E+01  2.26109E+01
   1.06012E+01  6.60750E+00  5.50416E+00  4.86899E+00  4.41773E+00  4.23545E+00  4.00630E+00  3.69840E+00  3.36521E+00  2.99994E+00
   2.62109E+00  2.32734E+00  2.11113E+00  1.89195E+00  1.68255E+00  1.52750E+00  1.41562E+00  1.33039E+00  1.25698E+00  1.20873E+00
   1.21572E+00  1.25204E+00  1.31044E+00  1.40468E+00  1.53477E+00  1.70063E+00  1.90248E+00  2.14274E+00  2.42133E+00  2.73076E+00
   3.06750E+00  3.42868E+00  3.80356E+00  4.18656E+00  4.56774E+00  4.93845E+00  5.28878E+00  5.61123E+00  5.89792E+00  6.14515E+00
   6.35026E+00  6.51474E+00  6.63910E+00  6.72835E+00  6.79175E+00  6.84253E+00  6.89669E+00  6.98026E+00  7.14083E+00  7.45061E+00
   7.67465E+00  7.76431E+00  7.96243E+00  8.14382E+00  8.20209E+00  8.12763E+00  7.90116E+00  7.54365E+00  7.07596E+00  6.42800E+00
   5.95482E+00  5.84339E+00  6.12309E+00  6.79974E+00  7.91453E+00  9.17225E+00  1.00114E+01  1.06479E+01  1.12773E+01  1.15451E+01
   1.14781E+01  1.12260E+01  1.10646E+01  1.11816E+01  1.11920E+01  1.08434E+01  1.06056E+01  1.04697E+01  1.03731E+01  1.02929E+01
   1.02153E+01  1.01315E+01  1.00325E+01  9.91200E+00  9.76299E+00  9.58133E+00  9.36235E+00  9.10445E+00  8.80597E+00  8.46877E+00
   8.09467E+00  7.68859E+00  7.25482E+00  6.80023E+00  6.33072E+00  5.85431E+00  5.37733E+00  4.90737E+00  4.44973E+00  4.01069E+00
   3.59419E+00  3.20511E+00  2.84575E+00  2.51920E+00  2.22615E+00  1.96843E+00  1.74594E+00  1.55997E+00  1.40992E+00  1.29669E+00
   1.21964E+00  1.18005E+00  1.17789E+00  1.21505E+00  1.29195E+00  1.41081E+00  1.57249E+00  1.77963E+00  2.03322E+00  2.33548E+00
   2.68639E+00  3.08669E+00  3.53449E+00  4.02821E+00  4.56299E+00  5.13362E+00  5.73118E+00  6.34637E+00  6.96647E+00  7.57871E+00
   8.16741E+00  8.71761E+00  9.21260E+00  9.63794E+00  9.97906E+00  1.02250E+01  1.03660E+01  1.03969E+01  1.03146E+01  1.01214E+01
   9.82182E+00  9.42507E+00  8.94170E+00  8.38600E+00  7.77227E+00  7.11719E+00  6.43593E+00  5.74446E+00  5.05584E+00  4.38300E+00
   3.73537E+00  3.12188E+00  2.54768E+00  2.01735E+00  1.53202E+00  1.09277E+00  6.97907E-01  3.46302E-01  3.44757E-02 -2.40039E-01
  -4.81509E-01 -6.92657E-01 -8.77602E-01 -1.03876E+00 -1.17989E+00 -1.30303E+00 -1.41139E+00 -1.50630E+00 -1.59029E+00 -1.66414E+00
  -1.73004E+00 -1.78843E+00 -1.84106E+00 -1.88795E+00 -1.93050E+00 -1.96855E+00 -2.00342E+00 -2.03484E+00 -2.06391E+00 -2.09012E+00
  -2.11444E+00 -2.13640E+00 -2.15702E+00 -2.17574E+00 -2.19340E+00 -2.20934E+00 -2.22442E+00 -2.23803E+00 -2.25110E+00 -2.26293E+00
  -2.27428E+00 -2.28443E+00 -2.29422E+00 -2.30301E+00 -2.31161E+00 -2.31929E+00 -2.32677E+00 -2.33334E+00 -2.33981E+00 -2.34553E+00
  -2.35126E+00 -2.35622E+00 -2.36113E+00 -2.36529E+00 -2.36951E+00 -2.37311E+00 -2.37679E+00 -2.37979E+00 -2.38283E+00 -2.38522E+00
  -2.38777E+00 -2.38975E+00 -2.39186E+00 -2.39331E+00 -2.39486E+00 -2.39582E+00 -2.39696E+00 -2.39755E+00 -2.39823E+00 -2.39827E+00
  -2.39841E+00 -2.39797E+00 -2.39768E+00 -2.39677E+00 -2.39588E+00 -2.39429E+00 -2.39272E+00 -2.39048E+00
 NY background values follow
     4.602E+00    4.576E+00    4.549E+00    4.523E+00    4.496E+00    4.470E+00    4.443E+00    4.417E+00    4.390E+00    4.364E+00
     4.337E+00    4.311E+00    4.284E+00    4.258E+00    4.231E+00    4.205E+00    4.178E+00    4.152E+00    4.125E+00    4.099E+00
     4.072E+00    4.045E+00    4.019E+00    3.992E+00    3.966E+00    3.939E+00    3.913E+00    3.886E+00    3.860E+00    3.833E+00
     3.807E+00    3.780E+00    3.753E+00    3.727E+00    3.700E+00    3.674E+00    3.647E+00    3.621E+00    3.594E+00    3.568E+00
     3.541E+00    3.514E+00    3.488E+00    3.461E+00    3.435E+00    3.408E+00    3.382E+00    3.355E+00    3.329E+00    3.302E+00
     3.276E+00    3.249E+00    3.223E+00    3.196E+00    3.170E+00    3.143E+00    3.117E+00    3.090E+00    3.064E+00    3.037E+00
     3.011E+00    2.984E+00    2.958E+00    2.931E+00    2.905E+00    2.878E+00    2.852E+00    2.826E+00    2.799E+00    2.773E+00
     2.746E+00    2.720E+00    2.694E+00    2.667E+00    2.641E+00    2.615E+00    2.588E+00    2.562E+00    2.536E+00    2.509E+00
     2.483E+00    2.457E+00    2.431E+00    2.404E+00    2.378E+00    2.352E+00    2.326E+00    2.300E+00    2.273E+00    2.247E+00
     2.221E+00    2.195E+00    2.169E+00    2.143E+00    2.117E+00    2.091E+00    2.065E+00    2.039E+00    2.013E+00    1.987E+00
     1.961E+00    1.935E+00    1.909E+00    1.883E+00    1.857E+00    1.831E+00    1.806E+00    1.780E+00    1.754E+00    1.728E+00
     1.702E+00    1.677E+00    1.651E+00    1.625E+00    1.600E+00    1.574E+00    1.549E+00    1.523E+00    1.497E+00    1.472E+00
     1.446E+00    1.421E+00    1.396E+00    1.370E+00    1.345E+00    1.319E+00    1.294E+00    1.269E+00    1.244E+00    1.218E+00
     1.193E+00    1.168E+00    1.143E+00    1.118E+00    1.093E+00    1.068E+00    1.043E+00    1.018E+00    9.928E-01    9.679E-01
     9.430E-01    9.182E-01    8.934E-01    8.687E-01    8.440E-01    8.193E-01    7.947E-01    7.702E-01    7.457E-01    7.212E-01
     6.968E-01    6.725E-01    6.482E-01    6.240E-01    5.998E-01    5.757E-01    5.516E-01    5.277E-01    5.037E-01    4.799E-01
     4.561E-01    4.324E-01    4.087E-01    3.852E-01    3.617E-01    3.382E-01    3.149E-01    2.916E-01    2.685E-01    2.454E-01
     2.223E-01    1.994E-01    1.766E-01    1.538E-01    1.311E-01    1.086E-01    8.607E-02    6.368E-02    4.139E-02    1.919E-02
    -2.912E-03   -2.491E-02   -4.681E-02   -6.861E-02   -9.030E-02   -1.119E-01   -1.334E-01   -1.548E-01   -1.761E-01   -1.973E-01
    -2.183E-01   -2.393E-01   -2.602E-01   -2.810E-01   -3.017E-01   -3.223E-01   -3.427E-01   -3.631E-01   -3.834E-01   -4.036E-01
    -4.236E-01   -4.436E-01   -4.635E-01   -4.832E-01   -5.029E-01   -5.224E-01   -5.419E-01   -5.613E-01   -5.805E-01   -5.997E-01
    -6.187E-01   -6.377E-01   -6.565E-01   -6.753E-01   -6.939E-01   -7.125E-01   -7.309E-01   -7.492E-01   -7.675E-01   -7.856E-01
    -8.036E-01   -8.216E-01   -8.394E-01   -8.571E-01   -8.747E-01   -8.923E-01   -9.097E-01   -9.270E-01   -9.442E-01   -9.613E-01
    -9.783E-01   -9.952E-01   -1.012E+00   -1.029E+00   -1.045E+00   -1.062E+00   -1.078E+00   -1.094E+00   -1.111E+00   -1.127E+00
    -1.143E+00   -1.159E+00   -1.174E+00   -1.190E+00   -1.205E+00   -1.221E+00   -1.236E+00   -1.251E+00   -1.267E+00   -1.282E+00
    -1.296E+00   -1.311E+00   -1.326E+00   -1.340E+00   -1.355E+00   -1.369E+00   -1.384E+00   -1.398E+00   -1.412E+00   -1.426E+00
    -1.439E+00   -1.453E+00   -1.467E+00   -1.480E+00   -1.493E+00   -1.507E+00   -1.520E+00   -1.533E+00   -1.546E+00   -1.559E+00
    -1.571E+00   -1.584E+00   -1.596E+00   -1.609E+00   -1.621E+00   -1.633E+00   -1.645E+00   -1.657E+00   -1.669E+00   -1.680E+00
    -1.692E+00   -1.703E+00   -1.715E+00   -1.726E+00   -1.737E+00   -1.748E+00   -1.759E+00   -1.770E+00   -1.780E+00   -1.791E+00
    -1.801E+00   -1.812E+00   -1.822E+00   -1.832E+00   -1.842E+00   -1.852E+00   -1.862E+00   -1.872E+00   -1.881E+00   -1.891E+00
    -1.900E+00   -1.910E+00   -1.919E+00   -1.928E+00   -1.937E+00   -1.946E+00   -1.955E+00   -1.963E+00   -1.972E+00   -1.980E+00
    -1.989E+00   -1.997E+00   -2.005E+00   -2.013E+00   -2.021E+00   -2.029E+00   -2.037E+00   -2.045E+00   -2.052E+00   -2.060E+00
    -2.067E+00   -2.074E+00   -2.082E+00   -2.089E+00   -2.096E+00   -2.103E+00   -2.109E+00   -2.116E+00   -2.123E+00   -2.129E+00
    -2.136E+00   -2.142E+00   -2.148E+00   -2.154E+00   -2.160E+00   -2.166E+00   -2.172E+00   -2.178E+00   -2.184E+00   -2.189E+00
    -2.195E+00   -2.200E+00   -2.205E+00   -2.211E+00   -2.216E+00   -2.221E+00   -2.226E+00   -2.231E+00   -2.236E+00   -2.240E+00
    -2.245E+00   -2.249E+00   -2.254E+00   -2.258E+00   -2.262E+00   -2.267E+00   -2.271E+00   -2.275E+00   -2.279E+00   -2.283E+00
    -2.286E+00   -2.290E+00   -2.294E+00   -2.297E+00   -2.301E+00   -2.304E+00   -2.307E+00   -2.310E+00   -2.313E+00   -2.316E+00
    -2.319E+00   -2.322E+00   -2.325E+00   -2.328E+00   -2.330E+00   -2.333E+00   -2.336E+00   -2.338E+00   -2.340E+00   -2.343E+00
    -2.345E+00   -2.347E+00   -2.349E+00   -2.351E+00   -2.353E+00   -2.355E+00   -2.356E+00   -2.358E+00   -2.360E+00   -2.361E+00
    -2.363E+00   -2.364E+00   -2.366E+00   -2.367E+00   -2.368E+00   -2.369E+00   -2.370E+00   -2.371E+00   -2.372E+00   -2.373E+00
    -2.374E+00   -2.375E+00   -2.376E+00   -2.376E+00   -2.377E+00   -2.377E+00   -2.378E+00   -2.378E+00   -2.379E+00   -2.379E+00
    -2.379E+00   -2.379E+00   -2.379E+00   -2.380E+00   -2.380E+00   -2.380E+00   -2.379E+00   -2.379E+00   -2.379E+00   -2.379E+00
    -2.379E+00   -2.378E+00   -2.378E+00   -2.377E+00   -2.377E+00   -2.376E+00   -2.376E+00   -2.375E+00   -2.375E+00   -2.374E+00
    -2.373E+00   -2.373E+00   -2.372E+00   -2.371E+00   -2.370E+00   -2.369E+00   -2.368E+00   -2.367E+00   -2.366E+00   -2.365E+00
    -2.364E+00   -2.363E+00   -2.362E+00   -2.361E+00   -2.360E+00   -2.358E+00   -2.357E+00   -2.356E+00   -2.355E+00   -2.353E+00
    -2.352E+00   -2.351E+00   -2.349E+00   -2.348E+00   -2.347E+00   -2.345E+00   -2.344E+00   -2.342E+00   -2.341E+00   -2.339E+00
    -2.338E+00   -2.336E+00   -2.335E+00   -2.333E+00   -2.332E+00   -2.330E+00   -2.328E+00   -2.327E+00   -2.325E+00   -2.324E+00
    -2.322E+00   -2.320E+00   -2.319E+00   -2.317E+00   -2.315E+00   -2.314E+00   -2.312E+00   -2.310E+00   -2.308E+00   -2.307E+00
    -2.305E+00   -2.303E+00   -2.302E+00   -2.300E+00   -2.298E+00   -2.296E+00   -2.295E+00   -2.293E+00   -2.291E+00   -2.289E+00
    -2.288E+00   -2.286E+00   -2.284E+00   -2.282E+00   -2.281E+00   -2.279E+00   -2.277E+00   -2.275E+00
 Ala      Conc. = 3.03E+02
