 LCModel (Version 6.3-1L) Copyright: S.W. Provencher.          Ref.: Magn. Reson. Med. 30:672-679 (1993).                
 Slice#2 Row#11 Col#5  PD_05_press_2_raw_act
 36 lines in following concentration table = NCONC+1
    Conc.  %SD /Cr+PCr  Metabolite                                         
    0.000 999%   0.000 Ala                                                 
   58.596  87%   0.317 Asp                                                 
  184.782  22%   1.000 Cr                                                  
    0.000 999%   0.000 PCr                                                 
   29.838 103%   0.161 GABA                                                
    6.474 476% 3.5E-02 Glc                                                 
  255.994  75%   1.385 Gln                                                 
  588.330  37%   3.184 Glu                                                 
   91.580  17%   0.496 GPC                                                 
    0.000 999%   0.000 PCh                                                 
  288.811  21%   1.563 GSH                                                 
  563.539  41%   3.050 Ins                                                 
    0.000 999%   0.000 Lac                                                 
  308.353  19%   1.669 NAA                                                 
   53.020 115%   0.287 NAAG                                                
   16.387  59% 8.9E-02 Scyllo                                              
    8.907 573% 4.8E-02 Tau                                                 
   38.522 108%   0.208 -CrCH2                                              
   91.580  17%   0.496 GPC+PCh                                             
  361.374  15%   1.956 NAA+NAAG                                            
  184.782  22%   1.000 Cr+PCr                                              
  844.324  37%   4.569 Glu+Gln                                             
  429.458 115%   2.324 Lip13a                                              
  281.457  67%   1.523 Lip13b                                              
    0.000 999%   0.000 Lip09                                               
    7.764 624% 4.2E-02 MM09                                                
  129.600  94%   0.701 Lip20                                               
   15.440 512% 8.4E-02 MM20                                                
    2.840 593% 1.5E-02 MM12                                                
    0.000 999%   0.000 MM14                                                
    5.962 522% 3.2E-02 MM17                                                
  710.916  50%   3.847 Lip13a+Lip13b                                       
  713.755  50%   3.863 MM14+Lip13a+Lip13b+MM12                             
    7.764 624% 4.2E-02 MM09+Lip09                                          
  145.040 100%   0.785 MM20+Lip20                                          
   6 lines in following misc. output table
  FWHM = 0.061 ppm    S/N =   2                                            
  Data shift = 0.008 ppm                                                   
  Ph: -32 deg      -5.7 deg/ppm                                            
  alphaB,S = 6.2E-01,   5.1E+01                                            
   14 spline knots.   Ns = 6(1)                                            
  ( 8) 2 infls.   ( 9) 1 extrs.                                            
  498 points on ppm-axis = NY
      4.000000     3.992357     3.984714     3.977070     3.969427     3.961784     3.954141     3.946497     3.938854     3.931211
      3.923568     3.915925     3.908281     3.900638     3.892995     3.885352     3.877708     3.870065     3.862422     3.854779
      3.847136     3.839492     3.831849     3.824206     3.816563     3.808919     3.801276     3.793633     3.785990     3.778347
      3.770703     3.763060     3.755417     3.747774     3.740130     3.732487     3.724844     3.717201     3.709558     3.701914
      3.694271     3.686628     3.678985     3.671341     3.663698     3.656055     3.648412     3.640769     3.633125     3.625482
      3.617839     3.610196     3.602552     3.594909     3.587266     3.579623     3.571980     3.564336     3.556693     3.549050
      3.541407     3.533763     3.526120     3.518477     3.510834     3.503191     3.495547     3.487904     3.480261     3.472618
      3.464974     3.457331     3.449688     3.442045     3.434402     3.426758     3.419115     3.411472     3.403829     3.396185
      3.388542     3.380899     3.373256     3.365613     3.357969     3.350326     3.342683     3.335040     3.327396     3.319753
      3.312110     3.304467     3.296824     3.289180     3.281537     3.273894     3.266251     3.258607     3.250964     3.243321
      3.235678     3.228034     3.220391     3.212748     3.205105     3.197462     3.189818     3.182175     3.174532     3.166889
      3.159245     3.151602     3.143959     3.136316     3.128673     3.121029     3.113386     3.105743     3.098100     3.090456
      3.082813     3.075170     3.067527     3.059884     3.052240     3.044597     3.036954     3.029311     3.021667     3.014024
      3.006381     2.998738     2.991095     2.983451     2.975808     2.968165     2.960522     2.952878     2.945235     2.937592
      2.929949     2.922306     2.914662     2.907019     2.899376     2.891733     2.884089     2.876446     2.868803     2.861160
      2.853517     2.845873     2.838230     2.830587     2.822944     2.815300     2.807657     2.800014     2.792371     2.784728
      2.777084     2.769441     2.761798     2.754155     2.746511     2.738868     2.731225     2.723582     2.715939     2.708295
      2.700652     2.693009     2.685366     2.677722     2.670079     2.662436     2.654793     2.647150     2.639506     2.631863
      2.624220     2.616577     2.608933     2.601290     2.593647     2.586004     2.578361     2.570717     2.563074     2.555431
      2.547788     2.540144     2.532501     2.524858     2.517215     2.509572     2.501928     2.494285     2.486642     2.478999
      2.471355     2.463712     2.456069     2.448426     2.440783     2.433139     2.425496     2.417853     2.410210     2.402566
      2.394923     2.387280     2.379637     2.371994     2.364350     2.356707     2.349064     2.341421     2.333777     2.326134
      2.318491     2.310848     2.303205     2.295561     2.287918     2.280275     2.272632     2.264988     2.257345     2.249702
      2.242059     2.234416     2.226772     2.219129     2.211486     2.203843     2.196199     2.188556     2.180913     2.173270
      2.165627     2.157983     2.150340     2.142697     2.135054     2.127410     2.119767     2.112124     2.104481     2.096838
      2.089194     2.081551     2.073908     2.066265     2.058621     2.050978     2.043335     2.035692     2.028049     2.020405
      2.012762     2.005119     1.997476     1.989833     1.982190     1.974546     1.966903     1.959260     1.951617     1.943974
      1.936331     1.928688     1.921045     1.913402     1.905759     1.898115     1.890472     1.882829     1.875186     1.867543
      1.859900     1.852257     1.844614     1.836971     1.829327     1.821684     1.814041     1.806398     1.798755     1.791112
      1.783469     1.775826     1.768183     1.760540     1.752896     1.745253     1.737610     1.729967     1.722324     1.714681
      1.707038     1.699395     1.691752     1.684108     1.676465     1.668822     1.661179     1.653536     1.645893     1.638250
      1.630607     1.622964     1.615321     1.607677     1.600034     1.592391     1.584748     1.577105     1.569462     1.561819
      1.554176     1.546533     1.538890     1.531246     1.523603     1.515960     1.508317     1.500674     1.493031     1.485388
      1.477745     1.470102     1.462458     1.454815     1.447172     1.439529     1.431886     1.424243     1.416600     1.408957
      1.401314     1.393671     1.386027     1.378384     1.370741     1.363098     1.355455     1.347812     1.340169     1.332526
      1.324883     1.317240     1.309596     1.301953     1.294310     1.286667     1.279024     1.271381     1.263738     1.256095
      1.248452     1.240808     1.233165     1.225522     1.217879     1.210236     1.202593     1.194950     1.187307     1.179664
      1.172021     1.164377     1.156734     1.149091     1.141448     1.133805     1.126162     1.118519     1.110876     1.103233
      1.095590     1.087946     1.080303     1.072660     1.065017     1.057374     1.049731     1.042088     1.034445     1.026802
      1.019158     1.011515     1.003872     0.996229     0.988586     0.980943     0.973300     0.965657     0.958014     0.950371
      0.942727     0.935084     0.927441     0.919798     0.912155     0.904512     0.896869     0.889226     0.881583     0.873940
      0.866296     0.858653     0.851010     0.843367     0.835724     0.828081     0.820438     0.812795     0.805152     0.797508
      0.789865     0.782222     0.774579     0.766936     0.759293     0.751650     0.744007     0.736364     0.728721     0.721077
      0.713434     0.705791     0.698148     0.690505     0.682862     0.675219     0.667576     0.659933     0.652290     0.644646
      0.637003     0.629360     0.621717     0.614074     0.606431     0.598788     0.591145     0.583502     0.575858     0.568215
      0.560572     0.552929     0.545286     0.537643     0.530000     0.522357     0.514714     0.507071     0.499427     0.491784
      0.484141     0.476498     0.468855     0.461212     0.453569     0.445925     0.438282     0.430639     0.422996     0.415353
      0.407710     0.400067     0.392424     0.384780     0.377137     0.369494     0.361851     0.354208     0.346565     0.338922
      0.331278     0.323635     0.315992     0.308349     0.300706     0.293063     0.285420     0.277777     0.270133     0.262490
      0.254847     0.247204     0.239561     0.231918     0.224275     0.216631     0.208988     0.201345
 NY phased data points follow
  -2.64017E+02 -2.66674E+02 -2.65376E+02 -2.62107E+02 -2.55760E+02 -2.51251E+02 -2.46733E+02 -2.42071E+02 -2.41292E+02 -2.33961E+02
  -2.33526E+02 -2.30568E+02 -2.24381E+02 -2.25973E+02 -2.23950E+02 -2.20826E+02 -2.22910E+02 -2.20821E+02 -2.16274E+02 -2.14914E+02
  -2.10019E+02 -2.08954E+02 -2.06625E+02 -2.02834E+02 -1.95646E+02 -2.02087E+02 -1.95342E+02 -1.89508E+02 -1.88834E+02 -1.82626E+02
  -1.78898E+02 -1.81495E+02 -1.75189E+02 -1.71757E+02 -1.75023E+02 -1.71088E+02 -1.71865E+02 -1.68456E+02 -1.63101E+02 -1.64883E+02
  -1.61190E+02 -1.59575E+02 -1.59377E+02 -1.57883E+02 -1.47027E+02 -1.50792E+02 -1.50196E+02 -1.51824E+02 -1.48971E+02 -1.46033E+02
  -1.45308E+02 -1.45746E+02 -1.40367E+02 -1.42535E+02 -1.41088E+02 -1.41678E+02 -1.38334E+02 -1.37546E+02 -1.34536E+02 -1.37258E+02
  -1.29082E+02 -1.31773E+02 -1.35012E+02 -1.31945E+02 -1.27374E+02 -1.32007E+02 -1.29724E+02 -1.32681E+02 -1.23913E+02 -1.27790E+02
  -1.25509E+02 -1.24542E+02 -1.24564E+02 -1.20496E+02 -1.19712E+02 -1.22324E+02 -1.20273E+02 -1.17861E+02 -1.18947E+02 -1.17557E+02
  -1.13916E+02 -1.15291E+02 -1.12515E+02 -1.07938E+02 -1.09429E+02 -1.10113E+02 -1.04767E+02 -1.04369E+02 -1.04289E+02 -1.05789E+02
  -1.00315E+02 -1.03437E+02 -9.78260E+01 -1.02950E+02 -9.65409E+01 -1.02540E+02 -9.63248E+01 -1.00427E+02 -9.98678E+01 -9.57760E+01
  -8.78063E+01 -9.14976E+01 -8.72968E+01 -8.86003E+01 -8.67405E+01 -8.85607E+01 -8.82403E+01 -9.09443E+01 -8.55586E+01 -8.66776E+01
  -7.99136E+01 -8.88993E+01 -8.63788E+01 -8.80944E+01 -8.00768E+01 -8.90443E+01 -8.52643E+01 -8.80192E+01 -8.33825E+01 -8.75715E+01
  -8.33741E+01 -8.65169E+01 -8.27442E+01 -7.67854E+01 -7.48364E+01 -7.16607E+01 -7.59868E+01 -7.04618E+01 -7.17143E+01 -7.25719E+01
  -7.41220E+01 -7.62867E+01 -7.46672E+01 -7.17222E+01 -7.40980E+01 -7.42974E+01 -7.22589E+01 -7.65141E+01 -7.10705E+01 -7.17314E+01
  -7.11694E+01 -7.07064E+01 -6.54035E+01 -6.75257E+01 -6.97577E+01 -7.20540E+01 -6.67057E+01 -7.02389E+01 -6.79172E+01 -6.77296E+01
  -6.70946E+01 -6.58506E+01 -6.09035E+01 -6.41494E+01 -6.90825E+01 -6.35838E+01 -6.69508E+01 -6.28463E+01 -6.46661E+01 -6.20821E+01
  -6.35219E+01 -6.54729E+01 -5.64707E+01 -5.74086E+01 -6.27182E+01 -6.31404E+01 -5.69595E+01 -5.91221E+01 -5.82675E+01 -5.68041E+01
  -5.43651E+01 -5.32685E+01 -5.36533E+01 -5.50023E+01 -5.12696E+01 -5.57952E+01 -5.31655E+01 -5.17458E+01 -5.28825E+01 -5.19004E+01
  -5.52493E+01 -5.23414E+01 -5.14169E+01 -5.43397E+01 -5.23939E+01 -5.20642E+01 -4.72783E+01 -5.19533E+01 -5.00749E+01 -5.34547E+01
  -4.58904E+01 -4.90272E+01 -5.29378E+01 -5.06097E+01 -4.89483E+01 -4.68008E+01 -4.45246E+01 -5.08712E+01 -4.32853E+01 -4.47100E+01
  -4.75227E+01 -4.77363E+01 -4.16723E+01 -4.56216E+01 -4.34164E+01 -4.78823E+01 -4.47326E+01 -4.83845E+01 -4.01669E+01 -4.64506E+01
  -4.81871E+01 -4.50008E+01 -4.11404E+01 -4.33835E+01 -4.19630E+01 -3.97262E+01 -4.08084E+01 -4.21735E+01 -3.98161E+01 -4.01555E+01
  -3.96709E+01 -4.20111E+01 -4.02581E+01 -4.47505E+01 -4.56211E+01 -3.73595E+01 -3.90689E+01 -3.55085E+01 -3.53208E+01 -4.16290E+01
  -3.46835E+01 -3.54275E+01 -4.18516E+01 -3.89181E+01 -3.72000E+01 -3.43643E+01 -3.20939E+01 -3.66628E+01 -3.39527E+01 -3.38609E+01
  -3.64176E+01 -3.01041E+01 -3.35786E+01 -3.25892E+01 -3.31292E+01 -3.25020E+01 -2.77326E+01 -3.13441E+01 -3.11327E+01 -3.12298E+01
  -3.06454E+01 -3.39874E+01 -3.56099E+01 -2.95043E+01 -2.97614E+01 -2.55040E+01 -2.63371E+01 -1.91993E+01 -1.99040E+01 -1.86027E+01
  -1.76152E+01 -2.12532E+01 -2.36795E+01 -2.26822E+01 -2.31412E+01 -2.70852E+01 -2.97361E+01 -2.69868E+01 -2.85279E+01 -2.66170E+01
  -2.84890E+01 -3.05489E+01 -2.90920E+01 -2.83672E+01 -2.81791E+01 -2.98243E+01 -2.75255E+01 -2.46224E+01 -2.88694E+01 -3.07437E+01
  -2.83809E+01 -2.91281E+01 -2.91207E+01 -2.97166E+01 -2.64908E+01 -2.83080E+01 -2.27408E+01 -2.90008E+01 -2.60018E+01 -2.63887E+01
  -2.46333E+01 -3.13003E+01 -2.65539E+01 -2.85674E+01 -2.62101E+01 -2.78047E+01 -2.89898E+01 -2.75337E+01 -2.99598E+01 -2.74975E+01
  -2.58433E+01 -3.01214E+01 -2.47479E+01 -2.48743E+01 -2.60657E+01 -2.44954E+01 -2.89334E+01 -2.97750E+01 -2.64835E+01 -2.48414E+01
  -2.58996E+01 -2.29795E+01 -3.24537E+01 -2.69691E+01 -2.96625E+01 -2.76519E+01 -2.97558E+01 -2.74125E+01 -2.50083E+01 -2.66581E+01
  -2.92713E+01 -2.77610E+01 -2.42099E+01 -2.82231E+01 -3.09819E+01 -2.90852E+01 -2.63586E+01 -2.68094E+01 -2.40728E+01 -3.14999E+01
  -2.55011E+01 -2.42370E+01 -2.65163E+01 -2.58335E+01 -2.67265E+01 -2.22661E+01 -2.85023E+01 -2.36486E+01 -2.32945E+01 -2.65697E+01
  -2.29159E+01 -2.42151E+01 -2.49622E+01 -1.85129E+01 -1.83399E+01 -1.98790E+01 -2.23541E+01 -2.04993E+01 -1.95270E+01 -1.54587E+01
  -1.30726E+01 -1.41878E+01 -1.57129E+01 -1.54755E+01 -1.17172E+01 -1.72858E+01 -1.31553E+01 -1.59703E+01 -1.03843E+01 -1.36416E+01
  -1.25845E+01 -1.79669E+01 -1.53563E+01 -1.48803E+01 -1.12071E+01 -1.65356E+01 -1.32261E+01 -1.00214E+01 -1.12801E+01 -1.62465E+01
  -9.90728E+00 -1.06878E+01 -1.04069E+01 -1.58161E+01 -1.55256E+01 -1.34191E+01 -1.31897E+01 -1.40886E+01 -1.14383E+01 -1.03608E+01
  -1.45124E+01 -8.57820E+00 -9.82176E+00 -1.01326E+01 -1.36620E+01 -1.08001E+01 -1.04035E+01 -1.21039E+01 -1.26200E+01 -8.40647E+00
  -7.34864E+00 -4.92802E+00 -6.73021E+00 -8.47459E+00 -6.73943E+00 -1.21959E+01 -1.12212E+01 -9.80510E+00 -1.55085E+01 -1.13050E+01
  -1.01201E+01 -1.19761E+01 -8.60956E+00 -1.12639E+01 -1.51856E+01 -7.73798E+00 -1.01958E+01 -1.52972E+01 -1.11826E+01 -9.07520E+00
  -1.25320E+01 -1.18298E+01 -8.52497E+00 -1.13358E+01 -6.81767E+00 -1.07107E+01 -1.15892E+01 -1.14970E+01 -1.08539E+01 -6.48402E+00
  -9.15424E+00 -5.81941E+00 -9.46848E+00 -8.47264E+00 -9.97782E+00 -8.01863E+00 -9.43307E+00 -1.01853E+01 -1.04026E+01 -1.22712E+01
  -1.20413E+01 -1.13995E+01 -9.32959E+00 -1.36544E+01 -8.71477E+00 -8.27926E+00 -9.48298E+00 -9.71332E+00 -7.78208E+00 -7.46416E+00
  -9.31508E+00 -7.53639E+00 -1.02766E+01 -1.13869E+01 -7.10156E+00 -7.68915E+00 -4.66003E+00 -5.81001E+00 -6.01523E+00 -9.79220E+00
  -1.02230E+01 -6.65503E+00 -8.22886E+00 -7.46852E+00 -8.81157E+00 -1.04662E+01 -5.86799E+00 -9.46987E+00 -7.29470E+00 -8.90274E+00
  -4.82776E+00 -7.46833E+00 -8.72191E+00 -6.34644E+00 -7.91063E+00 -6.26806E+00 -5.84932E+00 -9.09079E+00 -2.73989E+00  3.14124E-02
  -5.78655E+00 -2.16565E+00 -8.57547E+00 -7.40056E+00 -7.65920E+00 -9.07073E+00 -8.18706E+00 -5.01614E+00 -7.27104E-01 -4.93621E+00
  -4.90652E+00 -7.54975E+00 -6.41123E+00 -5.72053E+00 -7.48041E+00 -9.06948E+00 -4.15755E+00 -5.69671E+00 -5.27052E+00 -4.13179E+00
  -3.63997E+00 -1.57279E+00 -5.84857E+00 -7.02001E+00 -3.26219E-01 -3.37115E+00 -3.99704E+00 -4.18745E+00
 NY points of the fit to the data follow
  -2.61422E+02 -2.59029E+02 -2.56594E+02 -2.54169E+02 -2.51696E+02 -2.48960E+02 -2.45820E+02 -2.42398E+02 -2.38974E+02 -2.35796E+02
  -2.32926E+02 -2.30325E+02 -2.27952E+02 -2.25757E+02 -2.23672E+02 -2.21612E+02 -2.19525E+02 -2.17430E+02 -2.15334E+02 -2.13106E+02
  -2.10763E+02 -2.08446E+02 -2.06238E+02 -2.04116E+02 -2.01707E+02 -1.98621E+02 -1.94904E+02 -1.90892E+02 -1.87050E+02 -1.83652E+02
  -1.80856E+02 -1.78723E+02 -1.77196E+02 -1.76117E+02 -1.75230E+02 -1.74329E+02 -1.73378E+02 -1.72344E+02 -1.70988E+02 -1.69249E+02
  -1.67292E+02 -1.65012E+02 -1.62334E+02 -1.59402E+02 -1.56588E+02 -1.54168E+02 -1.52233E+02 -1.50762E+02 -1.49621E+02 -1.48676E+02
  -1.47798E+02 -1.46872E+02 -1.45847E+02 -1.44711E+02 -1.43415E+02 -1.41854E+02 -1.40055E+02 -1.38234E+02 -1.36569E+02 -1.35124E+02
  -1.33891E+02 -1.32804E+02 -1.31788E+02 -1.30764E+02 -1.29685E+02 -1.28546E+02 -1.27343E+02 -1.26063E+02 -1.24736E+02 -1.23423E+02
  -1.22164E+02 -1.20990E+02 -1.19902E+02 -1.18895E+02 -1.17956E+02 -1.17054E+02 -1.16171E+02 -1.15291E+02 -1.14420E+02 -1.13545E+02
  -1.12613E+02 -1.11650E+02 -1.10743E+02 -1.09960E+02 -1.09306E+02 -1.08720E+02 -1.08130E+02 -1.07481E+02 -1.06743E+02 -1.05912E+02
  -1.04992E+02 -1.04028E+02 -1.03092E+02 -1.02233E+02 -1.01440E+02 -1.00693E+02 -9.99125E+01 -9.86680E+01 -9.66136E+01 -9.39960E+01
  -9.13639E+01 -8.92565E+01 -8.78590E+01 -8.71146E+01 -8.69008E+01 -8.70656E+01 -8.74312E+01 -8.78306E+01 -8.81588E+01 -8.84292E+01
  -8.86629E+01 -8.85846E+01 -8.81123E+01 -8.75262E+01 -8.69213E+01 -8.63284E+01 -8.57513E+01 -8.51850E+01 -8.46139E+01 -8.40052E+01
  -8.32490E+01 -8.20078E+01 -8.01900E+01 -7.80708E+01 -7.60773E+01 -7.45326E+01 -7.34841E+01 -7.28263E+01 -7.24229E+01 -7.21955E+01
  -7.21538E+01 -7.23324E+01 -7.27375E+01 -7.33213E+01 -7.39000E+01 -7.41002E+01 -7.38459E+01 -7.32878E+01 -7.25284E+01 -7.16820E+01
  -7.08528E+01 -7.00769E+01 -6.93326E+01 -6.86574E+01 -6.80893E+01 -6.76120E+01 -6.72166E+01 -6.68871E+01 -6.65746E+01 -6.62734E+01
  -6.59393E+01 -6.55666E+01 -6.51560E+01 -6.47066E+01 -6.42354E+01 -6.37795E+01 -6.33586E+01 -6.29580E+01 -6.25509E+01 -6.21133E+01
  -6.16495E+01 -6.11737E+01 -6.07028E+01 -6.02514E+01 -5.98201E+01 -5.94013E+01 -5.89873E+01 -5.85653E+01 -5.81359E+01 -5.77221E+01
  -5.73483E+01 -5.70207E+01 -5.67105E+01 -5.63779E+01 -5.60211E+01 -5.56665E+01 -5.53296E+01 -5.50079E+01 -5.46792E+01 -5.43343E+01
  -5.39976E+01 -5.36932E+01 -5.34059E+01 -5.30902E+01 -5.26958E+01 -5.21636E+01 -5.14571E+01 -5.06209E+01 -4.97773E+01 -4.90588E+01
  -4.85474E+01 -4.82777E+01 -4.82659E+01 -4.84456E+01 -4.86631E+01 -4.87389E+01 -4.85464E+01 -4.80739E+01 -4.73735E+01 -4.65055E+01
  -4.55512E+01 -4.46390E+01 -4.39216E+01 -4.34771E+01 -4.34004E+01 -4.36773E+01 -4.41884E+01 -4.47085E+01 -4.49945E+01 -4.49228E+01
  -4.43598E+01 -4.32920E+01 -4.19584E+01 -4.06660E+01 -3.96713E+01 -3.91144E+01 -3.90714E+01 -3.95547E+01 -4.04661E+01 -4.14208E+01
  -4.20378E+01 -4.21842E+01 -4.18989E+01 -4.12854E+01 -4.03837E+01 -3.93654E+01 -3.85233E+01 -3.79466E+01 -3.75627E+01 -3.72472E+01
  -3.69883E+01 -3.67789E+01 -3.64626E+01 -3.59365E+01 -3.53266E+01 -3.48084E+01 -3.44815E+01 -3.44186E+01 -3.45910E+01 -3.49224E+01
  -3.52673E+01 -3.54518E+01 -3.53813E+01 -3.50914E+01 -3.47087E+01 -3.42964E+01 -3.38688E+01 -3.34705E+01 -3.31216E+01 -3.27564E+01
  -3.22416E+01 -3.16131E+01 -3.09597E+01 -3.03157E+01 -2.92545E+01 -2.73864E+01 -2.49451E+01 -2.25297E+01 -2.07543E+01 -1.98252E+01
  -1.96868E+01 -2.02145E+01 -2.12396E+01 -2.25308E+01 -2.38216E+01 -2.50014E+01 -2.61428E+01 -2.72851E+01 -2.80605E+01 -2.83200E+01
  -2.83782E+01 -2.83501E+01 -2.82689E+01 -2.81620E+01 -2.80726E+01 -2.80071E+01 -2.79691E+01 -2.79588E+01 -2.79693E+01 -2.79893E+01
  -2.80162E+01 -2.80449E+01 -2.80647E+01 -2.80734E+01 -2.80748E+01 -2.80737E+01 -2.80725E+01 -2.80705E+01 -2.80675E+01 -2.80674E+01
  -2.80700E+01 -2.80737E+01 -2.80781E+01 -2.80839E+01 -2.80902E+01 -2.80958E+01 -2.81003E+01 -2.81026E+01 -2.81013E+01 -2.80966E+01
  -2.80877E+01 -2.80741E+01 -2.80564E+01 -2.80347E+01 -2.80090E+01 -2.79790E+01 -2.79442E+01 -2.79049E+01 -2.78605E+01 -2.78105E+01
  -2.77543E+01 -2.76915E+01 -2.76213E+01 -2.75435E+01 -2.74576E+01 -2.73631E+01 -2.72596E+01 -2.71466E+01 -2.70242E+01 -2.68925E+01
  -2.67517E+01 -2.66019E+01 -2.64432E+01 -2.62758E+01 -2.60998E+01 -2.59153E+01 -2.57224E+01 -2.55210E+01 -2.53112E+01 -2.50929E+01
  -2.48660E+01 -2.46305E+01 -2.43862E+01 -2.41329E+01 -2.38702E+01 -2.35978E+01 -2.33152E+01 -2.30215E+01 -2.27156E+01 -2.23960E+01
  -2.20603E+01 -2.17053E+01 -2.13270E+01 -2.09201E+01 -2.04789E+01 -1.99974E+01 -1.94708E+01 -1.88966E+01 -1.82761E+01 -1.76165E+01
  -1.69312E+01 -1.62403E+01 -1.55692E+01 -1.49458E+01 -1.43978E+01 -1.39478E+01 -1.36107E+01 -1.33909E+01 -1.32822E+01 -1.32689E+01
  -1.33285E+01 -1.34357E+01 -1.35653E+01 -1.36958E+01 -1.38109E+01 -1.38999E+01 -1.39578E+01 -1.39840E+01 -1.39808E+01 -1.39520E+01
  -1.39022E+01 -1.38356E+01 -1.37559E+01 -1.36661E+01 -1.35684E+01 -1.34645E+01 -1.33556E+01 -1.32428E+01 -1.31266E+01 -1.30078E+01
  -1.28869E+01 -1.27642E+01 -1.26403E+01 -1.25156E+01 -1.23904E+01 -1.22651E+01 -1.21400E+01 -1.20155E+01 -1.18917E+01 -1.17690E+01
  -1.16477E+01 -1.15278E+01 -1.14096E+01 -1.12934E+01 -1.11792E+01 -1.10674E+01 -1.09580E+01 -1.08513E+01 -1.07474E+01 -1.06465E+01
  -1.05487E+01 -1.04541E+01 -1.03630E+01 -1.02753E+01 -1.01913E+01 -1.01109E+01 -1.00342E+01 -9.96126E+00 -9.89203E+00 -9.82633E+00
  -9.76400E+00 -9.70486E+00 -9.64872E+00 -9.59537E+00 -9.54461E+00 -9.49625E+00 -9.45010E+00 -9.40597E+00 -9.36368E+00 -9.32306E+00
  -9.28395E+00 -9.24620E+00 -9.20967E+00 -9.17420E+00 -9.13969E+00 -9.10598E+00 -9.07297E+00 -9.04052E+00 -9.00852E+00 -8.97682E+00
  -8.94532E+00 -8.91389E+00 -8.88241E+00 -8.85074E+00 -8.81877E+00 -8.78635E+00 -8.75336E+00 -8.71966E+00 -8.68513E+00 -8.64963E+00
  -8.61303E+00 -8.57517E+00 -8.53595E+00 -8.49521E+00 -8.45282E+00 -8.40864E+00 -8.36254E+00 -8.31436E+00 -8.26399E+00 -8.21128E+00
  -8.15610E+00 -8.09828E+00 -8.03771E+00 -7.97431E+00 -7.90814E+00 -7.83932E+00 -7.76793E+00 -7.69408E+00 -7.61786E+00 -7.53937E+00
  -7.45872E+00 -7.37599E+00 -7.29129E+00 -7.20469E+00 -7.11633E+00 -7.02627E+00 -6.93464E+00 -6.84151E+00 -6.74699E+00 -6.65117E+00
  -6.55416E+00 -6.45605E+00 -6.35693E+00 -6.25690E+00 -6.15607E+00 -6.05451E+00 -5.95234E+00 -5.84965E+00 -5.74655E+00 -5.64311E+00
  -5.53944E+00 -5.43564E+00 -5.33182E+00 -5.22806E+00 -5.12446E+00 -5.02111E+00 -4.91812E+00 -4.81558E+00 -4.71360E+00 -4.61227E+00
  -4.51168E+00 -4.41194E+00 -4.31315E+00 -4.21539E+00 -4.11879E+00 -4.02342E+00 -3.92940E+00 -3.83681E+00
 NY background values follow
    -2.626E+02   -2.600E+02   -2.574E+02   -2.549E+02   -2.523E+02   -2.497E+02   -2.472E+02   -2.446E+02   -2.421E+02   -2.395E+02
    -2.370E+02   -2.345E+02   -2.320E+02   -2.295E+02   -2.270E+02   -2.245E+02   -2.220E+02   -2.196E+02   -2.172E+02   -2.147E+02
    -2.123E+02   -2.099E+02   -2.076E+02   -2.052E+02   -2.029E+02   -2.005E+02   -1.982E+02   -1.959E+02   -1.937E+02   -1.914E+02
    -1.892E+02   -1.870E+02   -1.849E+02   -1.827E+02   -1.806E+02   -1.785E+02   -1.764E+02   -1.744E+02   -1.724E+02   -1.704E+02
    -1.685E+02   -1.665E+02   -1.646E+02   -1.628E+02   -1.609E+02   -1.592E+02   -1.574E+02   -1.557E+02   -1.540E+02   -1.523E+02
    -1.507E+02   -1.491E+02   -1.475E+02   -1.460E+02   -1.445E+02   -1.430E+02   -1.415E+02   -1.401E+02   -1.387E+02   -1.373E+02
    -1.360E+02   -1.347E+02   -1.334E+02   -1.321E+02   -1.309E+02   -1.297E+02   -1.285E+02   -1.273E+02   -1.261E+02   -1.250E+02
    -1.239E+02   -1.228E+02   -1.217E+02   -1.206E+02   -1.196E+02   -1.186E+02   -1.176E+02   -1.166E+02   -1.156E+02   -1.147E+02
    -1.137E+02   -1.128E+02   -1.119E+02   -1.110E+02   -1.101E+02   -1.092E+02   -1.083E+02   -1.075E+02   -1.066E+02   -1.058E+02
    -1.049E+02   -1.041E+02   -1.033E+02   -1.025E+02   -1.017E+02   -1.009E+02   -1.001E+02   -9.936E+01   -9.860E+01   -9.784E+01
    -9.708E+01   -9.634E+01   -9.560E+01   -9.487E+01   -9.414E+01   -9.342E+01   -9.271E+01   -9.201E+01   -9.131E+01   -9.061E+01
    -8.993E+01   -8.925E+01   -8.857E+01   -8.791E+01   -8.724E+01   -8.659E+01   -8.593E+01   -8.529E+01   -8.465E+01   -8.401E+01
    -8.338E+01   -8.276E+01   -8.214E+01   -8.152E+01   -8.091E+01   -8.031E+01   -7.971E+01   -7.911E+01   -7.852E+01   -7.793E+01
    -7.735E+01   -7.677E+01   -7.620E+01   -7.563E+01   -7.506E+01   -7.450E+01   -7.394E+01   -7.338E+01   -7.283E+01   -7.228E+01
    -7.173E+01   -7.119E+01   -7.065E+01   -7.012E+01   -6.959E+01   -6.906E+01   -6.854E+01   -6.802E+01   -6.751E+01   -6.699E+01
    -6.649E+01   -6.598E+01   -6.548E+01   -6.499E+01   -6.450E+01   -6.401E+01   -6.352E+01   -6.304E+01   -6.257E+01   -6.210E+01
    -6.163E+01   -6.116E+01   -6.070E+01   -6.025E+01   -5.980E+01   -5.935E+01   -5.891E+01   -5.847E+01   -5.803E+01   -5.760E+01
    -5.718E+01   -5.675E+01   -5.634E+01   -5.592E+01   -5.551E+01   -5.511E+01   -5.471E+01   -5.431E+01   -5.392E+01   -5.353E+01
    -5.315E+01   -5.277E+01   -5.240E+01   -5.203E+01   -5.166E+01   -5.130E+01   -5.094E+01   -5.059E+01   -5.024E+01   -4.989E+01
    -4.955E+01   -4.921E+01   -4.888E+01   -4.855E+01   -4.822E+01   -4.789E+01   -4.757E+01   -4.725E+01   -4.694E+01   -4.662E+01
    -4.631E+01   -4.600E+01   -4.570E+01   -4.539E+01   -4.509E+01   -4.480E+01   -4.450E+01   -4.420E+01   -4.391E+01   -4.362E+01
    -4.333E+01   -4.304E+01   -4.276E+01   -4.247E+01   -4.219E+01   -4.191E+01   -4.163E+01   -4.135E+01   -4.107E+01   -4.079E+01
    -4.052E+01   -4.024E+01   -3.997E+01   -3.969E+01   -3.942E+01   -3.914E+01   -3.887E+01   -3.859E+01   -3.832E+01   -3.805E+01
    -3.777E+01   -3.750E+01   -3.723E+01   -3.696E+01   -3.669E+01   -3.643E+01   -3.616E+01   -3.590E+01   -3.564E+01   -3.538E+01
    -3.512E+01   -3.487E+01   -3.462E+01   -3.437E+01   -3.412E+01   -3.388E+01   -3.364E+01   -3.341E+01   -3.318E+01   -3.295E+01
    -3.272E+01   -3.251E+01   -3.229E+01   -3.208E+01   -3.188E+01   -3.168E+01   -3.148E+01   -3.129E+01   -3.111E+01   -3.093E+01
    -3.076E+01   -3.059E+01   -3.043E+01   -3.028E+01   -3.013E+01   -2.999E+01   -2.986E+01   -2.974E+01   -2.962E+01   -2.951E+01
    -2.940E+01   -2.931E+01   -2.922E+01   -2.914E+01   -2.906E+01   -2.900E+01   -2.894E+01   -2.888E+01   -2.884E+01   -2.879E+01
    -2.876E+01   -2.872E+01   -2.870E+01   -2.867E+01   -2.865E+01   -2.863E+01   -2.862E+01   -2.861E+01   -2.859E+01   -2.859E+01
    -2.858E+01   -2.857E+01   -2.856E+01   -2.856E+01   -2.855E+01   -2.855E+01   -2.854E+01   -2.853E+01   -2.852E+01   -2.850E+01
    -2.849E+01   -2.847E+01   -2.845E+01   -2.842E+01   -2.840E+01   -2.836E+01   -2.832E+01   -2.828E+01   -2.823E+01   -2.818E+01
    -2.812E+01   -2.805E+01   -2.798E+01   -2.790E+01   -2.781E+01   -2.771E+01   -2.761E+01   -2.749E+01   -2.737E+01   -2.724E+01
    -2.710E+01   -2.695E+01   -2.680E+01   -2.663E+01   -2.646E+01   -2.629E+01   -2.611E+01   -2.592E+01   -2.572E+01   -2.552E+01
    -2.532E+01   -2.510E+01   -2.489E+01   -2.467E+01   -2.444E+01   -2.421E+01   -2.398E+01   -2.374E+01   -2.350E+01   -2.326E+01
    -2.302E+01   -2.277E+01   -2.252E+01   -2.227E+01   -2.201E+01   -2.176E+01   -2.150E+01   -2.124E+01   -2.099E+01   -2.073E+01
    -2.047E+01   -2.021E+01   -1.996E+01   -1.970E+01   -1.945E+01   -1.919E+01   -1.894E+01   -1.869E+01   -1.844E+01   -1.820E+01
    -1.795E+01   -1.771E+01   -1.748E+01   -1.724E+01   -1.701E+01   -1.679E+01   -1.656E+01   -1.634E+01   -1.613E+01   -1.591E+01
    -1.570E+01   -1.550E+01   -1.529E+01   -1.509E+01   -1.490E+01   -1.471E+01   -1.452E+01   -1.433E+01   -1.415E+01   -1.397E+01
    -1.379E+01   -1.362E+01   -1.345E+01   -1.329E+01   -1.313E+01   -1.297E+01   -1.281E+01   -1.266E+01   -1.251E+01   -1.237E+01
    -1.223E+01   -1.209E+01   -1.196E+01   -1.183E+01   -1.170E+01   -1.158E+01   -1.146E+01   -1.134E+01   -1.123E+01   -1.112E+01
    -1.102E+01   -1.091E+01   -1.081E+01   -1.072E+01   -1.063E+01   -1.054E+01   -1.046E+01   -1.038E+01   -1.030E+01   -1.022E+01
    -1.015E+01   -1.009E+01   -1.002E+01   -9.961E+00   -9.902E+00   -9.845E+00   -9.791E+00   -9.740E+00   -9.690E+00   -9.642E+00
    -9.596E+00   -9.552E+00   -9.509E+00   -9.468E+00   -9.428E+00   -9.389E+00   -9.351E+00   -9.314E+00   -9.277E+00   -9.242E+00
    -9.206E+00   -9.171E+00   -9.136E+00   -9.100E+00   -9.065E+00   -9.029E+00   -8.993E+00   -8.957E+00   -8.919E+00   -8.881E+00
    -8.842E+00   -8.801E+00   -8.759E+00   -8.716E+00   -8.671E+00   -8.625E+00   -8.576E+00   -8.526E+00   -8.473E+00   -8.419E+00
    -8.361E+00   -8.301E+00   -8.239E+00   -8.173E+00   -8.105E+00   -8.035E+00   -7.961E+00   -7.886E+00   -7.808E+00   -7.727E+00
    -7.645E+00   -7.561E+00   -7.474E+00   -7.386E+00   -7.296E+00   -7.204E+00   -7.111E+00   -7.016E+00   -6.920E+00   -6.823E+00
    -6.724E+00   -6.624E+00   -6.524E+00   -6.422E+00   -6.320E+00   -6.217E+00   -6.113E+00   -6.009E+00   -5.905E+00   -5.800E+00
    -5.695E+00   -5.589E+00   -5.484E+00   -5.379E+00   -5.274E+00   -5.169E+00   -5.065E+00   -4.961E+00   -4.857E+00   -4.754E+00
    -4.652E+00   -4.551E+00   -4.451E+00   -4.351E+00   -4.253E+00   -4.156E+00   -4.060E+00   -3.966E+00
 Asp      Conc. = 5.86E+01
