 LCModel (Version 6.3-1L) Copyright: S.W. Provencher.          Ref.: Magn. Reson. Med. 30:672-679 (1993).                
 Slice#1 Row#10 Col#2  PD_05_press_2_raw_act
 36 lines in following concentration table = NCONC+1
    Conc.  %SD /Cr+PCr  Metabolite                                         
 2.37E+04  23%   0.000 Ala                                                 
   38.423 202%   0.000 Asp                                                 
    0.000 999%   0.000 Cr                                                  
    0.000 999%   0.000 PCr                                                 
   30.629 153%   0.000 GABA                                                
   36.763 127%   0.000 Glc                                                 
 3.28E+04   9%   0.000 Gln                                                 
    0.000 999%   0.000 Glu                                                 
  345.290  33%   0.000 GPC                                                 
    0.000 999%   0.000 PCh                                                 
    0.000 999%   0.000 GSH                                                 
 6.09E+03  21%   0.000 Ins                                                 
 1.20E+03 367%   0.000 Lac                                                 
    0.000 999%   0.000 NAA                                                 
    0.000 999%   0.000 NAAG                                                
   19.824  78%   0.000 Scyllo                                              
   77.892  99%   0.000 Tau                                                 
    0.000 999%   0.000 -CrCH2                                              
  345.290  33%   0.000 GPC+PCh                                             
    0.000 999%   0.000 NAA+NAAG                                            
    0.000 999%   0.000 Cr+PCr                                              
 3.28E+04   9%   0.000 Glu+Gln                                             
    0.000 999%   0.000 Lip13a                                              
    0.000 999%   0.000 Lip13b                                              
    0.000 999%   0.000 Lip09                                               
 2.49E+04   8%   0.000 MM09                                                
  359.486 181%   0.000 Lip20                                               
 2.83E+04   7%   0.000 MM20                                                
 1.06E+04  16%   0.000 MM12                                                
 6.22E+04   9%   0.000 MM14                                                
 2.18E+04  22%   0.000 MM17                                                
    0.000 999%   0.000 Lip13a+Lip13b                                       
 7.28E+04   9%   0.000 MM14+Lip13a+Lip13b+MM12                             
 2.49E+04   8%   0.000 MM09+Lip09                                          
 2.87E+04   7%   0.000 MM20+Lip20                                          
   6 lines in following misc. output table
  FWHM = 0.153 ppm    S/N =  24                                            
  Data shift = 0.076 ppm                                                   
  Ph:-135 deg      55.8 deg/ppm                                            
  alphaB,S = 2.0E+00,   3.3E+02                                            
    7 spline knots.   Ns = 9(2)                                            
  (13) 2 infls.   ( 7) 1 extrs.                                            
  498 points on ppm-axis = NY
      4.000000     3.992357     3.984714     3.977070     3.969427     3.961784     3.954141     3.946497     3.938854     3.931211
      3.923568     3.915925     3.908281     3.900638     3.892995     3.885352     3.877708     3.870065     3.862422     3.854779
      3.847136     3.839492     3.831849     3.824206     3.816563     3.808919     3.801276     3.793633     3.785990     3.778347
      3.770703     3.763060     3.755417     3.747774     3.740130     3.732487     3.724844     3.717201     3.709558     3.701914
      3.694271     3.686628     3.678985     3.671341     3.663698     3.656055     3.648412     3.640769     3.633125     3.625482
      3.617839     3.610196     3.602552     3.594909     3.587266     3.579623     3.571980     3.564336     3.556693     3.549050
      3.541407     3.533763     3.526120     3.518477     3.510834     3.503191     3.495547     3.487904     3.480261     3.472618
      3.464974     3.457331     3.449688     3.442045     3.434402     3.426758     3.419115     3.411472     3.403829     3.396185
      3.388542     3.380899     3.373256     3.365613     3.357969     3.350326     3.342683     3.335040     3.327396     3.319753
      3.312110     3.304467     3.296824     3.289180     3.281537     3.273894     3.266251     3.258607     3.250964     3.243321
      3.235678     3.228034     3.220391     3.212748     3.205105     3.197462     3.189818     3.182175     3.174532     3.166889
      3.159245     3.151602     3.143959     3.136316     3.128673     3.121029     3.113386     3.105743     3.098100     3.090456
      3.082813     3.075170     3.067527     3.059884     3.052240     3.044597     3.036954     3.029311     3.021667     3.014024
      3.006381     2.998738     2.991095     2.983451     2.975808     2.968165     2.960522     2.952878     2.945235     2.937592
      2.929949     2.922306     2.914662     2.907019     2.899376     2.891733     2.884089     2.876446     2.868803     2.861160
      2.853517     2.845873     2.838230     2.830587     2.822944     2.815300     2.807657     2.800014     2.792371     2.784728
      2.777084     2.769441     2.761798     2.754155     2.746511     2.738868     2.731225     2.723582     2.715939     2.708295
      2.700652     2.693009     2.685366     2.677722     2.670079     2.662436     2.654793     2.647150     2.639506     2.631863
      2.624220     2.616577     2.608933     2.601290     2.593647     2.586004     2.578361     2.570717     2.563074     2.555431
      2.547788     2.540144     2.532501     2.524858     2.517215     2.509572     2.501928     2.494285     2.486642     2.478999
      2.471355     2.463712     2.456069     2.448426     2.440783     2.433139     2.425496     2.417853     2.410210     2.402566
      2.394923     2.387280     2.379637     2.371994     2.364350     2.356707     2.349064     2.341421     2.333777     2.326134
      2.318491     2.310848     2.303205     2.295561     2.287918     2.280275     2.272632     2.264988     2.257345     2.249702
      2.242059     2.234416     2.226772     2.219129     2.211486     2.203843     2.196199     2.188556     2.180913     2.173270
      2.165627     2.157983     2.150340     2.142697     2.135054     2.127410     2.119767     2.112124     2.104481     2.096838
      2.089194     2.081551     2.073908     2.066265     2.058621     2.050978     2.043335     2.035692     2.028049     2.020405
      2.012762     2.005119     1.997476     1.989833     1.982190     1.974546     1.966903     1.959260     1.951617     1.943974
      1.936331     1.928688     1.921045     1.913402     1.905759     1.898115     1.890472     1.882829     1.875186     1.867543
      1.859900     1.852257     1.844614     1.836971     1.829327     1.821684     1.814041     1.806398     1.798755     1.791112
      1.783469     1.775826     1.768183     1.760540     1.752896     1.745253     1.737610     1.729967     1.722324     1.714681
      1.707038     1.699395     1.691752     1.684108     1.676465     1.668822     1.661179     1.653536     1.645893     1.638250
      1.630607     1.622964     1.615321     1.607677     1.600034     1.592391     1.584748     1.577105     1.569462     1.561819
      1.554176     1.546533     1.538890     1.531246     1.523603     1.515960     1.508317     1.500674     1.493031     1.485388
      1.477745     1.470102     1.462458     1.454815     1.447172     1.439529     1.431886     1.424243     1.416600     1.408957
      1.401314     1.393671     1.386027     1.378384     1.370741     1.363098     1.355455     1.347812     1.340169     1.332526
      1.324883     1.317240     1.309596     1.301953     1.294310     1.286667     1.279024     1.271381     1.263738     1.256095
      1.248452     1.240808     1.233165     1.225522     1.217879     1.210236     1.202593     1.194950     1.187307     1.179664
      1.172021     1.164377     1.156734     1.149091     1.141448     1.133805     1.126162     1.118519     1.110876     1.103233
      1.095590     1.087946     1.080303     1.072660     1.065017     1.057374     1.049731     1.042088     1.034445     1.026802
      1.019158     1.011515     1.003872     0.996229     0.988586     0.980943     0.973300     0.965657     0.958014     0.950371
      0.942727     0.935084     0.927441     0.919798     0.912155     0.904512     0.896869     0.889226     0.881583     0.873940
      0.866296     0.858653     0.851010     0.843367     0.835724     0.828081     0.820438     0.812795     0.805152     0.797508
      0.789865     0.782222     0.774579     0.766936     0.759293     0.751650     0.744007     0.736364     0.728721     0.721077
      0.713434     0.705791     0.698148     0.690505     0.682862     0.675219     0.667576     0.659933     0.652290     0.644646
      0.637003     0.629360     0.621717     0.614074     0.606431     0.598788     0.591145     0.583502     0.575858     0.568215
      0.560572     0.552929     0.545286     0.537643     0.530000     0.522357     0.514714     0.507071     0.499427     0.491784
      0.484141     0.476498     0.468855     0.461212     0.453569     0.445925     0.438282     0.430639     0.422996     0.415353
      0.407710     0.400067     0.392424     0.384780     0.377137     0.369494     0.361851     0.354208     0.346565     0.338922
      0.331278     0.323635     0.315992     0.308349     0.300706     0.293063     0.285420     0.277777     0.270133     0.262490
      0.254847     0.247204     0.239561     0.231918     0.224275     0.216631     0.208988     0.201345
 NY phased data points follow
  -8.51505E+00 -9.37227E+00 -1.04087E+01 -1.31869E+01 -1.23218E+01 -1.49736E+01 -1.04775E+01 -1.05052E+01 -1.10266E+01 -6.75798E+00
  -6.52972E+00 -1.00758E+01 -1.02339E+01 -1.02010E+01 -6.89091E+00 -1.02147E+01 -1.27057E+01 -1.31089E+01 -1.06076E+01 -1.24145E+01
  -1.39284E+01 -1.39879E+01 -1.66948E+01 -1.55659E+01 -1.49124E+01 -1.88874E+01 -1.37391E+01 -1.90746E+01 -1.67485E+01 -2.05260E+01
  -1.66137E+01 -1.81242E+01 -1.94431E+01 -1.96035E+01 -1.49621E+01 -1.66262E+01 -1.93361E+01 -2.01124E+01 -1.81089E+01 -1.93928E+01
  -2.10922E+01 -2.03515E+01 -1.72144E+01 -2.29521E+01 -2.10580E+01 -2.09506E+01 -2.20903E+01 -2.77426E+01 -2.25569E+01 -2.21657E+01
  -2.23921E+01 -2.26841E+01 -2.43817E+01 -2.45533E+01 -2.46392E+01 -2.66761E+01 -2.72496E+01 -2.51631E+01 -2.42276E+01 -2.74223E+01
  -2.41926E+01 -2.50216E+01 -2.70646E+01 -2.60403E+01 -2.58521E+01 -2.72760E+01 -3.22751E+01 -2.69535E+01 -3.31146E+01 -2.99433E+01
  -3.33324E+01 -3.03744E+01 -3.18979E+01 -3.19999E+01 -3.07222E+01 -3.53721E+01 -3.58596E+01 -3.42515E+01 -3.72050E+01 -3.77448E+01
  -3.55508E+01 -3.39768E+01 -3.57524E+01 -3.65144E+01 -3.85150E+01 -3.98826E+01 -4.12670E+01 -4.17615E+01 -3.54354E+01 -3.87998E+01
  -3.78985E+01 -4.01839E+01 -4.17472E+01 -4.54338E+01 -4.65781E+01 -4.62334E+01 -4.42624E+01 -4.68099E+01 -4.82618E+01 -4.49810E+01
  -4.68681E+01 -4.55039E+01 -4.72916E+01 -4.63642E+01 -4.98064E+01 -4.94381E+01 -5.68765E+01 -5.28122E+01 -5.60381E+01 -5.30435E+01
  -5.30858E+01 -5.09820E+01 -5.38731E+01 -5.16007E+01 -5.65972E+01 -5.39782E+01 -6.39075E+01 -6.60126E+01 -6.71540E+01 -6.93234E+01
  -6.28040E+01 -6.80694E+01 -6.64679E+01 -6.51100E+01 -5.77374E+01 -6.03966E+01 -6.28579E+01 -5.78417E+01 -6.26782E+01 -6.36500E+01
  -5.71731E+01 -6.21434E+01 -5.60068E+01 -5.74966E+01 -5.78767E+01 -5.68020E+01 -5.06066E+01 -5.80802E+01 -5.19002E+01 -5.37245E+01
  -4.91085E+01 -5.09011E+01 -5.39758E+01 -4.78066E+01 -5.07552E+01 -5.25021E+01 -5.42746E+01 -4.71373E+01 -4.91288E+01 -5.26855E+01
  -5.27819E+01 -5.34729E+01 -4.99752E+01 -5.29178E+01 -5.26403E+01 -5.62602E+01 -5.61407E+01 -5.86097E+01 -5.63806E+01 -6.13488E+01
  -5.70803E+01 -5.94204E+01 -5.84761E+01 -5.72213E+01 -6.09145E+01 -6.43504E+01 -6.18990E+01 -6.81501E+01 -6.23197E+01 -6.67558E+01
  -6.64036E+01 -6.87245E+01 -6.95542E+01 -7.14557E+01 -7.17443E+01 -7.55055E+01 -7.49273E+01 -7.40944E+01 -8.20000E+01 -7.68495E+01
  -7.53762E+01 -7.66870E+01 -7.53257E+01 -7.98544E+01 -7.95878E+01 -7.66619E+01 -8.27986E+01 -7.96725E+01 -8.01601E+01 -7.56491E+01
  -7.99313E+01 -7.68968E+01 -8.21641E+01 -7.68819E+01 -7.81373E+01 -7.36124E+01 -7.72011E+01 -7.06543E+01 -7.12909E+01 -6.78928E+01
  -6.46875E+01 -6.72135E+01 -5.98899E+01 -6.09649E+01 -5.97767E+01 -5.86212E+01 -5.83043E+01 -5.14702E+01 -4.72915E+01 -4.56400E+01
  -4.07596E+01 -3.98383E+01 -3.93712E+01 -3.12516E+01 -3.13115E+01 -2.45592E+01 -2.26061E+01 -1.59056E+01 -1.17312E+01 -9.22298E+00
  -7.00882E+00 -3.15476E+00 -8.54212E-02  1.68868E+00  1.08142E+01  1.74541E+01  1.74549E+01  2.48595E+01  3.03674E+01  3.05504E+01
   3.62224E+01  3.77630E+01  4.75200E+01  4.75646E+01  5.08839E+01  5.25196E+01  4.91377E+01  4.80162E+01  5.80771E+01  5.63517E+01
   5.46993E+01  5.30580E+01  5.50794E+01  5.35125E+01  5.80776E+01  5.15561E+01  5.09494E+01  4.66758E+01  4.09561E+01  4.11521E+01
   3.77275E+01  3.85840E+01  3.61450E+01  4.21362E+01  4.85204E+01  4.11589E+01  4.25012E+01  3.99397E+01  3.68237E+01  3.24874E+01
   2.94740E+01  3.30110E+01  3.16396E+01  2.71574E+01  2.53360E+01  1.90166E+01  2.16456E+01  2.13622E+01  2.13232E+01  1.28432E+01
   1.65135E+01  1.56601E+01  1.71127E+01  1.26536E+01  1.58229E+01  1.11676E+01  1.36080E+01  1.24329E+01  1.25872E+01  7.85825E+00
   8.92585E+00  8.50601E+00  6.42274E+00  7.63707E+00  6.59035E+00  1.03086E+01  5.37496E+00  8.89642E+00  9.69313E+00  1.31625E+01
   9.62747E+00  1.10085E+01  1.58570E+01  1.38219E+01  2.09772E+01  2.17596E+01  2.27988E+01  3.25172E+01  3.28271E+01  3.75532E+01
   4.48953E+01  5.93587E+01  7.01418E+01  7.82618E+01  9.00243E+01  1.03335E+02  1.23406E+02  1.37669E+02  1.59008E+02  1.82313E+02
   2.01149E+02  2.31473E+02  2.59189E+02  2.85999E+02  3.12885E+02  3.44507E+02  3.73677E+02  3.98013E+02  4.34584E+02  4.60668E+02
   4.84144E+02  5.12505E+02  5.27824E+02  5.38176E+02  5.56416E+02  5.60602E+02  5.56445E+02  5.47283E+02  5.40245E+02  5.28918E+02
   5.05461E+02  4.87701E+02  4.68638E+02  4.44447E+02  4.19737E+02  3.87209E+02  3.62797E+02  3.35798E+02  3.17970E+02  2.87930E+02
   2.58582E+02  2.40468E+02  2.27027E+02  2.00136E+02  1.81687E+02  1.64359E+02  1.49635E+02  1.42621E+02  1.32408E+02  1.18956E+02
   1.13713E+02  1.00657E+02  9.57976E+01  9.06222E+01  8.55019E+01  7.81886E+01  8.02789E+01  7.99595E+01  7.77993E+01  6.77785E+01
   6.78648E+01  6.54714E+01  6.67451E+01  6.89675E+01  6.84029E+01  6.68923E+01  7.07076E+01  6.52047E+01  6.58311E+01  6.88761E+01
   7.08234E+01  6.86911E+01  7.12500E+01  7.25948E+01  7.58186E+01  7.74347E+01  7.47654E+01  8.14400E+01  8.25765E+01  8.08562E+01
   8.56004E+01  8.47723E+01  9.11987E+01  9.06720E+01  8.78276E+01  9.05580E+01  8.91773E+01  8.98162E+01  9.52242E+01  9.30524E+01
   9.50355E+01  9.95803E+01  9.23936E+01  9.69242E+01  9.59873E+01  9.06662E+01  9.00147E+01  8.83321E+01  8.90363E+01  8.53567E+01
   8.23070E+01  8.37036E+01  8.32462E+01  8.18949E+01  8.04669E+01  7.78083E+01  7.41229E+01  7.56416E+01  7.20641E+01  6.55536E+01
   6.54245E+01  6.41919E+01  6.36867E+01  6.21296E+01  5.53826E+01  5.40908E+01  5.04176E+01  5.05031E+01  4.92615E+01  4.49333E+01
   3.89603E+01  3.88290E+01  3.51668E+01  2.90087E+01  3.09021E+01  2.92753E+01  2.59775E+01  2.35063E+01  1.93290E+01  1.65002E+01
   1.84187E+01  6.74759E+00  5.47230E+00  3.81625E+00  2.63097E+00 -1.09440E+00 -1.49807E+00 -7.63517E+00 -8.43465E+00 -9.02359E+00
  -1.70470E+01 -1.83642E+01 -2.38612E+01 -2.63128E+01 -2.56995E+01 -2.82426E+01 -3.08504E+01 -2.95762E+01 -3.28105E+01 -3.77266E+01
  -3.85437E+01 -4.15283E+01 -4.12522E+01 -4.06726E+01 -4.73703E+01 -4.81798E+01 -5.11953E+01 -5.18232E+01 -5.13813E+01 -5.35433E+01
  -5.56282E+01 -5.92412E+01 -5.84794E+01 -5.93965E+01 -5.99538E+01 -6.07980E+01 -6.44460E+01 -6.48787E+01 -6.42660E+01 -6.36865E+01
  -6.72018E+01 -6.70081E+01 -6.33579E+01 -6.53817E+01 -6.41491E+01 -6.45525E+01 -6.58566E+01 -6.65164E+01 -6.57724E+01 -7.12258E+01
  -6.79476E+01 -6.50905E+01 -7.11898E+01 -6.51657E+01 -6.88558E+01 -7.00616E+01 -6.74481E+01 -6.92629E+01 -6.94779E+01 -7.09161E+01
  -6.91196E+01 -6.67236E+01 -7.08104E+01 -7.18077E+01 -7.07813E+01 -6.81507E+01 -6.88800E+01 -6.76153E+01
 NY points of the fit to the data follow
  -6.08768E+00 -6.64548E+00 -8.02942E+00 -8.52003E+00 -9.82322E+00 -9.85500E+00 -1.06991E+01 -1.04228E+01 -1.21844E+01 -1.18566E+01
  -1.45990E+01 -1.38629E+01 -1.70588E+01 -1.44836E+01 -1.80781E+01 -1.35994E+01 -1.76163E+01 -1.22598E+01 -1.72665E+01 -1.15813E+01
  -1.72598E+01 -1.11526E+01 -1.75266E+01 -1.13362E+01 -1.78195E+01 -1.18612E+01 -1.78094E+01 -1.26353E+01 -1.75106E+01 -1.34571E+01
  -1.64327E+01 -1.38878E+01 -1.48728E+01 -1.41920E+01 -1.30794E+01 -1.44286E+01 -1.15154E+01 -1.48820E+01 -1.07487E+01 -1.59070E+01
  -1.11404E+01 -1.68979E+01 -1.12042E+01 -1.68802E+01 -1.03450E+01 -1.56459E+01 -9.11977E+00 -1.48284E+01 -1.12121E+01 -1.75242E+01
  -1.56260E+01 -2.11988E+01 -2.00503E+01 -2.31617E+01 -2.24041E+01 -2.45977E+01 -2.41197E+01 -2.64367E+01 -2.65418E+01 -2.90290E+01
  -2.86289E+01 -3.07713E+01 -3.07760E+01 -3.31137E+01 -3.30577E+01 -3.53325E+01 -3.51886E+01 -3.72354E+01 -3.68291E+01 -3.84343E+01
  -3.76313E+01 -3.91475E+01 -3.86533E+01 -4.03979E+01 -4.02126E+01 -4.20895E+01 -4.21689E+01 -4.40933E+01 -4.43910E+01 -4.62371E+01
  -4.67593E+01 -4.84401E+01 -4.89520E+01 -5.04217E+01 -5.07355E+01 -5.18981E+01 -5.23239E+01 -5.31412E+01 -5.36900E+01 -5.40192E+01
  -5.45912E+01 -5.43281E+01 -5.48754E+01 -5.39821E+01 -5.44720E+01 -5.29257E+01 -5.35778E+01 -5.14938E+01 -5.24371E+01 -4.99503E+01
  -5.12485E+01 -4.85140E+01 -5.01562E+01 -4.73241E+01 -4.92298E+01 -4.64442E+01 -4.85226E+01 -4.59498E+01 -4.81017E+01 -4.59728E+01
  -4.81643E+01 -4.65040E+01 -4.84528E+01 -4.71284E+01 -4.86764E+01 -4.76323E+01 -4.87255E+01 -4.79364E+01 -4.86560E+01 -4.81255E+01
  -4.86151E+01 -4.83725E+01 -4.85512E+01 -4.84102E+01 -4.80965E+01 -4.78630E+01 -4.77186E+01 -4.76501E+01 -4.76746E+01 -4.77908E+01
  -4.79971E+01 -4.82982E+01 -4.86762E+01 -4.91424E+01 -4.96669E+01 -5.02698E+01 -5.09142E+01 -5.16214E+01 -5.23579E+01 -5.31340E+01
  -5.39286E+01 -5.47396E+01 -5.55561E+01 -5.63638E+01 -5.71627E+01 -5.79346E+01 -5.86878E+01 -5.93994E+01 -6.00860E+01 -6.07198E+01
  -6.13246E+01 -6.18737E+01 -6.23936E+01 -6.28532E+01 -6.32840E+01 -6.36562E+01 -6.39997E+01 -6.42900E+01 -6.45510E+01 -6.47705E+01
  -6.49596E+01 -6.51097E+01 -6.52316E+01 -6.53159E+01 -6.53743E+01 -6.53927E+01 -6.53846E+01 -6.53447E+01 -6.52673E+01 -6.51631E+01
  -6.50419E+01 -6.48806E+01 -6.47190E+01 -6.45018E+01 -6.43538E+01 -6.43408E+01 -6.43196E+01 -6.47292E+01 -6.51164E+01 -6.57940E+01
  -6.65551E+01 -6.73103E+01 -6.79548E+01 -6.80795E+01 -6.84511E+01 -6.81649E+01 -6.81361E+01 -6.75091E+01 -6.75600E+01 -6.68911E+01
  -6.77616E+01 -6.83444E+01 -6.95243E+01 -6.94141E+01 -7.02767E+01 -6.91300E+01 -6.96418E+01 -6.77351E+01 -6.82328E+01 -6.59871E+01
  -6.68015E+01 -6.44381E+01 -6.56283E+01 -6.29037E+01 -6.42835E+01 -6.07977E+01 -6.21328E+01 -5.75001E+01 -5.85264E+01 -5.24446E+01
  -5.28648E+01 -4.51833E+01 -4.47352E+01 -3.57074E+01 -3.44814E+01 -2.50886E+01 -2.38265E+01 -1.56838E+01 -1.48827E+01 -7.52365E+00
  -6.34884E+00  9.72212E-01  3.89758E+00  1.17473E+01  1.49543E+01  2.18865E+01  2.44714E+01  2.97260E+01  3.01518E+01  3.28283E+01
   3.04892E+01  3.04981E+01  2.74520E+01  3.00634E+01  2.68984E+01  3.17429E+01  2.79714E+01  3.46760E+01  2.98472E+01  3.81464E+01
   3.21213E+01  4.16632E+01  3.47966E+01  4.51954E+01  3.77587E+01  4.83571E+01  4.06332E+01  5.08474E+01  4.31617E+01  5.26736E+01
   4.53669E+01  5.39179E+01  4.69894E+01  5.41643E+01  4.73077E+01  5.25109E+01  4.53929E+01  4.75690E+01  4.11690E+01  4.29117E+01
   3.84476E+01  4.02593E+01  3.77083E+01  3.89761E+01  3.55062E+01  3.56407E+01  3.15251E+01  3.03814E+01  2.60468E+01  2.44036E+01
   2.05085E+01  1.88929E+01  1.63469E+01  1.51604E+01  1.35778E+01  1.25493E+01  1.15480E+01  1.04612E+01  9.57723E+00  8.59382E+00
   7.69544E+00  6.93714E+00  6.33959E+00  5.92019E+00  5.67473E+00  5.63116E+00  5.80126E+00  6.18768E+00  6.81543E+00  7.69761E+00
   8.86679E+00  1.03455E+01  1.21824E+01  1.44154E+01  1.71097E+01  2.03213E+01  2.41391E+01  2.86451E+01  3.39478E+01  4.01468E+01
   4.73670E+01  5.57345E+01  6.53819E+01  7.64524E+01  8.90921E+01  1.03470E+02  1.19772E+02  1.38291E+02  1.59605E+02  1.84046E+02
   2.07850E+02  2.35651E+02  2.60896E+02  2.90976E+02  3.16570E+02  3.47484E+02  3.71409E+02  4.04368E+02  4.27238E+02  4.59665E+02
   4.78745E+02  5.07070E+02  5.19482E+02  5.40561E+02  5.44507E+02  5.56206E+02  5.51265E+02  5.52685E+02  5.39964E+02  5.31231E+02
   5.12392E+02  4.94072E+02  4.71516E+02  4.45414E+02  4.21651E+02  3.90116E+02  3.67662E+02  3.33927E+02  3.14459E+02  2.80659E+02
   2.64745E+02  2.32586E+02  2.20393E+02  1.91056E+02  1.82504E+02  1.57689E+02  1.53341E+02  1.34945E+02  1.34422E+02  1.22946E+02
   1.20439E+02  1.09498E+02  1.05306E+02  9.52785E+01  8.92649E+01  8.09044E+01  7.41633E+01  7.17205E+01  6.92537E+01  6.91409E+01
   6.83353E+01  6.91307E+01  6.91057E+01  7.01394E+01  7.04366E+01  7.13912E+01  7.17870E+01  7.25640E+01  7.29330E+01  7.35197E+01
   7.35700E+01  7.36449E+01  7.34688E+01  7.31867E+01  7.29129E+01  7.25187E+01  7.23453E+01  7.23474E+01  7.25147E+01  7.28586E+01
   7.33931E+01  7.41298E+01  7.50749E+01  7.62285E+01  7.75837E+01  7.91260E+01  8.08339E+01  8.26789E+01  8.46261E+01  8.66348E+01
   8.86601E+01  9.06530E+01  9.25626E+01  9.43368E+01  9.59240E+01  9.72745E+01  9.83422E+01  9.90853E+01  9.94683E+01  9.94625E+01
   9.90469E+01  9.82088E+01  9.69444E+01  9.52581E+01  9.31628E+01  9.06786E+01  8.78329E+01  8.46584E+01  8.11927E+01  7.74763E+01
   7.35520E+01  6.94632E+01  6.52529E+01  6.09625E+01  5.66314E+01  5.22953E+01  4.79868E+01  4.37342E+01  3.95620E+01  3.54901E+01
   3.15346E+01  2.77078E+01  2.40183E+01  2.04717E+01  1.70708E+01  1.38160E+01  1.07055E+01  7.73640E+00  4.90404E+00  2.20316E+00
  -3.72371E-01 -2.82894E+00 -5.17332E+00 -7.41223E+00 -9.55242E+00 -1.16004E+01 -1.35625E+01 -1.54449E+01 -1.72531E+01 -1.89927E+01
  -2.06686E+01 -2.22857E+01 -2.38483E+01 -2.53604E+01 -2.68258E+01 -2.82481E+01 -2.96302E+01 -3.09754E+01 -3.22860E+01 -3.35649E+01
  -3.48140E+01 -3.60357E+01 -3.72317E+01 -3.84039E+01 -3.95539E+01 -4.06831E+01 -4.17930E+01 -4.28847E+01 -4.39596E+01 -4.50184E+01
  -4.60624E+01 -4.70924E+01 -4.81092E+01 -4.91135E+01 -5.01061E+01 -5.10876E+01 -5.20587E+01 -5.30197E+01 -5.39714E+01 -5.49140E+01
  -5.58481E+01 -5.67740E+01 -5.76923E+01 -5.86030E+01 -5.95066E+01 -6.04033E+01 -6.12935E+01 -6.21772E+01 -6.30549E+01 -6.39266E+01
  -6.47926E+01 -6.56530E+01 -6.65080E+01 -6.73577E+01 -6.82022E+01 -6.90417E+01 -6.98762E+01 -7.07058E+01 -7.15307E+01 -7.23508E+01
  -7.31663E+01 -7.39772E+01 -7.47835E+01 -7.55852E+01 -7.63823E+01 -7.71748E+01 -7.79626E+01 -7.87456E+01
 NY background values follow
    -3.522E+01   -3.545E+01   -3.568E+01   -3.592E+01   -3.617E+01   -3.642E+01   -3.667E+01   -3.693E+01   -3.719E+01   -3.746E+01
    -3.773E+01   -3.801E+01   -3.829E+01   -3.857E+01   -3.886E+01   -3.915E+01   -3.945E+01   -3.974E+01   -4.005E+01   -4.035E+01
    -4.066E+01   -4.097E+01   -4.129E+01   -4.160E+01   -4.193E+01   -4.225E+01   -4.257E+01   -4.290E+01   -4.323E+01   -4.357E+01
    -4.390E+01   -4.424E+01   -4.458E+01   -4.492E+01   -4.527E+01   -4.561E+01   -4.596E+01   -4.631E+01   -4.666E+01   -4.701E+01
    -4.736E+01   -4.772E+01   -4.807E+01   -4.843E+01   -4.879E+01   -4.914E+01   -4.950E+01   -4.986E+01   -5.022E+01   -5.058E+01
    -5.094E+01   -5.130E+01   -5.166E+01   -5.202E+01   -5.238E+01   -5.274E+01   -5.310E+01   -5.346E+01   -5.382E+01   -5.418E+01
    -5.454E+01   -5.489E+01   -5.525E+01   -5.560E+01   -5.596E+01   -5.631E+01   -5.666E+01   -5.701E+01   -5.736E+01   -5.770E+01
    -5.805E+01   -5.839E+01   -5.873E+01   -5.907E+01   -5.940E+01   -5.974E+01   -6.007E+01   -6.040E+01   -6.073E+01   -6.105E+01
    -6.137E+01   -6.169E+01   -6.201E+01   -6.232E+01   -6.263E+01   -6.294E+01   -6.324E+01   -6.354E+01   -6.384E+01   -6.413E+01
    -6.442E+01   -6.470E+01   -6.498E+01   -6.526E+01   -6.553E+01   -6.580E+01   -6.607E+01   -6.632E+01   -6.658E+01   -6.683E+01
    -6.708E+01   -6.732E+01   -6.755E+01   -6.778E+01   -6.801E+01   -6.823E+01   -6.845E+01   -6.866E+01   -6.886E+01   -6.906E+01
    -6.925E+01   -6.944E+01   -6.962E+01   -6.979E+01   -6.996E+01   -7.012E+01   -7.028E+01   -7.043E+01   -7.057E+01   -7.071E+01
    -7.084E+01   -7.096E+01   -7.108E+01   -7.119E+01   -7.129E+01   -7.138E+01   -7.147E+01   -7.155E+01   -7.162E+01   -7.169E+01
    -7.175E+01   -7.180E+01   -7.184E+01   -7.188E+01   -7.191E+01   -7.194E+01   -7.196E+01   -7.197E+01   -7.197E+01   -7.197E+01
    -7.196E+01   -7.195E+01   -7.192E+01   -7.190E+01   -7.186E+01   -7.182E+01   -7.177E+01   -7.172E+01   -7.166E+01   -7.160E+01
    -7.153E+01   -7.145E+01   -7.137E+01   -7.128E+01   -7.119E+01   -7.109E+01   -7.098E+01   -7.087E+01   -7.075E+01   -7.063E+01
    -7.050E+01   -7.037E+01   -7.023E+01   -7.009E+01   -6.994E+01   -6.979E+01   -6.963E+01   -6.946E+01   -6.930E+01   -6.912E+01
    -6.894E+01   -6.876E+01   -6.857E+01   -6.838E+01   -6.818E+01   -6.798E+01   -6.777E+01   -6.756E+01   -6.734E+01   -6.712E+01
    -6.690E+01   -6.667E+01   -6.643E+01   -6.620E+01   -6.596E+01   -6.571E+01   -6.546E+01   -6.521E+01   -6.495E+01   -6.469E+01
    -6.442E+01   -6.415E+01   -6.388E+01   -6.360E+01   -6.332E+01   -6.304E+01   -6.275E+01   -6.246E+01   -6.217E+01   -6.187E+01
    -6.157E+01   -6.127E+01   -6.096E+01   -6.065E+01   -6.033E+01   -6.002E+01   -5.970E+01   -5.938E+01   -5.905E+01   -5.872E+01
    -5.839E+01   -5.806E+01   -5.773E+01   -5.739E+01   -5.705E+01   -5.670E+01   -5.636E+01   -5.601E+01   -5.566E+01   -5.531E+01
    -5.495E+01   -5.459E+01   -5.423E+01   -5.387E+01   -5.351E+01   -5.315E+01   -5.278E+01   -5.241E+01   -5.204E+01   -5.167E+01
    -5.129E+01   -5.092E+01   -5.054E+01   -5.016E+01   -4.978E+01   -4.940E+01   -4.902E+01   -4.863E+01   -4.825E+01   -4.786E+01
    -4.747E+01   -4.709E+01   -4.670E+01   -4.630E+01   -4.591E+01   -4.552E+01   -4.513E+01   -4.473E+01   -4.434E+01   -4.394E+01
    -4.355E+01   -4.315E+01   -4.276E+01   -4.236E+01   -4.196E+01   -4.156E+01   -4.117E+01   -4.077E+01   -4.037E+01   -3.998E+01
    -3.958E+01   -3.918E+01   -3.879E+01   -3.839E+01   -3.800E+01   -3.760E+01   -3.721E+01   -3.682E+01   -3.643E+01   -3.603E+01
    -3.565E+01   -3.526E+01   -3.487E+01   -3.449E+01   -3.410E+01   -3.372E+01   -3.334E+01   -3.296E+01   -3.258E+01   -3.221E+01
    -3.183E+01   -3.146E+01   -3.109E+01   -3.073E+01   -3.036E+01   -3.000E+01   -2.964E+01   -2.928E+01   -2.893E+01   -2.858E+01
    -2.823E+01   -2.788E+01   -2.754E+01   -2.720E+01   -2.687E+01   -2.653E+01   -2.620E+01   -2.588E+01   -2.555E+01   -2.523E+01
    -2.492E+01   -2.461E+01   -2.430E+01   -2.399E+01   -2.369E+01   -2.340E+01   -2.310E+01   -2.282E+01   -2.253E+01   -2.226E+01
    -2.198E+01   -2.171E+01   -2.145E+01   -2.119E+01   -2.093E+01   -2.068E+01   -2.043E+01   -2.019E+01   -1.996E+01   -1.973E+01
    -1.951E+01   -1.929E+01   -1.907E+01   -1.887E+01   -1.866E+01   -1.847E+01   -1.828E+01   -1.809E+01   -1.791E+01   -1.774E+01
    -1.758E+01   -1.742E+01   -1.726E+01   -1.712E+01   -1.698E+01   -1.684E+01   -1.672E+01   -1.660E+01   -1.648E+01   -1.638E+01
    -1.628E+01   -1.619E+01   -1.610E+01   -1.602E+01   -1.595E+01   -1.589E+01   -1.584E+01   -1.579E+01   -1.575E+01   -1.572E+01
    -1.570E+01   -1.568E+01   -1.567E+01   -1.567E+01   -1.568E+01   -1.570E+01   -1.572E+01   -1.576E+01   -1.580E+01   -1.585E+01
    -1.591E+01   -1.598E+01   -1.606E+01   -1.615E+01   -1.624E+01   -1.635E+01   -1.646E+01   -1.659E+01   -1.672E+01   -1.686E+01
    -1.702E+01   -1.718E+01   -1.735E+01   -1.753E+01   -1.772E+01   -1.792E+01   -1.814E+01   -1.836E+01   -1.859E+01   -1.883E+01
    -1.908E+01   -1.933E+01   -1.960E+01   -1.988E+01   -2.016E+01   -2.046E+01   -2.076E+01   -2.107E+01   -2.139E+01   -2.172E+01
    -2.206E+01   -2.241E+01   -2.276E+01   -2.312E+01   -2.349E+01   -2.387E+01   -2.425E+01   -2.465E+01   -2.505E+01   -2.546E+01
    -2.587E+01   -2.630E+01   -2.673E+01   -2.716E+01   -2.761E+01   -2.806E+01   -2.852E+01   -2.898E+01   -2.945E+01   -2.993E+01
    -3.042E+01   -3.091E+01   -3.141E+01   -3.191E+01   -3.242E+01   -3.294E+01   -3.346E+01   -3.398E+01   -3.452E+01   -3.506E+01
    -3.560E+01   -3.615E+01   -3.671E+01   -3.727E+01   -3.783E+01   -3.840E+01   -3.898E+01   -3.956E+01   -4.014E+01   -4.073E+01
    -4.133E+01   -4.192E+01   -4.253E+01   -4.313E+01   -4.375E+01   -4.436E+01   -4.498E+01   -4.560E+01   -4.623E+01   -4.686E+01
    -4.750E+01   -4.814E+01   -4.878E+01   -4.942E+01   -5.007E+01   -5.072E+01   -5.138E+01   -5.203E+01   -5.269E+01   -5.335E+01
    -5.402E+01   -5.469E+01   -5.536E+01   -5.603E+01   -5.671E+01   -5.738E+01   -5.806E+01   -5.874E+01   -5.943E+01   -6.011E+01
    -6.080E+01   -6.149E+01   -6.218E+01   -6.287E+01   -6.356E+01   -6.425E+01   -6.495E+01   -6.565E+01   -6.634E+01   -6.704E+01
    -6.774E+01   -6.844E+01   -6.914E+01   -6.984E+01   -7.054E+01   -7.124E+01   -7.194E+01   -7.264E+01   -7.334E+01   -7.404E+01
    -7.474E+01   -7.544E+01   -7.614E+01   -7.684E+01   -7.754E+01   -7.824E+01   -7.894E+01   -7.963E+01   -8.033E+01   -8.102E+01
    -8.172E+01   -8.241E+01   -8.310E+01   -8.379E+01   -8.448E+01   -8.516E+01   -8.585E+01   -8.653E+01
 Ala      Conc. = 2.37E+04
