 LCModel (Version 6.3-1L) Copyright: S.W. Provencher.          Ref.: Magn. Reson. Med. 30:672-679 (1993).                
 Slice#2 Row#6 Col#4  PD_05_press_2_raw_act
 36 lines in following concentration table = NCONC+1
    Conc.  %SD /Cr+PCr  Metabolite                                         
  371.888  69%   0.197 Ala                                                 
  434.904  99%   0.231 Asp                                                 
 1.39E+03  32%   0.735 Cr                                                  
  500.086  90%   0.265 PCr                                                 
    0.000 999%   0.000 GABA                                                
  344.201  80%   0.182 Glc                                                 
  650.904  79%   0.345 Gln                                                 
 2.72E+03  21%   1.443 Glu                                                 
 1.07E+03   5%   0.567 GPC                                                 
    0.000 999%   0.000 PCh                                                 
  884.150  19%   0.469 GSH                                                 
 3.80E+03  14%   2.012 Ins                                                 
  225.531 130%   0.120 Lac                                                 
 2.98E+03   8%   1.577 NAA                                                 
  940.495  28%   0.498 NAAG                                                
  138.774  42% 7.4E-02 Scyllo                                              
  196.270 201%   0.104 Tau                                                 
    0.000 999%   0.000 -CrCH2                                              
 1.07E+03   5%   0.567 GPC+PCh                                             
 3.92E+03   5%   2.076 NAA+NAAG                                            
 1.89E+03   6%   1.000 Cr+PCr                                              
 3.37E+03  23%   1.788 Glu+Gln                                             
    0.000 999%   0.000 Lip13a                                              
  622.441  39%   0.330 Lip13b                                              
   31.055 773% 1.6E-02 Lip09                                               
 1.93E+03  19%   1.022 MM09                                                
    0.000 999%   0.000 Lip20                                               
 2.21E+03  30%   1.169 MM20                                                
  642.247  37%   0.340 MM12                                                
 3.64E+03  17%   1.928 MM14                                                
 2.00E+03  26%   1.059 MM17                                                
  622.441  39%   0.330 Lip13a+Lip13b                                       
 4.90E+03  14%   2.599 MM14+Lip13a+Lip13b+MM12                             
 1.96E+03  17%   1.039 MM09+Lip09                                          
 2.21E+03  30%   1.169 MM20+Lip20                                          
   6 lines in following misc. output table
  FWHM = 0.054 ppm    S/N =   7                                            
  Data shift = 0.015 ppm                                                   
  Ph:  -6 deg       3.6 deg/ppm                                            
  alphaB,S = 8.5E+01,   9.0E+01                                            
   14 spline knots.   Ns = 6(1)                                            
   2 inflections.     1 extrema                                            
  498 points on ppm-axis = NY
      4.000000     3.992357     3.984714     3.977070     3.969427     3.961784     3.954141     3.946497     3.938854     3.931211
      3.923568     3.915925     3.908281     3.900638     3.892995     3.885352     3.877708     3.870065     3.862422     3.854779
      3.847136     3.839492     3.831849     3.824206     3.816563     3.808919     3.801276     3.793633     3.785990     3.778347
      3.770703     3.763060     3.755417     3.747774     3.740130     3.732487     3.724844     3.717201     3.709558     3.701914
      3.694271     3.686628     3.678985     3.671341     3.663698     3.656055     3.648412     3.640769     3.633125     3.625482
      3.617839     3.610196     3.602552     3.594909     3.587266     3.579623     3.571980     3.564336     3.556693     3.549050
      3.541407     3.533763     3.526120     3.518477     3.510834     3.503191     3.495547     3.487904     3.480261     3.472618
      3.464974     3.457331     3.449688     3.442045     3.434402     3.426758     3.419115     3.411472     3.403829     3.396185
      3.388542     3.380899     3.373256     3.365613     3.357969     3.350326     3.342683     3.335040     3.327396     3.319753
      3.312110     3.304467     3.296824     3.289180     3.281537     3.273894     3.266251     3.258607     3.250964     3.243321
      3.235678     3.228034     3.220391     3.212748     3.205105     3.197462     3.189818     3.182175     3.174532     3.166889
      3.159245     3.151602     3.143959     3.136316     3.128673     3.121029     3.113386     3.105743     3.098100     3.090456
      3.082813     3.075170     3.067527     3.059884     3.052240     3.044597     3.036954     3.029311     3.021667     3.014024
      3.006381     2.998738     2.991095     2.983451     2.975808     2.968165     2.960522     2.952878     2.945235     2.937592
      2.929949     2.922306     2.914662     2.907019     2.899376     2.891733     2.884089     2.876446     2.868803     2.861160
      2.853517     2.845873     2.838230     2.830587     2.822944     2.815300     2.807657     2.800014     2.792371     2.784728
      2.777084     2.769441     2.761798     2.754155     2.746511     2.738868     2.731225     2.723582     2.715939     2.708295
      2.700652     2.693009     2.685366     2.677722     2.670079     2.662436     2.654793     2.647150     2.639506     2.631863
      2.624220     2.616577     2.608933     2.601290     2.593647     2.586004     2.578361     2.570717     2.563074     2.555431
      2.547788     2.540144     2.532501     2.524858     2.517215     2.509572     2.501928     2.494285     2.486642     2.478999
      2.471355     2.463712     2.456069     2.448426     2.440783     2.433139     2.425496     2.417853     2.410210     2.402566
      2.394923     2.387280     2.379637     2.371994     2.364350     2.356707     2.349064     2.341421     2.333777     2.326134
      2.318491     2.310848     2.303205     2.295561     2.287918     2.280275     2.272632     2.264988     2.257345     2.249702
      2.242059     2.234416     2.226772     2.219129     2.211486     2.203843     2.196199     2.188556     2.180913     2.173270
      2.165627     2.157983     2.150340     2.142697     2.135054     2.127410     2.119767     2.112124     2.104481     2.096838
      2.089194     2.081551     2.073908     2.066265     2.058621     2.050978     2.043335     2.035692     2.028049     2.020405
      2.012762     2.005119     1.997476     1.989833     1.982190     1.974546     1.966903     1.959260     1.951617     1.943974
      1.936331     1.928688     1.921045     1.913402     1.905759     1.898115     1.890472     1.882829     1.875186     1.867543
      1.859900     1.852257     1.844614     1.836971     1.829327     1.821684     1.814041     1.806398     1.798755     1.791112
      1.783469     1.775826     1.768183     1.760540     1.752896     1.745253     1.737610     1.729967     1.722324     1.714681
      1.707038     1.699395     1.691752     1.684108     1.676465     1.668822     1.661179     1.653536     1.645893     1.638250
      1.630607     1.622964     1.615321     1.607677     1.600034     1.592391     1.584748     1.577105     1.569462     1.561819
      1.554176     1.546533     1.538890     1.531246     1.523603     1.515960     1.508317     1.500674     1.493031     1.485388
      1.477745     1.470102     1.462458     1.454815     1.447172     1.439529     1.431886     1.424243     1.416600     1.408957
      1.401314     1.393671     1.386027     1.378384     1.370741     1.363098     1.355455     1.347812     1.340169     1.332526
      1.324883     1.317240     1.309596     1.301953     1.294310     1.286667     1.279024     1.271381     1.263738     1.256095
      1.248452     1.240808     1.233165     1.225522     1.217879     1.210236     1.202593     1.194950     1.187307     1.179664
      1.172021     1.164377     1.156734     1.149091     1.141448     1.133805     1.126162     1.118519     1.110876     1.103233
      1.095590     1.087946     1.080303     1.072660     1.065017     1.057374     1.049731     1.042088     1.034445     1.026802
      1.019158     1.011515     1.003872     0.996229     0.988586     0.980943     0.973300     0.965657     0.958014     0.950371
      0.942727     0.935084     0.927441     0.919798     0.912155     0.904512     0.896869     0.889226     0.881583     0.873940
      0.866296     0.858653     0.851010     0.843367     0.835724     0.828081     0.820438     0.812795     0.805152     0.797508
      0.789865     0.782222     0.774579     0.766936     0.759293     0.751650     0.744007     0.736364     0.728721     0.721077
      0.713434     0.705791     0.698148     0.690505     0.682862     0.675219     0.667576     0.659933     0.652290     0.644646
      0.637003     0.629360     0.621717     0.614074     0.606431     0.598788     0.591145     0.583502     0.575858     0.568215
      0.560572     0.552929     0.545286     0.537643     0.530000     0.522357     0.514714     0.507071     0.499427     0.491784
      0.484141     0.476498     0.468855     0.461212     0.453569     0.445925     0.438282     0.430639     0.422996     0.415353
      0.407710     0.400067     0.392424     0.384780     0.377137     0.369494     0.361851     0.354208     0.346565     0.338922
      0.331278     0.323635     0.315992     0.308349     0.300706     0.293063     0.285420     0.277777     0.270133     0.262490
      0.254847     0.247204     0.239561     0.231918     0.224275     0.216631     0.208988     0.201345
 NY phased data points follow
   1.23447E+00 -5.55375E-01  1.33953E+00 -2.26373E-01  1.96092E+01  2.24686E+01  1.87367E+01  2.81598E+01  3.26197E+01  5.31974E+01
   3.22328E+01  6.18605E+01  5.32893E+01  3.51820E+01  3.50167E+01  3.27727E+01  3.59938E+01  1.55395E+01  1.47631E+01  1.98265E+01
   1.70597E+01  1.25651E+01  1.91546E+01  1.90982E+01  1.99714E+01  3.38670E+01  3.56015E+01  1.03699E+01  2.92548E+01  1.74520E+01
   2.53780E+01  2.68595E+01  2.85165E+01  2.01958E+01  2.70116E+01  1.63596E+01  1.96595E+01  2.84989E+01  8.84999E+00  2.35972E+01
   1.94103E+01  3.16096E+01  1.39674E+01  2.81537E+01  1.33283E+01  3.51455E+01  3.30790E+01  4.01940E+01  3.81707E+01  2.64285E+01
   3.21320E+01  1.22118E+01  2.44622E+01  1.91211E+01  1.39964E+01  1.90540E+01  1.42726E+01  2.79744E+01  1.08880E+01  3.24770E+01
   2.06422E+01  2.07193E+01  1.24048E+01 -5.33380E-01  2.50195E+00 -3.88669E+00  6.87900E+00 -1.62582E+00  1.13652E+00 -6.41293E+00
   9.02142E+00  2.13278E+00  9.70054E+00  5.95185E+00  1.83836E+01  2.59876E+00  1.52064E+01  1.25317E+01  1.45726E+01  6.73948E+00
   3.02374E+00 -4.96141E+00 -4.27720E+00  1.23470E+00  5.50274E+00  1.53879E+01  1.28947E+00  7.35308E+00 -8.89123E+00  6.32899E+00
   8.60401E+00  1.27172E+01  5.12724E+00  4.81795E+00  1.71548E+01 -2.71440E+00  3.99507E+00  1.81998E+01 -3.84357E+00  3.35026E+01
   5.75245E+01  8.27744E+01  9.15386E+01  9.95524E+01  9.47264E+01  9.29615E+01  6.48303E+01  5.20776E+01  4.43305E+01  1.85489E+01
   2.19840E+01  1.44281E+01  1.70989E+01  7.32198E+00  1.94005E+00  2.11026E+01  2.18928E+01  8.81524E+00  7.89144E-01  3.37837E+00
   2.04423E+01  1.08538E+01  5.81274E+00  2.57193E+01  2.85433E+01  4.32578E+01  6.71790E+01  6.03724E+01  7.92476E+01  5.16543E+01
   3.54595E+01  3.83383E+01  3.41028E+01  2.63713E+01  1.55861E+01 -3.29385E+00  1.06089E+01 -2.91855E-01  8.47095E+00 -9.94466E+00
   6.63867E+00 -5.78452E-01  6.77350E+00 -5.46553E+00 -5.47850E+00  7.21440E+00 -6.90419E+00 -3.03507E+00 -5.81404E+00  8.54006E+00
   8.13143E+00  7.84566E+00  2.80405E+00 -6.13642E+00  2.77129E+00 -5.05122E+00 -7.94264E+00 -1.49404E+00 -2.55101E+00 -1.28280E+01
  -5.84189E+00 -1.33293E+01 -7.92729E+00 -1.37481E+01 -2.25579E+01 -3.17884E-01 -2.94222E+00 -4.19703E+00 -8.83247E+00 -2.37973E+00
  -9.55796E+00 -2.49993E+01 -1.80339E+01 -2.39774E+01 -7.06220E+00 -1.65069E+01 -3.10832E+01 -1.94564E+01 -1.50270E+01 -6.30519E+00
  -2.54705E+01 -1.24279E+01 -2.10661E+01 -2.26972E+01 -1.84465E+01 -7.67052E+00 -1.22263E+01 -4.92827E+00 -7.67079E+00 -5.59140E+00
  -9.42512E+00  1.57618E+01  4.40688E+00 -4.41455E-01 -9.94855E+00 -1.06875E+01  7.00866E+00  2.79636E+00 -1.36789E+01 -1.10088E+01
  -5.32869E-01 -8.32758E+00 -6.41476E+00  3.82177E+00  1.29405E+01  2.39162E+00 -8.80414E+00  8.99528E+00  2.13747E+00 -1.18349E+01
  -2.28182E+00 -1.42187E+01 -1.27750E+01  4.30342E+00  5.43355E+00  9.78350E+00  2.09726E+01 -8.21948E-01  8.39093E+00  1.13225E+00
   6.76105E-01 -9.44238E+00 -4.41876E+00 -5.31192E+00 -2.35852E+01 -2.74160E+00  3.33141E+00  9.28777E+00  7.19033E+00  1.54918E+01
   1.95756E+01  1.97080E+01  1.84538E+01  5.51855E+00 -6.04600E+00 -1.87251E+00  6.42320E+00  3.38960E+00  8.53880E+00  2.98196E+00
  -7.07693E+00 -1.20471E+01 -1.34846E+01 -1.62759E+01 -7.81246E+00  1.61919E+00  8.45723E+00  7.20878E+00  1.19820E+01  2.77382E+01
   3.00341E+01  2.35723E+01  2.59928E+01  2.51470E+01  4.37949E+01  6.44950E+01  7.01919E+01  8.07184E+01  9.98559E+01  1.02707E+02
   1.26961E+02  1.33720E+02  1.16929E+02  7.57447E+01  4.68358E+01  1.68615E+01  1.60575E+01  1.08982E+01  9.57967E+00  5.23195E+00
   1.72817E+01  1.11143E+01  1.29774E+01  7.12230E+00  1.32663E+01  1.11223E+01  3.57806E+00  1.49284E+00  1.78000E+00  6.69484E+00
  -2.47421E+00 -1.61459E+01  4.51331E+00  3.46429E+00  5.15699E+00 -9.41189E+00 -7.46848E+00  1.77107E+00  6.37878E-01  1.70543E+00
  -8.47385E-01  6.48499E+00  2.02163E-01  1.02244E+01  5.70231E+00  1.28595E+01  5.77566E+00  2.80314E+00  1.10178E+01 -5.81204E+00
   3.65680E+00  9.28113E+00  1.26765E+01  6.86378E-01  2.52543E+00  1.24006E+01  1.81932E+01  1.57944E+01  1.50762E+01  1.11034E+01
   1.19580E+01  1.04048E+01  6.57591E+00  2.81013E+01  1.27798E+01  2.23515E+01  3.02825E+01  3.53741E+01  2.49138E+01  2.82346E+01
   3.50539E+01  2.99521E+01  2.85153E+01  3.13251E+01  2.87560E+01  2.60282E+01  2.33674E+01  3.42446E+01  2.49602E+01  2.59933E+01
   1.12710E+01  2.53603E+01  1.44747E+01  1.14194E+01  2.49404E+01  2.05408E+01 -1.39513E+00  1.67607E+01  1.36911E+01  1.51144E+01
   1.30232E+01  1.17524E+01 -2.51830E+00  1.03723E+01  1.04419E+01  1.07261E+01  1.43455E+01  1.60594E+01  2.39997E+00  5.22726E+00
   1.04289E+01 -8.33760E-01  6.26048E+00  3.41289E+00  1.92335E+01  1.12111E+01  2.36845E+01  1.53324E+01  8.21537E+00  7.43673E+00
  -3.22707E+00  7.15396E+00  7.90930E+00  1.82332E+01  8.62533E+00 -3.86236E+00  1.02075E+01  4.98205E+00  5.67612E+00 -1.61398E-01
   8.25651E+00 -1.43713E+00  4.94171E+00 -8.43011E+00 -4.64117E+00  3.15802E+00  4.02685E-01  4.22786E+00  1.34390E+01 -2.53076E+00
   9.10125E+00  4.92993E+00  9.23791E-01  3.53445E+00 -2.59369E+00  1.69047E+01  1.57997E+01  1.34613E+01 -5.17763E+00  5.44845E+00
  -6.24769E+00  7.85118E+00  1.29489E+01  2.11626E+01  5.47986E+00  6.93890E+00  7.19845E+00 -3.56957E+00  1.64344E+01  1.83255E+01
   2.12451E+01  1.09335E+01 -1.79102E+00  1.66478E+01  7.91533E+00  5.81796E+00  1.05597E+00  2.94379E+00  9.39428E+00 -7.52637E+00
   1.03308E+01  2.89995E+00  2.98222E+00  1.85612E+00  4.10829E+00  6.23984E+00 -4.37522E+00  9.76888E-01 -3.05617E+00  3.34688E+00
  -3.07102E+00 -9.97100E+00  6.90379E+00 -4.99811E+00 -1.61612E-01 -3.04959E+00  1.25171E-01 -5.45622E+00 -5.60863E+00  4.48498E-01
  -2.16418E+01  6.30690E+00  7.30887E-01 -1.86381E+01  4.32142E+00  5.03327E+00  5.69058E+00 -9.94308E+00 -3.21306E+00  5.06791E+00
  -5.22763E+00 -3.02832E+00 -7.83209E+00 -7.47538E+00  6.90084E+00 -1.35140E+01  1.78560E+00  5.45454E+00 -8.51286E-01 -2.45168E+01
  -3.05886E+00 -8.14110E+00 -7.10263E+00 -3.26976E+00 -3.31579E+00 -8.75186E+00  1.02524E+00 -2.12010E+00 -6.14892E+00 -8.16686E+00
   2.96247E+00 -3.78471E+00  7.00003E+00  5.62342E+00 -4.81068E+00 -6.18989E+00 -2.44032E+00 -8.95545E+00  2.20896E+00  1.50221E-01
   1.27133E+00 -6.77801E+00  9.80448E-01 -1.68849E+00 -1.39528E+00 -1.04134E+01 -9.11508E+00 -8.96614E+00 -1.02507E+00  7.29223E+00
  -8.83181E+00 -7.49367E+00  1.92922E-01 -4.56635E-02 -4.54245E+00 -6.17388E+00 -1.29140E+01 -4.89620E+00 -3.19910E+00 -8.30496E+00
   4.15230E+00  1.12820E+00 -4.56697E+00 -1.89267E+00 -3.33130E+00  6.13836E+00 -2.02035E+01 -3.66152E+00
 NY points of the fit to the data follow
   8.66274E+00  7.63884E+00  7.38463E+00  8.34631E+00  1.05777E+01  1.44375E+01  2.03459E+01  2.73501E+01  3.47624E+01  4.18175E+01
   4.73521E+01  5.00485E+01  4.89398E+01  4.40833E+01  3.68943E+01  2.94764E+01  2.32232E+01  1.83889E+01  1.44424E+01  1.17661E+01
   1.07512E+01  1.04897E+01  1.03114E+01  1.03222E+01  1.13080E+01  1.29712E+01  1.52475E+01  1.83313E+01  2.21126E+01  2.60993E+01
   2.92715E+01  3.07723E+01  3.03161E+01  2.83818E+01  2.56849E+01  2.22819E+01  1.80434E+01  1.38150E+01  1.07446E+01  8.61748E+00
   7.96566E+00  9.76631E+00  1.37648E+01  1.89871E+01  2.46927E+01  3.04053E+01  3.50068E+01  3.68853E+01  3.50423E+01  2.97753E+01
   2.29401E+01  1.66815E+01  1.19945E+01  8.90585E+00  7.48475E+00  8.07608E+00  1.01072E+01  1.24962E+01  1.46083E+01  1.60195E+01
   1.62512E+01  1.50918E+01  1.27777E+01  1.01442E+01  7.97117E+00  6.75147E+00  6.63425E+00  7.46747E+00  8.84281E+00  1.04296E+01
   1.19407E+01  1.30759E+01  1.36501E+01  1.35820E+01  1.29958E+01  1.21840E+01  1.12925E+01  1.03671E+01  9.35788E+00  8.47862E+00
   7.97719E+00  7.80576E+00  7.56193E+00  7.16083E+00  6.59448E+00  5.72336E+00  4.45655E+00  2.88326E+00  1.32150E+00  2.74125E-01
   2.05228E-01  9.09999E-01  1.85689E+00  2.66195E+00  3.23340E+00  3.68886E+00  4.72974E+00  9.92809E+00  2.05138E+01  3.48594E+01
   5.27529E+01  7.28885E+01  9.16506E+01  1.03629E+02  1.04031E+02  9.20221E+01  7.25481E+01  5.26829E+01  3.61714E+01  2.28120E+01
   1.20829E+01  5.96346E+00  3.96938E+00  3.16636E+00  2.67087E+00  2.28497E+00  1.97151E+00  1.72411E+00  1.60080E+00  1.76241E+00
   2.83249E+00  6.88614E+00  1.43576E+01  2.40075E+01  3.55290E+01  4.80797E+01  5.95331E+01  6.68205E+01  6.71316E+01  6.00004E+01
   4.84493E+01  3.65773E+01  2.63204E+01  1.73811E+01  9.44552E+00  4.06373E+00  1.47646E+00  4.30530E-01  5.70539E-01  1.49298E+00
   2.71357E+00  3.84231E+00  4.55626E+00  4.68138E+00  4.35388E+00  3.77673E+00  3.03896E+00  2.23448E+00  1.38223E+00  5.79944E-01
  -1.03309E-01 -7.12073E-01 -1.21562E+00 -1.56069E+00 -1.76800E+00 -1.95457E+00 -2.15694E+00 -2.43953E+00 -2.92124E+00 -3.54043E+00
  -4.20882E+00 -4.68145E+00 -4.75430E+00 -4.48175E+00 -4.15349E+00 -4.05554E+00 -4.26573E+00 -4.65262E+00 -5.06798E+00 -5.50638E+00
  -6.00205E+00 -6.52721E+00 -6.99109E+00 -7.43125E+00 -7.95843E+00 -8.52627E+00 -8.88518E+00 -8.88136E+00 -8.62439E+00 -8.41648E+00
  -8.43670E+00 -8.59289E+00 -8.48385E+00 -7.89020E+00 -6.98125E+00 -5.83464E+00 -4.26365E+00 -2.22500E+00  1.74649E-01  2.49218E+00
   4.11830E+00  4.60717E+00  3.88160E+00  2.37445E+00  5.93767E-01 -1.05921E+00 -2.14369E+00 -2.32039E+00 -1.43795E+00  3.84213E-01
   2.78246E+00  5.13219E+00  6.89004E+00  7.85767E+00  7.66330E+00  6.15922E+00  3.47567E+00  1.92050E-02 -3.46620E+00 -6.12872E+00
  -7.09284E+00 -5.83018E+00 -2.73495E+00  1.62162E+00  6.41753E+00  1.05024E+01  1.23965E+01  1.09940E+01  6.37851E+00  9.94051E-02
  -6.12441E+00 -1.11335E+01 -1.39792E+01 -1.39752E+01 -1.09108E+01 -5.77225E+00 -6.09146E-01  3.31611E+00  5.69616E+00  6.80316E+00
   6.89485E+00  6.41109E+00  6.10822E+00  6.50386E+00  7.43637E+00  8.34855E+00  8.76230E+00  8.27939E+00  6.89630E+00  4.87572E+00
   2.71316E+00  1.03661E+00  3.79426E-01  9.74358E-01  2.64095E+00  4.95617E+00  7.18945E+00  8.72039E+00  9.57669E+00  1.05984E+01
   1.31941E+01  1.71146E+01  2.23904E+01  2.97313E+01  4.16949E+01  5.80422E+01  7.45918E+01  9.00647E+01  1.04249E+02  1.16112E+02
   1.22321E+02  1.18431E+02  1.02862E+02  8.03150E+01  5.86417E+01  4.11735E+01  2.70916E+01  1.54205E+01  8.26720E+00  5.82257E+00
   4.77297E+00  4.18000E+00  3.90245E+00  3.85173E+00  3.82307E+00  3.70649E+00  3.44530E+00  3.06938E+00  2.67063E+00  2.32664E+00
   2.04848E+00  1.82956E+00  1.70034E+00  1.66243E+00  1.64261E+00  1.57813E+00  1.48654E+00  1.40746E+00  1.36771E+00  1.37772E+00
   1.46381E+00  1.65276E+00  1.92994E+00  2.24980E+00  2.59084E+00  2.95088E+00  3.34341E+00  3.78630E+00  4.29477E+00  4.89022E+00
   5.59904E+00  6.42115E+00  7.33803E+00  8.32726E+00  9.37199E+00  1.04591E+01  1.15724E+01  1.26924E+01  1.38107E+01  1.49168E+01
   1.59974E+01  1.70401E+01  1.80342E+01  1.89704E+01  1.98429E+01  2.06494E+01  2.13912E+01  2.20736E+01  2.27077E+01  2.33160E+01
   2.39500E+01  2.47120E+01  2.54995E+01  2.60774E+01  2.63860E+01  2.63006E+01  2.56222E+01  2.41800E+01  2.19723E+01  1.94316E+01
   1.72876E+01  1.58748E+01  1.52264E+01  1.52371E+01  1.58130E+01  1.68160E+01  1.77528E+01  1.80200E+01  1.74938E+01  1.64345E+01
   1.52188E+01  1.40864E+01  1.29799E+01  1.19057E+01  1.10516E+01  1.02941E+01  9.47231E+00  8.47859E+00  7.34219E+00  6.39860E+00
   5.99068E+00  6.24905E+00  7.10834E+00  8.37520E+00  9.83815E+00  1.12596E+01  1.22273E+01  1.24046E+01  1.18355E+01  1.07709E+01
   9.45488E+00  8.02073E+00  6.56265E+00  5.27494E+00  4.23962E+00  3.41994E+00  2.78862E+00  2.31770E+00  1.97644E+00  1.73493E+00
   1.56729E+00  1.45341E+00  1.37931E+00  1.33655E+00  1.32135E+00  1.33332E+00  1.37437E+00  1.44766E+00  1.55700E+00  1.70642E+00
   1.89999E+00  2.14145E+00  2.43386E+00  2.77924E+00  3.17840E+00  3.63078E+00  4.13431E+00  4.68503E+00  5.27687E+00  5.90151E+00
   6.54849E+00  7.20541E+00  7.85819E+00  8.49135E+00  9.08839E+00  9.63248E+00  1.01073E+01  1.04978E+01  1.07908E+01  1.09758E+01
   1.10452E+01  1.09948E+01  1.08244E+01  1.05376E+01  1.01415E+01  9.64629E+00  9.06455E+00  8.41096E+00  7.70150E+00  6.95263E+00
   6.18054E+00  5.40042E+00  4.62603E+00  3.86943E+00  3.14076E+00  2.44801E+00  1.79697E+00  1.19133E+00  6.32999E-01  1.22419E-01
  -3.41180E-01 -7.59608E-01 -1.13550E+00 -1.47202E+00 -1.77255E+00 -2.04045E+00 -2.27904E+00 -2.49155E+00 -2.68113E+00 -2.85062E+00
  -3.00254E+00 -3.13905E+00 -3.26206E+00 -3.37334E+00 -3.47448E+00 -3.56683E+00 -3.65147E+00 -3.72926E+00 -3.80102E+00 -3.86750E+00
  -3.92941E+00 -3.98728E+00 -4.04146E+00 -4.09230E+00 -4.14015E+00 -4.18538E+00 -4.22833E+00 -4.26918E+00 -4.30804E+00 -4.34507E+00
  -4.38046E+00 -4.41444E+00 -4.44714E+00 -4.47860E+00 -4.50885E+00 -4.53797E+00 -4.56612E+00 -4.59345E+00 -4.61998E+00 -4.64570E+00
  -4.67063E+00 -4.69486E+00 -4.71850E+00 -4.74162E+00 -4.76419E+00 -4.78619E+00 -4.80762E+00 -4.82860E+00 -4.84921E+00 -4.86947E+00
  -4.88931E+00 -4.90870E+00 -4.92769E+00 -4.94637E+00 -4.96479E+00 -4.98292E+00 -5.00068E+00 -5.01809E+00 -5.03521E+00 -5.05211E+00
  -5.06882E+00 -5.08525E+00 -5.10136E+00 -5.11717E+00 -5.13275E+00 -5.14816E+00 -5.16335E+00 -5.17825E+00 -5.19283E+00 -5.20713E+00
  -5.22123E+00 -5.23512E+00 -5.24872E+00 -5.26196E+00 -5.27484E+00 -5.28740E+00 -5.29966E+00 -5.31157E+00
 NY background values follow
     3.678E-01    3.565E-01    3.451E-01    3.337E-01    3.224E-01    3.110E-01    2.996E-01    2.882E-01    2.769E-01    2.655E-01
     2.541E-01    2.428E-01    2.314E-01    2.200E-01    2.086E-01    1.973E-01    1.859E-01    1.745E-01    1.631E-01    1.517E-01
     1.404E-01    1.290E-01    1.176E-01    1.062E-01    9.485E-02    8.347E-02    7.209E-02    6.071E-02    4.933E-02    3.795E-02
     2.657E-02    1.519E-02    3.809E-03   -7.573E-03   -1.896E-02   -3.034E-02   -4.172E-02   -5.310E-02   -6.449E-02   -7.587E-02
    -8.726E-02   -9.864E-02   -1.100E-01   -1.214E-01   -1.328E-01   -1.442E-01   -1.556E-01   -1.670E-01   -1.783E-01   -1.897E-01
    -2.011E-01   -2.125E-01   -2.239E-01   -2.353E-01   -2.467E-01   -2.581E-01   -2.694E-01   -2.808E-01   -2.922E-01   -3.036E-01
    -3.150E-01   -3.264E-01   -3.378E-01   -3.492E-01   -3.606E-01   -3.720E-01   -3.833E-01   -3.947E-01   -4.061E-01   -4.175E-01
    -4.289E-01   -4.403E-01   -4.517E-01   -4.631E-01   -4.745E-01   -4.859E-01   -4.973E-01   -5.087E-01   -5.200E-01   -5.314E-01
    -5.428E-01   -5.542E-01   -5.656E-01   -5.770E-01   -5.884E-01   -5.998E-01   -6.112E-01   -6.226E-01   -6.340E-01   -6.454E-01
    -6.568E-01   -6.682E-01   -6.796E-01   -6.910E-01   -7.024E-01   -7.138E-01   -7.252E-01   -7.365E-01   -7.479E-01   -7.593E-01
    -7.707E-01   -7.821E-01   -7.935E-01   -8.049E-01   -8.163E-01   -8.277E-01   -8.391E-01   -8.505E-01   -8.619E-01   -8.733E-01
    -8.847E-01   -8.961E-01   -9.075E-01   -9.189E-01   -9.303E-01   -9.417E-01   -9.531E-01   -9.645E-01   -9.759E-01   -9.873E-01
    -9.987E-01   -1.010E+00   -1.021E+00   -1.033E+00   -1.044E+00   -1.056E+00   -1.067E+00   -1.078E+00   -1.090E+00   -1.101E+00
    -1.113E+00   -1.124E+00   -1.135E+00   -1.147E+00   -1.158E+00   -1.170E+00   -1.181E+00   -1.192E+00   -1.204E+00   -1.215E+00
    -1.227E+00   -1.238E+00   -1.249E+00   -1.261E+00   -1.272E+00   -1.284E+00   -1.295E+00   -1.306E+00   -1.318E+00   -1.329E+00
    -1.341E+00   -1.352E+00   -1.363E+00   -1.375E+00   -1.386E+00   -1.398E+00   -1.409E+00   -1.420E+00   -1.432E+00   -1.443E+00
    -1.454E+00   -1.466E+00   -1.477E+00   -1.489E+00   -1.500E+00   -1.511E+00   -1.523E+00   -1.534E+00   -1.546E+00   -1.557E+00
    -1.568E+00   -1.580E+00   -1.591E+00   -1.603E+00   -1.614E+00   -1.625E+00   -1.637E+00   -1.648E+00   -1.660E+00   -1.671E+00
    -1.682E+00   -1.694E+00   -1.705E+00   -1.716E+00   -1.728E+00   -1.739E+00   -1.751E+00   -1.762E+00   -1.773E+00   -1.785E+00
    -1.796E+00   -1.808E+00   -1.819E+00   -1.830E+00   -1.842E+00   -1.853E+00   -1.865E+00   -1.876E+00   -1.887E+00   -1.899E+00
    -1.910E+00   -1.921E+00   -1.933E+00   -1.944E+00   -1.956E+00   -1.967E+00   -1.978E+00   -1.990E+00   -2.001E+00   -2.013E+00
    -2.024E+00   -2.035E+00   -2.047E+00   -2.058E+00   -2.069E+00   -2.081E+00   -2.092E+00   -2.104E+00   -2.115E+00   -2.126E+00
    -2.138E+00   -2.149E+00   -2.160E+00   -2.172E+00   -2.183E+00   -2.195E+00   -2.206E+00   -2.217E+00   -2.229E+00   -2.240E+00
    -2.251E+00   -2.263E+00   -2.274E+00   -2.286E+00   -2.297E+00   -2.308E+00   -2.320E+00   -2.331E+00   -2.342E+00   -2.354E+00
    -2.365E+00   -2.377E+00   -2.388E+00   -2.399E+00   -2.411E+00   -2.422E+00   -2.433E+00   -2.445E+00   -2.456E+00   -2.468E+00
    -2.479E+00   -2.490E+00   -2.502E+00   -2.513E+00   -2.524E+00   -2.536E+00   -2.547E+00   -2.558E+00   -2.570E+00   -2.581E+00
    -2.593E+00   -2.604E+00   -2.615E+00   -2.627E+00   -2.638E+00   -2.649E+00   -2.661E+00   -2.672E+00   -2.683E+00   -2.695E+00
    -2.706E+00   -2.718E+00   -2.729E+00   -2.740E+00   -2.752E+00   -2.763E+00   -2.774E+00   -2.786E+00   -2.797E+00   -2.808E+00
    -2.820E+00   -2.831E+00   -2.843E+00   -2.854E+00   -2.865E+00   -2.877E+00   -2.888E+00   -2.899E+00   -2.911E+00   -2.922E+00
    -2.933E+00   -2.945E+00   -2.956E+00   -2.967E+00   -2.979E+00   -2.990E+00   -3.001E+00   -3.013E+00   -3.024E+00   -3.036E+00
    -3.047E+00   -3.058E+00   -3.070E+00   -3.081E+00   -3.092E+00   -3.104E+00   -3.115E+00   -3.126E+00   -3.138E+00   -3.149E+00
    -3.160E+00   -3.172E+00   -3.183E+00   -3.194E+00   -3.206E+00   -3.217E+00   -3.228E+00   -3.240E+00   -3.251E+00   -3.262E+00
    -3.274E+00   -3.285E+00   -3.296E+00   -3.308E+00   -3.319E+00   -3.331E+00   -3.342E+00   -3.353E+00   -3.365E+00   -3.376E+00
    -3.387E+00   -3.399E+00   -3.410E+00   -3.421E+00   -3.433E+00   -3.444E+00   -3.455E+00   -3.467E+00   -3.478E+00   -3.489E+00
    -3.501E+00   -3.512E+00   -3.523E+00   -3.535E+00   -3.546E+00   -3.557E+00   -3.569E+00   -3.580E+00   -3.591E+00   -3.603E+00
    -3.614E+00   -3.625E+00   -3.637E+00   -3.648E+00   -3.659E+00   -3.670E+00   -3.682E+00   -3.693E+00   -3.704E+00   -3.716E+00
    -3.727E+00   -3.738E+00   -3.750E+00   -3.761E+00   -3.772E+00   -3.784E+00   -3.795E+00   -3.806E+00   -3.818E+00   -3.829E+00
    -3.840E+00   -3.852E+00   -3.863E+00   -3.874E+00   -3.886E+00   -3.897E+00   -3.908E+00   -3.920E+00   -3.931E+00   -3.942E+00
    -3.953E+00   -3.965E+00   -3.976E+00   -3.987E+00   -3.999E+00   -4.010E+00   -4.021E+00   -4.033E+00   -4.044E+00   -4.055E+00
    -4.067E+00   -4.078E+00   -4.089E+00   -4.100E+00   -4.112E+00   -4.123E+00   -4.134E+00   -4.146E+00   -4.157E+00   -4.168E+00
    -4.180E+00   -4.191E+00   -4.202E+00   -4.214E+00   -4.225E+00   -4.236E+00   -4.247E+00   -4.259E+00   -4.270E+00   -4.281E+00
    -4.293E+00   -4.304E+00   -4.315E+00   -4.327E+00   -4.338E+00   -4.349E+00   -4.360E+00   -4.372E+00   -4.383E+00   -4.394E+00
    -4.406E+00   -4.417E+00   -4.428E+00   -4.439E+00   -4.451E+00   -4.462E+00   -4.473E+00   -4.485E+00   -4.496E+00   -4.507E+00
    -4.518E+00   -4.530E+00   -4.541E+00   -4.552E+00   -4.564E+00   -4.575E+00   -4.586E+00   -4.597E+00   -4.609E+00   -4.620E+00
    -4.631E+00   -4.643E+00   -4.654E+00   -4.665E+00   -4.676E+00   -4.688E+00   -4.699E+00   -4.710E+00   -4.721E+00   -4.733E+00
    -4.744E+00   -4.755E+00   -4.767E+00   -4.778E+00   -4.789E+00   -4.800E+00   -4.812E+00   -4.823E+00   -4.834E+00   -4.845E+00
    -4.857E+00   -4.868E+00   -4.879E+00   -4.890E+00   -4.902E+00   -4.913E+00   -4.924E+00   -4.936E+00   -4.947E+00   -4.958E+00
    -4.969E+00   -4.981E+00   -4.992E+00   -5.003E+00   -5.014E+00   -5.026E+00   -5.037E+00   -5.048E+00   -5.059E+00   -5.071E+00
    -5.082E+00   -5.093E+00   -5.104E+00   -5.116E+00   -5.127E+00   -5.138E+00   -5.149E+00   -5.161E+00   -5.172E+00   -5.183E+00
    -5.194E+00   -5.206E+00   -5.217E+00   -5.228E+00   -5.239E+00   -5.251E+00   -5.262E+00   -5.273E+00
 Ala      Conc. = 3.72E+02
