 LCModel (Version 6.3-1L) Copyright: S.W. Provencher.          Ref.: Magn. Reson. Med. 30:672-679 (1993).                
 Slice#1 Row#5 Col#7  PD_05_press_2_raw_act
 36 lines in following concentration table = NCONC+1
    Conc.  %SD /Cr+PCr  Metabolite                                         
  434.775  79%   0.401 Ala                                                 
  147.147 144%   0.136 Asp                                                 
  713.121  83%   0.657 Cr                                                  
  372.410 160%   0.343 PCr                                                 
   89.930 142% 8.3E-02 GABA                                                
   97.480 131% 9.0E-02 Glc                                                 
 1.46E+03  47%   1.343 Gln                                                 
  850.346  89%   0.783 Glu                                                 
  277.817  21%   0.256 GPC                                                 
    0.000 999%   0.000 PCh                                                 
   38.014 586% 3.5E-02 GSH                                                 
    0.000 999%   0.000 Ins                                                 
    0.000 999%   0.000 Lac                                                 
 1.68E+03  11%   1.543 NAA                                                 
    0.000 999%   0.000 NAAG                                                
   35.285 109% 3.3E-02 Scyllo                                              
   90.535 229% 8.3E-02 Tau                                                 
    0.000 999%   0.000 -CrCH2                                              
  277.817  21%   0.256 GPC+PCh                                             
 1.68E+03  11%   1.543 NAA+NAAG                                            
 1.09E+03  14%   1.000 Cr+PCr                                              
 2.31E+03  46%   2.127 Glu+Gln                                             
 2.85E+03  43%   2.621 Lip13a                                              
   62.916 999% 5.8E-02 Lip13b                                              
    0.000 999%   0.000 Lip09                                               
 1.82E+03  21%   1.678 MM09                                                
  444.873  71%   0.410 Lip20                                               
 2.75E+03  22%   2.531 MM20                                                
  553.128  24%   0.510 MM12                                                
 1.58E+03  24%   1.455 MM14                                                
 1.01E+03  22%   0.929 MM17                                                
 2.91E+03  28%   2.679 Lip13a+Lip13b                                       
 5.04E+03  15%   4.643 MM14+Lip13a+Lip13b+MM12                             
 1.82E+03  21%   1.678 MM09+Lip09                                          
 3.19E+03  19%   2.941 MM20+Lip20                                          
   6 lines in following misc. output table
  FWHM = 0.046 ppm    S/N =   3                                            
  Data shift =-0.015 ppm                                                   
  Ph: -60 deg      -4.0 deg/ppm                                            
  alphaB,S = 8.5E+01,   2.6E+01                                            
   14 spline knots.   Ns = 6(1)                                            
  ( 8) 2 infls.   ( 5) 1 extrs.                                            
  498 points on ppm-axis = NY
      4.000000     3.992357     3.984714     3.977070     3.969427     3.961784     3.954141     3.946497     3.938854     3.931211
      3.923568     3.915925     3.908281     3.900638     3.892995     3.885352     3.877708     3.870065     3.862422     3.854779
      3.847136     3.839492     3.831849     3.824206     3.816563     3.808919     3.801276     3.793633     3.785990     3.778347
      3.770703     3.763060     3.755417     3.747774     3.740130     3.732487     3.724844     3.717201     3.709558     3.701914
      3.694271     3.686628     3.678985     3.671341     3.663698     3.656055     3.648412     3.640769     3.633125     3.625482
      3.617839     3.610196     3.602552     3.594909     3.587266     3.579623     3.571980     3.564336     3.556693     3.549050
      3.541407     3.533763     3.526120     3.518477     3.510834     3.503191     3.495547     3.487904     3.480261     3.472618
      3.464974     3.457331     3.449688     3.442045     3.434402     3.426758     3.419115     3.411472     3.403829     3.396185
      3.388542     3.380899     3.373256     3.365613     3.357969     3.350326     3.342683     3.335040     3.327396     3.319753
      3.312110     3.304467     3.296824     3.289180     3.281537     3.273894     3.266251     3.258607     3.250964     3.243321
      3.235678     3.228034     3.220391     3.212748     3.205105     3.197462     3.189818     3.182175     3.174532     3.166889
      3.159245     3.151602     3.143959     3.136316     3.128673     3.121029     3.113386     3.105743     3.098100     3.090456
      3.082813     3.075170     3.067527     3.059884     3.052240     3.044597     3.036954     3.029311     3.021667     3.014024
      3.006381     2.998738     2.991095     2.983451     2.975808     2.968165     2.960522     2.952878     2.945235     2.937592
      2.929949     2.922306     2.914662     2.907019     2.899376     2.891733     2.884089     2.876446     2.868803     2.861160
      2.853517     2.845873     2.838230     2.830587     2.822944     2.815300     2.807657     2.800014     2.792371     2.784728
      2.777084     2.769441     2.761798     2.754155     2.746511     2.738868     2.731225     2.723582     2.715939     2.708295
      2.700652     2.693009     2.685366     2.677722     2.670079     2.662436     2.654793     2.647150     2.639506     2.631863
      2.624220     2.616577     2.608933     2.601290     2.593647     2.586004     2.578361     2.570717     2.563074     2.555431
      2.547788     2.540144     2.532501     2.524858     2.517215     2.509572     2.501928     2.494285     2.486642     2.478999
      2.471355     2.463712     2.456069     2.448426     2.440783     2.433139     2.425496     2.417853     2.410210     2.402566
      2.394923     2.387280     2.379637     2.371994     2.364350     2.356707     2.349064     2.341421     2.333777     2.326134
      2.318491     2.310848     2.303205     2.295561     2.287918     2.280275     2.272632     2.264988     2.257345     2.249702
      2.242059     2.234416     2.226772     2.219129     2.211486     2.203843     2.196199     2.188556     2.180913     2.173270
      2.165627     2.157983     2.150340     2.142697     2.135054     2.127410     2.119767     2.112124     2.104481     2.096838
      2.089194     2.081551     2.073908     2.066265     2.058621     2.050978     2.043335     2.035692     2.028049     2.020405
      2.012762     2.005119     1.997476     1.989833     1.982190     1.974546     1.966903     1.959260     1.951617     1.943974
      1.936331     1.928688     1.921045     1.913402     1.905759     1.898115     1.890472     1.882829     1.875186     1.867543
      1.859900     1.852257     1.844614     1.836971     1.829327     1.821684     1.814041     1.806398     1.798755     1.791112
      1.783469     1.775826     1.768183     1.760540     1.752896     1.745253     1.737610     1.729967     1.722324     1.714681
      1.707038     1.699395     1.691752     1.684108     1.676465     1.668822     1.661179     1.653536     1.645893     1.638250
      1.630607     1.622964     1.615321     1.607677     1.600034     1.592391     1.584748     1.577105     1.569462     1.561819
      1.554176     1.546533     1.538890     1.531246     1.523603     1.515960     1.508317     1.500674     1.493031     1.485388
      1.477745     1.470102     1.462458     1.454815     1.447172     1.439529     1.431886     1.424243     1.416600     1.408957
      1.401314     1.393671     1.386027     1.378384     1.370741     1.363098     1.355455     1.347812     1.340169     1.332526
      1.324883     1.317240     1.309596     1.301953     1.294310     1.286667     1.279024     1.271381     1.263738     1.256095
      1.248452     1.240808     1.233165     1.225522     1.217879     1.210236     1.202593     1.194950     1.187307     1.179664
      1.172021     1.164377     1.156734     1.149091     1.141448     1.133805     1.126162     1.118519     1.110876     1.103233
      1.095590     1.087946     1.080303     1.072660     1.065017     1.057374     1.049731     1.042088     1.034445     1.026802
      1.019158     1.011515     1.003872     0.996229     0.988586     0.980943     0.973300     0.965657     0.958014     0.950371
      0.942727     0.935084     0.927441     0.919798     0.912155     0.904512     0.896869     0.889226     0.881583     0.873940
      0.866296     0.858653     0.851010     0.843367     0.835724     0.828081     0.820438     0.812795     0.805152     0.797508
      0.789865     0.782222     0.774579     0.766936     0.759293     0.751650     0.744007     0.736364     0.728721     0.721077
      0.713434     0.705791     0.698148     0.690505     0.682862     0.675219     0.667576     0.659933     0.652290     0.644646
      0.637003     0.629360     0.621717     0.614074     0.606431     0.598788     0.591145     0.583502     0.575858     0.568215
      0.560572     0.552929     0.545286     0.537643     0.530000     0.522357     0.514714     0.507071     0.499427     0.491784
      0.484141     0.476498     0.468855     0.461212     0.453569     0.445925     0.438282     0.430639     0.422996     0.415353
      0.407710     0.400067     0.392424     0.384780     0.377137     0.369494     0.361851     0.354208     0.346565     0.338922
      0.331278     0.323635     0.315992     0.308349     0.300706     0.293063     0.285420     0.277777     0.270133     0.262490
      0.254847     0.247204     0.239561     0.231918     0.224275     0.216631     0.208988     0.201345
 NY phased data points follow
  -8.49108E+00 -1.34112E+01 -3.73307E+01 -1.18271E+01 -1.74612E+01 -4.41601E+01 -7.52215E+00 -1.75982E+01  1.02958E+01  1.04726E+00
   1.58195E+01  3.45290E-01  1.50881E+01  3.23898E+00 -1.89299E+01  9.78234E-01  4.23639E+00 -4.08205E+01 -1.87598E+01 -1.04842E+01
   5.68172E+00 -2.30612E+01 -3.63531E+00 -2.63625E+01 -2.29223E+01 -4.54019E+00 -1.81733E+01 -2.20713E+01  3.16727E+00 -2.87795E+01
  -2.54564E+01 -2.98163E+01  5.91483E+00 -1.66273E+01 -2.87574E+01 -2.73767E+01 -1.97611E+01 -6.84894E+00 -3.34144E+01 -1.92571E+01
   1.17887E+00 -2.93859E+01 -2.89267E+01 -4.17995E+01 -1.37986E+01 -1.50748E+01 -2.94085E+01 -1.58725E+01 -5.03496E+00  1.98802E+00
  -2.39277E+01 -2.08549E+01 -3.90330E+01 -2.18476E+01 -1.24614E+01 -2.38992E+01 -3.29541E+01 -3.21189E+01 -1.42284E+01 -2.27933E+01
  -3.25548E+01 -1.92094E+01 -3.40405E+01 -4.15379E+01 -2.44192E+01 -2.40729E+01 -1.94784E+01 -2.90481E+01 -2.55948E+01 -2.90283E+01
  -3.19876E+01 -3.07340E+01 -2.42608E+01 -4.53004E+01 -1.58852E+01 -2.05907E+01 -1.35295E+01 -1.23351E+01  3.66811E-01 -1.93552E+01
  -1.74387E+01 -3.43461E+01 -3.91996E+01 -2.00090E+01 -1.60470E+01 -1.20836E+01 -8.59484E+00 -2.88203E+01 -1.37637E+01 -1.75436E+01
  -2.75208E+01 -2.12772E+01 -1.87610E+01 -1.81097E+01 -4.33902E+00 -2.58752E+01 -2.29339E+01 -2.39259E+01 -9.62050E+00 -1.49431E+01
  -7.87119E+00 -7.90991E+00  1.06160E+01  4.23454E+00  1.53992E+01  1.32151E+01  4.47470E+00 -1.55086E+01 -8.19591E+00 -2.68701E+01
  -3.30735E+01 -7.92027E+00 -5.85200E+00 -1.16478E+01 -2.52475E+01 -1.40822E+01 -1.57460E+01 -3.64244E+01 -1.59441E+01 -1.46154E+01
  -1.55057E+01 -1.18123E+01 -1.37055E+01  2.23505E+00  8.86932E+00  8.79820E+00  2.08154E+00  2.31782E+01  2.32079E+01  7.49030E+00
   2.92081E+00 -1.44446E+01 -7.01164E+00 -1.52948E+01 -1.12536E+01 -2.20994E+01 -2.86538E+01 -1.51248E+01 -2.15135E+00 -1.18610E+01
  -3.76702E+00 -3.13482E+01 -1.25847E+01 -3.82591E+01 -3.15299E+01 -3.55840E+01 -1.73412E+01 -3.34884E+01 -4.76517E+01 -2.97061E+01
  -1.40548E+01 -4.87099E+01 -2.20883E+01 -1.67534E+01 -3.79927E+01 -3.45975E+01 -1.48249E+01 -2.03312E+01 -7.44019E+00 -1.59726E+01
  -2.54063E+01 -2.11609E+01  6.16874E+00 -2.10099E+01 -8.70811E+00 -2.23173E+01 -5.85979E+00 -6.37457E+00 -1.42439E+01 -1.00355E+01
  -4.00171E+00 -3.14207E+01 -2.23389E+01 -4.68724E+01 -1.25212E+01 -2.26294E+01 -5.18335E+01 -1.52832E+01 -1.16588E+01 -1.93629E+01
  -2.68419E+01 -3.56604E+01 -2.30258E+01 -1.40179E+01 -1.90302E+01 -2.93630E+01 -2.72120E+01 -4.29779E+01 -2.35935E+01 -1.85341E+01
  -2.43675E+01 -1.03304E+01 -1.00922E+01 -1.47775E+01 -1.65182E+01 -3.57196E+01 -3.61681E+00 -2.82136E+01 -2.27061E+01 -8.35747E+00
  -9.12710E+00 -3.44900E+01 -2.10061E+01 -2.14004E+01 -6.92693E+00  3.24181E+00 -4.02403E+00 -1.99167E+01 -9.46818E+00 -3.16702E+01
  -2.63168E+01 -1.43504E+01 -2.70649E+01 -1.93969E+01  1.25283E+00 -7.38175E+00  2.13353E+01 -8.19607E+00 -3.52691E+00 -3.20584E+01
   1.03489E+00  2.84374E+00 -5.12757E-01 -1.58835E+01 -1.25313E+01 -1.81992E+01 -1.28178E+01 -1.11471E+01 -4.50854E+00 -9.40151E+00
  -1.04023E+01 -4.08626E+01 -3.77866E+00 -2.85040E+00  4.69684E+00 -1.85889E+00  1.62382E+01 -2.07167E+01 -1.19514E+00 -2.64639E+00
   1.98998E+00 -2.75794E+00 -2.13548E+01 -7.99642E+00 -1.56948E+01 -1.51505E+01 -3.50778E+00 -1.63764E+01 -1.00457E+01  6.60926E+00
  -2.25620E+01 -1.60060E+01 -1.61613E+01  1.58579E+01  8.73574E+00  1.07486E+01  1.22710E+01  2.79056E+01  3.41534E+01  4.24150E+01
   4.59984E+01  5.70517E+01  5.07148E+01  2.10190E+01  1.80473E+01  8.98336E+00 -5.85461E+00  2.03051E+01  1.41310E+01 -3.09901E+00
   1.00616E+00 -9.24983E+00 -1.11309E+00 -2.52896E+01 -3.51983E+00 -1.31930E+01 -1.14444E+01 -1.65731E+01  2.22027E+00 -3.18416E+01
   1.41711E+01 -1.36758E+00 -2.08004E+01  2.28260E-01 -1.17036E+01 -2.31018E+01 -6.08447E+00 -2.21757E+01 -2.76622E+01 -2.71955E+01
  -9.07654E+00 -1.95711E+01 -1.30260E+01 -2.73103E+01 -4.52071E+00 -2.06798E+01  1.88893E+00 -1.36830E+01  8.22342E+00 -1.68690E+01
  -1.00528E+01 -6.89543E+00  1.30676E+01 -3.60603E+00  7.12593E+00 -2.87118E+00  1.29473E+01 -1.55162E+00  1.14348E+01 -2.28558E+00
  -1.40502E+01  5.80723E+00  1.19856E+01  1.44515E+00  4.15959E+00  1.83406E+01  1.27811E+01  7.72184E+00  1.36807E+01  2.07138E+01
   9.63002E+00  1.92766E+01  1.08855E+00 -4.13892E+00 -2.02633E+01 -7.07231E+00  9.04867E+00  1.62346E+01  4.33435E+00 -2.58155E+01
   5.46614E+00 -1.97953E+01 -9.93551E+00 -6.85439E+00 -7.85099E+00  3.53600E+00 -1.61252E+01 -1.84678E+01  2.47996E+00 -5.97294E+00
  -8.49436E+00 -1.89411E+01 -8.96366E+00 -1.73647E+01  2.72202E+01 -5.99807E+00 -1.34135E+01 -2.21744E+00 -9.12836E-01  1.13289E+01
   4.26539E+00 -4.78203E+00  4.62111E+00  2.77435E+00  1.17350E+01  3.07361E+00  1.40801E+01  1.91335E+00 -7.54084E+00 -1.25072E+01
  -1.81852E+01  1.24387E+01  4.77126E+00 -1.04050E+01 -1.14585E+01  2.10616E+00  9.53291E+00  1.29008E+01  3.77488E+00  3.77526E+00
   6.11334E-01 -1.03947E+01 -7.73117E+00 -3.55523E+00  1.52313E+00  1.99725E+00  3.77928E+00 -2.32992E+01  3.70726E+00 -1.60649E+01
  -1.19601E+01 -2.16106E+00 -2.04150E+01 -2.06304E+01 -1.63266E+00 -1.60199E+01 -2.07979E+01 -2.83755E+01 -3.05939E+01 -2.04156E+01
  -4.02134E+01 -5.93188E+00 -1.26877E+01 -1.07585E+01 -1.24075E+01 -1.62633E+01 -3.22762E+01 -2.63912E+01 -9.04316E+00 -5.50793E+00
  -1.93300E+00 -1.38161E+01 -8.92073E+00 -1.61412E+00 -7.24329E-01  1.47402E+00 -2.23755E+01  9.83544E+00 -1.28768E+01 -1.17189E+01
  -7.82646E+00 -3.59848E+00 -2.84193E+01 -1.43808E+01  7.63963E+00 -1.99102E+01 -8.31855E+00  2.06668E+00  1.09880E+01 -6.01988E+00
  -2.09585E+01 -2.08373E+01 -3.50801E+01 -1.32484E+01 -1.21887E+01 -1.84558E+01 -2.18807E+01 -2.03756E+01 -2.01530E+01 -2.28332E+01
  -6.60223E+00 -1.12388E+01 -1.57047E+01 -2.04148E+01 -1.00108E+01 -2.07552E+01 -6.24374E-01 -1.57358E+01 -1.74897E+01 -2.17232E+01
  -2.97924E+01 -2.32195E+01 -2.33254E+00 -2.20712E+01 -1.12522E+01 -2.14049E+01 -4.52715E+00 -1.69389E+01 -2.55268E+01 -2.63025E+01
  -2.46644E+01 -8.29770E+00 -2.23855E+01 -2.37897E+01 -1.75097E+01 -2.57212E+01 -1.32326E+01 -7.22609E+00 -1.91553E+01 -1.66836E+01
   2.79750E-01 -2.43481E+01 -1.64741E+01 -1.04712E+01 -1.83059E+01 -1.60391E+01  7.41686E+00 -2.49735E+01  2.51938E+00 -1.38359E+01
  -1.30392E-03  2.36954E-01 -8.85639E+00 -3.13210E+01 -1.58255E+01 -1.95279E+01 -1.27931E+01 -1.83854E+01 -1.10021E+01 -1.70767E+01
  -1.43217E+01 -1.81968E+01 -1.36695E+01 -2.29963E+01 -1.53120E+01 -1.65373E+01 -2.52731E+01 -2.80247E+01 -1.50102E+01 -1.98802E+01
  -2.55637E+01 -1.00372E+01  3.08367E+00 -5.41668E+00 -1.61553E+01  4.27769E+00 -1.58200E+01 -1.69832E+00
 NY points of the fit to the data follow
  -2.29627E+01 -2.27504E+01 -2.23579E+01 -2.14675E+01 -1.99861E+01 -1.75140E+01 -1.41511E+01 -1.02332E+01 -5.87304E+00 -1.49957E+00
   2.08615E+00  3.78809E+00  2.72804E+00 -9.13441E-01 -5.69557E+00 -1.00744E+01 -1.34585E+01 -1.57858E+01 -1.75250E+01 -1.83054E+01
  -1.82757E+01 -1.80520E+01 -1.79304E+01 -1.80743E+01 -1.85665E+01 -1.95147E+01 -2.08196E+01 -2.20846E+01 -2.27095E+01 -2.21738E+01
  -2.05207E+01 -1.82563E+01 -1.61427E+01 -1.48134E+01 -1.48418E+01 -1.62984E+01 -1.84239E+01 -2.02733E+01 -2.12394E+01 -2.13074E+01
  -2.06685E+01 -1.97980E+01 -1.91573E+01 -1.87774E+01 -1.85954E+01 -1.85932E+01 -1.87980E+01 -1.90646E+01 -1.92374E+01 -1.93302E+01
  -1.93274E+01 -1.92614E+01 -1.92708E+01 -1.94395E+01 -1.96625E+01 -1.98535E+01 -2.00521E+01 -2.02914E+01 -2.05074E+01 -2.06631E+01
  -2.07519E+01 -2.07934E+01 -2.08229E+01 -2.08354E+01 -2.08323E+01 -2.08224E+01 -2.08154E+01 -2.08246E+01 -2.08533E+01 -2.08704E+01
  -2.08453E+01 -2.07782E+01 -2.06673E+01 -2.05228E+01 -2.03645E+01 -2.02174E+01 -2.01424E+01 -2.01787E+01 -2.03146E+01 -2.04585E+01
  -2.04513E+01 -2.02553E+01 -1.99495E+01 -1.95646E+01 -1.91138E+01 -1.86362E+01 -1.82362E+01 -1.81110E+01 -1.83755E+01 -1.88973E+01
  -1.94228E+01 -1.98157E+01 -2.00873E+01 -2.02954E+01 -2.03701E+01 -2.02022E+01 -1.94946E+01 -1.73073E+01 -1.39144E+01 -9.91959E+00
  -5.35901E+00 -2.26399E-01  5.22359E+00  9.41631E+00  9.92250E+00  5.93133E+00 -4.78399E-01 -6.48808E+00 -1.08920E+01 -1.40864E+01
  -1.67741E+01 -1.81539E+01 -1.84792E+01 -1.85462E+01 -1.85318E+01 -1.84741E+01 -1.83699E+01 -1.82276E+01 -1.80273E+01 -1.76649E+01
  -1.65538E+01 -1.34740E+01 -9.03742E+00 -3.79779E+00  2.28930E+00  9.19783E+00  1.63237E+01  2.12133E+01  2.07909E+01  1.46708E+01
   6.06365E+00 -1.60841E+00 -7.20066E+00 -1.14372E+01 -1.50004E+01 -1.66937E+01 -1.72426E+01 -1.75063E+01 -1.76290E+01 -1.76488E+01
  -1.76124E+01 -1.75793E+01 -1.75816E+01 -1.76136E+01 -1.76391E+01 -1.76571E+01 -1.77052E+01 -1.78027E+01 -1.79373E+01 -1.80698E+01
  -1.81726E+01 -1.82467E+01 -1.82981E+01 -1.83388E+01 -1.83844E+01 -1.84989E+01 -1.86901E+01 -1.89233E+01 -1.91854E+01 -1.94415E+01
  -1.97155E+01 -1.99405E+01 -1.99484E+01 -1.96744E+01 -1.92583E+01 -1.89737E+01 -1.90116E+01 -1.93276E+01 -1.97124E+01 -2.00776E+01
  -2.04436E+01 -2.08161E+01 -2.11365E+01 -2.13486E+01 -2.15061E+01 -2.16834E+01 -2.17955E+01 -2.16766E+01 -2.13220E+01 -2.09417E+01
  -2.07858E+01 -2.08626E+01 -2.08861E+01 -2.06318E+01 -2.02393E+01 -1.99253E+01 -1.96501E+01 -1.92840E+01 -1.87070E+01 -1.80260E+01
  -1.75349E+01 -1.73966E+01 -1.76152E+01 -1.80619E+01 -1.85492E+01 -1.89033E+01 -1.89129E+01 -1.84625E+01 -1.75671E+01 -1.61969E+01
  -1.43936E+01 -1.24165E+01 -1.07669E+01 -1.00278E+01 -1.07870E+01 -1.28258E+01 -1.56750E+01 -1.90834E+01 -2.25044E+01 -2.51392E+01
  -2.59818E+01 -2.44603E+01 -2.09999E+01 -1.68184E+01 -1.30844E+01 -1.03572E+01 -8.89400E+00 -8.84155E+00 -1.02899E+01 -1.24151E+01
  -1.42362E+01 -1.54995E+01 -1.60529E+01 -1.56594E+01 -1.41862E+01 -1.22150E+01 -1.05390E+01 -9.47843E+00 -8.95181E+00 -8.84072E+00
  -9.24685E+00 -9.96571E+00 -1.05806E+01 -1.08611E+01 -1.08579E+01 -1.05657E+01 -9.83046E+00 -8.52880E+00 -6.63936E+00 -4.79801E+00
  -3.75737E+00 -3.82999E+00 -4.91467E+00 -6.54923E+00 -8.16880E+00 -9.08047E+00 -9.10336E+00 -8.44170E+00 -7.28947E+00 -5.71921E+00
  -3.86036E+00 -2.11880E+00 -4.90244E-01  1.27582E+00  4.63121E+00  1.02586E+01  1.68244E+01  2.42579E+01  3.27421E+01  4.20724E+01
   5.00954E+01  5.21592E+01  4.52315E+01  3.19190E+01  1.81394E+01  7.50947E+00 -1.25812E-02 -6.11227E+00 -1.02861E+01 -1.16591E+01
  -1.22114E+01 -1.25455E+01 -1.27123E+01 -1.27536E+01 -1.27583E+01 -1.27822E+01 -1.28698E+01 -1.30346E+01 -1.32650E+01 -1.35229E+01
  -1.37799E+01 -1.40025E+01 -1.41589E+01 -1.42440E+01 -1.42640E+01 -1.42276E+01 -1.41516E+01 -1.40499E+01 -1.39288E+01 -1.37899E+01
  -1.36249E+01 -1.34284E+01 -1.31985E+01 -1.29283E+01 -1.26097E+01 -1.22393E+01 -1.18177E+01 -1.13464E+01 -1.08282E+01 -1.02714E+01
  -9.68534E+00 -9.07863E+00 -8.46371E+00 -7.85311E+00 -7.26016E+00 -6.69855E+00 -6.18108E+00 -5.71877E+00 -5.32027E+00 -4.99119E+00
  -4.73387E+00 -4.54677E+00 -4.42473E+00 -4.35903E+00 -4.33701E+00 -4.34301E+00 -4.35863E+00 -4.36211E+00 -4.32643E+00 -4.21302E+00
  -3.95112E+00 -3.44983E+00 -2.92250E+00 -2.57102E+00 -2.39464E+00 -2.46250E+00 -2.94309E+00 -4.16538E+00 -6.30138E+00 -8.69167E+00
  -1.02844E+01 -1.06663E+01 -9.99222E+00 -8.58983E+00 -6.55111E+00 -3.81377E+00 -1.12060E+00  5.38850E-01  9.91727E-01  7.25172E-01
   2.98447E-01 -5.35040E-02 -4.39447E-01 -7.51542E-01 -7.70012E-01 -6.26220E-01 -3.98769E-01 -1.22195E-01  1.81038E-01  4.91854E-01
   7.91678E-01  1.06167E+00  1.28301E+00  1.43780E+00  1.51023E+00  1.48794E+00  1.36320E+00  1.13372E+00  8.02735E-01  3.78342E-01
  -1.27749E-01 -7.01631E-01 -1.32855E+00 -1.99392E+00 -2.68410E+00 -3.38684E+00 -4.09142E+00 -4.78849E+00 -5.46974E+00 -6.12771E+00
  -6.75565E+00 -7.34758E+00 -7.89840E+00 -8.40378E+00 -8.86016E+00 -9.26468E+00 -9.61521E+00 -9.91032E+00 -1.01492E+01 -1.03316E+01
  -1.04572E+01 -1.05262E+01 -1.05388E+01 -1.04952E+01 -1.03960E+01 -1.02419E+01 -1.00334E+01 -9.77148E+00 -9.45772E+00 -9.09429E+00
  -8.68423E+00 -8.23159E+00 -7.74158E+00 -7.22083E+00 -6.67750E+00 -6.12134E+00 -5.56353E+00 -5.01642E+00 -4.49332E+00 -4.00816E+00
  -3.57503E+00 -3.20757E+00 -2.91828E+00 -2.71795E+00 -2.61511E+00 -2.61564E+00 -2.72244E+00 -2.93513E+00 -3.25003E+00 -3.66028E+00
  -4.15627E+00 -4.72614E+00 -5.35633E+00 -6.03215E+00 -6.73840E+00 -7.46013E+00 -8.18320E+00 -8.89486E+00 -9.58398E+00 -1.02413E+01
  -1.08596E+01 -1.14336E+01 -1.19600E+01 -1.24374E+01 -1.28658E+01 -1.32464E+01 -1.35812E+01 -1.38733E+01 -1.41260E+01 -1.43429E+01
  -1.45277E+01 -1.46841E+01 -1.48153E+01 -1.49245E+01 -1.50148E+01 -1.50887E+01 -1.51486E+01 -1.51965E+01 -1.52339E+01 -1.52626E+01
  -1.52838E+01 -1.52987E+01 -1.53080E+01 -1.53126E+01 -1.53131E+01 -1.53101E+01 -1.53042E+01 -1.52957E+01 -1.52849E+01 -1.52721E+01
  -1.52576E+01 -1.52416E+01 -1.52242E+01 -1.52058E+01 -1.51862E+01 -1.51657E+01 -1.51444E+01 -1.51224E+01 -1.50998E+01 -1.50766E+01
  -1.50529E+01 -1.50286E+01 -1.50040E+01 -1.49790E+01 -1.49537E+01 -1.49280E+01 -1.49020E+01 -1.48758E+01 -1.48494E+01 -1.48228E+01
  -1.47960E+01 -1.47690E+01 -1.47418E+01 -1.47144E+01 -1.46869E+01 -1.46593E+01 -1.46316E+01 -1.46037E+01 -1.45757E+01 -1.45475E+01
  -1.45193E+01 -1.44910E+01 -1.44625E+01 -1.44338E+01 -1.44051E+01 -1.43762E+01 -1.43472E+01 -1.43181E+01 -1.42888E+01 -1.42593E+01
  -1.42296E+01 -1.41998E+01 -1.41698E+01 -1.41395E+01 -1.41089E+01 -1.40780E+01 -1.40468E+01 -1.40153E+01
 NY background values follow
    -2.236E+01   -2.235E+01   -2.233E+01   -2.232E+01   -2.230E+01   -2.228E+01   -2.227E+01   -2.225E+01   -2.224E+01   -2.222E+01
    -2.221E+01   -2.219E+01   -2.217E+01   -2.216E+01   -2.214E+01   -2.213E+01   -2.211E+01   -2.209E+01   -2.208E+01   -2.206E+01
    -2.205E+01   -2.203E+01   -2.202E+01   -2.200E+01   -2.198E+01   -2.197E+01   -2.195E+01   -2.193E+01   -2.192E+01   -2.190E+01
    -2.189E+01   -2.187E+01   -2.185E+01   -2.184E+01   -2.182E+01   -2.180E+01   -2.179E+01   -2.177E+01   -2.176E+01   -2.174E+01
    -2.172E+01   -2.171E+01   -2.169E+01   -2.167E+01   -2.166E+01   -2.164E+01   -2.162E+01   -2.161E+01   -2.159E+01   -2.157E+01
    -2.156E+01   -2.154E+01   -2.152E+01   -2.151E+01   -2.149E+01   -2.147E+01   -2.146E+01   -2.144E+01   -2.142E+01   -2.141E+01
    -2.139E+01   -2.137E+01   -2.136E+01   -2.134E+01   -2.132E+01   -2.130E+01   -2.129E+01   -2.127E+01   -2.125E+01   -2.124E+01
    -2.122E+01   -2.120E+01   -2.119E+01   -2.117E+01   -2.115E+01   -2.113E+01   -2.112E+01   -2.110E+01   -2.108E+01   -2.106E+01
    -2.105E+01   -2.103E+01   -2.101E+01   -2.100E+01   -2.098E+01   -2.096E+01   -2.094E+01   -2.093E+01   -2.091E+01   -2.089E+01
    -2.087E+01   -2.086E+01   -2.084E+01   -2.082E+01   -2.080E+01   -2.079E+01   -2.077E+01   -2.075E+01   -2.073E+01   -2.072E+01
    -2.070E+01   -2.068E+01   -2.066E+01   -2.064E+01   -2.063E+01   -2.061E+01   -2.059E+01   -2.057E+01   -2.056E+01   -2.054E+01
    -2.052E+01   -2.050E+01   -2.048E+01   -2.047E+01   -2.045E+01   -2.043E+01   -2.041E+01   -2.039E+01   -2.038E+01   -2.036E+01
    -2.034E+01   -2.032E+01   -2.030E+01   -2.029E+01   -2.027E+01   -2.025E+01   -2.023E+01   -2.021E+01   -2.019E+01   -2.018E+01
    -2.016E+01   -2.014E+01   -2.012E+01   -2.010E+01   -2.008E+01   -2.007E+01   -2.005E+01   -2.003E+01   -2.001E+01   -1.999E+01
    -1.997E+01   -1.996E+01   -1.994E+01   -1.992E+01   -1.990E+01   -1.988E+01   -1.986E+01   -1.984E+01   -1.983E+01   -1.981E+01
    -1.979E+01   -1.977E+01   -1.975E+01   -1.973E+01   -1.971E+01   -1.970E+01   -1.968E+01   -1.966E+01   -1.964E+01   -1.962E+01
    -1.960E+01   -1.958E+01   -1.956E+01   -1.955E+01   -1.953E+01   -1.951E+01   -1.949E+01   -1.947E+01   -1.945E+01   -1.943E+01
    -1.941E+01   -1.939E+01   -1.938E+01   -1.936E+01   -1.934E+01   -1.932E+01   -1.930E+01   -1.928E+01   -1.926E+01   -1.924E+01
    -1.922E+01   -1.920E+01   -1.919E+01   -1.917E+01   -1.915E+01   -1.913E+01   -1.911E+01   -1.909E+01   -1.907E+01   -1.905E+01
    -1.903E+01   -1.901E+01   -1.899E+01   -1.897E+01   -1.895E+01   -1.893E+01   -1.892E+01   -1.890E+01   -1.888E+01   -1.886E+01
    -1.884E+01   -1.882E+01   -1.880E+01   -1.878E+01   -1.876E+01   -1.874E+01   -1.872E+01   -1.870E+01   -1.868E+01   -1.866E+01
    -1.864E+01   -1.862E+01   -1.860E+01   -1.858E+01   -1.857E+01   -1.855E+01   -1.853E+01   -1.851E+01   -1.849E+01   -1.847E+01
    -1.845E+01   -1.843E+01   -1.841E+01   -1.839E+01   -1.837E+01   -1.835E+01   -1.833E+01   -1.831E+01   -1.829E+01   -1.827E+01
    -1.825E+01   -1.823E+01   -1.821E+01   -1.819E+01   -1.817E+01   -1.815E+01   -1.813E+01   -1.811E+01   -1.809E+01   -1.807E+01
    -1.805E+01   -1.803E+01   -1.801E+01   -1.799E+01   -1.797E+01   -1.795E+01   -1.793E+01   -1.791E+01   -1.789E+01   -1.787E+01
    -1.785E+01   -1.783E+01   -1.781E+01   -1.779E+01   -1.777E+01   -1.775E+01   -1.773E+01   -1.771E+01   -1.769E+01   -1.767E+01
    -1.765E+01   -1.763E+01   -1.761E+01   -1.759E+01   -1.757E+01   -1.755E+01   -1.753E+01   -1.751E+01   -1.749E+01   -1.747E+01
    -1.745E+01   -1.743E+01   -1.741E+01   -1.739E+01   -1.737E+01   -1.735E+01   -1.733E+01   -1.731E+01   -1.728E+01   -1.726E+01
    -1.724E+01   -1.722E+01   -1.720E+01   -1.718E+01   -1.716E+01   -1.714E+01   -1.712E+01   -1.710E+01   -1.708E+01   -1.706E+01
    -1.704E+01   -1.702E+01   -1.700E+01   -1.698E+01   -1.696E+01   -1.694E+01   -1.692E+01   -1.690E+01   -1.688E+01   -1.685E+01
    -1.683E+01   -1.681E+01   -1.679E+01   -1.677E+01   -1.675E+01   -1.673E+01   -1.671E+01   -1.669E+01   -1.667E+01   -1.665E+01
    -1.663E+01   -1.661E+01   -1.659E+01   -1.657E+01   -1.655E+01   -1.652E+01   -1.650E+01   -1.648E+01   -1.646E+01   -1.644E+01
    -1.642E+01   -1.640E+01   -1.638E+01   -1.636E+01   -1.634E+01   -1.632E+01   -1.630E+01   -1.628E+01   -1.625E+01   -1.623E+01
    -1.621E+01   -1.619E+01   -1.617E+01   -1.615E+01   -1.613E+01   -1.611E+01   -1.609E+01   -1.607E+01   -1.605E+01   -1.602E+01
    -1.600E+01   -1.598E+01   -1.596E+01   -1.594E+01   -1.592E+01   -1.590E+01   -1.588E+01   -1.586E+01   -1.584E+01   -1.582E+01
    -1.579E+01   -1.577E+01   -1.575E+01   -1.573E+01   -1.571E+01   -1.569E+01   -1.567E+01   -1.565E+01   -1.563E+01   -1.561E+01
    -1.558E+01   -1.556E+01   -1.554E+01   -1.552E+01   -1.550E+01   -1.548E+01   -1.546E+01   -1.544E+01   -1.542E+01   -1.539E+01
    -1.537E+01   -1.535E+01   -1.533E+01   -1.531E+01   -1.529E+01   -1.527E+01   -1.525E+01   -1.523E+01   -1.520E+01   -1.518E+01
    -1.516E+01   -1.514E+01   -1.512E+01   -1.510E+01   -1.508E+01   -1.506E+01   -1.503E+01   -1.501E+01   -1.499E+01   -1.497E+01
    -1.495E+01   -1.493E+01   -1.491E+01   -1.489E+01   -1.486E+01   -1.484E+01   -1.482E+01   -1.480E+01   -1.478E+01   -1.476E+01
    -1.474E+01   -1.472E+01   -1.469E+01   -1.467E+01   -1.465E+01   -1.463E+01   -1.461E+01   -1.459E+01   -1.457E+01   -1.455E+01
    -1.452E+01   -1.450E+01   -1.448E+01   -1.446E+01   -1.444E+01   -1.442E+01   -1.440E+01   -1.438E+01   -1.435E+01   -1.433E+01
    -1.431E+01   -1.429E+01   -1.427E+01   -1.425E+01   -1.423E+01   -1.420E+01   -1.418E+01   -1.416E+01   -1.414E+01   -1.412E+01
    -1.410E+01   -1.408E+01   -1.405E+01   -1.403E+01   -1.401E+01   -1.399E+01   -1.397E+01   -1.395E+01   -1.393E+01   -1.391E+01
    -1.388E+01   -1.386E+01   -1.384E+01   -1.382E+01   -1.380E+01   -1.378E+01   -1.376E+01   -1.373E+01   -1.371E+01   -1.369E+01
    -1.367E+01   -1.365E+01   -1.363E+01   -1.361E+01   -1.358E+01   -1.356E+01   -1.354E+01   -1.352E+01   -1.350E+01   -1.348E+01
    -1.346E+01   -1.343E+01   -1.341E+01   -1.339E+01   -1.337E+01   -1.335E+01   -1.333E+01   -1.331E+01   -1.328E+01   -1.326E+01
    -1.324E+01   -1.322E+01   -1.320E+01   -1.318E+01   -1.315E+01   -1.313E+01   -1.311E+01   -1.309E+01   -1.307E+01   -1.305E+01
    -1.303E+01   -1.300E+01   -1.298E+01   -1.296E+01   -1.294E+01   -1.292E+01   -1.290E+01   -1.288E+01   -1.285E+01   -1.283E+01
    -1.281E+01   -1.279E+01   -1.277E+01   -1.275E+01   -1.273E+01   -1.270E+01   -1.268E+01   -1.266E+01
 Ala      Conc. = 4.35E+02
