 LCModel (Version 6.3-1L) Copyright: S.W. Provencher.          Ref.: Magn. Reson. Med. 30:672-679 (1993).                
 Slice#2 Row#12 Col#10  PD_05_press_2_raw_act
 36 lines in following concentration table = NCONC+1
    Conc.  %SD /Cr+PCr  Metabolite                                         
    0.000 999%   0.000 Ala                                                 
    2.939 128% 7.5E-02 Asp                                                 
   38.943  51%   1.000 Cr                                                  
    0.000 999%   0.000 PCr                                                 
    1.678 135% 4.3E-02 GABA                                                
    1.746 130% 4.5E-02 Glc                                                 
  209.307  46%   5.375 Gln                                                 
  152.697  70%   3.921 Glu                                                 
    4.047 999%   0.104 GPC                                                 
    2.642 999% 6.8E-02 PCh                                                 
   14.525 201%   0.373 GSH                                                 
   49.639 180%   1.275 Ins                                                 
    0.000 999%   0.000 Lac                                                 
    0.000 999%   0.000 NAA                                                 
    0.000 999%   0.000 NAAG                                                
    0.580 130% 1.5E-02 Scyllo                                              
    2.914 129% 7.5E-02 Tau                                                 
    4.082 143%   0.105 -CrCH2                                              
    6.688 114%   0.172 GPC+PCh                                             
    0.000 999%   0.000 NAA+NAAG                                            
   38.943  51%   1.000 Cr+PCr                                              
  362.004  44%   9.296 Glu+Gln                                             
 1.51E+03  12%  38.736 Lip13a                                              
  240.637  34%   6.179 Lip13b                                              
  363.142  20%   9.325 Lip09                                               
    0.000 999%   0.000 MM09                                                
   71.067  90%   1.825 Lip20                                               
    0.000 999%   0.000 MM20                                                
 5.50E-02 999% 1.4E-03 MM12                                                
    3.148 358% 8.1E-02 MM14                                                
    0.000 999%   0.000 MM17                                                
 1.75E+03  10%  44.916 Lip13a+Lip13b                                       
 1.75E+03  10%  44.998 MM14+Lip13a+Lip13b+MM12                             
  363.142  20%   9.325 MM09+Lip09                                          
   71.067  90%   1.825 MM20+Lip20                                          
   6 lines in following misc. output table
  FWHM = 0.046 ppm    S/N =   3                                            
  Data shift =-0.031 ppm                                                   
  Ph:  78 deg     -22.3 deg/ppm                                            
  alphaB,S = 8.5E+01,   2.6E+01                                            
   14 spline knots.   Ns = 5(1)                                            
   2 inflections.     1 extrema                                            
  498 points on ppm-axis = NY
      4.000000     3.992357     3.984714     3.977070     3.969427     3.961784     3.954141     3.946497     3.938854     3.931211
      3.923568     3.915925     3.908281     3.900638     3.892995     3.885352     3.877708     3.870065     3.862422     3.854779
      3.847136     3.839492     3.831849     3.824206     3.816563     3.808919     3.801276     3.793633     3.785990     3.778347
      3.770703     3.763060     3.755417     3.747774     3.740130     3.732487     3.724844     3.717201     3.709558     3.701914
      3.694271     3.686628     3.678985     3.671341     3.663698     3.656055     3.648412     3.640769     3.633125     3.625482
      3.617839     3.610196     3.602552     3.594909     3.587266     3.579623     3.571980     3.564336     3.556693     3.549050
      3.541407     3.533763     3.526120     3.518477     3.510834     3.503191     3.495547     3.487904     3.480261     3.472618
      3.464974     3.457331     3.449688     3.442045     3.434402     3.426758     3.419115     3.411472     3.403829     3.396185
      3.388542     3.380899     3.373256     3.365613     3.357969     3.350326     3.342683     3.335040     3.327396     3.319753
      3.312110     3.304467     3.296824     3.289180     3.281537     3.273894     3.266251     3.258607     3.250964     3.243321
      3.235678     3.228034     3.220391     3.212748     3.205105     3.197462     3.189818     3.182175     3.174532     3.166889
      3.159245     3.151602     3.143959     3.136316     3.128673     3.121029     3.113386     3.105743     3.098100     3.090456
      3.082813     3.075170     3.067527     3.059884     3.052240     3.044597     3.036954     3.029311     3.021667     3.014024
      3.006381     2.998738     2.991095     2.983451     2.975808     2.968165     2.960522     2.952878     2.945235     2.937592
      2.929949     2.922306     2.914662     2.907019     2.899376     2.891733     2.884089     2.876446     2.868803     2.861160
      2.853517     2.845873     2.838230     2.830587     2.822944     2.815300     2.807657     2.800014     2.792371     2.784728
      2.777084     2.769441     2.761798     2.754155     2.746511     2.738868     2.731225     2.723582     2.715939     2.708295
      2.700652     2.693009     2.685366     2.677722     2.670079     2.662436     2.654793     2.647150     2.639506     2.631863
      2.624220     2.616577     2.608933     2.601290     2.593647     2.586004     2.578361     2.570717     2.563074     2.555431
      2.547788     2.540144     2.532501     2.524858     2.517215     2.509572     2.501928     2.494285     2.486642     2.478999
      2.471355     2.463712     2.456069     2.448426     2.440783     2.433139     2.425496     2.417853     2.410210     2.402566
      2.394923     2.387280     2.379637     2.371994     2.364350     2.356707     2.349064     2.341421     2.333777     2.326134
      2.318491     2.310848     2.303205     2.295561     2.287918     2.280275     2.272632     2.264988     2.257345     2.249702
      2.242059     2.234416     2.226772     2.219129     2.211486     2.203843     2.196199     2.188556     2.180913     2.173270
      2.165627     2.157983     2.150340     2.142697     2.135054     2.127410     2.119767     2.112124     2.104481     2.096838
      2.089194     2.081551     2.073908     2.066265     2.058621     2.050978     2.043335     2.035692     2.028049     2.020405
      2.012762     2.005119     1.997476     1.989833     1.982190     1.974546     1.966903     1.959260     1.951617     1.943974
      1.936331     1.928688     1.921045     1.913402     1.905759     1.898115     1.890472     1.882829     1.875186     1.867543
      1.859900     1.852257     1.844614     1.836971     1.829327     1.821684     1.814041     1.806398     1.798755     1.791112
      1.783469     1.775826     1.768183     1.760540     1.752896     1.745253     1.737610     1.729967     1.722324     1.714681
      1.707038     1.699395     1.691752     1.684108     1.676465     1.668822     1.661179     1.653536     1.645893     1.638250
      1.630607     1.622964     1.615321     1.607677     1.600034     1.592391     1.584748     1.577105     1.569462     1.561819
      1.554176     1.546533     1.538890     1.531246     1.523603     1.515960     1.508317     1.500674     1.493031     1.485388
      1.477745     1.470102     1.462458     1.454815     1.447172     1.439529     1.431886     1.424243     1.416600     1.408957
      1.401314     1.393671     1.386027     1.378384     1.370741     1.363098     1.355455     1.347812     1.340169     1.332526
      1.324883     1.317240     1.309596     1.301953     1.294310     1.286667     1.279024     1.271381     1.263738     1.256095
      1.248452     1.240808     1.233165     1.225522     1.217879     1.210236     1.202593     1.194950     1.187307     1.179664
      1.172021     1.164377     1.156734     1.149091     1.141448     1.133805     1.126162     1.118519     1.110876     1.103233
      1.095590     1.087946     1.080303     1.072660     1.065017     1.057374     1.049731     1.042088     1.034445     1.026802
      1.019158     1.011515     1.003872     0.996229     0.988586     0.980943     0.973300     0.965657     0.958014     0.950371
      0.942727     0.935084     0.927441     0.919798     0.912155     0.904512     0.896869     0.889226     0.881583     0.873940
      0.866296     0.858653     0.851010     0.843367     0.835724     0.828081     0.820438     0.812795     0.805152     0.797508
      0.789865     0.782222     0.774579     0.766936     0.759293     0.751650     0.744007     0.736364     0.728721     0.721077
      0.713434     0.705791     0.698148     0.690505     0.682862     0.675219     0.667576     0.659933     0.652290     0.644646
      0.637003     0.629360     0.621717     0.614074     0.606431     0.598788     0.591145     0.583502     0.575858     0.568215
      0.560572     0.552929     0.545286     0.537643     0.530000     0.522357     0.514714     0.507071     0.499427     0.491784
      0.484141     0.476498     0.468855     0.461212     0.453569     0.445925     0.438282     0.430639     0.422996     0.415353
      0.407710     0.400067     0.392424     0.384780     0.377137     0.369494     0.361851     0.354208     0.346565     0.338922
      0.331278     0.323635     0.315992     0.308349     0.300706     0.293063     0.285420     0.277777     0.270133     0.262490
      0.254847     0.247204     0.239561     0.231918     0.224275     0.216631     0.208988     0.201345
 NY phased data points follow
   3.49985E+00 -1.44272E+00 -6.87245E-01 -1.74791E+00 -6.27778E-01  4.27253E-01 -2.02760E+00 -8.01743E-01 -5.24315E-01 -1.41351E-01
   3.03097E+00  1.44120E+00 -2.25358E+00 -1.42635E+00  4.36230E+00 -4.78702E-01  1.29194E+00  1.69374E+00 -1.99538E+00 -7.01161E-01
  -1.32103E+00  1.77027E-01  3.61693E-01 -8.10481E-01  6.31387E-01  2.31052E+00 -2.64337E+00 -6.97464E-01  4.54513E-01  3.40853E-02
   2.10318E+00  1.52097E+00 -1.44891E+00  1.09252E+00  4.14441E-01 -2.39323E+00 -2.55590E-01  2.19226E-01 -2.41439E+00 -1.25969E+00
  -2.11675E+00  2.70542E+00 -2.87804E+00  1.63758E+00  4.45968E-02 -1.94527E+00  5.72937E-01 -2.39321E-01  3.79737E-01  1.04951E+00
  -1.13566E+00  1.38277E+00  2.17811E+00  1.14706E+00 -1.78486E-01 -2.28500E+00  2.64121E-01 -4.45576E-03  6.56586E-02 -7.95416E-01
  -1.75679E+00  2.01219E+00 -1.48142E+00 -1.18407E+00 -1.65669E-01 -6.70829E-01  5.33223E-01  1.43691E+00 -1.23971E+00  8.91123E-01
   1.35561E+00 -1.82030E+00  9.62303E-02 -2.05879E+00 -1.85795E+00 -1.97913E+00  7.90281E-01 -2.37268E+00 -1.57547E+00 -1.75797E+00
   5.34772E-01 -1.71321E+00  4.59510E-01 -7.25124E-01  2.89368E+00 -2.76811E+00 -5.37972E+00  6.00957E-01  1.09305E+00 -1.99354E-01
   2.28184E+00 -2.72095E+00 -2.00127E+00  7.59862E-01 -7.30008E-01 -7.73286E-01 -1.05782E+00 -1.42974E+00  1.51091E+00 -2.07902E+00
  -1.38451E+00  9.40477E-01  4.38049E-01  1.76051E+00 -1.95414E+00  5.91308E-01  7.13893E-01 -1.32873E+00  6.45858E-01 -1.05185E+00
  -6.24049E-01  9.05633E-01  1.69812E+00  8.83316E-01 -1.63493E+00 -9.25740E-01  2.54473E+00  1.60395E+00  7.87625E-02 -1.36997E+00
  -3.41345E+00  2.11679E+00  2.36754E+00 -2.27694E-01  1.36480E+00 -1.23609E-01 -7.61468E-01  1.33258E+00  1.63977E+00  1.68505E+00
  -5.61082E-01 -1.22876E+00 -2.69794E+00  7.34448E-02  1.60523E+00  2.06253E+00 -7.46365E-01  2.80119E+00  1.46618E+00  3.19443E-01
   3.04750E+00 -6.02943E-01  2.97191E-01 -2.21206E+00 -2.92661E-01 -1.94853E+00 -4.08949E+00  2.05251E+00 -5.46668E-01  1.04260E+00
  -3.15976E-01 -9.63108E-01  1.17915E+00 -1.70542E+00 -8.84581E-01  2.84501E-01  6.66389E-02 -9.67825E-01 -7.13399E-01  3.99139E-01
   6.95201E-01 -5.85209E-01  6.02401E-01 -1.21039E+00 -1.19499E+00 -2.25946E+00 -3.98392E-01  3.85467E-01  2.94998E+00  9.25946E-01
  -3.65993E+00 -1.32960E+00 -2.46294E+00 -1.24900E+00 -3.39598E-01 -1.26099E+00  3.12561E-02 -2.61469E-01 -4.48264E-01 -6.62857E-01
  -1.72566E-02  2.08405E-01  1.51441E+00 -3.39840E-01 -5.03682E-01  3.45977E-01  1.92438E+00  1.52121E+00  2.25386E+00 -1.62781E+00
  -1.77092E-03 -8.83490E-01  1.48317E+00  2.55856E-01 -2.01632E+00 -1.63343E+00 -1.93381E+00 -5.23593E-01  1.02347E+00  9.79479E-02
   1.58539E+00  2.08696E+00  2.20631E-01  1.35331E+00 -5.42206E-02 -1.03563E+00 -9.95724E-01 -4.41087E+00 -1.32163E+00  1.19727E+00
  -1.02155E+00 -1.12456E+00  1.68702E+00  8.56219E-03 -1.59274E+00 -8.18497E-01 -1.40800E+00  1.92856E+00 -1.28082E+00 -2.47316E+00
  -2.15003E+00 -3.85498E+00 -2.10745E-01 -4.50358E-01 -8.73030E-01 -3.05791E-02 -1.90034E-01 -2.31706E-01 -1.51300E-01 -3.89244E-01
  -2.33964E+00  3.28231E-01 -2.48725E+00  2.54258E-01 -3.30766E+00 -1.45725E+00  8.25112E-01 -5.34514E-01 -7.06228E-01  1.54131E+00
  -1.63429E+00 -3.78534E+00 -3.37511E-01 -1.90623E+00 -1.78068E+00 -1.39202E+00 -2.67393E+00 -3.96008E+00  1.63888E+00 -1.01543E+00
  -3.53022E+00 -2.41779E+00  4.13280E-02 -5.61160E-02 -2.45134E+00 -7.39917E-01 -2.49135E+00 -8.78541E-01  1.36215E+00 -1.45906E+00
   4.93109E-01  2.03785E+00 -5.17176E-01  1.22789E+00 -2.75866E+00 -4.21411E+00 -2.13362E+00 -1.29807E+00  1.66952E+00  2.37469E+00
   8.92694E-01  1.63564E+00 -3.48688E+00 -3.48044E-01 -8.36341E-02  1.38288E-01 -4.53784E+00 -1.02430E+00 -1.53977E-01  1.44694E+00
  -2.96565E-01  3.95350E-01 -2.10254E+00 -1.83962E-01 -3.61615E-01 -1.09738E-01  2.88151E-01 -4.38635E-01  7.87685E-02 -4.67251E-01
   4.03215E-01 -3.42104E+00 -2.58432E+00 -2.21994E+00 -4.11155E-02  4.78426E-01 -3.38647E+00 -1.01606E+00  5.60669E-01  3.68502E-01
   7.87261E-02 -2.03806E+00 -1.41227E+00  1.15491E+00  8.54428E-01  2.41339E+00  3.47339E-01 -1.06673E+00  1.64954E+00 -7.11106E-01
   1.76747E+00 -7.59098E-02  5.97294E+00  2.16760E+00  2.08355E+00  6.27277E-01  3.28884E+00  8.84493E-01 -7.46959E-01 -1.20896E+00
   1.86172E-01  2.90916E+00  2.49405E+00  3.10705E-01  1.11715E-01  2.72344E+00  3.29301E+00  3.29169E+00  3.51609E+00  1.22222E+00
   2.23392E+00  3.36511E+00  5.57548E+00  2.04000E+00  3.12173E+00  3.40736E+00  2.44738E+00  4.15137E+00  3.89292E+00  4.48677E+00
   4.14083E+00  3.90678E+00  1.10797E+00  3.86708E+00  1.23220E+00  5.71755E+00  7.60915E+00  5.60689E+00  6.52017E+00  8.92686E+00
   9.75908E+00  1.03557E+01  9.60694E+00  8.46186E+00  7.72307E+00  7.26545E+00  9.02129E+00  9.31759E+00  6.74909E+00  8.71186E+00
   4.65587E+00  6.69816E+00  6.68069E+00  3.36707E+00  4.32314E+00  4.53601E+00  1.32362E+00  2.82170E+00  4.24898E+00  4.11042E+00
   4.16283E+00  1.77177E+00  5.32186E+00  3.35554E+00  4.11400E+00  4.59926E+00  1.99066E+00  4.48675E+00  4.24726E+00  2.86232E+00
   3.04617E+00  4.91348E+00  6.35986E+00  2.77159E+00  2.65365E+00  2.09697E+00  1.29745E+00  4.98725E+00  2.02191E+00  1.95287E+00
   3.80836E+00  2.86294E+00 -1.57758E-01 -5.75228E-01 -3.69768E-01  2.88791E+00  3.44115E+00  2.46028E+00  1.46345E+00  1.39256E+00
   4.00785E+00  1.25259E+00 -6.27071E-01 -1.14829E+00  8.11528E-01  1.19756E+00  1.74312E+00  8.36239E-01  4.19134E+00  4.54074E+00
   1.43046E-01  4.04409E-01  6.73786E-01  8.76192E-01  7.12405E-01  1.62279E+00 -1.40334E+00  7.99266E-01 -1.03012E+00  6.98169E-01
   1.11050E+00  2.32099E+00  1.94118E+00  1.77712E+00 -5.10957E-01  6.20669E-01  4.75807E+00  2.11836E+00  3.58232E-01 -8.45831E-01
   2.18622E+00  1.99197E+00  2.35054E+00  1.14328E+00  2.19232E+00  2.29366E+00  2.21982E+00  2.33795E-01  1.66753E+00 -2.14588E-02
  -1.36270E+00 -1.80878E-01 -5.91176E-01  2.08890E+00  1.86381E-01  1.05790E+00 -8.60971E-01 -9.26666E-02 -6.26282E-02  3.74205E+00
   3.56324E+00 -4.77085E-01  9.87676E-01  3.25554E-01  1.13762E+00  1.38256E+00  2.41301E+00  1.97730E+00 -8.23219E-01  2.17662E+00
   2.08367E+00  1.67644E+00  4.63191E-01 -2.45861E+00 -4.71023E-01 -3.21654E+00  1.14748E+00  9.84105E-01  6.74026E-01  8.53491E-01
   1.47291E+00 -4.18797E-01 -2.72300E-01  1.08227E+00 -1.66655E+00 -4.46057E-01  4.42226E-01 -1.48347E-02  2.22167E+00 -1.43627E+00
   2.76764E-01  1.85152E+00 -1.60761E-01  3.84923E-01  8.68128E-01  1.60025E+00  5.88278E-01 -3.69633E-01  6.94737E-01 -2.00406E-01
   1.08817E-01  2.26141E+00 -6.18744E-01 -8.21143E-01 -7.73782E-01  5.98121E-01 -4.63019E-01  6.64641E-01
 NY points of the fit to the data follow
  -5.51652E-01 -5.60609E-01 -5.63320E-01 -5.61777E-01 -5.65098E-01 -5.49576E-01 -4.16689E-01 -1.46502E-01  1.39896E-01  3.28246E-01
   3.71366E-01  2.98341E-01  1.68993E-01  3.12384E-02 -8.54629E-02 -1.75958E-01 -2.52358E-01 -3.06940E-01 -3.06347E-01 -2.49620E-01
  -1.61215E-01 -1.11828E-01 -1.78478E-01 -3.83503E-01 -6.46496E-01 -8.23166E-01 -8.06788E-01 -4.99476E-01  9.37314E-03  5.07144E-01
   7.98869E-01  7.96062E-01  5.33603E-01  1.07882E-01 -3.11712E-01 -5.83935E-01 -6.78840E-01 -6.52784E-01 -5.76949E-01 -4.76917E-01
  -3.84489E-01 -3.08938E-01 -2.21218E-01 -1.00968E-01  1.48974E-02  6.89927E-02  4.71454E-02 -3.35568E-02 -1.46006E-01 -2.60498E-01
  -3.56168E-01 -4.24913E-01 -4.71571E-01 -5.03690E-01 -5.11379E-01 -4.84035E-01 -4.33294E-01 -3.79079E-01 -3.43039E-01 -3.35812E-01
  -3.56108E-01 -3.94066E-01 -4.33313E-01 -4.61365E-01 -4.73899E-01 -4.75105E-01 -4.68326E-01 -4.49517E-01 -4.22809E-01 -3.96812E-01
  -3.78823E-01 -3.70383E-01 -3.70969E-01 -3.79217E-01 -3.92320E-01 -4.07470E-01 -4.21939E-01 -4.34494E-01 -4.44032E-01 -4.48614E-01
  -4.49617E-01 -4.48226E-01 -4.53609E-01 -4.74912E-01 -5.12922E-01 -5.55750E-01 -5.88533E-01 -6.02462E-01 -5.97202E-01 -5.77123E-01
  -5.50184E-01 -5.21335E-01 -4.93898E-01 -4.73692E-01 -4.65122E-01 -4.68410E-01 -4.75224E-01 -4.57169E-01 -3.46670E-01 -1.47785E-01
   4.88459E-02  1.66215E-01  1.76500E-01  1.05769E-01 -3.32019E-03 -1.17967E-01 -2.17804E-01 -2.99800E-01 -3.72528E-01 -4.32985E-01
  -4.63255E-01 -4.69757E-01 -4.70094E-01 -4.68741E-01 -4.67192E-01 -4.66813E-01 -4.67313E-01 -4.66743E-01 -4.62994E-01 -4.52612E-01
  -4.27000E-01 -3.46492E-01 -7.84858E-02  3.56627E-01  7.68084E-01  1.00283E+00  1.01399E+00  8.60574E-01  6.38819E-01  4.19051E-01
   2.26435E-01  5.13223E-02 -1.28376E-01 -2.99394E-01 -4.05356E-01 -4.44946E-01 -4.48507E-01 -4.25412E-01 -3.91561E-01 -3.60526E-01
  -3.37153E-01 -3.21216E-01 -3.13197E-01 -3.11507E-01 -3.13324E-01 -3.17750E-01 -3.23539E-01 -3.29446E-01 -3.34490E-01 -3.37694E-01
  -3.40612E-01 -3.42611E-01 -3.42378E-01 -3.39871E-01 -3.36496E-01 -3.34014E-01 -3.32579E-01 -3.31824E-01 -3.31225E-01 -3.30763E-01
  -3.30858E-01 -3.31965E-01 -3.33303E-01 -3.33700E-01 -3.32848E-01 -3.31562E-01 -3.31065E-01 -3.31458E-01 -3.31856E-01 -3.31812E-01
  -3.31867E-01 -3.33300E-01 -3.36934E-01 -3.42884E-01 -3.50190E-01 -3.57488E-01 -3.63888E-01 -3.68806E-01 -3.72191E-01 -3.72898E-01
  -3.72823E-01 -3.74464E-01 -3.76494E-01 -3.76564E-01 -3.73235E-01 -3.62879E-01 -3.42662E-01 -3.14772E-01 -2.95673E-01 -3.18228E-01
  -3.84267E-01 -5.03133E-01 -6.62047E-01 -8.19601E-01 -9.26218E-01 -9.42949E-01 -8.24731E-01 -5.56143E-01 -1.94465E-01  1.57795E-01
   4.53188E-01  6.48331E-01  6.88639E-01  5.39859E-01  1.56932E-01 -5.15486E-01 -1.25740E+00 -1.76120E+00 -1.86991E+00 -1.59934E+00
  -1.07511E+00 -3.95732E-01  2.66018E-01  7.39681E-01  9.54851E-01  9.41430E-01  7.16439E-01  2.67593E-01 -2.69153E-01 -6.85513E-01
  -8.70328E-01 -8.32396E-01 -6.25533E-01 -3.27918E-01 -3.67293E-02  1.91929E-01  3.30187E-01  3.77723E-01  3.58334E-01  2.90470E-01
   1.68651E-01 -4.16878E-02 -2.60371E-01 -3.72246E-01 -3.16511E-01 -1.10040E-01  2.02749E-01  4.90950E-01  5.78246E-01  4.53002E-01
   2.04336E-01 -6.99557E-02 -3.16450E-01 -5.09560E-01 -6.25307E-01 -6.65076E-01 -6.35001E-01 -5.26685E-01 -3.30588E-01 -9.81907E-02
   1.04630E-01  2.50854E-01  3.16095E-01  2.84471E-01  1.80406E-01  7.02495E-02  1.86205E-03 -1.08876E-02  2.38890E-02  8.84947E-02
   1.51544E-01  1.92380E-01  2.13269E-01  2.19239E-01  2.14272E-01  1.94863E-01  1.60027E-01  1.19747E-01  8.76096E-02  7.37334E-02
   8.11108E-02  1.04395E-01  1.29207E-01  1.47663E-01  1.59243E-01  1.61802E-01  1.55822E-01  1.45508E-01  1.33910E-01  1.22928E-01
   1.15520E-01  1.13158E-01  1.14531E-01  1.17656E-01  1.21572E-01  1.26454E-01  1.32127E-01  1.37726E-01  1.43069E-01  1.48586E-01
   1.54497E-01  1.60878E-01  1.67871E-01  1.75698E-01  1.84384E-01  1.93752E-01  2.03833E-01  2.14754E-01  2.26595E-01  2.39384E-01
   2.53125E-01  2.67782E-01  2.83332E-01  2.99785E-01  3.17180E-01  3.35576E-01  3.55076E-01  3.75779E-01  3.97780E-01  4.21209E-01
   4.46246E-01  4.73020E-01  5.01673E-01  5.32389E-01  5.65351E-01  6.00759E-01  6.38841E-01  6.79844E-01  7.24042E-01  7.71733E-01
   8.23247E-01  8.78942E-01  9.39211E-01  1.00447E+00  1.07516E+00  1.15176E+00  1.23475E+00  1.32464E+00  1.42194E+00  1.52715E+00
   1.64074E+00  1.76318E+00  1.89485E+00  2.03613E+00  2.18735E+00  2.34890E+00  2.52129E+00  2.70537E+00  2.90259E+00  3.11537E+00
   3.34744E+00  3.60410E+00  3.89232E+00  4.22016E+00  4.59574E+00  5.02521E+00  5.51030E+00  6.04556E+00  6.61607E+00  7.19656E+00
   7.75255E+00  8.24380E+00  8.62983E+00  8.87643E+00  8.96166E+00  8.87994E+00  8.64299E+00  8.27755E+00  7.82030E+00  7.31152E+00
   6.78887E+00  6.28270E+00  5.81356E+00  5.39200E+00  5.02023E+00  4.69454E+00  4.40811E+00  4.15324E+00  3.92291E+00  3.71157E+00
   3.51539E+00  3.33201E+00  3.16025E+00  2.99969E+00  2.85032E+00  2.71232E+00  2.58589E+00  2.47116E+00  2.36816E+00  2.27680E+00
   2.19689E+00  2.12814E+00  2.07017E+00  2.02256E+00  1.98483E+00  1.95644E+00  1.93681E+00  1.92533E+00  1.92134E+00  1.92413E+00
   1.93295E+00  1.94700E+00  1.96541E+00  1.98729E+00  2.01168E+00  2.03760E+00  2.06403E+00  2.08996E+00  2.11435E+00  2.13623E+00
   2.15465E+00  2.16873E+00  2.17772E+00  2.18095E+00  2.17790E+00  2.16819E+00  2.15161E+00  2.12810E+00  2.09777E+00  2.06087E+00
   2.01780E+00  1.96907E+00  1.91531E+00  1.85722E+00  1.79554E+00  1.73105E+00  1.66453E+00  1.59674E+00  1.52841E+00  1.46021E+00
   1.39274E+00  1.32653E+00  1.26203E+00  1.19962E+00  1.13959E+00  1.08216E+00  1.02747E+00  9.75620E-01  9.26643E-01  8.80527E-01
   8.37228E-01  7.96664E-01  7.58737E-01  7.23326E-01  6.90307E-01  6.59543E-01  6.30898E-01  6.04233E-01  5.79416E-01  5.56316E-01
   5.34812E-01  5.14786E-01  4.96129E-01  4.78734E-01  4.62509E-01  4.47362E-01  4.33216E-01  4.19991E-01  4.07622E-01  3.96041E-01
   3.85194E-01  3.75025E-01  3.65489E-01  3.56541E-01  3.48138E-01  3.40240E-01  3.32814E-01  3.25829E-01  3.19258E-01  3.13071E-01
   3.07246E-01  3.01757E-01  2.96589E-01  2.91718E-01  2.87130E-01  2.82803E-01  2.78724E-01  2.74876E-01  2.71250E-01  2.67833E-01
   2.64614E-01  2.61579E-01  2.58721E-01  2.56029E-01  2.53499E-01  2.51119E-01  2.48884E-01  2.46781E-01  2.44807E-01  2.42956E-01
   2.41226E-01  2.39607E-01  2.38095E-01  2.36682E-01  2.35367E-01  2.34146E-01  2.33018E-01  2.31974E-01  2.31011E-01  2.30124E-01
   2.29315E-01  2.28579E-01  2.27917E-01  2.27320E-01  2.26786E-01  2.26314E-01  2.25906E-01  2.25559E-01
 NY background values follow
    -6.812E-01   -6.796E-01   -6.780E-01   -6.764E-01   -6.748E-01   -6.732E-01   -6.716E-01   -6.700E-01   -6.684E-01   -6.668E-01
    -6.652E-01   -6.636E-01   -6.620E-01   -6.604E-01   -6.588E-01   -6.573E-01   -6.557E-01   -6.541E-01   -6.525E-01   -6.509E-01
    -6.493E-01   -6.477E-01   -6.461E-01   -6.445E-01   -6.429E-01   -6.413E-01   -6.397E-01   -6.381E-01   -6.365E-01   -6.349E-01
    -6.333E-01   -6.317E-01   -6.301E-01   -6.285E-01   -6.269E-01   -6.253E-01   -6.237E-01   -6.221E-01   -6.205E-01   -6.189E-01
    -6.173E-01   -6.157E-01   -6.141E-01   -6.126E-01   -6.110E-01   -6.094E-01   -6.078E-01   -6.062E-01   -6.046E-01   -6.030E-01
    -6.014E-01   -5.998E-01   -5.982E-01   -5.966E-01   -5.950E-01   -5.934E-01   -5.918E-01   -5.902E-01   -5.886E-01   -5.870E-01
    -5.854E-01   -5.838E-01   -5.822E-01   -5.806E-01   -5.790E-01   -5.774E-01   -5.758E-01   -5.742E-01   -5.726E-01   -5.710E-01
    -5.694E-01   -5.678E-01   -5.663E-01   -5.647E-01   -5.631E-01   -5.615E-01   -5.599E-01   -5.583E-01   -5.567E-01   -5.551E-01
    -5.535E-01   -5.519E-01   -5.503E-01   -5.487E-01   -5.471E-01   -5.455E-01   -5.439E-01   -5.423E-01   -5.407E-01   -5.391E-01
    -5.375E-01   -5.359E-01   -5.343E-01   -5.327E-01   -5.311E-01   -5.295E-01   -5.279E-01   -5.263E-01   -5.247E-01   -5.231E-01
    -5.216E-01   -5.200E-01   -5.184E-01   -5.168E-01   -5.152E-01   -5.136E-01   -5.120E-01   -5.104E-01   -5.088E-01   -5.072E-01
    -5.056E-01   -5.040E-01   -5.024E-01   -5.008E-01   -4.992E-01   -4.976E-01   -4.960E-01   -4.944E-01   -4.928E-01   -4.912E-01
    -4.896E-01   -4.880E-01   -4.864E-01   -4.848E-01   -4.832E-01   -4.816E-01   -4.800E-01   -4.784E-01   -4.768E-01   -4.753E-01
    -4.737E-01   -4.721E-01   -4.705E-01   -4.689E-01   -4.673E-01   -4.657E-01   -4.641E-01   -4.625E-01   -4.609E-01   -4.593E-01
    -4.577E-01   -4.561E-01   -4.545E-01   -4.529E-01   -4.513E-01   -4.497E-01   -4.481E-01   -4.465E-01   -4.449E-01   -4.433E-01
    -4.417E-01   -4.401E-01   -4.385E-01   -4.369E-01   -4.353E-01   -4.337E-01   -4.321E-01   -4.305E-01   -4.289E-01   -4.274E-01
    -4.258E-01   -4.242E-01   -4.226E-01   -4.210E-01   -4.194E-01   -4.178E-01   -4.162E-01   -4.146E-01   -4.130E-01   -4.114E-01
    -4.098E-01   -4.082E-01   -4.066E-01   -4.050E-01   -4.034E-01   -4.018E-01   -4.002E-01   -3.986E-01   -3.970E-01   -3.954E-01
    -3.938E-01   -3.922E-01   -3.906E-01   -3.890E-01   -3.874E-01   -3.858E-01   -3.842E-01   -3.826E-01   -3.810E-01   -3.794E-01
    -3.779E-01   -3.763E-01   -3.747E-01   -3.731E-01   -3.715E-01   -3.699E-01   -3.683E-01   -3.667E-01   -3.651E-01   -3.635E-01
    -3.619E-01   -3.603E-01   -3.587E-01   -3.571E-01   -3.555E-01   -3.539E-01   -3.523E-01   -3.507E-01   -3.491E-01   -3.475E-01
    -3.459E-01   -3.443E-01   -3.427E-01   -3.411E-01   -3.395E-01   -3.379E-01   -3.363E-01   -3.347E-01   -3.331E-01   -3.315E-01
    -3.299E-01   -3.283E-01   -3.267E-01   -3.252E-01   -3.236E-01   -3.220E-01   -3.204E-01   -3.188E-01   -3.172E-01   -3.156E-01
    -3.140E-01   -3.124E-01   -3.108E-01   -3.092E-01   -3.076E-01   -3.060E-01   -3.044E-01   -3.028E-01   -3.012E-01   -2.996E-01
    -2.980E-01   -2.964E-01   -2.948E-01   -2.932E-01   -2.916E-01   -2.900E-01   -2.884E-01   -2.868E-01   -2.852E-01   -2.836E-01
    -2.820E-01   -2.804E-01   -2.788E-01   -2.772E-01   -2.756E-01   -2.740E-01   -2.724E-01   -2.708E-01   -2.692E-01   -2.677E-01
    -2.661E-01   -2.645E-01   -2.629E-01   -2.613E-01   -2.597E-01   -2.581E-01   -2.565E-01   -2.549E-01   -2.533E-01   -2.517E-01
    -2.501E-01   -2.485E-01   -2.469E-01   -2.453E-01   -2.437E-01   -2.421E-01   -2.405E-01   -2.389E-01   -2.373E-01   -2.357E-01
    -2.341E-01   -2.325E-01   -2.309E-01   -2.293E-01   -2.277E-01   -2.261E-01   -2.245E-01   -2.229E-01   -2.213E-01   -2.197E-01
    -2.181E-01   -2.165E-01   -2.149E-01   -2.133E-01   -2.117E-01   -2.101E-01   -2.085E-01   -2.069E-01   -2.053E-01   -2.038E-01
    -2.022E-01   -2.006E-01   -1.990E-01   -1.974E-01   -1.958E-01   -1.942E-01   -1.926E-01   -1.910E-01   -1.894E-01   -1.878E-01
    -1.862E-01   -1.846E-01   -1.830E-01   -1.814E-01   -1.798E-01   -1.782E-01   -1.766E-01   -1.750E-01   -1.734E-01   -1.718E-01
    -1.702E-01   -1.686E-01   -1.670E-01   -1.654E-01   -1.638E-01   -1.622E-01   -1.606E-01   -1.590E-01   -1.574E-01   -1.558E-01
    -1.542E-01   -1.526E-01   -1.510E-01   -1.494E-01   -1.478E-01   -1.462E-01   -1.446E-01   -1.430E-01   -1.414E-01   -1.398E-01
    -1.382E-01   -1.366E-01   -1.350E-01   -1.335E-01   -1.319E-01   -1.303E-01   -1.287E-01   -1.271E-01   -1.255E-01   -1.239E-01
    -1.223E-01   -1.207E-01   -1.191E-01   -1.175E-01   -1.159E-01   -1.143E-01   -1.127E-01   -1.111E-01   -1.095E-01   -1.079E-01
    -1.063E-01   -1.047E-01   -1.031E-01   -1.015E-01   -9.990E-02   -9.830E-02   -9.670E-02   -9.510E-02   -9.350E-02   -9.191E-02
    -9.031E-02   -8.871E-02   -8.711E-02   -8.551E-02   -8.392E-02   -8.232E-02   -8.072E-02   -7.912E-02   -7.753E-02   -7.593E-02
    -7.433E-02   -7.273E-02   -7.113E-02   -6.954E-02   -6.794E-02   -6.634E-02   -6.474E-02   -6.314E-02   -6.155E-02   -5.995E-02
    -5.835E-02   -5.675E-02   -5.516E-02   -5.356E-02   -5.196E-02   -5.036E-02   -4.876E-02   -4.717E-02   -4.557E-02   -4.397E-02
    -4.237E-02   -4.077E-02   -3.918E-02   -3.758E-02   -3.598E-02   -3.438E-02   -3.278E-02   -3.119E-02   -2.959E-02   -2.799E-02
    -2.639E-02   -2.479E-02   -2.320E-02   -2.160E-02   -2.000E-02   -1.840E-02   -1.680E-02   -1.521E-02   -1.361E-02   -1.201E-02
    -1.041E-02   -8.815E-03   -7.217E-03   -5.619E-03   -4.021E-03   -2.423E-03   -8.254E-04    7.726E-04    2.371E-03    3.968E-03
     5.566E-03    7.164E-03    8.762E-03    1.036E-02    1.196E-02    1.356E-02    1.515E-02    1.675E-02    1.835E-02    1.995E-02
     2.155E-02    2.314E-02    2.474E-02    2.634E-02    2.794E-02    2.954E-02    3.113E-02    3.273E-02    3.433E-02    3.593E-02
     3.753E-02    3.912E-02    4.072E-02    4.232E-02    4.392E-02    4.552E-02    4.711E-02    4.871E-02    5.031E-02    5.191E-02
     5.351E-02    5.510E-02    5.670E-02    5.830E-02    5.990E-02    6.149E-02    6.309E-02    6.469E-02    6.629E-02    6.789E-02
     6.948E-02    7.108E-02    7.268E-02    7.428E-02    7.588E-02    7.747E-02    7.907E-02    8.067E-02    8.227E-02    8.387E-02
     8.546E-02    8.706E-02    8.866E-02    9.026E-02    9.186E-02    9.345E-02    9.505E-02    9.665E-02    9.825E-02    9.985E-02
     1.014E-01    1.030E-01    1.046E-01    1.062E-01    1.078E-01    1.094E-01    1.110E-01    1.126E-01
 Asp      Conc. = 2.94E+00
