 LCModel (Version 6.3-1L) Copyright: S.W. Provencher.          Ref.: Magn. Reson. Med. 30:672-679 (1993).                
 Slice#1 Row#4 Col#10  PD_05_press_2_raw_act
 36 lines in following concentration table = NCONC+1
    Conc.  %SD /Cr+PCr  Metabolite                                         
 5.04E+03  26%   2.384 Ala                                                 
  121.346 349% 5.7E-02 Asp                                                 
 1.08E+03 131%   0.509 Cr                                                  
 1.04E+03 135%   0.491 PCr                                                 
  219.730 122%   0.104 GABA                                                
  251.206 105%   0.119 Glc                                                 
 9.59E+03  17%   4.534 Gln                                                 
 9.36E+03  22%   4.427 Glu                                                 
  796.496   9%   0.377 GPC                                                 
    0.000 999%   0.000 PCh                                                 
    0.000 999%   0.000 GSH                                                 
 1.61E+03  49%   0.762 Ins                                                 
 7.70E+03  17%   3.643 Lac                                                 
 4.38E+03   6%   2.073 NAA                                                 
    0.000 999%   0.000 NAAG                                                
  306.705  23%   0.145 Scyllo                                              
  975.452  41%   0.461 Tau                                                 
  925.655  38%   0.438 -CrCH2                                              
  796.496   9%   0.377 GPC+PCh                                             
 4.38E+03   6%   2.073 NAA+NAAG                                            
 2.11E+03   9%   1.000 Cr+PCr                                              
 1.90E+04  16%   8.962 Glu+Gln                                             
    0.000 999%   0.000 Lip13a                                              
 1.11E+03  24%   0.525 Lip13b                                              
  167.427  93% 7.9E-02 Lip09                                               
 1.99E+03  18%   0.942 MM09                                                
  179.437  59% 8.5E-02 Lip20                                               
 3.43E+03  22%   1.621 MM20                                                
  591.542  38%   0.280 MM12                                                
 3.71E+03  19%   1.755 MM14                                                
 2.74E+03  18%   1.295 MM17                                                
 1.11E+03  24%   0.525 Lip13a+Lip13b                                       
 5.41E+03  15%   2.560 MM14+Lip13a+Lip13b+MM12                             
 2.16E+03  16%   1.022 MM09+Lip09                                          
 3.61E+03  21%   1.706 MM20+Lip20                                          
   6 lines in following misc. output table
  FWHM = 0.138 ppm    S/N =   5                                            
  Data shift =-0.015 ppm                                                   
  Ph:-128 deg     -48.4 deg/ppm                                            
  alphaB,S = 8.5E+01,   1.6E+02                                            
   14 spline knots.   Ns = 7(2)                                            
   2 inflections.     1 extrema                                            
  498 points on ppm-axis = NY
      4.000000     3.992357     3.984714     3.977070     3.969427     3.961784     3.954141     3.946497     3.938854     3.931211
      3.923568     3.915925     3.908281     3.900638     3.892995     3.885352     3.877708     3.870065     3.862422     3.854779
      3.847136     3.839492     3.831849     3.824206     3.816563     3.808919     3.801276     3.793633     3.785990     3.778347
      3.770703     3.763060     3.755417     3.747774     3.740130     3.732487     3.724844     3.717201     3.709558     3.701914
      3.694271     3.686628     3.678985     3.671341     3.663698     3.656055     3.648412     3.640769     3.633125     3.625482
      3.617839     3.610196     3.602552     3.594909     3.587266     3.579623     3.571980     3.564336     3.556693     3.549050
      3.541407     3.533763     3.526120     3.518477     3.510834     3.503191     3.495547     3.487904     3.480261     3.472618
      3.464974     3.457331     3.449688     3.442045     3.434402     3.426758     3.419115     3.411472     3.403829     3.396185
      3.388542     3.380899     3.373256     3.365613     3.357969     3.350326     3.342683     3.335040     3.327396     3.319753
      3.312110     3.304467     3.296824     3.289180     3.281537     3.273894     3.266251     3.258607     3.250964     3.243321
      3.235678     3.228034     3.220391     3.212748     3.205105     3.197462     3.189818     3.182175     3.174532     3.166889
      3.159245     3.151602     3.143959     3.136316     3.128673     3.121029     3.113386     3.105743     3.098100     3.090456
      3.082813     3.075170     3.067527     3.059884     3.052240     3.044597     3.036954     3.029311     3.021667     3.014024
      3.006381     2.998738     2.991095     2.983451     2.975808     2.968165     2.960522     2.952878     2.945235     2.937592
      2.929949     2.922306     2.914662     2.907019     2.899376     2.891733     2.884089     2.876446     2.868803     2.861160
      2.853517     2.845873     2.838230     2.830587     2.822944     2.815300     2.807657     2.800014     2.792371     2.784728
      2.777084     2.769441     2.761798     2.754155     2.746511     2.738868     2.731225     2.723582     2.715939     2.708295
      2.700652     2.693009     2.685366     2.677722     2.670079     2.662436     2.654793     2.647150     2.639506     2.631863
      2.624220     2.616577     2.608933     2.601290     2.593647     2.586004     2.578361     2.570717     2.563074     2.555431
      2.547788     2.540144     2.532501     2.524858     2.517215     2.509572     2.501928     2.494285     2.486642     2.478999
      2.471355     2.463712     2.456069     2.448426     2.440783     2.433139     2.425496     2.417853     2.410210     2.402566
      2.394923     2.387280     2.379637     2.371994     2.364350     2.356707     2.349064     2.341421     2.333777     2.326134
      2.318491     2.310848     2.303205     2.295561     2.287918     2.280275     2.272632     2.264988     2.257345     2.249702
      2.242059     2.234416     2.226772     2.219129     2.211486     2.203843     2.196199     2.188556     2.180913     2.173270
      2.165627     2.157983     2.150340     2.142697     2.135054     2.127410     2.119767     2.112124     2.104481     2.096838
      2.089194     2.081551     2.073908     2.066265     2.058621     2.050978     2.043335     2.035692     2.028049     2.020405
      2.012762     2.005119     1.997476     1.989833     1.982190     1.974546     1.966903     1.959260     1.951617     1.943974
      1.936331     1.928688     1.921045     1.913402     1.905759     1.898115     1.890472     1.882829     1.875186     1.867543
      1.859900     1.852257     1.844614     1.836971     1.829327     1.821684     1.814041     1.806398     1.798755     1.791112
      1.783469     1.775826     1.768183     1.760540     1.752896     1.745253     1.737610     1.729967     1.722324     1.714681
      1.707038     1.699395     1.691752     1.684108     1.676465     1.668822     1.661179     1.653536     1.645893     1.638250
      1.630607     1.622964     1.615321     1.607677     1.600034     1.592391     1.584748     1.577105     1.569462     1.561819
      1.554176     1.546533     1.538890     1.531246     1.523603     1.515960     1.508317     1.500674     1.493031     1.485388
      1.477745     1.470102     1.462458     1.454815     1.447172     1.439529     1.431886     1.424243     1.416600     1.408957
      1.401314     1.393671     1.386027     1.378384     1.370741     1.363098     1.355455     1.347812     1.340169     1.332526
      1.324883     1.317240     1.309596     1.301953     1.294310     1.286667     1.279024     1.271381     1.263738     1.256095
      1.248452     1.240808     1.233165     1.225522     1.217879     1.210236     1.202593     1.194950     1.187307     1.179664
      1.172021     1.164377     1.156734     1.149091     1.141448     1.133805     1.126162     1.118519     1.110876     1.103233
      1.095590     1.087946     1.080303     1.072660     1.065017     1.057374     1.049731     1.042088     1.034445     1.026802
      1.019158     1.011515     1.003872     0.996229     0.988586     0.980943     0.973300     0.965657     0.958014     0.950371
      0.942727     0.935084     0.927441     0.919798     0.912155     0.904512     0.896869     0.889226     0.881583     0.873940
      0.866296     0.858653     0.851010     0.843367     0.835724     0.828081     0.820438     0.812795     0.805152     0.797508
      0.789865     0.782222     0.774579     0.766936     0.759293     0.751650     0.744007     0.736364     0.728721     0.721077
      0.713434     0.705791     0.698148     0.690505     0.682862     0.675219     0.667576     0.659933     0.652290     0.644646
      0.637003     0.629360     0.621717     0.614074     0.606431     0.598788     0.591145     0.583502     0.575858     0.568215
      0.560572     0.552929     0.545286     0.537643     0.530000     0.522357     0.514714     0.507071     0.499427     0.491784
      0.484141     0.476498     0.468855     0.461212     0.453569     0.445925     0.438282     0.430639     0.422996     0.415353
      0.407710     0.400067     0.392424     0.384780     0.377137     0.369494     0.361851     0.354208     0.346565     0.338922
      0.331278     0.323635     0.315992     0.308349     0.300706     0.293063     0.285420     0.277777     0.270133     0.262490
      0.254847     0.247204     0.239561     0.231918     0.224275     0.216631     0.208988     0.201345
 NY phased data points follow
   1.87829E+01  1.51638E+01  1.36350E+01  1.91879E+01  4.24396E+00  1.48447E+01  1.48598E+01  2.36392E+01  2.59421E+01  2.63838E+01
   3.72367E+01  3.38236E+01  4.04566E+01  2.73800E+01  1.61117E+01  2.76748E+01  2.17876E+01  2.82453E+01  2.01694E+01  4.56167E+01
   2.59805E+01  5.95617E+00  9.22883E+00  1.32498E+01  8.58576E+00  1.74117E+01  1.81764E+01  1.30654E+01  1.81939E+01  2.06190E+01
   8.88016E+00  1.81688E+01  1.45177E+01  2.00661E+01  1.62909E+01  2.14828E+01  2.85392E+01  2.51919E+01  1.77549E+01  2.17017E+01
   1.77031E+01  2.36201E+01  1.86859E+01  2.72945E+01  1.67328E+01  2.34459E+01  2.89593E+01  2.77554E+01  3.00431E+01  2.22007E+01
   2.01645E+01  1.95004E+01  2.26489E+01  1.60548E+01  1.42816E+01  2.52239E+01  1.53424E+01  1.73371E+01  2.51631E+01  2.41923E+01
   1.36414E+01  1.57849E+01  2.17436E+01  9.43259E+00  1.02719E+01  1.35840E+01  1.75014E+01  1.61056E+01  1.09956E+01  1.83495E+01
   7.70584E+00  1.30424E+01  2.11250E+01  5.88415E+00  1.53649E+01  2.23856E+01  2.23785E+01  2.75585E+01  1.61783E+01  3.17642E+01
   1.68737E+01  1.65907E+01  1.16578E+01  2.72673E+01  2.76418E+01  2.61144E+01  2.18208E+01  1.98242E+01  2.25397E+01  1.75560E+01
   3.68980E+01  3.78642E+01  2.90587E+01  4.12733E+01  2.95253E+01  4.13061E+01  4.11124E+01  3.71092E+01  3.33403E+01  4.76164E+01
   4.13537E+01  4.62334E+01  4.88530E+01  5.32071E+01  3.71344E+01  4.25099E+01  4.69989E+01  4.09821E+01  3.42967E+01  2.76802E+01
   1.47393E+01  1.81110E+01  1.94395E+01  2.43222E+01  8.18049E+00  1.67584E+01  7.50678E+00  3.21288E+01  2.10201E+01  2.84560E+01
   3.42397E+01  2.32104E+01  3.04086E+01  4.36697E+01  4.56467E+01  4.34026E+01  5.54579E+01  4.18719E+01  3.58155E+01  4.88547E+01
   3.47029E+01  3.80001E+01  3.13192E+01  3.03255E+01  2.19807E+01  2.50020E+01  1.33224E+01  1.67657E+01  1.47631E+01  1.87574E+01
   2.26932E+01  1.55785E+01 -4.13811E+00  8.30132E+00  1.40599E+01  2.94134E+01  1.45380E+01  3.23583E+00  1.48769E+01  2.22418E+01
   1.28409E+01  1.15634E+01  1.30981E+01  1.66886E+01  2.75792E+01  1.90845E+01  1.64434E+01  1.71729E+00  4.22059E+00  2.55117E+00
  -5.85826E+00  4.35478E+00 -9.98203E-01 -1.60854E+00  4.50629E+00  1.16660E+01 -9.08705E+00 -1.75798E+00 -4.65689E+00 -6.62354E+00
   9.19146E+00 -9.94326E+00 -5.98617E+00 -1.55657E+01 -3.19909E+00 -1.43610E+01 -3.32727E+00 -8.33535E+00 -2.74182E+00 -8.56141E-01
  -1.06612E+01  2.53688E+00  1.13232E+01  1.11936E+01 -2.21138E+00  5.62341E+00  9.20982E+00  4.44459E+00  1.25888E-01 -9.76603E+00
  -2.61400E+00 -2.13999E+00 -1.10154E+01  4.51065E+00  9.86729E+00  3.91360E+00 -1.76191E+00  9.31091E+00  5.17345E+00  8.05341E+00
   4.12011E+00 -1.42477E+00  9.99161E+00  4.22335E+00  4.51850E+00  2.05608E+01  1.08561E+01  2.14159E+01  1.61485E+01  1.99366E+01
   2.05482E+01  6.24567E+00  1.98573E+01  1.58755E+01  2.40879E+01  1.13779E+01  4.09234E+00  8.42430E+00  1.86331E+01  2.24969E+01
   2.78877E+01  6.66371E+00  1.83857E+01  2.42567E+01  1.41409E+01  1.87229E+01  8.24395E+00  1.35061E+01  1.91707E+01  2.51068E+01
   1.41252E+01  1.86398E+01  2.94832E+01  2.13687E+01  1.68125E+01  3.34527E+01  2.32205E+01  3.16925E+01  2.22153E+01  1.54493E+01
   1.68538E+01  1.13079E+01  1.61008E+01  2.21484E+01  3.30396E+01  2.93750E+01  2.10741E+01  2.35728E+01  2.81726E+01  4.02151E+01
   3.39242E+01  4.19335E+01  4.62415E+01  6.06240E+01  6.50061E+01  6.26484E+01  8.17285E+01  8.61544E+01  7.91195E+01  1.03081E+02
   9.76320E+01  9.23142E+01  1.03902E+02  8.63628E+01  8.79168E+01  8.76989E+01  8.94550E+01  7.40196E+01  5.34618E+01  5.69244E+01
   2.81663E+01  3.61987E+01  3.75688E+01  3.55460E+01  3.55002E+01  3.21102E+01  5.17332E+01  3.78106E+01  3.02944E+01  3.69506E+01
   2.50268E+01  2.13738E+01  3.83164E+01  4.10326E+01  3.36946E+01  2.92543E+01  2.83639E+01  2.35476E+01  2.03227E+01  1.86813E+01
   2.20240E+01  2.61945E+01  2.79880E+01  3.22652E+01  3.30877E+01  3.75147E+01  3.64756E+01  3.08745E+01  3.86190E+01  3.18151E+01
   2.67705E+01  2.49496E+01  3.67097E+01  3.57661E+01  3.93956E+01  2.87074E+01  4.79618E+01  4.25411E+01  4.71738E+01  4.41989E+01
   4.93848E+01  7.00900E+01  5.72900E+01  6.55474E+01  5.66352E+01  5.89650E+01  4.92145E+01  4.99790E+01  4.71150E+01  3.59904E+01
   4.93760E+01  5.21573E+01  4.15101E+01  4.88203E+01  4.91821E+01  4.60178E+01  4.29797E+01  5.47722E+01  5.48528E+01  4.35823E+01
   4.48268E+01  5.33743E+01  5.25274E+01  4.94062E+01  6.11149E+01  6.42623E+01  5.41834E+01  5.82644E+01  5.51551E+01  4.93153E+01
   5.49793E+01  5.91893E+01  5.42867E+01  5.53629E+01  5.63491E+01  5.07492E+01  5.19129E+01  5.91010E+01  5.30313E+01  3.45678E+01
   5.32446E+01  4.10333E+01  5.25821E+01  4.16180E+01  4.50055E+01  4.85314E+01  4.94549E+01  4.53815E+01  4.63787E+01  4.01498E+01
   5.64247E+01  4.36810E+01  4.01053E+01  4.67195E+01  3.28073E+01  4.58966E+01  4.49442E+01  3.72529E+01  3.69641E+01  4.51701E+01
   4.09839E+01  2.02861E+01  2.29683E+01  3.64897E+01  2.65224E+01  3.10221E+01  3.29619E+01  2.97345E+01  1.44203E+01  1.62645E+01
   1.53126E+01  1.75532E+01  2.20308E+01  4.30412E+00  1.35360E+01  1.41431E+01  1.84747E+01  6.75187E+00  1.53409E+01  1.61779E+01
   8.23618E+00  2.61129E+01  2.25466E+01  2.25793E+01 -4.43297E+00  4.04656E+00  1.19865E+01  1.14116E+01  2.68494E+01  2.45670E+01
   1.31261E+01  1.96256E+01  2.72669E+01  2.34021E+01  4.20452E+01  2.66178E+01  2.93760E+01  3.63206E+01  3.50641E+01  2.74122E+01
   3.22284E+01  3.75163E+01  2.72398E+01  2.54220E+01  2.74630E+01  3.15111E+01  3.72661E+01  3.23660E+01  2.30405E+01  2.83467E+01
   2.36240E+01  1.76337E+01  2.92234E+01  2.59932E+01  2.59035E+01  2.76803E+01  2.41409E+01  2.88639E+01  1.91376E+01  2.67098E+01
   1.80187E+01  2.88668E+01  7.28833E+00  1.32857E+01  1.14037E+01  2.76127E+01  1.41846E+01  1.24664E+01  1.95316E+01  1.35000E+01
   1.86101E+01  2.23743E+01  2.64608E+01  1.41671E+01  2.21131E+01  2.70408E+01  2.41994E+01  1.29159E+01  2.78701E+01  2.47676E+01
   1.83291E+01  1.55546E+01  1.82376E+01  1.65308E+01  2.79535E+01  1.82046E+01  1.54993E+01  1.60085E+01  1.86898E+01  1.33078E+01
   2.57179E+01  5.00420E+00  1.24266E+01  1.92956E+01  3.10651E+01  8.77309E+00  1.81391E+01  1.48477E+01  1.33575E+01  1.31961E+01
   1.02068E+01  2.61239E+01  7.93594E+00  2.68547E+01  2.23616E+01  1.58357E+01  1.93810E+01  1.78569E+01  1.64841E+01  8.77814E+00
   9.81308E+00  1.86965E+01  1.67906E+01  1.26734E+01  2.29231E+01  4.55049E+00  1.01427E+01  1.66343E+01  1.78118E+01  1.15907E+01
   1.68692E+01  2.22388E+01  1.06880E+01  1.52236E+01  4.07866E+00  2.01268E+01  1.29291E+01  1.77867E+01
 NY points of the fit to the data follow
   1.69311E+01  1.89486E+01  1.84959E+01  2.02483E+01  1.99018E+01  2.17092E+01  2.15484E+01  2.33694E+01  2.33757E+01  2.55679E+01
   2.60012E+01  2.86739E+01  2.82094E+01  3.01948E+01  2.80127E+01  2.92619E+01  2.55221E+01  2.67076E+01  2.35053E+01  2.55467E+01
   2.28678E+01  2.50772E+01  2.20404E+01  2.38355E+01  2.05488E+01  2.25573E+01  1.98682E+01  2.19627E+01  2.00320E+01  2.20341E+01
   2.02688E+01  2.15622E+01  2.03484E+01  2.15279E+01  2.15110E+01  2.27653E+01  2.35387E+01  2.44594E+01  2.47642E+01  2.47636E+01
   2.42439E+01  2.37471E+01  2.32044E+01  2.30275E+01  2.26884E+01  2.24137E+01  2.20658E+01  2.15675E+01  2.10756E+01  2.04570E+01
   2.03616E+01  1.98910E+01  1.98136E+01  1.90236E+01  1.85542E+01  1.74645E+01  1.66627E+01  1.58278E+01  1.52384E+01  1.46811E+01
   1.43534E+01  1.42199E+01  1.40249E+01  1.41127E+01  1.39797E+01  1.41476E+01  1.40093E+01  1.42133E+01  1.40377E+01  1.42473E+01
   1.40666E+01  1.43647E+01  1.46777E+01  1.51777E+01  1.55203E+01  1.60326E+01  1.62909E+01  1.68380E+01  1.70883E+01  1.76278E+01
   1.77235E+01  1.81665E+01  1.79947E+01  1.84057E+01  1.80609E+01  1.85916E+01  1.80709E+01  1.91778E+01  2.04449E+01  2.26576E+01
   2.41426E+01  2.69858E+01  2.78417E+01  3.11451E+01  3.16876E+01  3.53770E+01  3.56593E+01  3.96371E+01  3.93100E+01  4.33219E+01
   4.18640E+01  4.55331E+01  4.29262E+01  4.60072E+01  4.23438E+01  4.45944E+01  3.98392E+01  4.09630E+01  3.49048E+01  3.47887E+01
   2.84838E+01  2.76666E+01  2.31498E+01  2.42377E+01  2.14215E+01  2.39554E+01  2.19201E+01  2.55437E+01  2.38788E+01  2.87740E+01
   2.78381E+01  3.39394E+01  3.21259E+01  3.85267E+01  3.55655E+01  4.15691E+01  3.75798E+01  4.27934E+01  3.79212E+01  4.19372E+01
   3.64935E+01  3.91207E+01  3.31917E+01  3.37415E+01  2.79684E+01  2.68626E+01  2.20246E+01  2.02147E+01  1.67448E+01  1.50903E+01
   1.27918E+01  1.13417E+01  9.96660E+00  8.84426E+00  8.44465E+00  8.31115E+00  8.09155E+00  7.89064E+00  7.69927E+00  7.45027E+00
   7.35237E+00  7.16239E+00  7.04093E+00  6.82754E+00  6.65810E+00  6.40428E+00  6.19567E+00  5.93806E+00  5.69336E+00  5.45392E+00
   5.13372E+00  4.86979E+00  4.37460E+00  4.11749E+00  3.63231E+00  3.39633E+00  2.93815E+00  2.63729E+00  2.24653E+00  1.93867E+00
   1.64299E+00  1.27762E+00  1.08604E+00  5.73876E-01  6.94428E-01  2.06684E-01  6.69615E-01  2.88247E-01  1.01340E+00  6.20285E-01
   1.30881E+00  1.02057E+00  1.40649E+00  1.28676E+00  1.25885E+00  1.31155E+00  9.71320E-01  1.86515E+00  1.73370E+00  3.59834E+00
   3.58412E+00  6.58212E+00  6.46358E+00  9.76589E+00  9.03143E+00  1.14828E+01  8.37920E+00  1.10702E+01  6.99384E+00  1.01709E+01
   6.10145E+00  1.02267E+01  7.40861E+00  1.13687E+01  8.98588E+00  1.22129E+01  1.00736E+01  1.19145E+01  9.33247E+00  9.50999E+00
   7.86539E+00  7.25052E+00  6.96540E+00  6.25745E+00  7.26949E+00  7.05381E+00  9.81705E+00  9.60617E+00  1.31731E+01  1.28731E+01
   1.62061E+01  1.51032E+01  1.58825E+01  1.54512E+01  1.48036E+01  1.59009E+01  1.48163E+01  1.79532E+01  1.62009E+01  2.02885E+01
   1.87501E+01  2.26075E+01  2.09191E+01  2.39917E+01  2.27580E+01  2.40304E+01  2.29807E+01  2.27367E+01  2.23712E+01  2.09144E+01
   2.12948E+01  1.92282E+01  2.11866E+01  1.88097E+01  2.17475E+01  1.98658E+01  2.70871E+01  2.71108E+01  3.55572E+01  3.74657E+01
   4.56473E+01  4.94780E+01  5.70456E+01  6.25901E+01  6.85442E+01  7.52991E+01  7.91533E+01  8.60632E+01  8.67443E+01  9.28898E+01
   9.03025E+01  9.45929E+01  8.91053E+01  9.16846E+01  8.39510E+01  8.47454E+01  7.43343E+01  7.30460E+01  6.14977E+01  5.89429E+01
   4.85319E+01  4.58992E+01  3.81969E+01  3.60624E+01  3.05729E+01  2.88330E+01  2.52271E+01  2.41492E+01  2.34475E+01  2.32423E+01
   2.29397E+01  2.27999E+01  2.27037E+01  2.25378E+01  2.25289E+01  2.24803E+01  2.26112E+01  2.27258E+01  2.30149E+01  2.33356E+01
   2.37949E+01  2.43805E+01  2.50741E+01  2.59095E+01  2.68145E+01  2.78664E+01  2.89448E+01  3.01589E+01  3.13467E+01  3.26393E+01
   3.38755E+01  3.51687E+01  3.63699E+01  3.75812E+01  3.86740E+01  3.97437E+01  4.06867E+01  4.16101E+01  4.24437E+01  4.33154E+01
   4.42207E+01  4.53958E+01  4.71528E+01  4.96765E+01  5.02712E+01  5.25903E+01  5.16733E+01  5.35022E+01  5.11387E+01  5.23033E+01
   4.81311E+01  5.06300E+01  4.61990E+01  4.93431E+01  4.46377E+01  4.76804E+01  4.29376E+01  4.59921E+01  4.17554E+01  4.49737E+01
   4.20726E+01  4.56889E+01  4.50965E+01  5.03265E+01  5.12373E+01  5.46716E+01  5.68462E+01  5.79012E+01  6.07924E+01  5.92493E+01
   6.14901E+01  5.92958E+01  6.17939E+01  5.78170E+01  6.00701E+01  5.44252E+01  5.57376E+01  4.93936E+01  5.11898E+01  4.52921E+01
   4.81701E+01  4.29629E+01  4.63783E+01  4.15409E+01  4.58197E+01  4.16821E+01  4.61532E+01  4.32088E+01  4.73321E+01  4.57071E+01
   4.90507E+01  4.65960E+01  4.83730E+01  4.49946E+01  4.54242E+01  4.24912E+01  4.13811E+01  3.80247E+01  3.63639E+01  3.31662E+01
   3.12700E+01  2.82981E+01  2.63255E+01  2.50365E+01  2.40343E+01  2.32752E+01  2.26184E+01  2.21084E+01  2.16445E+01  2.12924E+01
   2.09639E+01  2.07320E+01  2.05138E+01  2.03856E+01  2.02677E+01  2.02381E+01  2.02191E+01  2.02900E+01  2.03743E+01  2.05520E+01
   2.07476E+01  2.10412E+01  2.13574E+01  2.17757E+01  2.22194E+01  2.27661E+01  2.33371E+01  2.40062E+01  2.46912E+01  2.54612E+01
   2.62293E+01  2.70596E+01  2.78602E+01  2.86905E+01  2.94553E+01  3.02110E+01  3.08614E+01  3.14633E+01  3.19228E+01  3.23007E+01
   3.25090E+01  3.26154E+01  3.25406E+01  3.23611E+01  3.20069E+01  3.15630E+01  3.09675E+01  3.03120E+01  2.95398E+01  2.87453E+01
   2.78738E+01  2.70191E+01  2.61244E+01  2.52803E+01  2.44260E+01  2.36467E+01  2.28767E+01  2.21959E+01  2.15336E+01  2.09651E+01
   2.04163E+01  1.99589E+01  1.95166E+01  1.91593E+01  1.88095E+01  1.85364E+01  1.82626E+01  1.80573E+01  1.78434E+01  1.76907E+01
   1.75229E+01  1.74102E+01  1.72773E+01  1.71948E+01  1.70881E+01  1.70284E+01  1.69416E+01  1.68992E+01  1.68276E+01  1.67984E+01
   1.67386E+01  1.67198E+01  1.66692E+01  1.66586E+01  1.66155E+01  1.66114E+01  1.65743E+01  1.65755E+01  1.65434E+01  1.65491E+01
   1.65211E+01  1.65304E+01  1.65059E+01  1.65184E+01  1.64969E+01  1.65121E+01  1.64931E+01  1.65106E+01  1.64938E+01  1.65133E+01
   1.64985E+01  1.65197E+01  1.65066E+01  1.65293E+01  1.65178E+01  1.65419E+01  1.65317E+01  1.65571E+01  1.65481E+01  1.65746E+01
   1.65668E+01  1.65943E+01  1.65875E+01  1.66160E+01  1.66102E+01  1.66395E+01  1.66347E+01  1.66649E+01  1.66611E+01  1.66921E+01
   1.66892E+01  1.67212E+01  1.67193E+01  1.67522E+01  1.67514E+01  1.67855E+01  1.67860E+01  1.68214E+01
 NY background values follow
     3.956E+00    3.981E+00    4.005E+00    4.030E+00    4.054E+00    4.079E+00    4.103E+00    4.128E+00    4.152E+00    4.176E+00
     4.201E+00    4.225E+00    4.250E+00    4.274E+00    4.299E+00    4.323E+00    4.348E+00    4.372E+00    4.397E+00    4.421E+00
     4.445E+00    4.470E+00    4.494E+00    4.519E+00    4.543E+00    4.568E+00    4.592E+00    4.617E+00    4.641E+00    4.665E+00
     4.690E+00    4.714E+00    4.739E+00    4.763E+00    4.788E+00    4.812E+00    4.837E+00    4.861E+00    4.886E+00    4.910E+00
     4.934E+00    4.959E+00    4.983E+00    5.008E+00    5.032E+00    5.057E+00    5.081E+00    5.106E+00    5.130E+00    5.154E+00
     5.179E+00    5.203E+00    5.228E+00    5.252E+00    5.277E+00    5.301E+00    5.326E+00    5.350E+00    5.375E+00    5.399E+00
     5.423E+00    5.448E+00    5.472E+00    5.497E+00    5.521E+00    5.546E+00    5.570E+00    5.595E+00    5.619E+00    5.643E+00
     5.668E+00    5.692E+00    5.717E+00    5.741E+00    5.766E+00    5.790E+00    5.815E+00    5.839E+00    5.863E+00    5.888E+00
     5.912E+00    5.937E+00    5.961E+00    5.986E+00    6.010E+00    6.035E+00    6.059E+00    6.084E+00    6.108E+00    6.132E+00
     6.157E+00    6.181E+00    6.206E+00    6.230E+00    6.255E+00    6.279E+00    6.304E+00    6.328E+00    6.352E+00    6.377E+00
     6.401E+00    6.426E+00    6.450E+00    6.475E+00    6.499E+00    6.524E+00    6.548E+00    6.572E+00    6.597E+00    6.621E+00
     6.646E+00    6.670E+00    6.695E+00    6.719E+00    6.744E+00    6.768E+00    6.792E+00    6.817E+00    6.841E+00    6.866E+00
     6.890E+00    6.915E+00    6.939E+00    6.964E+00    6.988E+00    7.012E+00    7.037E+00    7.061E+00    7.086E+00    7.110E+00
     7.135E+00    7.159E+00    7.184E+00    7.208E+00    7.232E+00    7.257E+00    7.281E+00    7.306E+00    7.330E+00    7.355E+00
     7.379E+00    7.404E+00    7.428E+00    7.452E+00    7.477E+00    7.501E+00    7.526E+00    7.550E+00    7.575E+00    7.599E+00
     7.624E+00    7.648E+00    7.672E+00    7.697E+00    7.721E+00    7.746E+00    7.770E+00    7.795E+00    7.819E+00    7.844E+00
     7.868E+00    7.892E+00    7.917E+00    7.941E+00    7.966E+00    7.990E+00    8.015E+00    8.039E+00    8.064E+00    8.088E+00
     8.112E+00    8.137E+00    8.161E+00    8.186E+00    8.210E+00    8.235E+00    8.259E+00    8.283E+00    8.308E+00    8.332E+00
     8.357E+00    8.381E+00    8.406E+00    8.430E+00    8.455E+00    8.479E+00    8.503E+00    8.528E+00    8.552E+00    8.577E+00
     8.601E+00    8.626E+00    8.650E+00    8.675E+00    8.699E+00    8.723E+00    8.748E+00    8.772E+00    8.797E+00    8.821E+00
     8.846E+00    8.870E+00    8.894E+00    8.919E+00    8.943E+00    8.968E+00    8.992E+00    9.017E+00    9.041E+00    9.066E+00
     9.090E+00    9.114E+00    9.139E+00    9.163E+00    9.188E+00    9.212E+00    9.237E+00    9.261E+00    9.286E+00    9.310E+00
     9.334E+00    9.359E+00    9.383E+00    9.408E+00    9.432E+00    9.457E+00    9.481E+00    9.505E+00    9.530E+00    9.554E+00
     9.579E+00    9.603E+00    9.628E+00    9.652E+00    9.676E+00    9.701E+00    9.725E+00    9.750E+00    9.774E+00    9.799E+00
     9.823E+00    9.848E+00    9.872E+00    9.896E+00    9.921E+00    9.945E+00    9.970E+00    9.994E+00    1.002E+01    1.004E+01
     1.007E+01    1.009E+01    1.012E+01    1.014E+01    1.017E+01    1.019E+01    1.021E+01    1.024E+01    1.026E+01    1.029E+01
     1.031E+01    1.034E+01    1.036E+01    1.039E+01    1.041E+01    1.043E+01    1.046E+01    1.048E+01    1.051E+01    1.053E+01
     1.056E+01    1.058E+01    1.060E+01    1.063E+01    1.065E+01    1.068E+01    1.070E+01    1.073E+01    1.075E+01    1.078E+01
     1.080E+01    1.082E+01    1.085E+01    1.087E+01    1.090E+01    1.092E+01    1.095E+01    1.097E+01    1.100E+01    1.102E+01
     1.104E+01    1.107E+01    1.109E+01    1.112E+01    1.114E+01    1.117E+01    1.119E+01    1.122E+01    1.124E+01    1.126E+01
     1.129E+01    1.131E+01    1.134E+01    1.136E+01    1.139E+01    1.141E+01    1.144E+01    1.146E+01    1.148E+01    1.151E+01
     1.153E+01    1.156E+01    1.158E+01    1.161E+01    1.163E+01    1.166E+01    1.168E+01    1.170E+01    1.173E+01    1.175E+01
     1.178E+01    1.180E+01    1.183E+01    1.185E+01    1.188E+01    1.190E+01    1.192E+01    1.195E+01    1.197E+01    1.200E+01
     1.202E+01    1.205E+01    1.207E+01    1.209E+01    1.212E+01    1.214E+01    1.217E+01    1.219E+01    1.222E+01    1.224E+01
     1.227E+01    1.229E+01    1.231E+01    1.234E+01    1.236E+01    1.239E+01    1.241E+01    1.244E+01    1.246E+01    1.249E+01
     1.251E+01    1.253E+01    1.256E+01    1.258E+01    1.261E+01    1.263E+01    1.266E+01    1.268E+01    1.271E+01    1.273E+01
     1.275E+01    1.278E+01    1.280E+01    1.283E+01    1.285E+01    1.288E+01    1.290E+01    1.293E+01    1.295E+01    1.297E+01
     1.300E+01    1.302E+01    1.305E+01    1.307E+01    1.310E+01    1.312E+01    1.315E+01    1.317E+01    1.319E+01    1.322E+01
     1.324E+01    1.327E+01    1.329E+01    1.332E+01    1.334E+01    1.336E+01    1.339E+01    1.341E+01    1.344E+01    1.346E+01
     1.349E+01    1.351E+01    1.354E+01    1.356E+01    1.358E+01    1.361E+01    1.363E+01    1.366E+01    1.368E+01    1.371E+01
     1.373E+01    1.376E+01    1.378E+01    1.380E+01    1.383E+01    1.385E+01    1.388E+01    1.390E+01    1.393E+01    1.395E+01
     1.398E+01    1.400E+01    1.402E+01    1.405E+01    1.407E+01    1.410E+01    1.412E+01    1.415E+01    1.417E+01    1.420E+01
     1.422E+01    1.424E+01    1.427E+01    1.429E+01    1.432E+01    1.434E+01    1.437E+01    1.439E+01    1.441E+01    1.444E+01
     1.446E+01    1.449E+01    1.451E+01    1.454E+01    1.456E+01    1.459E+01    1.461E+01    1.463E+01    1.466E+01    1.468E+01
     1.471E+01    1.473E+01    1.476E+01    1.478E+01    1.481E+01    1.483E+01    1.485E+01    1.488E+01    1.490E+01    1.493E+01
     1.495E+01    1.498E+01    1.500E+01    1.503E+01    1.505E+01    1.507E+01    1.510E+01    1.512E+01    1.515E+01    1.517E+01
     1.520E+01    1.522E+01    1.525E+01    1.527E+01    1.529E+01    1.532E+01    1.534E+01    1.537E+01    1.539E+01    1.542E+01
     1.544E+01    1.546E+01    1.549E+01    1.551E+01    1.554E+01    1.556E+01    1.559E+01    1.561E+01    1.564E+01    1.566E+01
     1.568E+01    1.571E+01    1.573E+01    1.576E+01    1.578E+01    1.581E+01    1.583E+01    1.586E+01    1.588E+01    1.590E+01
     1.593E+01    1.595E+01    1.598E+01    1.600E+01    1.603E+01    1.605E+01    1.608E+01    1.610E+01
 Ala      Conc. = 5.04E+03
