 LCModel (Version 6.3-1L) Copyright: S.W. Provencher.          Ref.: Magn. Reson. Med. 30:672-679 (1993).                
 Slice#3 Row#1 Col#12  PD_05_press_2_raw_act
 36 lines in following concentration table = NCONC+1
    Conc.  %SD /Cr+PCr  Metabolite                                         
    0.000 999%   0.000 Ala                                                 
    5.835  98%   2.820 Asp                                                 
    0.000 999%   0.000 Cr                                                  
    2.069 999%   1.000 PCr                                                 
    3.517  97%   1.700 GABA                                                
    3.504  98%   1.694 Glc                                                 
  711.393  37% 343.868 Gln                                                 
  490.005  57% 236.855 Glu                                                 
   21.078  97%  10.188 GPC                                                 
    0.000 999%   0.000 PCh                                                 
    0.000 999%   0.000 GSH                                                 
    0.000 999%   0.000 Ins                                                 
  117.708 113%  56.897 Lac                                                 
    0.000 999%   0.000 NAA                                                 
   51.768 124%  25.023 NAAG                                                
    1.176  97%   0.568 Scyllo                                              
    5.843  98%   2.824 Tau                                                 
    0.206 999% 9.9E-02 -CrCH2                                              
   21.078  97%  10.188 GPC+PCh                                             
   51.768 124%  25.023 NAA+NAAG                                            
    2.069 999%   1.000 Cr+PCr                                              
 1.20E+03  34% 580.723 Glu+Gln                                             
    0.000 999%   0.000 Lip13a                                              
    0.000 999%   0.000 Lip13b                                              
    0.000 999%   0.000 Lip09                                               
  168.941  79%  81.662 MM09                                                
    0.000 999%   0.000 Lip20                                               
  224.464  95% 108.500 MM20                                                
   48.040 101%  23.221 MM12                                                
  334.592  42% 161.732 MM14                                                
   20.718 447%  10.015 MM17                                                
    0.000 999%   0.000 Lip13a+Lip13b                                       
  382.632  44% 184.954 MM14+Lip13a+Lip13b+MM12                             
  168.941  79%  81.662 MM09+Lip09                                          
  224.464  95% 108.500 MM20+Lip20                                          
   6 lines in following misc. output table
  FWHM = 0.054 ppm    S/N =   0                                            
  Data shift =-0.008 ppm                                                   
  Ph: -97 deg      -0.3 deg/ppm                                            
  alphaB,S = 8.5E+01,   5.1E+01                                            
   14 spline knots.   Ns = 5(1)                                            
   2 inflections.     1 extrema                                            
  498 points on ppm-axis = NY
      4.000000     3.992357     3.984714     3.977070     3.969427     3.961784     3.954141     3.946497     3.938854     3.931211
      3.923568     3.915925     3.908281     3.900638     3.892995     3.885352     3.877708     3.870065     3.862422     3.854779
      3.847136     3.839492     3.831849     3.824206     3.816563     3.808919     3.801276     3.793633     3.785990     3.778347
      3.770703     3.763060     3.755417     3.747774     3.740130     3.732487     3.724844     3.717201     3.709558     3.701914
      3.694271     3.686628     3.678985     3.671341     3.663698     3.656055     3.648412     3.640769     3.633125     3.625482
      3.617839     3.610196     3.602552     3.594909     3.587266     3.579623     3.571980     3.564336     3.556693     3.549050
      3.541407     3.533763     3.526120     3.518477     3.510834     3.503191     3.495547     3.487904     3.480261     3.472618
      3.464974     3.457331     3.449688     3.442045     3.434402     3.426758     3.419115     3.411472     3.403829     3.396185
      3.388542     3.380899     3.373256     3.365613     3.357969     3.350326     3.342683     3.335040     3.327396     3.319753
      3.312110     3.304467     3.296824     3.289180     3.281537     3.273894     3.266251     3.258607     3.250964     3.243321
      3.235678     3.228034     3.220391     3.212748     3.205105     3.197462     3.189818     3.182175     3.174532     3.166889
      3.159245     3.151602     3.143959     3.136316     3.128673     3.121029     3.113386     3.105743     3.098100     3.090456
      3.082813     3.075170     3.067527     3.059884     3.052240     3.044597     3.036954     3.029311     3.021667     3.014024
      3.006381     2.998738     2.991095     2.983451     2.975808     2.968165     2.960522     2.952878     2.945235     2.937592
      2.929949     2.922306     2.914662     2.907019     2.899376     2.891733     2.884089     2.876446     2.868803     2.861160
      2.853517     2.845873     2.838230     2.830587     2.822944     2.815300     2.807657     2.800014     2.792371     2.784728
      2.777084     2.769441     2.761798     2.754155     2.746511     2.738868     2.731225     2.723582     2.715939     2.708295
      2.700652     2.693009     2.685366     2.677722     2.670079     2.662436     2.654793     2.647150     2.639506     2.631863
      2.624220     2.616577     2.608933     2.601290     2.593647     2.586004     2.578361     2.570717     2.563074     2.555431
      2.547788     2.540144     2.532501     2.524858     2.517215     2.509572     2.501928     2.494285     2.486642     2.478999
      2.471355     2.463712     2.456069     2.448426     2.440783     2.433139     2.425496     2.417853     2.410210     2.402566
      2.394923     2.387280     2.379637     2.371994     2.364350     2.356707     2.349064     2.341421     2.333777     2.326134
      2.318491     2.310848     2.303205     2.295561     2.287918     2.280275     2.272632     2.264988     2.257345     2.249702
      2.242059     2.234416     2.226772     2.219129     2.211486     2.203843     2.196199     2.188556     2.180913     2.173270
      2.165627     2.157983     2.150340     2.142697     2.135054     2.127410     2.119767     2.112124     2.104481     2.096838
      2.089194     2.081551     2.073908     2.066265     2.058621     2.050978     2.043335     2.035692     2.028049     2.020405
      2.012762     2.005119     1.997476     1.989833     1.982190     1.974546     1.966903     1.959260     1.951617     1.943974
      1.936331     1.928688     1.921045     1.913402     1.905759     1.898115     1.890472     1.882829     1.875186     1.867543
      1.859900     1.852257     1.844614     1.836971     1.829327     1.821684     1.814041     1.806398     1.798755     1.791112
      1.783469     1.775826     1.768183     1.760540     1.752896     1.745253     1.737610     1.729967     1.722324     1.714681
      1.707038     1.699395     1.691752     1.684108     1.676465     1.668822     1.661179     1.653536     1.645893     1.638250
      1.630607     1.622964     1.615321     1.607677     1.600034     1.592391     1.584748     1.577105     1.569462     1.561819
      1.554176     1.546533     1.538890     1.531246     1.523603     1.515960     1.508317     1.500674     1.493031     1.485388
      1.477745     1.470102     1.462458     1.454815     1.447172     1.439529     1.431886     1.424243     1.416600     1.408957
      1.401314     1.393671     1.386027     1.378384     1.370741     1.363098     1.355455     1.347812     1.340169     1.332526
      1.324883     1.317240     1.309596     1.301953     1.294310     1.286667     1.279024     1.271381     1.263738     1.256095
      1.248452     1.240808     1.233165     1.225522     1.217879     1.210236     1.202593     1.194950     1.187307     1.179664
      1.172021     1.164377     1.156734     1.149091     1.141448     1.133805     1.126162     1.118519     1.110876     1.103233
      1.095590     1.087946     1.080303     1.072660     1.065017     1.057374     1.049731     1.042088     1.034445     1.026802
      1.019158     1.011515     1.003872     0.996229     0.988586     0.980943     0.973300     0.965657     0.958014     0.950371
      0.942727     0.935084     0.927441     0.919798     0.912155     0.904512     0.896869     0.889226     0.881583     0.873940
      0.866296     0.858653     0.851010     0.843367     0.835724     0.828081     0.820438     0.812795     0.805152     0.797508
      0.789865     0.782222     0.774579     0.766936     0.759293     0.751650     0.744007     0.736364     0.728721     0.721077
      0.713434     0.705791     0.698148     0.690505     0.682862     0.675219     0.667576     0.659933     0.652290     0.644646
      0.637003     0.629360     0.621717     0.614074     0.606431     0.598788     0.591145     0.583502     0.575858     0.568215
      0.560572     0.552929     0.545286     0.537643     0.530000     0.522357     0.514714     0.507071     0.499427     0.491784
      0.484141     0.476498     0.468855     0.461212     0.453569     0.445925     0.438282     0.430639     0.422996     0.415353
      0.407710     0.400067     0.392424     0.384780     0.377137     0.369494     0.361851     0.354208     0.346565     0.338922
      0.331278     0.323635     0.315992     0.308349     0.300706     0.293063     0.285420     0.277777     0.270133     0.262490
      0.254847     0.247204     0.239561     0.231918     0.224275     0.216631     0.208988     0.201345
 NY phased data points follow
   8.53274E+00  1.08682E+01 -1.36344E+01  9.78888E-01  1.50957E+00  1.21961E+01  1.04463E+01 -1.16301E+00 -6.86536E+00 -1.48005E+00
   1.75140E+00  2.05732E+00 -4.73683E-01  1.29381E+00  8.59382E-01  5.65705E+00 -2.59313E-01  5.88622E+00 -5.33535E+00  2.35782E+00
   4.77960E+00  6.42661E+00  6.50467E+00  8.66355E+00 -5.55389E+00 -3.94806E+00  3.03194E+00 -6.86645E+00 -8.86002E+00 -1.16585E+00
   4.07157E+00  3.82048E+00  3.83455E+00  6.28091E+00  2.45063E+00  4.60450E+00  2.53244E+00  5.69854E+00 -4.20534E+00 -1.30842E+00
   4.97985E+00  4.61019E+00  5.65292E+00 -2.03401E-01  1.10076E+00 -2.03910E+00  2.96169E+00  3.87622E+00  8.41572E-01 -2.32526E+00
  -7.21766E-01  4.49359E+00  1.53095E+00  2.98182E+00 -5.32353E-01  2.11709E+00  9.31307E-01  7.15583E-01 -2.76122E+00  1.69082E+00
  -2.16562E+00  2.38295E+00 -3.21611E+00 -3.33081E+00  1.14105E-01 -2.67334E+00  8.28384E-01 -1.00715E+00 -1.50741E+00  1.96318E+00
   2.04834E+00 -1.73972E+00 -7.88050E+00 -2.07925E+00 -5.76918E+00 -5.38285E+00  5.80817E+00 -8.41822E-01  2.86563E+00 -2.67954E+00
  -4.39007E+00 -1.38733E+00  3.77330E-01 -1.66065E+00  1.07818E+00  1.21803E+00 -1.51457E+00  1.03961E+01  2.93098E+00  4.90563E+00
  -7.09028E-01 -5.88006E+00 -6.46884E+00 -4.69731E-01  2.37125E+00 -1.57690E+00 -1.35487E+00  3.04996E+00  9.13787E+00 -2.81371E-01
   5.98727E+00  1.68749E+00 -5.50533E+00  1.21439E+00  5.57125E+00  1.10608E+00  3.75475E+00 -1.22610E+00  1.07887E+00  1.65322E+00
   1.17719E+00 -5.05637E+00  8.85684E+00 -2.75608E+00  3.46517E+00 -5.86964E+00  7.73378E-01  1.10948E+01  1.95267E+00 -6.84513E-01
   6.10080E+00 -7.97750E-02  2.13430E+00  8.36139E-01  2.63566E+00  8.73660E-01  8.59228E+00 -2.98369E+00 -5.18968E+00 -3.90883E+00
   4.00599E+00 -6.32873E+00  3.64768E+00 -1.83232E+00 -3.60443E+00  6.44226E-02 -1.40021E+00 -1.56511E+00 -3.41359E+00 -8.84724E+00
  -6.79539E+00  1.32982E+00 -7.90460E-01  3.75865E+00  2.05456E+00 -1.30030E+00 -6.87058E+00  9.38365E-01  7.61354E-01  2.51607E+00
   5.79719E-01 -3.37258E-01  1.95903E+00 -4.36728E-01  2.41497E+00  2.91292E+00  4.50632E+00  5.85681E+00 -5.75277E-01 -3.37720E+00
  -6.13198E-01  1.18493E+00  2.93645E-01 -2.41081E+00  1.01098E+01  3.33193E+00 -5.10020E+00  2.60800E+00 -3.48549E+00 -2.48919E+00
   2.46506E+00 -4.83980E+00 -2.38701E+00 -1.89125E+00 -5.81700E+00 -2.08315E+00 -3.07973E+00  3.25570E+00  3.95932E+00 -1.77625E+00
  -3.86312E-01  3.49461E+00  7.73646E-01 -2.75645E+00  6.41916E+00  7.52259E-02 -4.38502E-02  4.46983E+00  6.56464E+00  1.80096E-01
   6.03655E+00  6.62207E+00 -8.36564E-01  1.33481E+00  3.72320E+00 -5.05415E-01 -2.53771E+00  8.41439E-01 -3.96191E+00 -4.93096E+00
  -7.25755E+00 -3.59337E+00 -1.60353E+00  9.02220E+00 -5.68171E+00  1.22762E+01 -1.33190E+00 -7.24141E+00 -1.20770E+00 -8.48249E+00
  -2.29262E+00 -2.43096E+00 -3.92991E-03  7.48862E+00 -3.44554E+00 -1.67870E+00  6.47063E-01 -3.12822E-01 -2.84097E+00 -1.97015E+00
  -1.09412E+00  4.28106E+00 -6.75462E+00 -1.77490E+00 -8.88344E-01  1.52788E+00 -1.12665E+00  5.05801E-01  8.47972E-01  3.30896E+00
   3.06943E+00  8.36746E+00 -2.43536E+00  2.69200E+00 -7.08930E+00  1.57039E+00 -1.99477E+00  7.21582E+00  2.12527E+00  1.15499E+01
   8.61307E+00 -2.17516E+00 -1.90204E+00  2.25885E+00  8.56866E+00  1.69298E+00  2.51768E+00 -2.44097E+00 -5.06964E+00 -1.06169E+01
  -2.34678E+00 -9.40803E-02 -2.48009E-01  7.65312E+00  3.18306E+00 -4.03458E-01  4.65039E+00 -3.54874E+00  5.60796E+00  5.08304E+00
   3.01467E+00  7.17671E+00 -2.48932E+00 -4.00944E-02 -7.70703E+00 -2.97915E+00 -4.88453E+00  4.54129E+00 -3.60241E+00  3.47277E+00
  -9.17490E+00 -2.72701E+00 -2.63536E+00 -6.41603E+00  3.04266E+00  7.98621E+00  3.08634E+00  4.88648E+00  5.41307E+00  6.67270E+00
  -3.47695E+00 -3.10101E+00 -5.99599E+00  4.80780E-01  5.98406E+00  1.90744E-01  1.01093E+00  5.56219E-01  2.06945E+00  6.50637E-01
  -8.40280E+00 -5.29920E+00 -3.95631E+00 -2.89748E+00  2.59334E+00 -2.50252E+00  3.62204E+00  1.14411E+00 -1.67902E+00 -4.09153E-01
  -8.16598E+00 -2.07052E+00 -8.18079E+00 -3.91021E+00  2.27665E+00  5.48336E+00  8.65643E+00 -8.35265E-03 -4.89669E+00 -5.04787E+00
  -2.71883E+00 -1.66058E+00  5.11281E+00  2.32097E+00  1.65752E+00  7.90345E+00  1.00319E+00 -3.84351E+00 -7.72185E+00  7.69562E-01
  -1.74092E+00 -6.55025E+00 -8.46653E+00  7.19480E+00 -1.36379E+00  2.97036E+00  1.23459E+00  4.62857E+00  6.07352E+00  8.76579E+00
   1.02818E+01  8.83387E+00  1.09035E+01  1.17612E+01  1.21298E+01  9.32639E+00  1.09686E+01  1.50934E+00  4.46467E+00  5.63324E+00
   8.79899E+00 -9.23762E-01  5.24224E+00  4.59210E+00 -5.14924E-01 -3.13173E+00  3.78466E-01 -5.06143E-01 -2.43858E-01  3.44230E-01
  -1.31421E+00 -9.06827E+00  2.32623E-01 -3.58388E+00  2.44721E+00 -3.29119E+00 -4.41357E-01 -2.15219E+00  2.33707E-01 -3.32219E+00
  -3.72190E+00  3.60730E+00 -8.72975E-01  8.19819E+00 -1.27037E+01 -1.55653E+00  2.07123E+00  1.46211E+00  6.67381E-01 -8.00229E-01
   2.29083E-01  3.79042E+00 -8.60529E-01 -8.52763E+00  4.58377E+00  2.43537E+00 -6.78427E+00  6.64710E+00  2.51515E-01  8.04575E-01
   8.90053E+00  2.59878E+00 -5.80133E-01  6.33305E+00  1.23147E+00 -2.85606E+00 -5.68012E-01  8.06437E-01  4.71042E+00 -3.30212E+00
  -2.52438E+00  2.94241E+00  2.13682E-01 -2.20999E+00  3.22503E+00 -7.49245E+00 -1.19962E+00 -4.95338E-01  2.75202E+00  5.73653E+00
  -3.35510E+00  5.40503E-03  5.63711E-01 -1.56163E+00  4.71899E+00  4.63284E+00 -8.47984E-01  9.03513E-01  6.84786E+00 -1.27726E+00
  -7.73425E+00 -5.11728E-01  6.64951E-01  7.98457E+00 -3.19084E+00  1.07501E-01  4.77801E+00 -2.36849E+00  5.56575E+00 -6.22571E+00
   2.44316E+00  3.91200E+00 -2.47624E+00  1.69708E+00  2.13471E+00 -3.28089E+00  4.00169E+00 -1.22184E+00 -7.01010E-01  1.65513E+00
  -3.38290E+00 -1.20396E-01 -5.24188E+00 -2.54571E+00  1.91237E+00  4.51098E+00 -1.84444E+00  1.19597E+00 -7.43238E+00 -1.77728E+00
  -3.60541E+00  1.04588E+00  2.07252E+00 -1.70291E+00 -4.00161E+00 -2.18984E-01  1.03026E-02 -4.38960E+00  9.51049E-01 -1.18275E+01
  -8.87441E+00 -1.82726E+00  2.54192E+00 -4.87588E+00 -2.89128E+00  1.97991E+00 -4.03264E+00 -3.87923E-01  4.17697E+00 -1.44481E+00
  -2.13451E+00  3.62304E+00 -3.79091E+00  7.33617E+00  2.99933E+00  4.02692E+00  4.45395E+00 -3.93912E+00 -3.77143E+00  8.18852E+00
  -4.46441E+00  1.03006E+01  1.07416E+00  2.70054E+00 -2.70361E+00 -7.67291E-01 -5.09063E+00  4.84765E+00 -6.79948E+00 -2.31335E+00
  -1.74693E+00  3.38697E+00  7.63585E-01  5.26974E+00  4.87201E+00 -2.81328E-01 -2.57567E+00  1.88074E+00 -4.39749E+00  1.60383E+00
  -1.08426E+00  2.75116E+00 -6.08140E+00 -8.56439E-01  8.09167E+00  4.52993E+00  1.04404E+01  4.14689E+00
 NY points of the fit to the data follow
   4.10227E-01  4.44223E-01  4.95559E-01  5.57894E-01  6.18730E-01  6.64509E-01  6.99022E-01  7.26823E-01  7.48749E-01  7.64207E-01
   7.75708E-01  7.88549E-01  8.08100E-01  8.35482E-01  8.69712E-01  9.10891E-01  9.62109E-01  1.02726E+00  1.11674E+00  1.24961E+00
   1.45684E+00  1.72868E+00  1.86398E+00  1.67584E+00  1.16637E+00  4.68457E-01 -2.22788E-01 -5.84549E-01 -2.93396E-01  5.70549E-01
   1.64831E+00  2.59270E+00  3.19080E+00  3.25333E+00  2.70353E+00  1.84097E+00  9.77547E-01  2.51920E-01 -2.33319E-01 -2.98364E-01
   8.58204E-02  6.42301E-01  1.15250E+00  1.50316E+00  1.61766E+00  1.47716E+00  1.23362E+00  1.05597E+00  9.32101E-01  8.39580E-01
   7.70666E-01  7.13753E-01  6.63167E-01  6.20169E-01  5.80372E-01  5.39305E-01  5.00306E-01  4.68950E-01  4.43950E-01  4.23375E-01
   4.05779E-01  3.91554E-01  3.81327E-01  3.73020E-01  3.65218E-01  3.56701E-01  3.47031E-01  3.36842E-01  3.27646E-01  3.20174E-01
   3.16265E-01  3.17513E-01  3.21880E-01  3.25821E-01  3.26255E-01  3.21201E-01  3.11732E-01  2.99806E-01  2.87713E-01  2.77309E-01
   2.70363E-01  2.71368E-01  2.83330E-01  3.01396E-01  3.17369E-01  3.26591E-01  3.27963E-01  3.22436E-01  3.11585E-01  2.96577E-01
   2.77881E-01  2.57202E-01  2.39241E-01  2.31684E-01  2.37366E-01  2.54495E-01  2.89681E-01  3.96673E-01  7.05306E-01  1.18963E+00
   1.70179E+00  2.10488E+00  2.32922E+00  2.36249E+00  2.22503E+00  1.95708E+00  1.60005E+00  1.18634E+00  7.66761E-01  4.45073E-01
   3.13036E-01  2.77917E-01  2.64118E-01  2.57408E-01  2.54208E-01  2.53193E-01  2.53200E-01  2.54003E-01  2.55274E-01  2.56801E-01
   2.59028E-01  2.64374E-01  2.77703E-01  2.98197E-01  3.20574E-01  3.39989E-01  3.53575E-01  3.59746E-01  3.58325E-01  3.49707E-01
   3.34338E-01  3.14125E-01  2.91763E-01  2.71512E-01  2.57473E-01  2.47193E-01  2.38347E-01  2.30028E-01  2.21500E-01  2.12543E-01
   2.03449E-01  1.94870E-01  1.86922E-01  1.79161E-01  1.70384E-01  1.60183E-01  1.49292E-01  1.38145E-01  1.26445E-01  1.11182E-01
   9.00937E-02  6.61391E-02  4.40100E-02  2.84125E-02  2.17679E-02  1.98022E-02  1.73167E-02  1.17235E-02  3.20586E-03 -7.07767E-03
  -1.92110E-02 -3.49607E-02 -5.33332E-02 -7.08737E-02 -8.65853E-02 -1.01179E-01 -1.13049E-01 -1.20625E-01 -1.21116E-01 -1.14103E-01
  -1.04202E-01 -9.76893E-02 -9.56440E-02 -9.63965E-02 -9.86956E-02 -1.02976E-01 -1.10799E-01 -1.24293E-01 -1.40387E-01 -1.48033E-01
  -1.39482E-01 -1.15803E-01 -8.43877E-02 -4.85980E-02 -9.57994E-03  2.68032E-02  5.65585E-02  8.12735E-02  9.73912E-02  7.31133E-02
  -3.28794E-02 -2.20873E-01 -5.17797E-01 -8.93818E-01 -1.27375E+00 -1.57322E+00 -1.70428E+00 -1.53318E+00 -9.84420E-01 -1.37237E-01
   8.56682E-01  1.85922E+00  2.66157E+00  3.07693E+00  2.90344E+00  1.95399E+00  1.92289E-01 -1.87926E+00 -3.60312E+00 -4.51050E+00
  -4.44900E+00 -3.44457E+00 -1.78110E+00  1.37430E-01  1.87396E+00  3.15572E+00  3.70240E+00  3.21360E+00  1.85395E+00  3.34399E-01
  -8.83461E-01 -1.61291E+00 -1.73834E+00 -1.27579E+00 -5.03138E-01  3.72143E-01  1.20009E+00  1.85202E+00  2.19736E+00  2.17796E+00
   1.91536E+00  1.49665E+00  8.90493E-01  2.38911E-01 -2.19840E-01 -3.48883E-01 -8.03623E-02  5.68221E-01  1.29594E+00  1.83267E+00
   2.08927E+00  2.05564E+00  1.70866E+00  1.03263E+00  1.51589E-01 -6.92883E-01 -1.34118E+00 -1.63631E+00 -1.44260E+00 -8.15686E-01
  -5.80871E-03  9.60088E-01  1.97342E+00  2.76590E+00  3.19530E+00  3.28497E+00  3.09931E+00  2.70478E+00  2.24283E+00  1.83983E+00
   1.51053E+00  1.24659E+00  1.09520E+00  1.09630E+00  1.12849E+00  1.08976E+00  9.82639E-01  8.35880E-01  7.02285E-01  6.11654E-01
   5.79788E-01  5.99893E-01  6.31750E-01  6.63426E-01  6.94053E-01  7.08516E-01  6.98397E-01  6.63716E-01  6.07681E-01  5.41000E-01
   4.82392E-01  4.43111E-01  4.20041E-01  4.05884E-01  3.95558E-01  3.87386E-01  3.78965E-01  3.67348E-01  3.54095E-01  3.43182E-01
   3.36210E-01  3.33066E-01  3.32376E-01  3.33493E-01  3.34472E-01  3.33802E-01  3.31882E-01  3.29538E-01  3.27758E-01  3.28352E-01
   3.31901E-01  3.37871E-01  3.45770E-01  3.55328E-01  3.66227E-01  3.77857E-01  3.89563E-01  4.01892E-01  4.15600E-01  4.31306E-01
   4.49819E-01  4.71619E-01  4.97134E-01  5.27008E-01  5.61845E-01  6.02068E-01  6.48035E-01  7.00025E-01  7.58189E-01  8.22509E-01
   8.92747E-01  9.68435E-01  1.04892E+00  1.13337E+00  1.22073E+00  1.30972E+00  1.39891E+00  1.48673E+00  1.57161E+00  1.65199E+00
   1.72635E+00  1.79332E+00  1.85175E+00  1.90086E+00  1.94037E+00  1.97059E+00  1.99257E+00  2.00836E+00  2.02165E+00  2.03906E+00
   2.07353E+00  2.15632E+00  2.34611E+00  2.57411E+00  2.66464E+00  2.52146E+00  2.14689E+00  1.59616E+00  9.28022E-01  2.12204E-01
  -3.63608E-01 -6.44555E-01 -6.08174E-01 -2.92088E-01  2.29006E-01  7.62286E-01  1.15542E+00  1.39680E+00  1.49426E+00  1.44787E+00
   1.25819E+00  9.82476E-01  7.66900E-01  6.41587E-01  5.58997E-01  4.98585E-01  4.51630E-01  4.13551E-01  3.81672E-01  3.54364E-01
   3.30617E-01  3.09785E-01  2.91450E-01  2.75364E-01  2.61435E-01  2.49701E-01  2.40290E-01  2.33371E-01  2.29138E-01  2.27825E-01
   2.29716E-01  2.35137E-01  2.44425E-01  2.57902E-01  2.75870E-01  2.98610E-01  3.26377E-01  3.59368E-01  3.97675E-01  4.41251E-01
   4.89896E-01  5.43239E-01  6.00727E-01  6.61592E-01  7.24837E-01  7.89241E-01  8.53401E-01  9.15773E-01  9.74725E-01  1.02859E+00
   1.07572E+00  1.11458E+00  1.14384E+00  1.16246E+00  1.16968E+00  1.16514E+00  1.14884E+00  1.12114E+00  1.08281E+00  1.03491E+00
   9.78778E-01  9.15904E-01  8.47898E-01  7.76395E-01  7.03001E-01  6.29218E-01  5.56385E-01  4.85642E-01  4.17911E-01  3.53902E-01
   2.94117E-01  2.38859E-01  1.88248E-01  1.42248E-01  1.00707E-01  6.33964E-02  3.00268E-02  2.71610E-04 -2.62187E-02 -4.97957E-02
  -7.07943E-02 -8.95212E-02 -1.06258E-01 -1.21263E-01 -1.34773E-01 -1.46994E-01 -1.58100E-01 -1.68236E-01 -1.77529E-01 -1.86090E-01
  -1.94019E-01 -2.01397E-01 -2.08289E-01 -2.14748E-01 -2.20822E-01 -2.26561E-01 -2.32007E-01 -2.37191E-01 -2.42136E-01 -2.46864E-01
  -2.51396E-01 -2.55754E-01 -2.59957E-01 -2.64015E-01 -2.67935E-01 -2.71728E-01 -2.75408E-01 -2.78991E-01 -2.82483E-01 -2.85889E-01
  -2.89210E-01 -2.92453E-01 -2.95624E-01 -2.98731E-01 -3.01776E-01 -3.04760E-01 -3.07685E-01 -3.10558E-01 -3.13388E-01 -3.16178E-01
  -3.18927E-01 -3.21635E-01 -3.24302E-01 -3.26933E-01 -3.29533E-01 -3.32103E-01 -3.34640E-01 -3.37146E-01 -3.39622E-01 -3.42075E-01
  -3.44508E-01 -3.46917E-01 -3.49301E-01 -3.51659E-01 -3.53996E-01 -3.56315E-01 -3.58617E-01 -3.60898E-01 -3.63156E-01 -3.65394E-01
  -3.67615E-01 -3.69822E-01 -3.72011E-01 -3.74179E-01 -3.76325E-01 -3.78453E-01 -3.80563E-01 -3.82655E-01
 NY background values follow
     4.132E-01    4.115E-01    4.099E-01    4.082E-01    4.065E-01    4.048E-01    4.032E-01    4.015E-01    3.998E-01    3.981E-01
     3.965E-01    3.948E-01    3.931E-01    3.915E-01    3.898E-01    3.881E-01    3.864E-01    3.848E-01    3.831E-01    3.814E-01
     3.797E-01    3.781E-01    3.764E-01    3.747E-01    3.730E-01    3.714E-01    3.697E-01    3.680E-01    3.663E-01    3.647E-01
     3.630E-01    3.613E-01    3.596E-01    3.580E-01    3.563E-01    3.546E-01    3.530E-01    3.513E-01    3.496E-01    3.479E-01
     3.463E-01    3.446E-01    3.429E-01    3.412E-01    3.396E-01    3.379E-01    3.362E-01    3.345E-01    3.329E-01    3.312E-01
     3.295E-01    3.278E-01    3.262E-01    3.245E-01    3.228E-01    3.212E-01    3.195E-01    3.178E-01    3.161E-01    3.145E-01
     3.128E-01    3.111E-01    3.094E-01    3.078E-01    3.061E-01    3.044E-01    3.027E-01    3.011E-01    2.994E-01    2.977E-01
     2.960E-01    2.944E-01    2.927E-01    2.910E-01    2.893E-01    2.877E-01    2.860E-01    2.843E-01    2.827E-01    2.810E-01
     2.793E-01    2.776E-01    2.760E-01    2.743E-01    2.726E-01    2.709E-01    2.693E-01    2.676E-01    2.659E-01    2.642E-01
     2.626E-01    2.609E-01    2.592E-01    2.575E-01    2.559E-01    2.542E-01    2.525E-01    2.509E-01    2.492E-01    2.475E-01
     2.458E-01    2.442E-01    2.425E-01    2.408E-01    2.391E-01    2.375E-01    2.358E-01    2.341E-01    2.324E-01    2.308E-01
     2.291E-01    2.274E-01    2.257E-01    2.241E-01    2.224E-01    2.207E-01    2.191E-01    2.174E-01    2.157E-01    2.140E-01
     2.124E-01    2.107E-01    2.090E-01    2.073E-01    2.057E-01    2.040E-01    2.023E-01    2.006E-01    1.990E-01    1.973E-01
     1.956E-01    1.939E-01    1.923E-01    1.906E-01    1.889E-01    1.873E-01    1.856E-01    1.839E-01    1.822E-01    1.806E-01
     1.789E-01    1.772E-01    1.755E-01    1.739E-01    1.722E-01    1.705E-01    1.688E-01    1.672E-01    1.655E-01    1.638E-01
     1.621E-01    1.605E-01    1.588E-01    1.571E-01    1.555E-01    1.538E-01    1.521E-01    1.504E-01    1.488E-01    1.471E-01
     1.454E-01    1.437E-01    1.421E-01    1.404E-01    1.387E-01    1.370E-01    1.354E-01    1.337E-01    1.320E-01    1.303E-01
     1.287E-01    1.270E-01    1.253E-01    1.237E-01    1.220E-01    1.203E-01    1.186E-01    1.170E-01    1.153E-01    1.136E-01
     1.119E-01    1.103E-01    1.086E-01    1.069E-01    1.052E-01    1.036E-01    1.019E-01    1.002E-01    9.855E-02    9.688E-02
     9.520E-02    9.353E-02    9.186E-02    9.018E-02    8.851E-02    8.684E-02    8.516E-02    8.349E-02    8.181E-02    8.014E-02
     7.847E-02    7.679E-02    7.512E-02    7.345E-02    7.177E-02    7.010E-02    6.843E-02    6.675E-02    6.508E-02    6.341E-02
     6.173E-02    6.006E-02    5.839E-02    5.671E-02    5.504E-02    5.336E-02    5.169E-02    5.002E-02    4.834E-02    4.667E-02
     4.500E-02    4.332E-02    4.165E-02    3.998E-02    3.830E-02    3.663E-02    3.496E-02    3.328E-02    3.161E-02    2.994E-02
     2.826E-02    2.659E-02    2.492E-02    2.324E-02    2.157E-02    1.990E-02    1.822E-02    1.655E-02    1.488E-02    1.320E-02
     1.153E-02    9.855E-03    8.181E-03    6.508E-03    4.835E-03    3.161E-03    1.488E-03   -1.857E-04   -1.859E-03   -3.532E-03
    -5.206E-03   -6.879E-03   -8.553E-03   -1.023E-02   -1.190E-02   -1.357E-02   -1.525E-02   -1.692E-02   -1.859E-02   -2.027E-02
    -2.194E-02   -2.361E-02   -2.529E-02   -2.696E-02   -2.863E-02   -3.031E-02   -3.198E-02   -3.365E-02   -3.533E-02   -3.700E-02
    -3.867E-02   -4.035E-02   -4.202E-02   -4.369E-02   -4.537E-02   -4.704E-02   -4.871E-02   -5.039E-02   -5.206E-02   -5.373E-02
    -5.541E-02   -5.708E-02   -5.875E-02   -6.043E-02   -6.210E-02   -6.377E-02   -6.545E-02   -6.712E-02   -6.879E-02   -7.047E-02
    -7.214E-02   -7.381E-02   -7.549E-02   -7.716E-02   -7.883E-02   -8.050E-02   -8.218E-02   -8.385E-02   -8.552E-02   -8.720E-02
    -8.887E-02   -9.054E-02   -9.222E-02   -9.389E-02   -9.556E-02   -9.724E-02   -9.891E-02   -1.006E-01   -1.023E-01   -1.039E-01
    -1.056E-01   -1.073E-01   -1.089E-01   -1.106E-01   -1.123E-01   -1.140E-01   -1.156E-01   -1.173E-01   -1.190E-01   -1.207E-01
    -1.223E-01   -1.240E-01   -1.257E-01   -1.274E-01   -1.290E-01   -1.307E-01   -1.324E-01   -1.340E-01   -1.357E-01   -1.374E-01
    -1.391E-01   -1.407E-01   -1.424E-01   -1.441E-01   -1.458E-01   -1.474E-01   -1.491E-01   -1.508E-01   -1.525E-01   -1.541E-01
    -1.558E-01   -1.575E-01   -1.591E-01   -1.608E-01   -1.625E-01   -1.642E-01   -1.658E-01   -1.675E-01   -1.692E-01   -1.709E-01
    -1.725E-01   -1.742E-01   -1.759E-01   -1.775E-01   -1.792E-01   -1.809E-01   -1.826E-01   -1.842E-01   -1.859E-01   -1.876E-01
    -1.893E-01   -1.909E-01   -1.926E-01   -1.943E-01   -1.960E-01   -1.976E-01   -1.993E-01   -2.010E-01   -2.026E-01   -2.043E-01
    -2.060E-01   -2.077E-01   -2.093E-01   -2.110E-01   -2.127E-01   -2.144E-01   -2.160E-01   -2.177E-01   -2.194E-01   -2.210E-01
    -2.227E-01   -2.244E-01   -2.261E-01   -2.277E-01   -2.294E-01   -2.311E-01   -2.328E-01   -2.344E-01   -2.361E-01   -2.378E-01
    -2.394E-01   -2.411E-01   -2.428E-01   -2.445E-01   -2.461E-01   -2.478E-01   -2.495E-01   -2.512E-01   -2.528E-01   -2.545E-01
    -2.562E-01   -2.579E-01   -2.595E-01   -2.612E-01   -2.629E-01   -2.645E-01   -2.662E-01   -2.679E-01   -2.696E-01   -2.712E-01
    -2.729E-01   -2.746E-01   -2.763E-01   -2.779E-01   -2.796E-01   -2.813E-01   -2.829E-01   -2.846E-01   -2.863E-01   -2.880E-01
    -2.896E-01   -2.913E-01   -2.930E-01   -2.947E-01   -2.963E-01   -2.980E-01   -2.997E-01   -3.013E-01   -3.030E-01   -3.047E-01
    -3.064E-01   -3.080E-01   -3.097E-01   -3.114E-01   -3.131E-01   -3.147E-01   -3.164E-01   -3.181E-01   -3.197E-01   -3.214E-01
    -3.231E-01   -3.248E-01   -3.264E-01   -3.281E-01   -3.298E-01   -3.315E-01   -3.331E-01   -3.348E-01   -3.365E-01   -3.382E-01
    -3.398E-01   -3.415E-01   -3.432E-01   -3.448E-01   -3.465E-01   -3.482E-01   -3.499E-01   -3.515E-01   -3.532E-01   -3.549E-01
    -3.566E-01   -3.582E-01   -3.599E-01   -3.616E-01   -3.632E-01   -3.649E-01   -3.666E-01   -3.683E-01   -3.699E-01   -3.716E-01
    -3.733E-01   -3.750E-01   -3.766E-01   -3.783E-01   -3.800E-01   -3.816E-01   -3.833E-01   -3.850E-01   -3.867E-01   -3.883E-01
    -3.900E-01   -3.917E-01   -3.934E-01   -3.950E-01   -3.967E-01   -3.984E-01   -4.000E-01   -4.017E-01   -4.034E-01   -4.051E-01
    -4.067E-01   -4.084E-01   -4.101E-01   -4.118E-01   -4.134E-01   -4.151E-01   -4.168E-01   -4.184E-01
 Asp      Conc. = 5.83E+00
