 LCModel (Version 6.3-1L) Copyright: S.W. Provencher.          Ref.: Magn. Reson. Med. 30:672-679 (1993).                
 Slice#1 Row#5 Col#12  PD_05_press_2_raw_act
 36 lines in following concentration table = NCONC+1
    Conc.  %SD /Cr+PCr  Metabolite                                         
 9.01E+03  11%  29.206 Ala                                                 
   48.415  64%   0.157 Asp                                                 
  308.450  37%   1.000 Cr                                                  
    0.000 999%   0.000 PCr                                                 
   29.984  62% 9.7E-02 GABA                                                
   30.025  62% 9.7E-02 Glc                                                 
  110.442 999%   0.358 Gln                                                 
 2.43E+03  65%   7.873 Glu                                                 
   58.748  85%   0.190 GPC                                                 
    0.000 999%   0.000 PCh                                                 
  199.816 134%   0.648 GSH                                                 
 1.78E+03  33%   5.771 Ins                                                 
    0.000 999%   0.000 Lac                                                 
    0.000 999%   0.000 NAA                                                 
  509.696  43%   1.652 NAAG                                                
   10.432  59% 3.4E-02 Scyllo                                              
   49.378  62%   0.160 Tau                                                 
    0.000 999%   0.000 -CrCH2                                              
   58.748  85%   0.190 GPC+PCh                                             
  509.696  43%   1.652 NAA+NAAG                                            
  308.450  37%   1.000 Cr+PCr                                              
 2.54E+03  95%   8.231 Glu+Gln                                             
    0.000 999%   0.000 Lip13a                                              
    0.000 999%   0.000 Lip13b                                              
    0.000 999%   0.000 Lip09                                               
 2.18E+03  11%   7.052 MM09                                                
    0.000 999%   0.000 Lip20                                               
 1.27E+03  50%   4.121 MM20                                                
  617.849  32%   2.003 MM12                                                
 6.44E+03   4%  20.888+MM14                                                
 3.22E+03  14%  10.445+MM17                                                
    0.000 999%   0.000 Lip13a+Lip13b                                       
 7.06E+03   5%  22.891 MM14+Lip13a+Lip13b+MM12                             
 2.18E+03  11%   7.052 MM09+Lip09                                          
 1.27E+03  50%   4.121 MM20+Lip20                                          
   6 lines in following misc. output table
  FWHM = 0.168 ppm    S/N =   6                                            
  Data shift = 0.054 ppm                                                   
  Ph: -54 deg     -32.7 deg/ppm                                            
  alphaB,S = 8.5E+01,   3.4E+02                                            
    6 spline knots.   Ns = 9(2)                                            
   2 inflections.     1 extrema                                            
  498 points on ppm-axis = NY
      4.000000     3.992357     3.984714     3.977070     3.969427     3.961784     3.954141     3.946497     3.938854     3.931211
      3.923568     3.915925     3.908281     3.900638     3.892995     3.885352     3.877708     3.870065     3.862422     3.854779
      3.847136     3.839492     3.831849     3.824206     3.816563     3.808919     3.801276     3.793633     3.785990     3.778347
      3.770703     3.763060     3.755417     3.747774     3.740130     3.732487     3.724844     3.717201     3.709558     3.701914
      3.694271     3.686628     3.678985     3.671341     3.663698     3.656055     3.648412     3.640769     3.633125     3.625482
      3.617839     3.610196     3.602552     3.594909     3.587266     3.579623     3.571980     3.564336     3.556693     3.549050
      3.541407     3.533763     3.526120     3.518477     3.510834     3.503191     3.495547     3.487904     3.480261     3.472618
      3.464974     3.457331     3.449688     3.442045     3.434402     3.426758     3.419115     3.411472     3.403829     3.396185
      3.388542     3.380899     3.373256     3.365613     3.357969     3.350326     3.342683     3.335040     3.327396     3.319753
      3.312110     3.304467     3.296824     3.289180     3.281537     3.273894     3.266251     3.258607     3.250964     3.243321
      3.235678     3.228034     3.220391     3.212748     3.205105     3.197462     3.189818     3.182175     3.174532     3.166889
      3.159245     3.151602     3.143959     3.136316     3.128673     3.121029     3.113386     3.105743     3.098100     3.090456
      3.082813     3.075170     3.067527     3.059884     3.052240     3.044597     3.036954     3.029311     3.021667     3.014024
      3.006381     2.998738     2.991095     2.983451     2.975808     2.968165     2.960522     2.952878     2.945235     2.937592
      2.929949     2.922306     2.914662     2.907019     2.899376     2.891733     2.884089     2.876446     2.868803     2.861160
      2.853517     2.845873     2.838230     2.830587     2.822944     2.815300     2.807657     2.800014     2.792371     2.784728
      2.777084     2.769441     2.761798     2.754155     2.746511     2.738868     2.731225     2.723582     2.715939     2.708295
      2.700652     2.693009     2.685366     2.677722     2.670079     2.662436     2.654793     2.647150     2.639506     2.631863
      2.624220     2.616577     2.608933     2.601290     2.593647     2.586004     2.578361     2.570717     2.563074     2.555431
      2.547788     2.540144     2.532501     2.524858     2.517215     2.509572     2.501928     2.494285     2.486642     2.478999
      2.471355     2.463712     2.456069     2.448426     2.440783     2.433139     2.425496     2.417853     2.410210     2.402566
      2.394923     2.387280     2.379637     2.371994     2.364350     2.356707     2.349064     2.341421     2.333777     2.326134
      2.318491     2.310848     2.303205     2.295561     2.287918     2.280275     2.272632     2.264988     2.257345     2.249702
      2.242059     2.234416     2.226772     2.219129     2.211486     2.203843     2.196199     2.188556     2.180913     2.173270
      2.165627     2.157983     2.150340     2.142697     2.135054     2.127410     2.119767     2.112124     2.104481     2.096838
      2.089194     2.081551     2.073908     2.066265     2.058621     2.050978     2.043335     2.035692     2.028049     2.020405
      2.012762     2.005119     1.997476     1.989833     1.982190     1.974546     1.966903     1.959260     1.951617     1.943974
      1.936331     1.928688     1.921045     1.913402     1.905759     1.898115     1.890472     1.882829     1.875186     1.867543
      1.859900     1.852257     1.844614     1.836971     1.829327     1.821684     1.814041     1.806398     1.798755     1.791112
      1.783469     1.775826     1.768183     1.760540     1.752896     1.745253     1.737610     1.729967     1.722324     1.714681
      1.707038     1.699395     1.691752     1.684108     1.676465     1.668822     1.661179     1.653536     1.645893     1.638250
      1.630607     1.622964     1.615321     1.607677     1.600034     1.592391     1.584748     1.577105     1.569462     1.561819
      1.554176     1.546533     1.538890     1.531246     1.523603     1.515960     1.508317     1.500674     1.493031     1.485388
      1.477745     1.470102     1.462458     1.454815     1.447172     1.439529     1.431886     1.424243     1.416600     1.408957
      1.401314     1.393671     1.386027     1.378384     1.370741     1.363098     1.355455     1.347812     1.340169     1.332526
      1.324883     1.317240     1.309596     1.301953     1.294310     1.286667     1.279024     1.271381     1.263738     1.256095
      1.248452     1.240808     1.233165     1.225522     1.217879     1.210236     1.202593     1.194950     1.187307     1.179664
      1.172021     1.164377     1.156734     1.149091     1.141448     1.133805     1.126162     1.118519     1.110876     1.103233
      1.095590     1.087946     1.080303     1.072660     1.065017     1.057374     1.049731     1.042088     1.034445     1.026802
      1.019158     1.011515     1.003872     0.996229     0.988586     0.980943     0.973300     0.965657     0.958014     0.950371
      0.942727     0.935084     0.927441     0.919798     0.912155     0.904512     0.896869     0.889226     0.881583     0.873940
      0.866296     0.858653     0.851010     0.843367     0.835724     0.828081     0.820438     0.812795     0.805152     0.797508
      0.789865     0.782222     0.774579     0.766936     0.759293     0.751650     0.744007     0.736364     0.728721     0.721077
      0.713434     0.705791     0.698148     0.690505     0.682862     0.675219     0.667576     0.659933     0.652290     0.644646
      0.637003     0.629360     0.621717     0.614074     0.606431     0.598788     0.591145     0.583502     0.575858     0.568215
      0.560572     0.552929     0.545286     0.537643     0.530000     0.522357     0.514714     0.507071     0.499427     0.491784
      0.484141     0.476498     0.468855     0.461212     0.453569     0.445925     0.438282     0.430639     0.422996     0.415353
      0.407710     0.400067     0.392424     0.384780     0.377137     0.369494     0.361851     0.354208     0.346565     0.338922
      0.331278     0.323635     0.315992     0.308349     0.300706     0.293063     0.285420     0.277777     0.270133     0.262490
      0.254847     0.247204     0.239561     0.231918     0.224275     0.216631     0.208988     0.201345
 NY phased data points follow
   1.50817E+00  9.87287E+00  8.24108E+00  1.14576E+01  9.21716E+00  8.00219E+00  1.02940E+01 -3.44379E+00  3.50351E+00  2.82396E+00
   8.23011E+00  1.04607E+01  9.68072E+00  5.28087E+00  1.37315E+00  1.25881E+01  4.17553E+00  2.83423E+00  1.01480E+01  5.35274E+00
   5.61990E+00  3.61843E+00  4.31491E+00  5.40825E+00  3.44270E+00  3.01992E+00  4.11379E+00  5.91016E+00  9.12467E+00  1.30900E-01
   6.74934E+00  1.08566E+01  7.57922E-01  2.32067E+00  5.37351E+00  6.72166E-01 -1.54691E+00  3.61627E+00  5.94909E-01  4.29835E+00
   2.70268E+00  5.46576E+00  1.16025E+01  8.50826E+00  5.65564E+00 -8.71963E-01  6.36927E+00 -1.83040E+00  1.07816E+01  7.93785E-01
   9.06152E+00  6.04078E+00  5.48984E+00  8.52513E+00  4.89003E+00  3.61621E+00  9.13089E+00 -1.33155E+00  4.22631E+00 -3.14208E+00
   6.02898E+00 -3.10536E-01  5.82522E+00 -3.44993E-01  4.21731E+00  7.43327E+00  7.93434E+00  2.37256E+00  1.07608E+01 -4.90626E+00
   4.24671E+00  2.61913E+00  6.82248E+00 -7.66954E-01  2.91208E+00  4.47895E+00  3.80799E+00  6.76553E+00 -2.47364E+00  4.67865E-01
   8.68338E+00  3.82799E+00 -1.82221E+00  1.99174E+00  3.20540E+00  5.17915E+00  7.22881E+00  4.33141E+00  7.23042E+00 -8.24384E+00
   2.19847E+00  7.28038E+00  8.53775E-02 -1.98028E+00 -1.34785E+00  1.75686E+00 -1.05560E+00  8.40065E+00 -6.52153E-01 -1.82636E+00
  -5.11566E+00 -1.27766E+00  2.29392E+00  3.74462E+00  1.93413E+00  1.92092E+00 -9.73299E-02 -1.60023E+00  4.32553E+00  2.65984E+00
   7.83554E+00  1.16062E+00  7.00786E+00  8.59350E+00  1.27615E+00  3.15123E-01  1.44394E+00 -3.72859E+00 -1.38364E+00 -3.87699E+00
   2.36994E+00  4.48736E+00  1.07537E+01  5.35779E+00  2.57091E+00  3.10441E+00  2.03560E+00  2.84757E+00  7.09492E+00  1.60611E+00
   5.22779E+00  5.40240E-01  3.75167E+00  4.13542E+00  4.51038E+00  5.70797E+00  4.03864E+00 -5.11654E+00  2.03544E+00 -1.54594E+00
   1.08193E+01  6.68209E+00 -3.86985E-01  3.04334E+00  3.82238E+00  4.16835E+00  1.78818E+00  5.11462E+00  2.85845E+00  5.62762E+00
  -2.18540E+00 -8.21672E-01 -5.00118E+00  9.41159E+00  4.46291E+00 -7.58554E-01  9.68561E+00  1.20658E+00  7.38695E-01  1.90240E+00
  -2.37552E+00  2.30008E+00 -3.41737E+00  3.58507E+00  1.35601E-02 -7.11367E-02  8.87883E+00 -4.06802E+00 -1.23075E+00  2.69222E+00
  -1.35419E+00  1.12369E+00 -3.22037E-02  3.25523E+00 -3.14884E+00 -3.46330E-01  3.55499E+00  2.16634E+00  3.48600E+00  4.47180E-01
  -2.29568E+00 -3.08511E+00  6.24975E+00  6.47255E+00  1.63563E+00 -1.64498E+00  4.77923E-01 -1.43471E-01 -1.65720E+00  5.85510E+00
   2.56548E+00  2.35047E+00  4.38071E+00  3.69510E-01 -2.44954E+00  4.04079E+00 -5.53292E+00 -4.46589E+00 -4.60566E-01 -6.35050E+00
  -3.49884E-01 -8.00009E-01  5.49444E-01  1.81805E+00  6.64416E+00  6.35805E+00 -1.59263E+00  3.63395E+00 -3.63855E+00  5.78018E+00
   1.75928E+00 -1.33961E+00  3.45410E+00 -1.94153E-02  4.40360E+00 -1.90219E+00  7.41171E-03 -5.21077E+00  1.21699E+00  5.12572E+00
   7.69912E+00  5.47098E+00  2.97691E-01  5.71383E-01 -6.53269E+00 -1.53443E+00  3.48387E-01  6.21495E-01  3.74071E+00  4.68170E+00
  -3.32729E+00 -2.30521E+00  2.95750E+00  1.69651E+00  9.65640E+00 -2.67309E+00  4.66968E+00 -1.13193E+00 -3.71311E+00 -9.87565E-01
   2.32214E+00  1.23865E+01  1.70295E+01  1.77207E+01  1.81815E+01  1.86944E+01  2.46453E+01  1.64189E+01  1.48179E+01  1.60166E+01
   1.20496E+01  1.11761E+01  8.16421E+00  1.12601E+01  1.90759E+01  2.00918E+01  9.15484E+00  2.36486E+01  1.46822E+01  9.49729E+00
   8.11466E+00  4.12183E+00  1.07192E+01  7.99511E+00  9.08588E+00  9.14209E+00  4.42315E-01  8.86106E+00  4.85186E+00  8.08883E+00
   9.88091E+00  5.22749E+00  8.11078E+00  3.29270E+00  7.96427E+00  1.12371E+01  4.58362E+00  6.89434E+00  6.88136E+00  4.52906E+00
   1.00690E+01  9.74458E+00 -1.95545E-01  1.79961E+00  4.25025E+00  1.00337E+01  5.75270E+00  1.11508E+01  9.49816E+00  1.19040E+01
   8.81514E+00  1.27205E+01  1.24226E+01  2.60269E+01  1.75683E+01  2.07942E+01  2.60509E+01  3.48955E+01  2.26455E+01  3.16825E+01
   3.00030E+01  2.74914E+01  3.84430E+01  3.86772E+01  3.31759E+01  3.89797E+01  4.39665E+01  4.95521E+01  5.05918E+01  5.98343E+01
   5.68886E+01  5.83294E+01  6.24768E+01  5.63688E+01  6.08474E+01  5.37268E+01  6.60735E+01  6.47659E+01  6.21160E+01  6.26410E+01
   6.30198E+01  6.80588E+01  6.22130E+01  6.57218E+01  6.21823E+01  5.43085E+01  6.09188E+01  5.99472E+01  5.93498E+01  5.35749E+01
   5.42422E+01  5.71525E+01  5.85948E+01  5.49754E+01  5.28471E+01  4.73220E+01  4.77370E+01  4.43841E+01  3.40826E+01  4.10878E+01
   3.83465E+01  3.97832E+01  3.27604E+01  2.67249E+01  3.14290E+01  2.76010E+01  2.53786E+01  3.23826E+01  2.92501E+01  2.45463E+01
   1.59787E+01  1.96078E+01  1.35493E+01  1.96356E+01  2.17610E+01  1.85462E+01  1.77378E+01  3.66540E+00  7.83997E+00  1.66232E+01
   1.42906E+00  8.90049E+00  4.83183E+00  1.31894E+01  1.59501E+01  1.39956E+01  1.81602E+01  1.18006E+01  1.64309E+01  9.78687E+00
   1.05040E+01  9.54874E+00  7.52129E+00  2.39898E+01  2.07683E+01  1.70884E+01  1.31902E+01  1.06732E+01  1.66787E+01  1.70130E+01
   1.59832E+01  1.63711E+01  2.48439E+01  1.90075E+01  1.35689E+01  1.88785E+01  1.91570E+01  2.02911E+01  1.65852E+01  2.49233E+01
   1.74431E+01  1.77953E+01  1.67726E+01  2.15128E+01  1.43659E+01  1.96252E+01  1.54094E+01  1.51979E+01  2.73513E+01  1.90114E+01
   1.50406E+01  1.89636E+01  1.48079E+01  1.26563E+01  1.52627E+01  1.91989E+01  1.38836E+01  1.79074E+01  1.25881E+01  8.44413E+00
   1.06175E+01  1.07731E+01  1.53418E+01  1.55751E+01  1.32921E+01  1.88639E+01  1.45392E+01  1.06947E+01  9.03649E+00  1.43886E+01
   1.24643E+01  1.23855E+01  1.42810E+01  1.14398E+01  1.58498E+01  1.44617E+01  1.11691E+01  1.25325E+01  9.73493E+00  1.69303E+00
   8.02236E+00  1.58981E+01  9.94743E+00  1.25804E+01  9.01073E+00  7.53364E+00  6.57426E+00  9.62423E+00  6.55591E+00  1.63508E+01
   1.42587E+01  6.49397E+00  8.78554E+00  6.66832E+00  7.20128E+00  4.11843E+00  2.82496E+00 -7.89562E-01  6.37185E+00  1.00081E+01
  -3.54626E-01  1.82727E+01  9.16685E+00  5.84354E+00  7.78664E+00  6.34702E+00  1.25325E+01  1.47882E+01  8.29205E+00  6.01489E+00
   7.90837E+00  9.22134E+00  1.50427E+01  6.51144E+00  6.64512E+00  3.96514E+00  1.16966E+01  5.45307E+00  3.97092E+00  7.46579E+00
   1.25500E+01  5.93889E+00  1.01965E+01  4.38851E+00  3.09148E+00  2.53279E+00  2.05624E+00  7.63959E+00  8.42443E+00  1.65734E+00
   7.98935E+00  8.56224E+00  5.19171E+00  5.48132E+00  3.80477E+00  3.45075E+00  1.11333E+01  9.79495E+00  4.63289E+00  7.28364E+00
   7.12580E+00  4.62595E+00  5.23067E+00  9.92684E+00  2.94179E+00  6.60303E+00  8.55689E+00  4.68511E+00
 NY points of the fit to the data follow
   5.05829E+00  4.70132E+00  4.59322E+00  4.28780E+00  4.24858E+00  4.14130E+00  4.38753E+00  4.77680E+00  4.76600E+00  5.25004E+00
   4.68137E+00  5.20875E+00  4.18282E+00  4.66036E+00  3.20577E+00  4.25838E+00  2.85882E+00  4.23582E+00  2.83068E+00  4.27042E+00
   2.79991E+00  4.11529E+00  2.57658E+00  3.70085E+00  2.51239E+00  3.51721E+00  2.82093E+00  3.64576E+00  3.43139E+00  4.05046E+00
   4.23945E+00  4.39546E+00  4.75678E+00  4.46132E+00  5.05240E+00  4.41389E+00  5.29220E+00  4.56494E+00  5.74054E+00  4.91910E+00
   6.11213E+00  5.26155E+00  6.40948E+00  5.48988E+00  6.49145E+00  5.52534E+00  6.43258E+00  5.56674E+00  6.20325E+00  5.34329E+00
   5.79970E+00  5.05309E+00  5.41477E+00  4.72358E+00  5.00360E+00  4.54251E+00  4.91652E+00  4.49556E+00  4.83391E+00  4.43582E+00
   4.75255E+00  4.37246E+00  4.64073E+00  4.24530E+00  4.54260E+00  4.15825E+00  4.45602E+00  4.07179E+00  4.35092E+00  3.96484E+00
   4.20684E+00  3.74916E+00  3.89287E+00  3.37016E+00  3.46028E+00  2.91086E+00  2.99121E+00  2.42860E+00  2.52007E+00  1.96020E+00
   2.02837E+00  1.49800E+00  1.55830E+00  1.08610E+00  1.19169E+00  8.94578E-01  9.83066E-01  8.46240E-01  8.80122E-01  8.81707E-01
   8.49276E-01  9.71164E-01  8.66061E-01  1.10165E+00  9.45636E-01  1.27535E+00  1.07053E+00  1.46306E+00  1.21390E+00  1.61739E+00
   1.32702E+00  1.69718E+00  1.37980E+00  1.70669E+00  1.38336E+00  1.66916E+00  1.36872E+00  1.63376E+00  1.39724E+00  1.77789E+00
   1.70791E+00  2.07522E+00  2.17123E+00  2.46754E+00  2.72523E+00  2.95777E+00  3.37541E+00  3.51773E+00  4.06260E+00  4.06761E+00
   4.66724E+00  4.51095E+00  5.12932E+00  4.80623E+00  5.41985E+00  4.96658E+00  5.50914E+00  4.95000E+00  5.42219E+00  4.80120E+00
   5.20828E+00  4.57165E+00  4.91944E+00  4.26888E+00  4.54408E+00  3.88868E+00  4.07092E+00  3.43120E+00  3.52857E+00  2.94414E+00
   2.98013E+00  2.47828E+00  2.45943E+00  2.05396E+00  1.99910E+00  1.68212E+00  1.60412E+00  1.36902E+00  1.28481E+00  1.17287E+00
   1.11050E+00  1.02129E+00  9.38842E-01  8.78081E-01  7.87103E-01  7.59407E-01  6.66436E-01  6.45106E-01  5.42993E-01  5.33040E-01
   4.29596E-01  4.40678E-01  3.47092E-01  3.75295E-01  2.86108E-01  3.16613E-01  2.48961E-01  2.75847E-01  2.34741E-01  2.54513E-01
   2.41264E-01  2.61005E-01  2.90569E-01  3.23746E-01  4.11121E-01  4.44972E-01  5.66458E-01  5.89831E-01  7.30246E-01  7.31135E-01
   8.73573E-01  8.85721E-01  1.03315E+00  1.06425E+00  1.21594E+00  1.26728E+00  1.41871E+00  1.50264E+00  1.66278E+00  1.74204E+00
   1.88904E+00  1.94190E+00  1.98186E+00  2.03170E+00  1.97810E+00  2.06746E+00  2.00790E+00  2.22698E+00  2.39733E+00  2.63576E+00
   2.91567E+00  3.05877E+00  3.35360E+00  3.28426E+00  3.42041E+00  3.08174E+00  3.26299E+00  2.80647E+00  3.06221E+00  2.55459E+00
   2.82678E+00  2.27495E+00  2.47474E+00  1.88405E+00  1.99616E+00  1.50223E+00  1.61901E+00  1.34872E+00  1.56133E+00  1.56156E+00
   1.86915E+00  2.05682E+00  2.30249E+00  2.54122E+00  2.64898E+00  2.84752E+00  2.89532E+00  3.13165E+00  3.25076E+00  3.52498E+00
   3.76733E+00  4.02537E+00  4.31698E+00  4.45774E+00  4.80518E+00  4.85940E+00  5.34740E+00  5.51514E+00  6.53638E+00  6.66853E+00
   7.93932E+00  7.93716E+00  9.34659E+00  9.19066E+00  1.06432E+01  1.03569E+01  1.19534E+01  1.15683E+01  1.31875E+01  1.27000E+01
   1.42105E+01  1.35777E+01  1.48246E+01  1.40256E+01  1.49101E+01  1.40348E+01  1.46181E+01  1.37539E+01  1.40785E+01  1.32633E+01
   1.33803E+01  1.26066E+01  1.24889E+01  1.17486E+01  1.14422E+01  1.07563E+01  1.03485E+01  9.77710E+00  9.33972E+00  8.87190E+00
   8.43796E+00  8.06284E+00  7.64032E+00  7.33131E+00  6.95142E+00  6.73271E+00  6.44045E+00  6.35310E+00  6.26704E+00  6.23962E+00
   6.24183E+00  6.28001E+00  6.41611E+00  6.57958E+00  6.89301E+00  7.24264E+00  7.80123E+00  8.40344E+00  9.26030E+00  1.01984E+01
   1.14112E+01  1.27316E+01  1.43266E+01  1.60349E+01  1.79867E+01  2.00329E+01  2.22603E+01  2.45228E+01  2.68713E+01  2.91764E+01
   3.14708E+01  3.36528E+01  3.57527E+01  3.77153E+01  3.95981E+01  4.14137E+01  4.32896E+01  4.54018E+01  4.82454E+01  5.20786E+01
   5.41066E+01  5.78724E+01  5.84930E+01  6.16210E+01  6.07128E+01  6.27821E+01  5.99459E+01  6.29922E+01  6.01683E+01  6.35897E+01
   6.08626E+01  6.37151E+01  6.08497E+01  6.25309E+01  5.98093E+01  6.04813E+01  5.86985E+01  5.86514E+01  5.79175E+01  5.70844E+01
   5.72104E+01  5.52632E+01  5.54801E+01  5.18752E+01  5.17476E+01  4.69332E+01  4.67478E+01  4.14850E+01  4.16435E+01  3.68159E+01
   3.76220E+01  3.33388E+01  3.45449E+01  3.07122E+01  3.18434E+01  2.83057E+01  2.91251E+01  2.61059E+01  2.68304E+01  2.47007E+01
   2.45271E+01  2.24016E+01  2.17234E+01  1.97766E+01  1.87586E+01  1.69603E+01  1.56833E+01  1.48558E+01  1.42722E+01  1.38432E+01
   1.35210E+01  1.32763E+01  1.30892E+01  1.29456E+01  1.28357E+01  1.27520E+01  1.26898E+01  1.26459E+01  1.26186E+01  1.26074E+01
   1.26129E+01  1.26365E+01  1.26804E+01  1.27471E+01  1.28395E+01  1.29607E+01  1.31137E+01  1.33012E+01  1.35253E+01  1.37877E+01
   1.40890E+01  1.44289E+01  1.48059E+01  1.52169E+01  1.56578E+01  1.61227E+01  1.66045E+01  1.70949E+01  1.75842E+01  1.80621E+01
   1.85175E+01  1.89393E+01  1.93165E+01  1.96388E+01  1.98970E+01  2.00832E+01  2.01914E+01  2.02176E+01  2.01601E+01  2.00193E+01
   1.97980E+01  1.95010E+01  1.91348E+01  1.87076E+01  1.82285E+01  1.77076E+01  1.71552E+01  1.65813E+01  1.59960E+01  1.54081E+01
   1.48259E+01  1.42564E+01  1.37055E+01  1.31779E+01  1.26770E+01  1.22053E+01  1.17641E+01  1.13540E+01  1.09749E+01  1.06259E+01
   1.03059E+01  1.00134E+01  9.74666E+00  9.50380E+00  9.28297E+00  9.08233E+00  8.90007E+00  8.73449E+00  8.58398E+00  8.44709E+00
   8.32247E+00  8.20891E+00  8.10529E+00  8.01064E+00  7.92406E+00  7.84478E+00  7.77209E+00  7.70537E+00  7.64407E+00  7.58768E+00
   7.53577E+00  7.48795E+00  7.44386E+00  7.40320E+00  7.36568E+00  7.33105E+00  7.29906E+00  7.26955E+00  7.24229E+00  7.21716E+00
   7.19396E+00  7.17258E+00  7.15288E+00  7.13477E+00  7.11811E+00  7.10284E+00  7.08883E+00  7.07604E+00  7.06437E+00  7.05377E+00
   7.04416E+00  7.03550E+00  7.02771E+00  7.02076E+00  7.01459E+00  7.00918E+00  7.00447E+00  7.00043E+00  6.99701E+00  6.99420E+00
   6.99196E+00  6.99026E+00  6.98908E+00  6.98838E+00  6.98814E+00  6.98835E+00  6.98898E+00  6.99002E+00  6.99143E+00  6.99321E+00
   6.99534E+00  6.99780E+00  7.00059E+00  7.00368E+00  7.00706E+00  7.01072E+00  7.01465E+00  7.01884E+00  7.02328E+00  7.02797E+00
   7.03289E+00  7.03804E+00  7.04342E+00  7.04905E+00  7.05491E+00  7.06104E+00  7.06744E+00  7.07418E+00
 NY background values follow
    -1.196E+00   -1.181E+00   -1.167E+00   -1.152E+00   -1.137E+00   -1.123E+00   -1.108E+00   -1.094E+00   -1.079E+00   -1.064E+00
    -1.050E+00   -1.035E+00   -1.020E+00   -1.006E+00   -9.912E-01   -9.766E-01   -9.620E-01   -9.474E-01   -9.327E-01   -9.181E-01
    -9.035E-01   -8.889E-01   -8.742E-01   -8.596E-01   -8.450E-01   -8.304E-01   -8.157E-01   -8.011E-01   -7.865E-01   -7.719E-01
    -7.572E-01   -7.426E-01   -7.280E-01   -7.134E-01   -6.987E-01   -6.841E-01   -6.695E-01   -6.548E-01   -6.402E-01   -6.256E-01
    -6.109E-01   -5.963E-01   -5.817E-01   -5.670E-01   -5.524E-01   -5.378E-01   -5.231E-01   -5.085E-01   -4.938E-01   -4.792E-01
    -4.646E-01   -4.499E-01   -4.353E-01   -4.206E-01   -4.060E-01   -3.913E-01   -3.767E-01   -3.620E-01   -3.474E-01   -3.327E-01
    -3.180E-01   -3.034E-01   -2.887E-01   -2.741E-01   -2.594E-01   -2.447E-01   -2.301E-01   -2.154E-01   -2.007E-01   -1.861E-01
    -1.714E-01   -1.567E-01   -1.420E-01   -1.274E-01   -1.127E-01   -9.800E-02   -8.332E-02   -6.863E-02   -5.394E-02   -3.925E-02
    -2.456E-02   -9.868E-03    4.829E-03    1.953E-02    3.423E-02    4.893E-02    6.364E-02    7.834E-02    9.305E-02    1.078E-01
     1.225E-01    1.372E-01    1.519E-01    1.666E-01    1.814E-01    1.961E-01    2.108E-01    2.256E-01    2.403E-01    2.550E-01
     2.698E-01    2.845E-01    2.993E-01    3.140E-01    3.288E-01    3.435E-01    3.583E-01    3.730E-01    3.878E-01    4.025E-01
     4.173E-01    4.321E-01    4.469E-01    4.616E-01    4.764E-01    4.912E-01    5.060E-01    5.208E-01    5.356E-01    5.504E-01
     5.652E-01    5.800E-01    5.948E-01    6.096E-01    6.244E-01    6.392E-01    6.540E-01    6.689E-01    6.837E-01    6.985E-01
     7.134E-01    7.282E-01    7.430E-01    7.579E-01    7.727E-01    7.876E-01    8.025E-01    8.173E-01    8.322E-01    8.470E-01
     8.619E-01    8.768E-01    8.917E-01    9.066E-01    9.215E-01    9.363E-01    9.512E-01    9.661E-01    9.810E-01    9.960E-01
     1.011E+00    1.026E+00    1.041E+00    1.056E+00    1.071E+00    1.086E+00    1.100E+00    1.115E+00    1.130E+00    1.145E+00
     1.160E+00    1.175E+00    1.190E+00    1.205E+00    1.220E+00    1.235E+00    1.250E+00    1.265E+00    1.280E+00    1.295E+00
     1.310E+00    1.325E+00    1.340E+00    1.355E+00    1.370E+00    1.385E+00    1.400E+00    1.415E+00    1.430E+00    1.445E+00
     1.460E+00    1.475E+00    1.490E+00    1.506E+00    1.521E+00    1.536E+00    1.551E+00    1.566E+00    1.581E+00    1.596E+00
     1.611E+00    1.626E+00    1.641E+00    1.656E+00    1.672E+00    1.687E+00    1.702E+00    1.717E+00    1.732E+00    1.747E+00
     1.762E+00    1.777E+00    1.793E+00    1.808E+00    1.823E+00    1.838E+00    1.853E+00    1.868E+00    1.884E+00    1.899E+00
     1.914E+00    1.929E+00    1.944E+00    1.959E+00    1.975E+00    1.990E+00    2.005E+00    2.020E+00    2.036E+00    2.051E+00
     2.066E+00    2.081E+00    2.096E+00    2.112E+00    2.127E+00    2.142E+00    2.157E+00    2.173E+00    2.188E+00    2.203E+00
     2.218E+00    2.234E+00    2.249E+00    2.264E+00    2.279E+00    2.295E+00    2.310E+00    2.325E+00    2.341E+00    2.356E+00
     2.371E+00    2.386E+00    2.402E+00    2.417E+00    2.432E+00    2.448E+00    2.463E+00    2.478E+00    2.494E+00    2.509E+00
     2.524E+00    2.540E+00    2.555E+00    2.570E+00    2.586E+00    2.601E+00    2.616E+00    2.632E+00    2.647E+00    2.662E+00
     2.678E+00    2.693E+00    2.708E+00    2.724E+00    2.739E+00    2.755E+00    2.770E+00    2.785E+00    2.801E+00    2.816E+00
     2.832E+00    2.847E+00    2.862E+00    2.878E+00    2.893E+00    2.909E+00    2.924E+00    2.939E+00    2.955E+00    2.970E+00
     2.986E+00    3.001E+00    3.016E+00    3.032E+00    3.047E+00    3.063E+00    3.078E+00    3.094E+00    3.109E+00    3.125E+00
     3.140E+00    3.155E+00    3.171E+00    3.186E+00    3.202E+00    3.217E+00    3.233E+00    3.248E+00    3.264E+00    3.279E+00
     3.295E+00    3.310E+00    3.326E+00    3.341E+00    3.357E+00    3.372E+00    3.388E+00    3.403E+00    3.419E+00    3.434E+00
     3.450E+00    3.465E+00    3.481E+00    3.496E+00    3.512E+00    3.527E+00    3.543E+00    3.558E+00    3.574E+00    3.589E+00
     3.605E+00    3.620E+00    3.636E+00    3.651E+00    3.667E+00    3.682E+00    3.698E+00    3.714E+00    3.729E+00    3.745E+00
     3.760E+00    3.776E+00    3.791E+00    3.807E+00    3.822E+00    3.838E+00    3.854E+00    3.869E+00    3.885E+00    3.900E+00
     3.916E+00    3.931E+00    3.947E+00    3.963E+00    3.978E+00    3.994E+00    4.009E+00    4.025E+00    4.040E+00    4.056E+00
     4.072E+00    4.087E+00    4.103E+00    4.118E+00    4.134E+00    4.150E+00    4.165E+00    4.181E+00    4.196E+00    4.212E+00
     4.228E+00    4.243E+00    4.259E+00    4.274E+00    4.290E+00    4.306E+00    4.321E+00    4.337E+00    4.352E+00    4.368E+00
     4.384E+00    4.399E+00    4.415E+00    4.431E+00    4.446E+00    4.462E+00    4.477E+00    4.493E+00    4.509E+00    4.524E+00
     4.540E+00    4.556E+00    4.571E+00    4.587E+00    4.603E+00    4.618E+00    4.634E+00    4.649E+00    4.665E+00    4.681E+00
     4.696E+00    4.712E+00    4.728E+00    4.743E+00    4.759E+00    4.775E+00    4.790E+00    4.806E+00    4.822E+00    4.837E+00
     4.853E+00    4.868E+00    4.884E+00    4.900E+00    4.915E+00    4.931E+00    4.947E+00    4.962E+00    4.978E+00    4.994E+00
     5.009E+00    5.025E+00    5.041E+00    5.056E+00    5.072E+00    5.088E+00    5.103E+00    5.119E+00    5.135E+00    5.150E+00
     5.166E+00    5.182E+00    5.197E+00    5.213E+00    5.229E+00    5.244E+00    5.260E+00    5.276E+00    5.291E+00    5.307E+00
     5.323E+00    5.338E+00    5.354E+00    5.370E+00    5.385E+00    5.401E+00    5.417E+00    5.432E+00    5.448E+00    5.464E+00
     5.479E+00    5.495E+00    5.511E+00    5.526E+00    5.542E+00    5.558E+00    5.573E+00    5.589E+00    5.605E+00    5.620E+00
     5.636E+00    5.652E+00    5.667E+00    5.683E+00    5.699E+00    5.714E+00    5.730E+00    5.746E+00    5.761E+00    5.777E+00
     5.793E+00    5.808E+00    5.824E+00    5.840E+00    5.855E+00    5.871E+00    5.887E+00    5.902E+00    5.918E+00    5.933E+00
     5.949E+00    5.965E+00    5.980E+00    5.996E+00    6.012E+00    6.027E+00    6.043E+00    6.059E+00    6.074E+00    6.090E+00
     6.106E+00    6.121E+00    6.137E+00    6.153E+00    6.168E+00    6.184E+00    6.200E+00    6.215E+00    6.231E+00    6.246E+00
     6.262E+00    6.278E+00    6.293E+00    6.309E+00    6.325E+00    6.340E+00    6.356E+00    6.372E+00
 Ala      Conc. = 9.01E+03
