 LCModel (Version 6.3-1L) Copyright: S.W. Provencher.          Ref.: Magn. Reson. Med. 30:672-679 (1993).                
 Slice#1 Row#11 Col#1  PD_05_press_2_raw_act
 36 lines in following concentration table = NCONC+1
    Conc.  %SD /Cr+PCr  Metabolite                                         
 1.43E+03  50%  16.314 Ala                                                 
   25.890  66%   0.295 Asp                                                 
    0.000 999%   0.000 Cr                                                  
   87.818  62%   1.000 PCr                                                 
   15.302  67%   0.174 GABA                                                
   16.246  64%   0.185 Glc                                                 
  314.709 108%   3.584 Gln                                                 
    0.000 999%   0.000 Glu                                                 
    0.000 999%   0.000 GPC                                                 
    0.000 999%   0.000 PCh                                                 
  136.527  60%   1.555 GSH                                                 
  599.632  53%   6.828 Ins                                                 
  159.941 200%   1.821 Lac                                                 
  305.331  54%   3.477 NAA                                                 
  131.206  83%   1.494 NAAG                                                
    5.683  61% 6.5E-02 Scyllo                                              
   26.463  65%   0.301 Tau                                                 
    0.000 999%   0.000 -CrCH2                                              
    0.000 999%   0.000 GPC+PCh                                             
  436.537  44%   4.971 NAA+NAAG                                            
   87.818  62%   1.000 Cr+PCr                                              
  314.709 108%   3.584 Glu+Gln                                             
 4.58E+03  55%  52.189 Lip13a                                              
 2.52E+04  15% 286.480 Lip13b                                              
 4.51E+03  17%  51.391-Lip09                                               
 5.95E+03  10%  67.712 MM09                                                
 5.83E+03  10%  66.382+Lip20                                               
 9.44E+03   9% 107.522 MM20                                                
 1.79E+03  11%  20.338 MM12                                                
 4.86E+03  12%  55.375 MM14                                                
 2.48E+03  13%  28.291 MM17                                                
 2.97E+04   7% 338.669 Lip13a+Lip13b                                       
 3.64E+04   5% 414.381 MM14+Lip13a+Lip13b+MM12                             
 1.05E+04   9% 119.103 MM09+Lip09                                          
 1.53E+04   6% 173.903 MM20+Lip20                                          
   6 lines in following misc. output table
  FWHM = 0.076 ppm    S/N =  26                                            
  Data shift =-0.031 ppm                                                   
  Ph:  43 deg      -7.8 deg/ppm                                            
  alphaB,S = 2.8E+00,   2.2E+01                                            
    7 spline knots.   Ns = 9(2)                                            
  ( 9) 6 infls.   ( 5) 3 extrs.                                            
  498 points on ppm-axis = NY
      4.000000     3.992357     3.984714     3.977070     3.969427     3.961784     3.954141     3.946497     3.938854     3.931211
      3.923568     3.915925     3.908281     3.900638     3.892995     3.885352     3.877708     3.870065     3.862422     3.854779
      3.847136     3.839492     3.831849     3.824206     3.816563     3.808919     3.801276     3.793633     3.785990     3.778347
      3.770703     3.763060     3.755417     3.747774     3.740130     3.732487     3.724844     3.717201     3.709558     3.701914
      3.694271     3.686628     3.678985     3.671341     3.663698     3.656055     3.648412     3.640769     3.633125     3.625482
      3.617839     3.610196     3.602552     3.594909     3.587266     3.579623     3.571980     3.564336     3.556693     3.549050
      3.541407     3.533763     3.526120     3.518477     3.510834     3.503191     3.495547     3.487904     3.480261     3.472618
      3.464974     3.457331     3.449688     3.442045     3.434402     3.426758     3.419115     3.411472     3.403829     3.396185
      3.388542     3.380899     3.373256     3.365613     3.357969     3.350326     3.342683     3.335040     3.327396     3.319753
      3.312110     3.304467     3.296824     3.289180     3.281537     3.273894     3.266251     3.258607     3.250964     3.243321
      3.235678     3.228034     3.220391     3.212748     3.205105     3.197462     3.189818     3.182175     3.174532     3.166889
      3.159245     3.151602     3.143959     3.136316     3.128673     3.121029     3.113386     3.105743     3.098100     3.090456
      3.082813     3.075170     3.067527     3.059884     3.052240     3.044597     3.036954     3.029311     3.021667     3.014024
      3.006381     2.998738     2.991095     2.983451     2.975808     2.968165     2.960522     2.952878     2.945235     2.937592
      2.929949     2.922306     2.914662     2.907019     2.899376     2.891733     2.884089     2.876446     2.868803     2.861160
      2.853517     2.845873     2.838230     2.830587     2.822944     2.815300     2.807657     2.800014     2.792371     2.784728
      2.777084     2.769441     2.761798     2.754155     2.746511     2.738868     2.731225     2.723582     2.715939     2.708295
      2.700652     2.693009     2.685366     2.677722     2.670079     2.662436     2.654793     2.647150     2.639506     2.631863
      2.624220     2.616577     2.608933     2.601290     2.593647     2.586004     2.578361     2.570717     2.563074     2.555431
      2.547788     2.540144     2.532501     2.524858     2.517215     2.509572     2.501928     2.494285     2.486642     2.478999
      2.471355     2.463712     2.456069     2.448426     2.440783     2.433139     2.425496     2.417853     2.410210     2.402566
      2.394923     2.387280     2.379637     2.371994     2.364350     2.356707     2.349064     2.341421     2.333777     2.326134
      2.318491     2.310848     2.303205     2.295561     2.287918     2.280275     2.272632     2.264988     2.257345     2.249702
      2.242059     2.234416     2.226772     2.219129     2.211486     2.203843     2.196199     2.188556     2.180913     2.173270
      2.165627     2.157983     2.150340     2.142697     2.135054     2.127410     2.119767     2.112124     2.104481     2.096838
      2.089194     2.081551     2.073908     2.066265     2.058621     2.050978     2.043335     2.035692     2.028049     2.020405
      2.012762     2.005119     1.997476     1.989833     1.982190     1.974546     1.966903     1.959260     1.951617     1.943974
      1.936331     1.928688     1.921045     1.913402     1.905759     1.898115     1.890472     1.882829     1.875186     1.867543
      1.859900     1.852257     1.844614     1.836971     1.829327     1.821684     1.814041     1.806398     1.798755     1.791112
      1.783469     1.775826     1.768183     1.760540     1.752896     1.745253     1.737610     1.729967     1.722324     1.714681
      1.707038     1.699395     1.691752     1.684108     1.676465     1.668822     1.661179     1.653536     1.645893     1.638250
      1.630607     1.622964     1.615321     1.607677     1.600034     1.592391     1.584748     1.577105     1.569462     1.561819
      1.554176     1.546533     1.538890     1.531246     1.523603     1.515960     1.508317     1.500674     1.493031     1.485388
      1.477745     1.470102     1.462458     1.454815     1.447172     1.439529     1.431886     1.424243     1.416600     1.408957
      1.401314     1.393671     1.386027     1.378384     1.370741     1.363098     1.355455     1.347812     1.340169     1.332526
      1.324883     1.317240     1.309596     1.301953     1.294310     1.286667     1.279024     1.271381     1.263738     1.256095
      1.248452     1.240808     1.233165     1.225522     1.217879     1.210236     1.202593     1.194950     1.187307     1.179664
      1.172021     1.164377     1.156734     1.149091     1.141448     1.133805     1.126162     1.118519     1.110876     1.103233
      1.095590     1.087946     1.080303     1.072660     1.065017     1.057374     1.049731     1.042088     1.034445     1.026802
      1.019158     1.011515     1.003872     0.996229     0.988586     0.980943     0.973300     0.965657     0.958014     0.950371
      0.942727     0.935084     0.927441     0.919798     0.912155     0.904512     0.896869     0.889226     0.881583     0.873940
      0.866296     0.858653     0.851010     0.843367     0.835724     0.828081     0.820438     0.812795     0.805152     0.797508
      0.789865     0.782222     0.774579     0.766936     0.759293     0.751650     0.744007     0.736364     0.728721     0.721077
      0.713434     0.705791     0.698148     0.690505     0.682862     0.675219     0.667576     0.659933     0.652290     0.644646
      0.637003     0.629360     0.621717     0.614074     0.606431     0.598788     0.591145     0.583502     0.575858     0.568215
      0.560572     0.552929     0.545286     0.537643     0.530000     0.522357     0.514714     0.507071     0.499427     0.491784
      0.484141     0.476498     0.468855     0.461212     0.453569     0.445925     0.438282     0.430639     0.422996     0.415353
      0.407710     0.400067     0.392424     0.384780     0.377137     0.369494     0.361851     0.354208     0.346565     0.338922
      0.331278     0.323635     0.315992     0.308349     0.300706     0.293063     0.285420     0.277777     0.270133     0.262490
      0.254847     0.247204     0.239561     0.231918     0.224275     0.216631     0.208988     0.201345
 NY phased data points follow
  -4.77013E-01 -2.06703E+00  2.84770E+00  2.93342E+00  2.11691E+00  3.91665E+00 -2.88969E+00 -8.80205E-01 -2.19530E-02 -1.66802E+00
  -2.04056E+00 -5.02484E-01  7.58332E-01  2.12245E+00  1.00721E+00 -1.36046E+00  2.77607E+00  1.58950E+00 -5.88001E-01 -4.10411E-01
   2.78598E+00 -1.66285E-01  3.33134E+00  1.09420E+00 -1.16678E-01 -2.92520E-01 -2.01336E-01  1.37355E+00 -5.47088E-01 -1.55405E+00
  -1.54498E+00  7.58255E-01 -9.10023E-01  5.87255E-01  1.01704E+00  7.72882E-01  2.99540E+00  5.76872E+00  2.28167E-01  5.01000E-01
  -5.08777E-01  1.59476E+00 -1.00793E+00 -1.45239E+00  7.60195E-01 -1.62115E+00  5.04974E-01  2.95822E+00 -3.25712E+00  3.67711E+00
  -9.36753E-01 -2.15359E+00 -8.87308E-02 -2.10943E+00  1.22365E+00 -1.93167E+00  6.87767E-01 -5.09104E+00 -1.68051E+00 -6.61103E-02
  -6.85812E-01  2.26237E-01 -1.12442E+00  5.37447E+00 -8.48157E-01  2.04186E+00 -9.08759E-01  5.01193E-01 -1.11262E+00  3.14510E+00
   3.30889E+00  6.67525E-01  7.54874E-01  1.17237E+00  8.13606E-02  2.20723E+00 -1.41895E+00  7.77103E-02  7.48575E-01 -4.53304E-01
   2.56587E+00  1.91880E-01  8.28967E-01  2.84689E+00  6.29303E-01  3.14928E+00  3.28439E+00  1.67056E+00  1.32597E+00  2.92390E+00
  -9.90084E-01  1.39261E+00  1.09946E+00 -2.49309E+00  7.31736E-01  2.77009E+00  1.29340E+00 -1.70732E+00  1.86050E+00  1.02009E+00
  -3.31893E+00  2.37286E+00 -9.00167E-01  1.16753E+00  2.46682E+00 -2.36636E+00 -4.84571E-01  5.65318E+00  4.04771E-01  1.38317E+00
   1.40597E+00  3.28031E+00  2.61375E+00  3.62959E+00 -3.36965E+00  2.24141E+00 -1.75277E+00  1.13573E-01 -3.14219E+00  1.88318E+00
  -1.08975E+00 -2.17935E+00  5.27556E+00  3.64635E+00  4.26820E-01  1.00593E+00  5.66694E+00 -5.88798E-02 -1.05011E+00  1.94302E+00
   2.73947E+00  3.08908E+00 -1.13728E-01  8.76213E+00  5.82672E+00  6.73075E+00  7.41528E+00  8.40400E+00  9.49333E+00  6.01201E+00
   7.87470E+00  1.06804E+01  9.33055E+00  1.03381E+01  1.08456E+01  9.89614E+00  1.20407E+01  1.64817E+01  1.41623E+01  1.34516E+01
   1.28572E+01  1.38359E+01  1.19442E+01  1.38161E+01  1.14443E+01  1.06376E+01  1.26577E+01  1.20270E+01  1.55530E+01  1.07031E+01
   1.79142E+01  1.27256E+01  9.51266E+00  1.10545E+01  9.91220E+00  1.51195E+01  1.28060E+01  1.13936E+01  1.05771E+01  1.29417E+01
   8.08854E+00  6.17161E+00  9.11194E+00  1.06455E+01  1.01156E+01  1.02577E+01  1.02560E+01  9.31830E+00  6.59143E+00  5.98796E+00
   5.40462E+00  9.38765E+00  6.59818E+00  2.90909E+00  3.17047E+00  8.00751E+00  6.11470E+00  3.83768E+00  3.74314E+00  2.08676E+00
   4.77923E+00  3.74600E+00  2.64402E+00  2.24609E+00  4.72535E+00  2.55617E+00  1.82516E+00  4.77647E+00  4.59665E+00  5.34731E+00
   2.40518E+00  5.25297E+00  4.55674E+00  7.07918E+00  3.60149E+00  8.12447E+00  6.93170E+00  7.95811E+00  8.78015E+00  9.93441E+00
   1.15989E+01  1.08105E+01  1.30492E+01  1.45967E+01  1.95321E+01  1.43072E+01  1.68813E+01  2.04543E+01  1.73996E+01  1.93663E+01
   2.13105E+01  2.62968E+01  3.10170E+01  2.83136E+01  2.91375E+01  3.06757E+01  2.89166E+01  3.20407E+01  3.39897E+01  3.19235E+01
   3.80967E+01  3.87810E+01  4.20487E+01  4.12137E+01  4.46626E+01  4.89835E+01  5.01169E+01  4.92976E+01  5.16359E+01  5.35028E+01
   5.58324E+01  5.83924E+01  5.83355E+01  5.96193E+01  6.00967E+01  5.96347E+01  5.89516E+01  6.11570E+01  6.06626E+01  6.21403E+01
   5.85067E+01  6.42023E+01  5.94939E+01  6.08631E+01  6.25230E+01  6.05076E+01  6.13843E+01  6.08097E+01  5.34949E+01  5.91829E+01
   5.43268E+01  5.29842E+01  5.07000E+01  5.04089E+01  5.08417E+01  4.99651E+01  4.98577E+01  5.06231E+01  5.14239E+01  4.92876E+01
   4.52068E+01  4.32476E+01  4.01538E+01  3.90980E+01  3.67317E+01  3.72874E+01  3.19774E+01  3.38463E+01  3.43264E+01  3.28580E+01
   2.68511E+01  2.91198E+01  2.68365E+01  2.54639E+01  2.55932E+01  2.24939E+01  2.33446E+01  2.27931E+01  2.10154E+01  1.91534E+01
   1.83273E+01  1.78704E+01  1.64959E+01  1.75856E+01  1.26659E+01  1.62897E+01  1.48436E+01  1.50811E+01  1.00567E+01  1.23119E+01
   8.59622E+00  1.03724E+01  1.38463E+01  1.11813E+01  9.39219E+00  7.06311E+00  3.71988E+00  7.48338E+00  6.94738E+00  1.04000E+01
   9.03855E+00  4.51546E+00  9.51607E+00  7.57895E+00  9.18025E+00  9.74720E+00  1.58173E+01  1.50583E+01  1.63577E+01  2.39829E+01
   2.00003E+01  2.86554E+01  3.47277E+01  3.64937E+01  4.34812E+01  5.34887E+01  6.20928E+01  7.22045E+01  8.25073E+01  9.22950E+01
   1.03711E+02  1.12987E+02  1.22483E+02  1.30302E+02  1.40846E+02  1.56172E+02  1.65960E+02  1.71989E+02  1.82274E+02  1.85322E+02
   1.88860E+02  1.93044E+02  1.95683E+02  1.96322E+02  1.92825E+02  1.82479E+02  1.83755E+02  1.73070E+02  1.68583E+02  1.61898E+02
   1.47682E+02  1.40759E+02  1.32883E+02  1.24411E+02  1.14218E+02  1.03860E+02  9.72273E+01  9.50156E+01  8.04222E+01  7.75989E+01
   7.20213E+01  6.43385E+01  6.31030E+01  5.65039E+01  5.11359E+01  4.51017E+01  3.73920E+01  4.10947E+01  3.46156E+01  2.93929E+01
   2.92844E+01  2.89902E+01  2.29754E+01  2.60741E+01  2.42614E+01  1.99264E+01  1.84397E+01  2.02033E+01  1.73750E+01  1.54519E+01
   1.40292E+01  1.61494E+01  1.06926E+01  1.12615E+01  1.29236E+01  9.70407E+00  1.09435E+01  9.91841E+00  1.61352E+01  1.11953E+01
   8.65937E+00  1.40670E+01  1.30998E+01  1.46960E+01  1.10076E+01  1.19241E+01  1.15528E+01  9.12306E+00  8.93539E+00  1.28785E+01
   1.00016E+01  1.29320E+01  1.19965E+01  9.88076E+00  1.28316E+01  1.27569E+01  1.65396E+01  1.85574E+01  1.51229E+01  1.17280E+01
   1.52445E+01  1.38279E+01  1.20969E+01  1.15328E+01  1.14597E+01  1.17928E+01  1.22239E+01  1.17569E+01  1.53802E+01  8.89463E+00
   1.16925E+01  1.11488E+01  1.71903E+01  1.26785E+01  1.22458E+01  1.54815E+01  8.59786E+00  1.16648E+01  8.93081E+00  1.38202E+01
   9.77108E+00  1.02123E+01  1.34071E+01  9.16736E+00  9.76052E+00  1.19725E+01  1.14450E+01  1.11234E+01  8.20902E+00  1.14173E+01
   8.39085E+00  9.51641E+00  9.40013E+00  9.13072E+00  9.53471E+00  8.68756E+00  9.86165E+00  1.10364E+01  7.13759E+00  7.74229E+00
   6.99047E+00  1.18549E+01  9.69169E+00  1.13480E+01  8.70188E+00  5.13350E+00  6.91388E+00  7.00572E+00  1.11684E+01  1.09793E+01
   6.11566E+00  9.74648E+00  1.10771E+01  1.05513E+01  8.75096E+00  8.96087E+00  7.92539E+00  9.38009E+00  9.31250E+00  6.87740E+00
   9.57806E+00  7.70957E+00  1.05783E+01  7.19426E+00  8.98656E+00  5.72414E+00  4.52562E+00  6.33639E+00  5.93267E+00  4.77219E+00
   8.27862E+00  8.02347E+00  9.71767E+00  9.09558E+00  8.84252E+00  8.03753E+00  8.66586E+00  1.22200E+01  1.19026E+01  5.74581E+00
   4.97945E+00  8.14270E+00  4.76043E+00  5.10839E+00  7.08812E+00  7.97867E+00  6.20827E+00  3.97171E+00
 NY points of the fit to the data follow
  -1.02253E-01  6.82045E-01  1.01945E+00  1.62583E+00  1.81464E+00  2.18804E+00  2.19712E+00  2.54811E+00  1.84063E+00  1.63909E+00
   1.00698E+00  7.49290E-01  8.23269E-01  3.99499E-01  4.32918E-01  5.59029E-01  8.12330E-01  5.05069E-01  7.77127E-01  2.65236E-01
   6.72088E-01  1.43462E-01  4.40873E-01  9.76861E-02  2.43655E-01  2.77936E-01 -1.05461E-01 -1.10503E-01 -6.52287E-01 -2.66881E-01
  -5.99048E-01  2.51759E-01 -4.06865E-01  2.66774E-01 -4.31979E-01  7.34083E-02 -1.13768E-01  1.83169E-01  4.73824E-01  4.56469E-01
   7.12789E-01  6.33010E-01  7.80661E-01  1.22780E-01  5.42405E-01  4.44975E-03  1.14343E+00  1.14882E+00  1.43632E+00  1.15582E+00
   1.12663E+00  5.90713E-01  8.08515E-01  1.36064E-01  3.34005E-01  3.30545E-01  6.62071E-01  6.02054E-01  9.10339E-01  8.66811E-01
   1.13225E+00  1.07718E+00  8.62826E-01  6.38663E-01  4.21414E-01  1.35869E-02 -5.09436E-01 -1.01856E+00 -1.40530E+00 -1.50808E+00
  -1.24891E+00 -1.24208E+00 -9.79385E-01 -1.08897E+00 -8.99328E-01 -1.03304E+00 -7.79253E-01 -9.64949E-01 -6.96593E-01 -9.19567E-01
  -8.16456E-01 -8.70221E-01 -6.48727E-01 -4.70946E-01 -1.88107E-01 -8.64835E-02 -8.79516E-03 -1.26411E-01 -2.13527E-01 -4.60578E-01
  -6.56143E-01 -9.36192E-01 -1.11802E+00 -1.45963E+00 -1.43593E+00 -1.80196E+00 -1.68900E+00 -2.00592E+00 -1.80862E+00 -1.99343E+00
  -1.72185E+00 -1.72959E+00 -1.44454E+00 -1.33900E+00 -1.14491E+00 -8.89722E-01 -7.20413E-01 -2.50826E-01 -1.32167E-02  6.42021E-01
   7.94452E-01  1.06071E+00  1.18636E+00  1.44695E+00  1.67738E+00  2.01129E+00  2.42640E+00  2.67247E+00  3.13879E+00  3.31027E+00
   3.68794E+00  3.78520E+00  4.10350E+00  4.15238E+00  4.40790E+00  4.58962E+00  4.77705E+00  5.18248E+00  5.39368E+00  5.88027E+00
   6.14484E+00  6.79641E+00  7.17953E+00  7.97549E+00  8.42151E+00  9.12802E+00  9.47797E+00  9.93131E+00  1.02066E+01  1.03967E+01
   1.06470E+01  1.06302E+01  1.08463E+01  1.07782E+01  1.09864E+01  1.06395E+01  1.08644E+01  1.05816E+01  1.10227E+01  1.13566E+01
   1.20608E+01  1.23033E+01  1.29256E+01  1.31254E+01  1.36740E+01  1.39385E+01  1.44363E+01  1.44944E+01  1.46861E+01  1.44903E+01
   1.43776E+01  1.40427E+01  1.37426E+01  1.33428E+01  1.29635E+01  1.25197E+01  1.20760E+01  1.15354E+01  1.09858E+01  1.04016E+01
   9.82841E+00  9.35296E+00  8.82365E+00  8.43623E+00  7.89224E+00  7.48540E+00  6.82989E+00  6.43245E+00  5.85944E+00  5.53255E+00
   5.07354E+00  4.90619E+00  4.58793E+00  4.38619E+00  4.19059E+00  3.94566E+00  3.85518E+00  3.69744E+00  3.75691E+00  3.64206E+00
   3.87359E+00  3.74993E+00  3.96852E+00  4.06674E+00  4.61152E+00  4.74457E+00  5.20400E+00  5.35861E+00  5.68460E+00  5.98905E+00
   6.38681E+00  6.85280E+00  7.27402E+00  7.83726E+00  8.27852E+00  9.05748E+00  9.62830E+00  1.04783E+01  1.10000E+01  1.18462E+01
   1.23681E+01  1.33314E+01  1.40197E+01  1.49976E+01  1.57634E+01  1.67970E+01  1.76291E+01  1.86732E+01  1.95232E+01  2.06443E+01
   2.17564E+01  2.30411E+01  2.44576E+01  2.59793E+01  2.76288E+01  2.91196E+01  3.08640E+01  3.25976E+01  3.45551E+01  3.61453E+01
   3.78944E+01  3.90958E+01  4.03214E+01  4.14681E+01  4.26221E+01  4.37663E+01  4.49093E+01  4.63826E+01  4.79889E+01  4.94281E+01
   5.08018E+01  5.24727E+01  5.44596E+01  5.66667E+01  5.76729E+01  5.93615E+01  6.02003E+01  6.14468E+01  6.20443E+01  6.28155E+01
   6.29423E+01  6.31062E+01  6.24235E+01  6.19339E+01  6.09395E+01  5.97442E+01  5.87709E+01  5.69118E+01  5.63687E+01  5.45096E+01
   5.46597E+01  5.30731E+01  5.33734E+01  5.18825E+01  5.21288E+01  5.05112E+01  5.06178E+01  4.92615E+01  4.86313E+01  4.75582E+01
   4.57482E+01  4.48216E+01  4.21171E+01  4.09306E+01  3.74835E+01  3.63427E+01  3.32321E+01  3.28474E+01  2.99580E+01  2.90591E+01
   2.65702E+01  2.54462E+01  2.50263E+01  2.46986E+01  2.43408E+01  2.39065E+01  2.33755E+01  2.27351E+01  2.19870E+01  2.11199E+01
   2.01636E+01  1.91104E+01  1.80044E+01  1.68490E+01  1.56965E+01  1.45407E+01  1.34376E+01  1.23739E+01  1.13958E+01  1.04840E+01
   9.69372E+00  8.98902E+00  8.43274E+00  7.97548E+00  7.68744E+00  7.53924E+00  7.60271E+00  7.91791E+00  8.74846E+00  1.01005E+01
   9.44880E+00  8.92607E+00  8.89115E+00  9.03805E+00  9.74130E+00  1.04617E+01  1.16047E+01  1.46279E+01  1.83538E+01  2.07869E+01
   2.47060E+01  2.75447E+01  3.27706E+01  3.73707E+01  4.51416E+01  5.29113E+01  6.24138E+01  7.20779E+01  8.17680E+01  9.19464E+01
   1.01302E+02  1.11827E+02  1.20619E+02  1.33027E+02  1.41598E+02  1.54698E+02  1.62717E+02  1.73834E+02  1.79896E+02  1.86945E+02
   1.90530E+02  1.93772E+02  1.95342E+02  1.94709E+02  1.92698E+02  1.85935E+02  1.81956E+02  1.71849E+02  1.67578E+02  1.58038E+02
   1.51150E+02  1.41211E+02  1.34781E+02  1.24326E+02  1.16705E+02  1.05879E+02  9.65656E+01  8.90624E+01  8.22463E+01  7.61768E+01
   7.03796E+01  6.51998E+01  6.00844E+01  5.56316E+01  5.09144E+01  4.67549E+01  4.26135E+01  3.89401E+01  3.55728E+01  3.27199E+01
   2.98148E+01  2.74767E+01  2.51616E+01  2.30653E+01  2.11837E+01  1.92622E+01  1.77771E+01  1.66073E+01  1.56728E+01  1.49286E+01
   1.43417E+01  1.38843E+01  1.35333E+01  1.32687E+01  1.30735E+01  1.29335E+01  1.28363E+01  1.27718E+01  1.27317E+01  1.27092E+01
   1.26990E+01  1.26970E+01  1.27002E+01  1.27065E+01  1.27147E+01  1.27243E+01  1.27354E+01  1.27488E+01  1.27654E+01  1.27864E+01
   1.28131E+01  1.28472E+01  1.28898E+01  1.29424E+01  1.30059E+01  1.30809E+01  1.31678E+01  1.32666E+01  1.33768E+01  1.34976E+01
   1.36274E+01  1.37645E+01  1.39068E+01  1.40516E+01  1.41963E+01  1.43376E+01  1.44723E+01  1.45970E+01  1.47085E+01  1.48035E+01
   1.48789E+01  1.49318E+01  1.49596E+01  1.49602E+01  1.49318E+01  1.48732E+01  1.47835E+01  1.46624E+01  1.45103E+01  1.43278E+01
   1.41163E+01  1.38773E+01  1.36128E+01  1.33254E+01  1.30175E+01  1.26922E+01  1.23524E+01  1.20012E+01  1.16417E+01  1.12771E+01
   1.09102E+01  1.05440E+01  1.01811E+01  9.82403E+00  9.47502E+00  9.13605E+00  8.80895E+00  8.49524E+00  8.19620E+00  7.91286E+00
   7.64603E+00  7.39633E+00  7.16423E+00  6.94999E+00  6.75369E+00  6.57529E+00  6.41465E+00  6.27152E+00  6.14560E+00  6.03651E+00
   5.94377E+00  5.86688E+00  5.80532E+00  5.75858E+00  5.72610E+00  5.70733E+00  5.70168E+00  5.70858E+00  5.72749E+00  5.75791E+00
   5.79930E+00  5.85114E+00  5.91292E+00  5.98416E+00  6.06442E+00  6.15328E+00  6.25032E+00  6.35509E+00  6.46722E+00  6.58632E+00
   6.71208E+00  6.84417E+00  6.98225E+00  7.12599E+00  7.27509E+00  7.42930E+00  7.58837E+00  7.75204E+00  7.92006E+00  8.09217E+00
   8.26815E+00  8.44783E+00  8.63103E+00  8.81753E+00  9.00714E+00  9.19969E+00  9.39502E+00  9.59304E+00
 NY background values follow
    -2.510E+00   -2.437E+00   -2.367E+00   -2.300E+00   -2.237E+00   -2.177E+00   -2.121E+00   -2.067E+00   -2.017E+00   -1.970E+00
    -1.926E+00   -1.885E+00   -1.846E+00   -1.811E+00   -1.778E+00   -1.748E+00   -1.721E+00   -1.697E+00   -1.675E+00   -1.656E+00
    -1.639E+00   -1.625E+00   -1.613E+00   -1.604E+00   -1.597E+00   -1.592E+00   -1.590E+00   -1.589E+00   -1.591E+00   -1.595E+00
    -1.600E+00   -1.608E+00   -1.618E+00   -1.630E+00   -1.643E+00   -1.658E+00   -1.675E+00   -1.694E+00   -1.714E+00   -1.736E+00
    -1.759E+00   -1.784E+00   -1.810E+00   -1.837E+00   -1.866E+00   -1.896E+00   -1.928E+00   -1.960E+00   -1.994E+00   -2.029E+00
    -2.064E+00   -2.101E+00   -2.139E+00   -2.177E+00   -2.217E+00   -2.257E+00   -2.298E+00   -2.339E+00   -2.381E+00   -2.424E+00
    -2.467E+00   -2.511E+00   -2.555E+00   -2.599E+00   -2.644E+00   -2.689E+00   -2.734E+00   -2.779E+00   -2.825E+00   -2.871E+00
    -2.916E+00   -2.962E+00   -3.007E+00   -3.053E+00   -3.098E+00   -3.143E+00   -3.187E+00   -3.231E+00   -3.275E+00   -3.319E+00
    -3.362E+00   -3.404E+00   -3.446E+00   -3.487E+00   -3.528E+00   -3.568E+00   -3.607E+00   -3.645E+00   -3.682E+00   -3.719E+00
    -3.754E+00   -3.788E+00   -3.821E+00   -3.854E+00   -3.884E+00   -3.914E+00   -3.943E+00   -3.970E+00   -3.995E+00   -4.019E+00
    -4.042E+00   -4.063E+00   -4.083E+00   -4.101E+00   -4.117E+00   -4.132E+00   -4.144E+00   -4.155E+00   -4.164E+00   -4.171E+00
    -4.176E+00   -4.179E+00   -4.180E+00   -4.179E+00   -4.175E+00   -4.170E+00   -4.162E+00   -4.152E+00   -4.139E+00   -4.124E+00
    -4.106E+00   -4.086E+00   -4.063E+00   -4.038E+00   -4.009E+00   -3.979E+00   -3.945E+00   -3.909E+00   -3.870E+00   -3.829E+00
    -3.785E+00   -3.738E+00   -3.690E+00   -3.639E+00   -3.586E+00   -3.530E+00   -3.473E+00   -3.413E+00   -3.351E+00   -3.288E+00
    -3.222E+00   -3.155E+00   -3.085E+00   -3.014E+00   -2.942E+00   -2.868E+00   -2.792E+00   -2.714E+00   -2.636E+00   -2.555E+00
    -2.474E+00   -2.391E+00   -2.307E+00   -2.222E+00   -2.136E+00   -2.048E+00   -1.960E+00   -1.871E+00   -1.781E+00   -1.690E+00
    -1.598E+00   -1.505E+00   -1.412E+00   -1.319E+00   -1.224E+00   -1.130E+00   -1.035E+00   -9.392E-01   -8.434E-01   -7.474E-01
    -6.512E-01   -5.548E-01   -4.584E-01   -3.620E-01   -2.656E-01   -1.693E-01   -7.319E-02    2.273E-02    1.184E-01    2.137E-01
     3.086E-01    4.031E-01    4.971E-01    5.906E-01    6.834E-01    7.755E-01    8.670E-01    9.576E-01    1.047E+00    1.136E+00
     1.224E+00    1.311E+00    1.397E+00    1.482E+00    1.565E+00    1.647E+00    1.728E+00    1.808E+00    1.886E+00    1.963E+00
     2.038E+00    2.112E+00    2.184E+00    2.254E+00    2.322E+00    2.389E+00    2.454E+00    2.517E+00    2.577E+00    2.636E+00
     2.693E+00    2.747E+00    2.800E+00    2.850E+00    2.897E+00    2.943E+00    2.985E+00    3.026E+00    3.063E+00    3.099E+00
     3.131E+00    3.161E+00    3.188E+00    3.212E+00    3.233E+00    3.251E+00    3.266E+00    3.278E+00    3.287E+00    3.293E+00
     3.295E+00    3.294E+00    3.290E+00    3.283E+00    3.271E+00    3.257E+00    3.238E+00    3.217E+00    3.191E+00    3.161E+00
     3.128E+00    3.091E+00    3.050E+00    3.005E+00    2.956E+00    2.902E+00    2.845E+00    2.783E+00    2.717E+00    2.647E+00
     2.572E+00    2.493E+00    2.410E+00    2.323E+00    2.232E+00    2.137E+00    2.038E+00    1.935E+00    1.828E+00    1.718E+00
     1.604E+00    1.487E+00    1.366E+00    1.242E+00    1.114E+00    9.835E-01    8.497E-01    7.129E-01    5.731E-01    4.304E-01
     2.849E-01    1.366E-01   -1.435E-02   -1.679E-01   -3.240E-01   -4.825E-01   -6.434E-01   -8.066E-01   -9.720E-01   -1.140E+00
    -1.309E+00   -1.481E+00   -1.654E+00   -1.830E+00   -2.007E+00   -2.186E+00   -2.366E+00   -2.548E+00   -2.732E+00   -2.916E+00
    -3.102E+00   -3.290E+00   -3.478E+00   -3.668E+00   -3.859E+00   -4.050E+00   -4.243E+00   -4.436E+00   -4.630E+00   -4.824E+00
    -5.019E+00   -5.215E+00   -5.411E+00   -5.607E+00   -5.804E+00   -6.001E+00   -6.198E+00   -6.394E+00   -6.591E+00   -6.788E+00
    -6.984E+00   -7.181E+00   -7.377E+00   -7.572E+00   -7.767E+00   -7.961E+00   -8.155E+00   -8.348E+00   -8.540E+00   -8.731E+00
    -8.922E+00   -9.111E+00   -9.299E+00   -9.486E+00   -9.672E+00   -9.856E+00   -1.004E+01   -1.022E+01   -1.040E+01   -1.058E+01
    -1.076E+01   -1.093E+01   -1.110E+01   -1.127E+01   -1.144E+01   -1.161E+01   -1.178E+01   -1.194E+01   -1.210E+01   -1.226E+01
    -1.241E+01   -1.256E+01   -1.271E+01   -1.286E+01   -1.301E+01   -1.315E+01   -1.329E+01   -1.342E+01   -1.356E+01   -1.368E+01
    -1.381E+01   -1.393E+01   -1.405E+01   -1.417E+01   -1.428E+01   -1.439E+01   -1.450E+01   -1.460E+01   -1.470E+01   -1.479E+01
    -1.488E+01   -1.497E+01   -1.505E+01   -1.513E+01   -1.520E+01   -1.527E+01   -1.533E+01   -1.539E+01   -1.545E+01   -1.550E+01
    -1.555E+01   -1.559E+01   -1.562E+01   -1.565E+01   -1.568E+01   -1.570E+01   -1.572E+01   -1.573E+01   -1.574E+01   -1.574E+01
    -1.574E+01   -1.573E+01   -1.572E+01   -1.570E+01   -1.568E+01   -1.565E+01   -1.562E+01   -1.559E+01   -1.555E+01   -1.550E+01
    -1.545E+01   -1.540E+01   -1.534E+01   -1.528E+01   -1.522E+01   -1.515E+01   -1.507E+01   -1.500E+01   -1.492E+01   -1.483E+01
    -1.474E+01   -1.465E+01   -1.455E+01   -1.445E+01   -1.434E+01   -1.424E+01   -1.412E+01   -1.401E+01   -1.389E+01   -1.377E+01
    -1.364E+01   -1.351E+01   -1.337E+01   -1.324E+01   -1.310E+01   -1.295E+01   -1.281E+01   -1.266E+01   -1.250E+01   -1.235E+01
    -1.219E+01   -1.203E+01   -1.186E+01   -1.169E+01   -1.152E+01   -1.135E+01   -1.117E+01   -1.099E+01   -1.081E+01   -1.062E+01
    -1.043E+01   -1.024E+01   -1.005E+01   -9.851E+00   -9.652E+00   -9.451E+00   -9.247E+00   -9.041E+00   -8.833E+00   -8.622E+00
    -8.409E+00   -8.194E+00   -7.977E+00   -7.757E+00   -7.536E+00   -7.312E+00   -7.086E+00   -6.858E+00   -6.629E+00   -6.397E+00
    -6.164E+00   -5.928E+00   -5.691E+00   -5.452E+00   -5.212E+00   -4.970E+00   -4.726E+00   -4.481E+00   -4.234E+00   -3.986E+00
    -3.736E+00   -3.485E+00   -3.232E+00   -2.978E+00   -2.723E+00   -2.466E+00   -2.209E+00   -1.950E+00   -1.690E+00   -1.429E+00
    -1.167E+00   -9.040E-01   -6.401E-01   -3.752E-01   -1.094E-01    1.571E-01    4.245E-01    6.926E-01    9.614E-01    1.231E+00
     1.501E+00    1.772E+00    2.043E+00    2.315E+00    2.587E+00    2.859E+00    3.132E+00    3.405E+00    3.679E+00    3.953E+00
     4.227E+00    4.501E+00    4.775E+00    5.050E+00    5.324E+00    5.599E+00    5.873E+00    6.147E+00
 Ala      Conc. = 1.43E+03
