 LCModel (Version 6.3-1L) Copyright: S.W. Provencher.          Ref.: Magn. Reson. Med. 30:672-679 (1993).                
 Slice#3 Row#11 Col#3  PD_05_press_2_raw_act
 36 lines in following concentration table = NCONC+1
    Conc.  %SD /Cr+PCr  Metabolite                                         
    0.420 533% 8.3E-02 Ala                                                 
    0.751 520%   0.148 Asp                                                 
    0.000 999%   0.000 Cr                                                  
    5.063  92%   1.000 PCr                                                 
    0.000 999%   0.000 GABA                                                
    0.853 287%   0.168 Glc                                                 
    2.340 199%   0.462 Gln                                                 
    2.198 227%   0.434 Glu                                                 
    0.000 999%   0.000 GPC                                                 
    0.366 185% 7.2E-02 PCh                                                 
    2.355 118%   0.465 GSH                                                 
    9.346 105%   1.846 Ins                                                 
    0.000 999%   0.000 Lac                                                 
    7.771  92%   1.535 NAA                                                 
    0.000 999%   0.000 NAAG                                                
    0.396 166% 7.8E-02 Scyllo                                              
    2.012 183%   0.397 Tau                                                 
    5.172  97%   1.022 -CrCH2                                              
    0.366 185% 7.2E-02 GPC+PCh                                             
    7.771  92%   1.535 NAA+NAAG                                            
    5.063  92%   1.000 Cr+PCr                                              
    4.538 150%   0.896 Glu+Gln                                             
 6.74E+03  18% 1.3E+03 Lip13a                                              
    0.000 999%   0.000 Lip13b                                              
 1.79E+03  18% 354.087 Lip09                                               
 1.50E+03  14% 297.213 MM09                                                
 1.01E+03  18% 198.832 Lip20                                               
 2.10E+03  15% 413.919 MM20                                                
  454.827  17%  89.830 MM12                                                
 1.69E+03  12% 333.867+MM14                                                
  848.001  15% 167.484 MM17                                                
 6.74E+03  18% 1.3E+03 Lip13a+Lip13b                                       
 8.88E+03  12% 1.8E+03 MM14+Lip13a+Lip13b+MM12                             
 3.30E+03   9% 651.300 MM09+Lip09                                          
 3.10E+03   9% 612.751 MM20+Lip20                                          
   6 lines in following misc. output table
  FWHM = 0.023 ppm    S/N =   6                                            
  Data shift = 0.000 ppm                                                   
  Ph: 112 deg     -48.2 deg/ppm                                            
  alphaB,S = 5.4E-01,   3.9E-01                                            
   14 spline knots.   Ns = 5(1)                                            
   1 inflections.     2 extrema                                            
  498 points on ppm-axis = NY
      4.000000     3.992357     3.984714     3.977070     3.969427     3.961784     3.954141     3.946497     3.938854     3.931211
      3.923568     3.915925     3.908281     3.900638     3.892995     3.885352     3.877708     3.870065     3.862422     3.854779
      3.847136     3.839492     3.831849     3.824206     3.816563     3.808919     3.801276     3.793633     3.785990     3.778347
      3.770703     3.763060     3.755417     3.747774     3.740130     3.732487     3.724844     3.717201     3.709558     3.701914
      3.694271     3.686628     3.678985     3.671341     3.663698     3.656055     3.648412     3.640769     3.633125     3.625482
      3.617839     3.610196     3.602552     3.594909     3.587266     3.579623     3.571980     3.564336     3.556693     3.549050
      3.541407     3.533763     3.526120     3.518477     3.510834     3.503191     3.495547     3.487904     3.480261     3.472618
      3.464974     3.457331     3.449688     3.442045     3.434402     3.426758     3.419115     3.411472     3.403829     3.396185
      3.388542     3.380899     3.373256     3.365613     3.357969     3.350326     3.342683     3.335040     3.327396     3.319753
      3.312110     3.304467     3.296824     3.289180     3.281537     3.273894     3.266251     3.258607     3.250964     3.243321
      3.235678     3.228034     3.220391     3.212748     3.205105     3.197462     3.189818     3.182175     3.174532     3.166889
      3.159245     3.151602     3.143959     3.136316     3.128673     3.121029     3.113386     3.105743     3.098100     3.090456
      3.082813     3.075170     3.067527     3.059884     3.052240     3.044597     3.036954     3.029311     3.021667     3.014024
      3.006381     2.998738     2.991095     2.983451     2.975808     2.968165     2.960522     2.952878     2.945235     2.937592
      2.929949     2.922306     2.914662     2.907019     2.899376     2.891733     2.884089     2.876446     2.868803     2.861160
      2.853517     2.845873     2.838230     2.830587     2.822944     2.815300     2.807657     2.800014     2.792371     2.784728
      2.777084     2.769441     2.761798     2.754155     2.746511     2.738868     2.731225     2.723582     2.715939     2.708295
      2.700652     2.693009     2.685366     2.677722     2.670079     2.662436     2.654793     2.647150     2.639506     2.631863
      2.624220     2.616577     2.608933     2.601290     2.593647     2.586004     2.578361     2.570717     2.563074     2.555431
      2.547788     2.540144     2.532501     2.524858     2.517215     2.509572     2.501928     2.494285     2.486642     2.478999
      2.471355     2.463712     2.456069     2.448426     2.440783     2.433139     2.425496     2.417853     2.410210     2.402566
      2.394923     2.387280     2.379637     2.371994     2.364350     2.356707     2.349064     2.341421     2.333777     2.326134
      2.318491     2.310848     2.303205     2.295561     2.287918     2.280275     2.272632     2.264988     2.257345     2.249702
      2.242059     2.234416     2.226772     2.219129     2.211486     2.203843     2.196199     2.188556     2.180913     2.173270
      2.165627     2.157983     2.150340     2.142697     2.135054     2.127410     2.119767     2.112124     2.104481     2.096838
      2.089194     2.081551     2.073908     2.066265     2.058621     2.050978     2.043335     2.035692     2.028049     2.020405
      2.012762     2.005119     1.997476     1.989833     1.982190     1.974546     1.966903     1.959260     1.951617     1.943974
      1.936331     1.928688     1.921045     1.913402     1.905759     1.898115     1.890472     1.882829     1.875186     1.867543
      1.859900     1.852257     1.844614     1.836971     1.829327     1.821684     1.814041     1.806398     1.798755     1.791112
      1.783469     1.775826     1.768183     1.760540     1.752896     1.745253     1.737610     1.729967     1.722324     1.714681
      1.707038     1.699395     1.691752     1.684108     1.676465     1.668822     1.661179     1.653536     1.645893     1.638250
      1.630607     1.622964     1.615321     1.607677     1.600034     1.592391     1.584748     1.577105     1.569462     1.561819
      1.554176     1.546533     1.538890     1.531246     1.523603     1.515960     1.508317     1.500674     1.493031     1.485388
      1.477745     1.470102     1.462458     1.454815     1.447172     1.439529     1.431886     1.424243     1.416600     1.408957
      1.401314     1.393671     1.386027     1.378384     1.370741     1.363098     1.355455     1.347812     1.340169     1.332526
      1.324883     1.317240     1.309596     1.301953     1.294310     1.286667     1.279024     1.271381     1.263738     1.256095
      1.248452     1.240808     1.233165     1.225522     1.217879     1.210236     1.202593     1.194950     1.187307     1.179664
      1.172021     1.164377     1.156734     1.149091     1.141448     1.133805     1.126162     1.118519     1.110876     1.103233
      1.095590     1.087946     1.080303     1.072660     1.065017     1.057374     1.049731     1.042088     1.034445     1.026802
      1.019158     1.011515     1.003872     0.996229     0.988586     0.980943     0.973300     0.965657     0.958014     0.950371
      0.942727     0.935084     0.927441     0.919798     0.912155     0.904512     0.896869     0.889226     0.881583     0.873940
      0.866296     0.858653     0.851010     0.843367     0.835724     0.828081     0.820438     0.812795     0.805152     0.797508
      0.789865     0.782222     0.774579     0.766936     0.759293     0.751650     0.744007     0.736364     0.728721     0.721077
      0.713434     0.705791     0.698148     0.690505     0.682862     0.675219     0.667576     0.659933     0.652290     0.644646
      0.637003     0.629360     0.621717     0.614074     0.606431     0.598788     0.591145     0.583502     0.575858     0.568215
      0.560572     0.552929     0.545286     0.537643     0.530000     0.522357     0.514714     0.507071     0.499427     0.491784
      0.484141     0.476498     0.468855     0.461212     0.453569     0.445925     0.438282     0.430639     0.422996     0.415353
      0.407710     0.400067     0.392424     0.384780     0.377137     0.369494     0.361851     0.354208     0.346565     0.338922
      0.331278     0.323635     0.315992     0.308349     0.300706     0.293063     0.285420     0.277777     0.270133     0.262490
      0.254847     0.247204     0.239561     0.231918     0.224275     0.216631     0.208988     0.201345
 NY phased data points follow
   1.28980E+02  1.27574E+02  1.22791E+02  1.16509E+02  1.19320E+02  1.18765E+02  1.14993E+02  1.15093E+02  1.07628E+02  1.10879E+02
   1.11209E+02  1.08775E+02  1.08767E+02  1.06210E+02  1.01093E+02  1.04647E+02  1.00623E+02  9.75012E+01  9.82799E+01  9.72563E+01
   9.45961E+01  9.07953E+01  9.41890E+01  8.87182E+01  8.99904E+01  8.67628E+01  8.58373E+01  7.91525E+01  8.47218E+01  8.51818E+01
   8.24295E+01  8.26745E+01  8.04819E+01  8.00861E+01  8.04399E+01  7.74109E+01  7.74814E+01  7.45250E+01  7.54690E+01  7.42539E+01
   7.21294E+01  7.57805E+01  7.26452E+01  6.81889E+01  6.63391E+01  6.92259E+01  6.56890E+01  6.61629E+01  6.58957E+01  6.41662E+01
   6.61309E+01  6.53047E+01  6.14300E+01  6.12738E+01  6.26702E+01  5.55582E+01  5.90029E+01  5.88259E+01  5.55345E+01  5.79866E+01
   5.73881E+01  5.47975E+01  5.78767E+01  5.35825E+01  5.22105E+01  4.53756E+01  5.27706E+01  5.33871E+01  5.33916E+01  5.06085E+01
   4.86659E+01  4.76866E+01  5.08190E+01  5.00233E+01  4.54191E+01  4.54783E+01  4.39583E+01  4.12019E+01  4.65726E+01  4.41711E+01
   4.51881E+01  3.98367E+01  4.42215E+01  3.99983E+01  3.62451E+01  3.94511E+01  3.88991E+01  3.87335E+01  4.10003E+01  3.63157E+01
   3.63254E+01  3.33077E+01  3.66624E+01  3.45026E+01  3.35171E+01  3.26485E+01  2.82786E+01  3.20662E+01  3.13914E+01  3.28183E+01
   3.20364E+01  3.02972E+01  2.50100E+01  3.17828E+01  2.98910E+01  2.91401E+01  2.90694E+01  2.57872E+01  2.51151E+01  2.89949E+01
   2.68968E+01  2.26216E+01  2.58193E+01  2.50690E+01  1.92509E+01  2.09505E+01  2.49139E+01  2.10527E+01  2.10488E+01  2.13828E+01
   1.90701E+01  1.79354E+01  1.66431E+01  1.23276E+01  1.69543E+01  1.40589E+01  1.79897E+01  1.93113E+01  1.98165E+01  1.87076E+01
   1.89554E+01  1.73499E+01  1.94075E+01  1.34820E+01  1.64154E+01  1.37902E+01  1.37917E+01  1.36282E+01  1.08336E+01  7.86631E+00
   9.26744E+00  1.05255E+01  7.89120E+00  1.06298E+01  7.45330E+00  7.25619E+00  1.15609E+01  5.34920E+00  5.49924E+00  4.45113E+00
   2.42433E+00  7.04811E+00  2.89626E+00  1.51588E+00  8.08582E+00  3.86606E+00  3.17673E+00  2.67307E+00  6.49903E+00  5.23355E-01
   6.32918E+00 -5.29169E-01  2.99852E+00 -3.09693E-01 -1.95523E+00 -1.04071E-02 -2.68969E+00 -3.39156E+00 -1.88119E-01  5.22353E-02
  -3.86221E+00 -2.09783E+00 -5.11138E+00 -5.22703E+00 -2.64471E+00 -2.97239E+00 -4.64704E+00 -6.54641E+00 -4.07532E+00 -8.01498E+00
  -6.23643E+00 -5.34071E+00 -4.25720E+00 -5.51746E+00 -8.53264E+00 -6.28488E+00 -4.31912E+00 -7.42136E+00 -9.32128E+00 -4.86030E+00
  -1.11803E+01 -5.79911E+00 -6.86192E+00 -7.47288E+00 -1.08913E+01 -7.38076E+00 -8.71201E+00 -9.99353E+00 -3.14727E+00 -1.00410E+01
  -7.94269E+00 -8.00022E+00 -1.43081E+01 -9.97200E+00 -1.09637E+01 -1.15676E+01 -9.20920E+00 -9.44357E+00 -1.06224E+01 -9.55094E+00
  -1.25774E+01 -1.32666E+01 -1.26552E+01 -1.38110E+01 -1.07866E+01 -1.42879E+01 -8.64578E+00 -1.30543E+01 -1.22617E+01 -1.02822E+01
  -1.09458E+01 -1.27993E+01 -1.18924E+01 -1.27651E+01 -1.37627E+01 -1.72063E+01 -9.71444E+00 -1.56837E+01 -1.38398E+01 -1.17644E+01
  -1.45559E+01 -1.68791E+01 -1.32592E+01 -1.43378E+01 -1.57168E+01 -1.60440E+01 -1.80254E+01 -2.03819E+01 -1.19366E+01 -1.36010E+01
  -2.00562E+01 -1.75967E+01 -1.35807E+01 -1.39176E+01 -1.75233E+01 -2.27011E+01 -2.26447E+01 -1.84719E+01 -2.21528E+01 -2.09500E+01
  -2.00510E+01 -2.07769E+01 -1.99697E+01 -2.01866E+01 -2.14255E+01 -2.03888E+01 -2.60092E+01 -2.50953E+01 -2.72273E+01 -2.97594E+01
  -2.72950E+01 -2.69573E+01 -2.34783E+01 -1.65796E+01 -1.91999E+01 -2.39109E+01 -2.62597E+01 -2.83987E+01 -2.60298E+01 -2.81837E+01
  -2.76202E+01 -2.84403E+01 -2.85362E+01 -3.14888E+01 -2.57427E+01 -2.50194E+01 -2.73416E+01 -2.95198E+01 -2.89447E+01 -3.13947E+01
  -3.19979E+01 -2.96335E+01 -3.00428E+01 -3.14948E+01 -3.34582E+01 -3.25483E+01 -2.92977E+01 -3.04082E+01 -3.12770E+01 -3.52652E+01
  -3.46506E+01 -3.14236E+01 -3.55092E+01 -3.46950E+01 -3.18131E+01 -3.61574E+01 -3.38966E+01 -3.66753E+01 -3.51942E+01 -3.66017E+01
  -4.22521E+01 -3.65080E+01 -3.64949E+01 -4.11433E+01 -3.60237E+01 -3.92547E+01 -3.52878E+01 -3.76420E+01 -3.61594E+01 -3.87548E+01
  -3.56511E+01 -3.74918E+01 -3.51427E+01 -3.64933E+01 -3.73936E+01 -3.61414E+01 -3.56246E+01 -3.54247E+01 -3.32260E+01 -3.39939E+01
  -3.04525E+01 -2.74400E+01 -2.68786E+01 -1.93957E+01 -2.12519E+01 -1.73924E+01 -1.53034E+01 -1.54472E+01 -7.74654E+00 -9.32830E+00
  -1.23724E+01 -8.64061E+00 -8.78635E+00 -5.58469E+00 -6.86553E+00 -2.75788E-01  7.20359E-01 -5.43205E+00 -1.71698E+00 -2.25090E+00
  -3.06776E+00 -1.76975E+00 -3.43527E+00 -7.32990E+00 -7.42291E+00 -6.86396E+00 -8.78769E+00 -6.70129E+00 -7.46296E+00 -5.93230E+00
  -1.37078E+01 -1.00980E+01 -9.57997E+00 -1.21580E+01 -8.83163E+00 -1.26517E+01 -8.31968E+00 -1.33329E+01 -1.54171E+01 -1.44617E+01
  -2.10795E+01 -1.76147E+01 -1.91623E+01 -2.04246E+01 -1.95429E+01 -1.84625E+01 -1.71109E+01 -1.56350E+01 -2.43081E+01 -2.31403E+01
  -2.12792E+01 -2.19501E+01 -1.91964E+01 -2.46896E+01 -2.55034E+01 -2.44137E+01 -2.38762E+01 -2.69642E+01 -2.54097E+01 -1.95459E+01
  -2.54633E+01 -2.81509E+01 -2.20435E+01 -2.12197E+01 -2.42031E+01 -2.46442E+01 -2.63714E+01 -2.47089E+01 -2.15106E+01 -2.47113E+01
  -2.32546E+01 -2.32135E+01 -2.48164E+01 -2.19787E+01 -2.44292E+01 -2.53732E+01 -2.30129E+01 -2.49569E+01 -2.36824E+01 -2.31206E+01
  -2.47766E+01 -2.52853E+01 -2.56349E+01 -2.00594E+01 -2.33001E+01 -2.27450E+01 -2.57198E+01 -2.08529E+01 -2.65044E+01 -2.25677E+01
  -2.41175E+01 -2.09591E+01 -2.08595E+01 -2.20982E+01 -2.39978E+01 -2.36295E+01 -2.31473E+01 -2.50962E+01 -2.13609E+01 -2.03222E+01
  -2.33149E+01 -2.51041E+01 -1.79379E+01 -2.06702E+01 -2.48905E+01 -1.97903E+01 -2.24461E+01 -2.13806E+01 -2.57253E+01 -2.09358E+01
  -1.96366E+01 -2.34832E+01 -2.23466E+01 -2.44408E+01 -1.80728E+01 -2.16146E+01 -2.12228E+01 -2.46482E+01 -2.06481E+01 -1.89748E+01
  -2.06730E+01 -2.07522E+01 -2.06531E+01 -2.10992E+01 -2.44783E+01 -2.04159E+01 -2.39012E+01 -1.91819E+01 -1.99439E+01 -1.77738E+01
  -2.24537E+01 -1.77513E+01 -1.89130E+01 -1.87171E+01 -1.88030E+01 -1.48468E+01 -1.74920E+01 -1.78191E+01 -1.91809E+01 -1.73893E+01
  -1.60115E+01 -1.84201E+01 -1.87196E+01 -1.91119E+01 -2.09778E+01 -1.93547E+01 -2.02151E+01 -1.56761E+01 -1.83963E+01 -1.71914E+01
  -1.68360E+01 -1.97784E+01 -1.72515E+01 -1.71855E+01 -1.79022E+01 -1.37409E+01 -2.08798E+01 -1.77844E+01 -1.77586E+01 -1.49050E+01
  -1.96658E+01 -1.93528E+01 -1.89923E+01 -1.54845E+01 -1.59680E+01 -1.72411E+01 -1.62404E+01 -1.68148E+01 -1.26897E+01 -1.61040E+01
  -1.44885E+01 -1.62416E+01 -1.60661E+01 -1.27123E+01 -1.51931E+01 -1.42899E+01 -1.44705E+01 -1.11980E+01
 NY points of the fit to the data follow
   1.19582E+02  1.18239E+02  1.16888E+02  1.15583E+02  1.14359E+02  1.13233E+02  1.12144E+02  1.11056E+02  1.09959E+02  1.08810E+02
   1.07584E+02  1.06274E+02  1.04960E+02  1.03741E+02  1.02637E+02  1.01582E+02  1.00494E+02  9.93335E+01  9.81469E+01  9.69736E+01
   9.58144E+01  9.46987E+01  9.36476E+01  9.26425E+01  9.15623E+01  9.01779E+01  8.86144E+01  8.71072E+01  8.57799E+01  8.47943E+01
   8.42293E+01  8.40048E+01  8.38287E+01  8.32641E+01  8.21744E+01  8.07634E+01  7.93013E+01  7.80268E+01  7.69170E+01  7.58990E+01
   7.49082E+01  7.38314E+01  7.25345E+01  7.10109E+01  6.95229E+01  6.83538E+01  6.76038E+01  6.72728E+01  6.72818E+01  6.73891E+01
   6.71954E+01  6.63533E+01  6.48892E+01  6.32047E+01  6.16889E+01  6.04720E+01  5.94739E+01  5.85719E+01  5.77733E+01  5.71190E+01
   5.66046E+01  5.61927E+01  5.57591E+01  5.51639E+01  5.43223E+01  5.32795E+01  5.22036E+01  5.11956E+01  5.03150E+01  4.95877E+01
   4.89121E+01  4.82229E+01  4.75504E+01  4.69286E+01  4.63764E+01  4.58602E+01  4.53315E+01  4.47417E+01  4.40539E+01  4.32680E+01
   4.23889E+01  4.14275E+01  4.05502E+01  3.99096E+01  3.94707E+01  3.91375E+01  3.88096E+01  3.83847E+01  3.77861E+01  3.69619E+01
   3.59741E+01  3.50096E+01  3.42312E+01  3.36856E+01  3.32170E+01  3.27226E+01  3.21924E+01  3.16292E+01  3.09914E+01  3.02673E+01
   2.95522E+01  2.88845E+01  2.83095E+01  2.78887E+01  2.76361E+01  2.74602E+01  2.71848E+01  2.66668E+01  2.59688E+01  2.52447E+01
   2.46143E+01  2.40822E+01  2.35699E+01  2.30693E+01  2.25790E+01  2.21090E+01  2.16456E+01  2.11770E+01  2.06953E+01  2.01833E+01
   1.95698E+01  1.85120E+01  1.68685E+01  1.54039E+01  1.45514E+01  1.44662E+01  1.53087E+01  1.68680E+01  1.85634E+01  1.94892E+01
   1.90072E+01  1.74707E+01  1.57606E+01  1.45968E+01  1.40890E+01  1.36820E+01  1.31309E+01  1.23863E+01  1.15714E+01  1.08541E+01
   1.03343E+01  1.00172E+01  9.80456E+00  9.59010E+00  9.29957E+00  8.90526E+00  8.44567E+00  7.97597E+00  7.52222E+00  7.09327E+00
   6.67186E+00  6.24914E+00  5.81916E+00  5.38503E+00  4.95158E+00  4.53120E+00  4.15382E+00  3.81583E+00  3.48022E+00  3.11671E+00
   2.68580E+00  2.19481E+00  1.68812E+00  1.20548E+00  8.01067E-01  4.96829E-01  2.49085E-01 -1.50957E-02 -3.62159E-01 -7.87015E-01
  -1.22217E+00 -1.61060E+00 -1.93805E+00 -2.27680E+00 -2.66007E+00 -3.07470E+00 -3.49749E+00 -3.90545E+00 -4.29352E+00 -4.63487E+00
  -4.91161E+00 -5.17151E+00 -5.46269E+00 -5.80735E+00 -6.20626E+00 -6.61355E+00 -7.04508E+00 -7.51685E+00 -7.97392E+00 -8.31819E+00
  -8.48064E+00 -8.47459E+00 -8.41325E+00 -8.40837E+00 -8.57106E+00 -8.92726E+00 -9.40410E+00 -9.93172E+00 -1.04494E+01 -1.09257E+01
  -1.13148E+01 -1.15509E+01 -1.16193E+01 -1.15812E+01 -1.14950E+01 -1.13903E+01 -1.13515E+01 -1.14754E+01 -1.17593E+01 -1.21886E+01
  -1.27290E+01 -1.33018E+01 -1.37835E+01 -1.40657E+01 -1.41530E+01 -1.41124E+01 -1.39914E+01 -1.38347E+01 -1.37034E+01 -1.37199E+01
  -1.39509E+01 -1.43233E+01 -1.47428E+01 -1.51316E+01 -1.54438E+01 -1.56299E+01 -1.56461E+01 -1.55380E+01 -1.54382E+01 -1.54368E+01
  -1.55386E+01 -1.57111E+01 -1.59688E+01 -1.62940E+01 -1.65548E+01 -1.66669E+01 -1.66517E+01 -1.65484E+01 -1.63800E+01 -1.62096E+01
  -1.61281E+01 -1.62210E+01 -1.64761E+01 -1.68180E+01 -1.71503E+01 -1.74090E+01 -1.75758E+01 -1.76490E+01 -1.76843E+01 -1.77718E+01
  -1.79714E+01 -1.82643E+01 -1.86129E+01 -1.90012E+01 -1.95200E+01 -2.06989E+01 -2.28769E+01 -2.49129E+01 -2.61058E+01 -2.62045E+01
  -2.48885E+01 -2.23861E+01 -1.95079E+01 -1.76549E+01 -1.80308E+01 -2.02663E+01 -2.30012E+01 -2.50584E+01 -2.60716E+01 -2.67306E+01
  -2.73130E+01 -2.78615E+01 -2.83873E+01 -2.88919E+01 -2.93693E+01 -2.98184E+01 -3.02427E+01 -3.06509E+01 -3.10493E+01 -3.14387E+01
  -3.18160E+01 -3.21778E+01 -3.25229E+01 -3.28500E+01 -3.31576E+01 -3.34463E+01 -3.37176E+01 -3.39736E+01 -3.42153E+01 -3.44430E+01
  -3.46568E+01 -3.48569E+01 -3.50434E+01 -3.52166E+01 -3.53766E+01 -3.55237E+01 -3.56581E+01 -3.57799E+01 -3.58891E+01 -3.59852E+01
  -3.60674E+01 -3.61346E+01 -3.61853E+01 -3.62177E+01 -3.62291E+01 -3.62161E+01 -3.61747E+01 -3.60997E+01 -3.59850E+01 -3.58231E+01
  -3.56053E+01 -3.53218E+01 -3.49620E+01 -3.45146E+01 -3.39680E+01 -3.33108E+01 -3.25327E+01 -3.16251E+01 -3.05822E+01 -2.94019E+01
  -2.80871E+01 -2.66484E+01 -2.51025E+01 -2.34404E+01 -2.16632E+01 -1.98058E+01 -1.79070E+01 -1.60148E+01 -1.41870E+01 -1.24825E+01
  -1.09686E+01 -9.66535E+00 -8.53062E+00 -7.53814E+00 -6.68138E+00 -5.96692E+00 -5.39265E+00 -4.94929E+00 -4.65401E+00 -4.53289E+00
  -4.57980E+00 -4.75853E+00 -5.01860E+00 -5.32683E+00 -5.67631E+00 -6.06071E+00 -6.47500E+00 -6.91666E+00 -7.38568E+00 -7.88394E+00
  -8.41459E+00 -8.98122E+00 -9.58712E+00 -1.02346E+01 -1.09247E+01 -1.16565E+01 -1.24273E+01 -1.32327E+01 -1.40667E+01 -1.49218E+01
  -1.57894E+01 -1.66602E+01 -1.75249E+01 -1.83738E+01 -1.91979E+01 -1.99884E+01 -2.07376E+01 -2.14384E+01 -2.20849E+01 -2.26721E+01
  -2.31962E+01 -2.36542E+01 -2.40444E+01 -2.43659E+01 -2.46189E+01 -2.48046E+01 -2.49252E+01 -2.49837E+01 -2.49842E+01 -2.49315E+01
  -2.48316E+01 -2.46907E+01 -2.45160E+01 -2.43150E+01 -2.40953E+01 -2.38649E+01 -2.36313E+01 -2.34018E+01 -2.31829E+01 -2.29803E+01
  -2.27987E+01 -2.26417E+01 -2.25116E+01 -2.24092E+01 -2.23344E+01 -2.22857E+01 -2.22605E+01 -2.22558E+01 -2.22675E+01 -2.22913E+01
  -2.23228E+01 -2.23576E+01 -2.23917E+01 -2.24214E+01 -2.24440E+01 -2.24569E+01 -2.24587E+01 -2.24488E+01 -2.24270E+01 -2.23943E+01
  -2.23520E+01 -2.23019E+01 -2.22460E+01 -2.21868E+01 -2.21265E+01 -2.20675E+01 -2.20119E+01 -2.19614E+01 -2.19177E+01 -2.18819E+01
  -2.18547E+01 -2.18365E+01 -2.18272E+01 -2.18264E+01 -2.18333E+01 -2.18469E+01 -2.18661E+01 -2.18893E+01 -2.19150E+01 -2.19418E+01
  -2.19679E+01 -2.19921E+01 -2.20128E+01 -2.20288E+01 -2.20390E+01 -2.20423E+01 -2.20381E+01 -2.20257E+01 -2.20046E+01 -2.19746E+01
  -2.19355E+01 -2.18873E+01 -2.18301E+01 -2.17642E+01 -2.16898E+01 -2.16073E+01 -2.15171E+01 -2.14197E+01 -2.13156E+01 -2.12054E+01
  -2.10894E+01 -2.09684E+01 -2.08427E+01 -2.07130E+01 -2.05794E+01 -2.04424E+01 -2.03021E+01 -2.01589E+01 -2.00130E+01 -1.98646E+01
  -1.97140E+01 -1.95613E+01 -1.94067E+01 -1.92504E+01 -1.90926E+01 -1.89334E+01 -1.87728E+01 -1.86111E+01 -1.84482E+01 -1.82844E+01
  -1.81196E+01 -1.79540E+01 -1.77876E+01 -1.76204E+01 -1.74525E+01 -1.72839E+01 -1.71147E+01 -1.69448E+01 -1.67744E+01 -1.66033E+01
  -1.64316E+01 -1.62593E+01 -1.60865E+01 -1.59130E+01 -1.57389E+01 -1.55642E+01 -1.53889E+01 -1.52129E+01 -1.50362E+01 -1.48588E+01
  -1.46807E+01 -1.45018E+01 -1.43221E+01 -1.41416E+01 -1.39603E+01 -1.37780E+01 -1.35948E+01 -1.34107E+01
 NY background values follow
     1.189E+02    1.178E+02    1.166E+02    1.154E+02    1.143E+02    1.131E+02    1.119E+02    1.107E+02    1.096E+02    1.084E+02
     1.073E+02    1.061E+02    1.049E+02    1.038E+02    1.026E+02    1.015E+02    1.003E+02    9.920E+01    9.807E+01    9.693E+01
     9.581E+01    9.468E+01    9.356E+01    9.245E+01    9.134E+01    9.024E+01    8.914E+01    8.805E+01    8.697E+01    8.589E+01
     8.481E+01    8.375E+01    8.269E+01    8.164E+01    8.060E+01    7.956E+01    7.853E+01    7.751E+01    7.650E+01    7.550E+01
     7.450E+01    7.352E+01    7.254E+01    7.158E+01    7.062E+01    6.967E+01    6.874E+01    6.781E+01    6.689E+01    6.599E+01
     6.509E+01    6.420E+01    6.332E+01    6.245E+01    6.159E+01    6.074E+01    5.990E+01    5.906E+01    5.824E+01    5.742E+01
     5.661E+01    5.581E+01    5.501E+01    5.423E+01    5.345E+01    5.268E+01    5.191E+01    5.116E+01    5.041E+01    4.966E+01
     4.893E+01    4.820E+01    4.747E+01    4.676E+01    4.604E+01    4.534E+01    4.464E+01    4.394E+01    4.325E+01    4.257E+01
     4.189E+01    4.122E+01    4.055E+01    3.989E+01    3.923E+01    3.857E+01    3.792E+01    3.727E+01    3.663E+01    3.599E+01
     3.536E+01    3.473E+01    3.410E+01    3.347E+01    3.285E+01    3.223E+01    3.162E+01    3.101E+01    3.040E+01    2.980E+01
     2.920E+01    2.860E+01    2.801E+01    2.742E+01    2.684E+01    2.626E+01    2.568E+01    2.511E+01    2.454E+01    2.397E+01
     2.341E+01    2.285E+01    2.230E+01    2.174E+01    2.120E+01    2.066E+01    2.012E+01    1.958E+01    1.905E+01    1.853E+01
     1.800E+01    1.748E+01    1.697E+01    1.646E+01    1.595E+01    1.545E+01    1.495E+01    1.446E+01    1.397E+01    1.349E+01
     1.301E+01    1.253E+01    1.206E+01    1.159E+01    1.113E+01    1.067E+01    1.021E+01    9.761E+00    9.315E+00    8.873E+00
     8.435E+00    8.002E+00    7.572E+00    7.147E+00    6.725E+00    6.307E+00    5.894E+00    5.484E+00    5.077E+00    4.675E+00
     4.275E+00    3.880E+00    3.488E+00    3.099E+00    2.714E+00    2.332E+00    1.953E+00    1.578E+00    1.206E+00    8.362E-01
     4.699E-01    1.065E-01   -2.539E-01   -6.116E-01   -9.665E-01   -1.319E+00   -1.668E+00   -2.015E+00   -2.359E+00   -2.701E+00
    -3.041E+00   -3.378E+00   -3.713E+00   -4.045E+00   -4.376E+00   -4.704E+00   -5.030E+00   -5.354E+00   -5.677E+00   -5.997E+00
    -6.316E+00   -6.633E+00   -6.948E+00   -7.261E+00   -7.573E+00   -7.883E+00   -8.193E+00   -8.500E+00   -8.807E+00   -9.112E+00
    -9.416E+00   -9.719E+00   -1.002E+01   -1.032E+01   -1.062E+01   -1.092E+01   -1.122E+01   -1.152E+01   -1.182E+01   -1.212E+01
    -1.241E+01   -1.271E+01   -1.301E+01   -1.330E+01   -1.360E+01   -1.390E+01   -1.419E+01   -1.449E+01   -1.479E+01   -1.509E+01
    -1.538E+01   -1.568E+01   -1.598E+01   -1.628E+01   -1.658E+01   -1.688E+01   -1.718E+01   -1.749E+01   -1.779E+01   -1.810E+01
    -1.840E+01   -1.871E+01   -1.902E+01   -1.933E+01   -1.964E+01   -1.995E+01   -2.027E+01   -2.058E+01   -2.090E+01   -2.122E+01
    -2.154E+01   -2.186E+01   -2.219E+01   -2.251E+01   -2.283E+01   -2.316E+01   -2.348E+01   -2.381E+01   -2.413E+01   -2.446E+01
    -2.478E+01   -2.511E+01   -2.543E+01   -2.575E+01   -2.607E+01   -2.640E+01   -2.672E+01   -2.704E+01   -2.735E+01   -2.767E+01
    -2.799E+01   -2.830E+01   -2.861E+01   -2.892E+01   -2.922E+01   -2.953E+01   -2.983E+01   -3.013E+01   -3.043E+01   -3.072E+01
    -3.101E+01   -3.130E+01   -3.158E+01   -3.186E+01   -3.214E+01   -3.241E+01   -3.268E+01   -3.294E+01   -3.320E+01   -3.346E+01
    -3.371E+01   -3.396E+01   -3.420E+01   -3.444E+01   -3.467E+01   -3.490E+01   -3.512E+01   -3.534E+01   -3.556E+01   -3.576E+01
    -3.597E+01   -3.617E+01   -3.637E+01   -3.656E+01   -3.674E+01   -3.693E+01   -3.710E+01   -3.728E+01   -3.745E+01   -3.761E+01
    -3.778E+01   -3.793E+01   -3.809E+01   -3.823E+01   -3.838E+01   -3.852E+01   -3.866E+01   -3.879E+01   -3.892E+01   -3.905E+01
    -3.917E+01   -3.929E+01   -3.940E+01   -3.951E+01   -3.962E+01   -3.972E+01   -3.982E+01   -3.991E+01   -4.001E+01   -4.010E+01
    -4.018E+01   -4.026E+01   -4.034E+01   -4.042E+01   -4.049E+01   -4.056E+01   -4.062E+01   -4.068E+01   -4.074E+01   -4.080E+01
    -4.085E+01   -4.090E+01   -4.095E+01   -4.099E+01   -4.103E+01   -4.107E+01   -4.110E+01   -4.113E+01   -4.116E+01   -4.119E+01
    -4.121E+01   -4.123E+01   -4.125E+01   -4.126E+01   -4.127E+01   -4.128E+01   -4.128E+01   -4.129E+01   -4.129E+01   -4.128E+01
    -4.128E+01   -4.127E+01   -4.126E+01   -4.124E+01   -4.123E+01   -4.121E+01   -4.119E+01   -4.116E+01   -4.114E+01   -4.111E+01
    -4.107E+01   -4.104E+01   -4.100E+01   -4.096E+01   -4.092E+01   -4.088E+01   -4.083E+01   -4.078E+01   -4.073E+01   -4.068E+01
    -4.062E+01   -4.056E+01   -4.050E+01   -4.044E+01   -4.038E+01   -4.031E+01   -4.024E+01   -4.017E+01   -4.009E+01   -4.002E+01
    -3.994E+01   -3.985E+01   -3.977E+01   -3.968E+01   -3.959E+01   -3.950E+01   -3.940E+01   -3.930E+01   -3.920E+01   -3.910E+01
    -3.899E+01   -3.888E+01   -3.877E+01   -3.865E+01   -3.853E+01   -3.841E+01   -3.828E+01   -3.815E+01   -3.802E+01   -3.788E+01
    -3.774E+01   -3.760E+01   -3.745E+01   -3.731E+01   -3.715E+01   -3.700E+01   -3.684E+01   -3.667E+01   -3.650E+01   -3.633E+01
    -3.616E+01   -3.598E+01   -3.580E+01   -3.561E+01   -3.542E+01   -3.522E+01   -3.502E+01   -3.482E+01   -3.462E+01   -3.441E+01
    -3.419E+01   -3.397E+01   -3.375E+01   -3.353E+01   -3.330E+01   -3.307E+01   -3.283E+01   -3.260E+01   -3.236E+01   -3.212E+01
    -3.187E+01   -3.163E+01   -3.138E+01   -3.113E+01   -3.088E+01   -3.063E+01   -3.037E+01   -3.011E+01   -2.986E+01   -2.960E+01
    -2.934E+01   -2.908E+01   -2.882E+01   -2.856E+01   -2.830E+01   -2.803E+01   -2.777E+01   -2.751E+01   -2.725E+01   -2.699E+01
    -2.673E+01   -2.647E+01   -2.621E+01   -2.595E+01   -2.570E+01   -2.544E+01   -2.519E+01   -2.493E+01   -2.468E+01   -2.443E+01
    -2.419E+01   -2.394E+01   -2.370E+01   -2.346E+01   -2.322E+01   -2.298E+01   -2.275E+01   -2.252E+01   -2.229E+01   -2.206E+01
    -2.183E+01   -2.161E+01   -2.139E+01   -2.116E+01   -2.095E+01   -2.073E+01   -2.051E+01   -2.030E+01   -2.008E+01   -1.987E+01
    -1.966E+01   -1.945E+01   -1.924E+01   -1.904E+01   -1.883E+01   -1.862E+01   -1.842E+01   -1.822E+01   -1.801E+01   -1.781E+01
    -1.761E+01   -1.741E+01   -1.721E+01   -1.701E+01   -1.681E+01   -1.661E+01   -1.641E+01   -1.621E+01   -1.601E+01   -1.581E+01
    -1.561E+01   -1.542E+01   -1.522E+01   -1.502E+01   -1.482E+01   -1.462E+01   -1.442E+01   -1.422E+01
 Ala      Conc. = 4.20E-01
