 LCModel (Version 6.3-1L) Copyright: S.W. Provencher.          Ref.: Magn. Reson. Med. 30:672-679 (1993).                
 Slice#2 Row#9 Col#5  PD_05_press_2_raw_act
 36 lines in following concentration table = NCONC+1
    Conc.  %SD /Cr+PCr  Metabolite                                         
  467.742  61%   0.116 Ala                                                 
    0.000 999%   0.000 Asp                                                 
 1.95E+03  26%   0.485 Cr                                                  
 2.07E+03  25%   0.515 PCr                                                 
    0.000 999%   0.000 GABA                                                
    0.000 999%   0.000 Glc                                                 
 3.64E+03  17%   0.907 Gln                                                 
 5.56E+03  12%   1.385 Glu                                                 
 1.24E+03   4%   0.308 GPC                                                 
    0.000 999%   0.000 PCh                                                 
 1.81E+03   9%   0.450 GSH                                                 
 3.56E+03  16%   0.885 Ins                                                 
  455.558  70%   0.113 Lac                                                 
 7.51E+03   5%   1.871 NAA                                                 
  336.815 105% 8.4E-02 NAAG                                                
  226.776  26% 5.6E-02 Scyllo                                              
    0.000 999%   0.000 Tau                                                 
    0.000 999%   0.000 -CrCH2                                              
 1.24E+03   4%   0.308 GPC+PCh                                             
 7.85E+03   3%   1.955 NAA+NAAG                                            
 4.02E+03   3%   1.000 Cr+PCr                                              
 9.21E+03  11%   2.292 Glu+Gln                                             
 4.53E+03  29%   1.127 Lip13a                                              
    0.000 999%   0.000 Lip13b                                              
  237.837 296% 5.9E-02 Lip09                                               
 4.00E+03  20%   0.995 MM09                                                
  594.349  85%   0.148 Lip20                                               
 8.93E+03  11%   2.224 MM20                                                
 1.58E+03  32%   0.393 MM12                                                
 1.28E+03  60%   0.319 MM14                                                
 2.52E+03  20%   0.627 MM17                                                
 4.53E+03  29%   1.127 Lip13a+Lip13b                                       
 7.39E+03  12%   1.840 MM14+Lip13a+Lip13b+MM12                             
 4.23E+03  11%   1.055 MM09+Lip09                                          
 9.53E+03  10%   2.372 MM20+Lip20                                          
   6 lines in following misc. output table
  FWHM = 0.054 ppm    S/N =  18                                            
  Data shift = 0.000 ppm                                                   
  Ph: -13 deg      -2.8 deg/ppm                                            
  alphaB,S = 1.4E+00,   7.9E+01                                            
   14 spline knots.   Ns = 8(1)                                            
  (15) 5 infls.   (17) 1 extrs.                                            
  498 points on ppm-axis = NY
      4.000000     3.992357     3.984714     3.977070     3.969427     3.961784     3.954141     3.946497     3.938854     3.931211
      3.923568     3.915925     3.908281     3.900638     3.892995     3.885352     3.877708     3.870065     3.862422     3.854779
      3.847136     3.839492     3.831849     3.824206     3.816563     3.808919     3.801276     3.793633     3.785990     3.778347
      3.770703     3.763060     3.755417     3.747774     3.740130     3.732487     3.724844     3.717201     3.709558     3.701914
      3.694271     3.686628     3.678985     3.671341     3.663698     3.656055     3.648412     3.640769     3.633125     3.625482
      3.617839     3.610196     3.602552     3.594909     3.587266     3.579623     3.571980     3.564336     3.556693     3.549050
      3.541407     3.533763     3.526120     3.518477     3.510834     3.503191     3.495547     3.487904     3.480261     3.472618
      3.464974     3.457331     3.449688     3.442045     3.434402     3.426758     3.419115     3.411472     3.403829     3.396185
      3.388542     3.380899     3.373256     3.365613     3.357969     3.350326     3.342683     3.335040     3.327396     3.319753
      3.312110     3.304467     3.296824     3.289180     3.281537     3.273894     3.266251     3.258607     3.250964     3.243321
      3.235678     3.228034     3.220391     3.212748     3.205105     3.197462     3.189818     3.182175     3.174532     3.166889
      3.159245     3.151602     3.143959     3.136316     3.128673     3.121029     3.113386     3.105743     3.098100     3.090456
      3.082813     3.075170     3.067527     3.059884     3.052240     3.044597     3.036954     3.029311     3.021667     3.014024
      3.006381     2.998738     2.991095     2.983451     2.975808     2.968165     2.960522     2.952878     2.945235     2.937592
      2.929949     2.922306     2.914662     2.907019     2.899376     2.891733     2.884089     2.876446     2.868803     2.861160
      2.853517     2.845873     2.838230     2.830587     2.822944     2.815300     2.807657     2.800014     2.792371     2.784728
      2.777084     2.769441     2.761798     2.754155     2.746511     2.738868     2.731225     2.723582     2.715939     2.708295
      2.700652     2.693009     2.685366     2.677722     2.670079     2.662436     2.654793     2.647150     2.639506     2.631863
      2.624220     2.616577     2.608933     2.601290     2.593647     2.586004     2.578361     2.570717     2.563074     2.555431
      2.547788     2.540144     2.532501     2.524858     2.517215     2.509572     2.501928     2.494285     2.486642     2.478999
      2.471355     2.463712     2.456069     2.448426     2.440783     2.433139     2.425496     2.417853     2.410210     2.402566
      2.394923     2.387280     2.379637     2.371994     2.364350     2.356707     2.349064     2.341421     2.333777     2.326134
      2.318491     2.310848     2.303205     2.295561     2.287918     2.280275     2.272632     2.264988     2.257345     2.249702
      2.242059     2.234416     2.226772     2.219129     2.211486     2.203843     2.196199     2.188556     2.180913     2.173270
      2.165627     2.157983     2.150340     2.142697     2.135054     2.127410     2.119767     2.112124     2.104481     2.096838
      2.089194     2.081551     2.073908     2.066265     2.058621     2.050978     2.043335     2.035692     2.028049     2.020405
      2.012762     2.005119     1.997476     1.989833     1.982190     1.974546     1.966903     1.959260     1.951617     1.943974
      1.936331     1.928688     1.921045     1.913402     1.905759     1.898115     1.890472     1.882829     1.875186     1.867543
      1.859900     1.852257     1.844614     1.836971     1.829327     1.821684     1.814041     1.806398     1.798755     1.791112
      1.783469     1.775826     1.768183     1.760540     1.752896     1.745253     1.737610     1.729967     1.722324     1.714681
      1.707038     1.699395     1.691752     1.684108     1.676465     1.668822     1.661179     1.653536     1.645893     1.638250
      1.630607     1.622964     1.615321     1.607677     1.600034     1.592391     1.584748     1.577105     1.569462     1.561819
      1.554176     1.546533     1.538890     1.531246     1.523603     1.515960     1.508317     1.500674     1.493031     1.485388
      1.477745     1.470102     1.462458     1.454815     1.447172     1.439529     1.431886     1.424243     1.416600     1.408957
      1.401314     1.393671     1.386027     1.378384     1.370741     1.363098     1.355455     1.347812     1.340169     1.332526
      1.324883     1.317240     1.309596     1.301953     1.294310     1.286667     1.279024     1.271381     1.263738     1.256095
      1.248452     1.240808     1.233165     1.225522     1.217879     1.210236     1.202593     1.194950     1.187307     1.179664
      1.172021     1.164377     1.156734     1.149091     1.141448     1.133805     1.126162     1.118519     1.110876     1.103233
      1.095590     1.087946     1.080303     1.072660     1.065017     1.057374     1.049731     1.042088     1.034445     1.026802
      1.019158     1.011515     1.003872     0.996229     0.988586     0.980943     0.973300     0.965657     0.958014     0.950371
      0.942727     0.935084     0.927441     0.919798     0.912155     0.904512     0.896869     0.889226     0.881583     0.873940
      0.866296     0.858653     0.851010     0.843367     0.835724     0.828081     0.820438     0.812795     0.805152     0.797508
      0.789865     0.782222     0.774579     0.766936     0.759293     0.751650     0.744007     0.736364     0.728721     0.721077
      0.713434     0.705791     0.698148     0.690505     0.682862     0.675219     0.667576     0.659933     0.652290     0.644646
      0.637003     0.629360     0.621717     0.614074     0.606431     0.598788     0.591145     0.583502     0.575858     0.568215
      0.560572     0.552929     0.545286     0.537643     0.530000     0.522357     0.514714     0.507071     0.499427     0.491784
      0.484141     0.476498     0.468855     0.461212     0.453569     0.445925     0.438282     0.430639     0.422996     0.415353
      0.407710     0.400067     0.392424     0.384780     0.377137     0.369494     0.361851     0.354208     0.346565     0.338922
      0.331278     0.323635     0.315992     0.308349     0.300706     0.293063     0.285420     0.277777     0.270133     0.262490
      0.254847     0.247204     0.239561     0.231918     0.224275     0.216631     0.208988     0.201345
 NY phased data points follow
  -5.57301E+00  1.05983E+01 -4.84938E-01  9.71721E+00  2.41253E+01  3.49747E+01  3.48055E+01  4.67194E+01  6.14182E+01  7.29911E+01
   8.71542E+01  8.32561E+01  7.73635E+01  6.53448E+01  6.15291E+01  5.12999E+01  4.27214E+01  3.29132E+01  3.69954E+01  2.19293E+01
   2.37755E+01  2.18968E+01  1.88363E+01  1.73110E+01  2.53384E+01  2.20122E+01  2.87185E+01  3.05375E+01  2.85797E+01  3.31433E+01
   3.09515E+01  4.37403E+01  3.63380E+01  3.32944E+01  2.96099E+01  2.61310E+01  2.78102E+01  3.10541E+01  2.07608E+01  2.13397E+01
   2.16175E+01  2.89856E+01  2.66149E+01  1.87355E+01  1.55006E+01  2.74420E+01  1.89710E+01  3.49573E+01  3.26990E+01  2.79255E+01
   2.11650E+01  1.72920E+01  5.86777E+00  9.77660E+00  7.17603E+00  1.07791E+01  7.39406E+00  1.66817E+01  1.15632E+01  1.29088E+01
   2.86867E+00  3.37451E+00 -3.80131E+00 -3.93246E+00 -1.18371E+01 -2.19676E+00 -1.03191E+01 -1.12323E+01 -1.89830E+01 -4.74849E+00
  -9.73593E-01 -3.98002E+00 -1.96546E+00 -1.33308E+01  2.12954E+00 -2.79554E+00 -1.47642E+00 -2.69488E+00 -5.20439E+00 -1.15102E+00
  -2.26934E-01 -9.88119E+00 -4.67971E-01 -5.67602E+00 -1.39690E+00 -5.72890E+00  1.57700E+00 -6.92789E+00 -6.80088E+00  3.62276E+00
  -5.66523E+00 -2.42375E+00 -2.16416E+00  1.21968E+01 -5.85797E-01  9.33094E+00  3.93499E+00  1.41404E+01  1.87348E+01  2.37462E+01
   4.09398E+01  5.88133E+01  7.64773E+01  7.97097E+01  9.24261E+01  8.66559E+01  6.41824E+01  5.27490E+01  3.28759E+01  2.92334E+01
   1.50862E+01  1.99691E+01  1.15929E+01  6.15263E+00  2.18629E+00 -1.27247E+00  8.35955E+00 -3.20448E+00  3.00327E+00  6.33103E+00
   1.05004E+01  1.13625E+01  3.00868E+01  3.93055E+01  4.74642E+01  7.93060E+01  9.05156E+01  1.00319E+02  1.24467E+02  1.05148E+02
   8.98698E+01  7.36349E+01  4.65359E+01  3.90827E+01  1.84298E+01  2.15992E+01  1.19252E+01  1.42401E+00  1.69517E+00  9.01573E+00
  -8.23890E+00 -3.77774E+00 -2.76512E+00 -5.37865E+00 -4.26171E+00 -7.75008E+00 -5.88119E+00 -7.25907E+00 -1.04883E+01 -5.75261E+00
  -3.57366E+00 -6.08796E+00 -6.56871E+00 -6.45599E+00 -1.50058E+01 -1.23684E+01 -1.37018E+01 -1.60011E+01 -1.43424E+01 -1.13241E+01
  -1.99605E+01 -1.74554E+01 -2.11761E+01 -2.06874E+01 -1.14207E+01 -7.17422E+00 -9.61440E+00 -1.57976E+01 -2.29123E+01 -1.34650E+01
  -2.17413E+01 -3.19066E+01 -3.84860E+01 -4.00385E+01 -3.47924E+01 -4.22471E+01 -4.31541E+01 -4.67127E+01 -5.05922E+01 -3.88286E+01
  -5.58376E+01 -4.16136E+01 -4.59629E+01 -3.86406E+01 -4.45534E+01 -3.45264E+01 -3.22085E+01 -2.81245E+01 -2.74644E+01 -1.57181E+01
  -2.40705E+00 -5.84531E+00 -3.37316E+00  2.00251E+00 -1.19873E+01 -2.83360E+00 -9.56227E+00 -1.07019E+01 -1.38555E+01 -7.43655E+00
  -7.02966E+00 -7.78014E+00 -6.14643E+00 -8.24766E+00  1.54430E+00 -1.65705E+00 -1.02558E+01 -3.17091E+00 -1.60768E+01 -2.18837E+01
  -1.40603E+01 -9.73157E+00 -1.09455E+01  8.09588E+00  6.51057E+00  1.07908E+01  2.08069E+01  2.60383E+01  2.16090E+01  1.32879E+01
  -3.35258E+00 -7.04097E+00 -8.87248E+00 -1.87593E+01 -1.30459E+01 -2.14382E+00  8.01948E+00  4.90102E+00  1.79952E+01  1.08573E+01
   1.41100E+01  9.08767E+00  1.10411E+01  1.00847E+01  1.52183E+01  6.81494E+00  9.03499E+00  9.73393E+00  8.60220E+00  8.43348E+00
   6.80328E+00  4.96562E+00 -3.21595E+00  4.87108E+00  4.30675E-01  1.08543E+01  1.84852E+01  2.02664E+01  1.94965E+01  2.74622E+01
   3.12199E+01  3.74711E+01  5.04015E+01  5.61520E+01  8.33460E+01  9.64235E+01  1.12918E+02  1.32105E+02  1.72046E+02  1.99795E+02
   2.24119E+02  2.43053E+02  2.29724E+02  1.93069E+02  1.48022E+02  1.11172E+02  8.11522E+01  7.01082E+01  4.74771E+01  4.02076E+01
   2.59262E+01  2.39020E+01  1.57768E+01  1.39469E+01  1.36187E+01  1.11603E+01  6.68428E+00  3.76354E+00  3.74988E+00  3.62796E+00
   6.15258E+00  3.98757E+00  4.32523E+00 -4.68876E+00  5.58275E+00 -4.71439E+00 -6.63176E+00 -7.85546E+00 -2.53461E+00  1.00635E+00
  -5.11481E+00  6.03590E+00  4.65250E+00  9.22327E+00 -3.69951E+00 -1.40798E+00 -3.09659E+00 -7.21015E+00  4.50497E+00 -3.20310E+00
   3.48409E+00 -4.50541E+00  9.14285E+00  1.01929E+01  1.91871E+00  1.04749E+01  1.29868E+01  8.39283E+00  1.26588E+01  1.42478E+01
   2.05404E+01  1.59423E+01  1.29859E+01  9.05108E+00  1.45332E+01  9.81078E+00  4.81908E+00  1.10868E+01  7.04532E+00  1.70327E+00
   7.57648E-01  5.33259E+00  1.61361E+00  9.49906E+00  2.36367E+00  5.72446E+00 -4.26575E+00  3.27399E+00 -9.24142E-01  1.79256E+00
  -2.61043E+00  2.41796E-01  1.31011E+00 -1.22484E+00  7.61880E+00  6.15716E+00  4.50262E+00  1.26943E+01  8.43121E+00  8.04771E+00
   1.53711E+01  8.90067E+00  1.28387E+01  1.33919E+01  1.54702E+01  1.76924E+01  1.48029E+01  2.17006E+01  1.78306E+01  9.55285E+00
   9.60457E+00  5.74727E+00  1.92187E+01  9.49546E+00  1.98914E+01  1.60997E+01  1.32699E+01  2.49416E+01  1.68639E+01  1.72833E+01
   2.01400E+01  1.59689E+01  1.13079E+01  2.04243E+01  9.36940E+00  1.15571E+01  2.07270E+01  2.33471E+01  8.19312E+00  1.77085E+01
   1.26335E+01  1.26867E+01  1.10142E+01  1.61051E+01  7.97105E+00  1.84073E+01  1.36655E+01  1.66932E+01  1.65958E+01  1.19477E+01
   7.81231E+00  8.92291E+00  1.24808E+01  9.89840E+00  1.86824E+00  3.35067E+00  2.97933E+00  1.17586E+01  1.01295E+01  7.78083E+00
   9.99281E+00  1.35125E+01  1.29540E-01  7.46700E+00  5.18389E+00  1.73145E+01  1.13197E+01  1.97194E+01  1.31431E+01  2.24534E+01
   1.17715E+01  2.47296E+01  1.68420E+01  2.02965E+01  1.76544E+01  2.53950E+01  2.39429E+01  2.41872E+01  2.83067E+01  2.81705E+01
   1.79171E+01  2.14705E+01  1.95583E+01  2.34407E+01  2.19762E+01  9.24945E+00  1.09162E+01  9.66538E+00  1.62535E+01  8.76067E+00
   3.10349E+00  8.57333E+00  4.04082E+00  4.15437E+00 -2.82754E+00  1.21744E+00  5.31570E+00  3.30326E+00  1.63379E+00 -2.02348E+00
  -9.17267E+00 -4.25066E+00 -8.58064E-01  4.15723E+00 -5.10008E+00  6.91847E-01  1.58029E+00 -6.17687E+00 -7.53421E+00  1.11798E+00
   1.83802E+00 -2.43859E+00  1.87438E+00 -1.34778E+00  3.90887E+00 -2.38286E+00  1.35597E+00 -5.01257E+00 -7.50988E+00 -8.47364E+00
  -3.41001E+00 -5.97026E+00 -2.43799E+00 -2.02915E+00  1.62763E-01 -7.17205E+00 -2.55703E+00 -7.55538E+00 -3.25913E+00 -4.88426E+00
   5.42109E-01 -2.76812E+00 -5.99213E+00 -9.86104E+00 -9.69508E+00 -6.86377E+00  1.69032E+00 -7.23425E+00 -9.58779E+00 -5.90339E+00
  -4.36409E+00 -1.32596E+01 -1.50271E+00  3.14837E+00 -8.03632E+00 -1.06978E+01 -1.30554E+00  1.16409E+00 -2.73185E+00 -1.83870E+00
  -5.50678E+00  3.70954E+00 -1.17229E+01  3.03444E+00 -3.07582E+00 -9.10643E-01 -2.76036E+00 -4.40761E+00  3.19573E+00 -1.64378E+00
  -6.90471E+00 -1.57740E+01 -3.80831E+00 -4.64324E+00 -1.66512E+00 -5.19991E+00 -4.37705E+00 -1.05956E+01
 NY points of the fit to the data follow
   8.23641E+00  8.71809E+00  1.17619E+01  1.62875E+01  2.22102E+01  2.86265E+01  3.65291E+01  4.64200E+01  5.77477E+01  6.94398E+01
   7.86234E+01  8.21099E+01  7.91361E+01  7.06454E+01  5.92298E+01  4.82719E+01  3.98599E+01  3.37983E+01  2.80830E+01  2.27119E+01
   1.84233E+01  1.51197E+01  1.54020E+01  1.65537E+01  1.75309E+01  1.86390E+01  2.12104E+01  2.60990E+01  3.21148E+01  3.84699E+01
   4.40991E+01  4.63459E+01  4.43430E+01  3.91710E+01  3.25980E+01  2.62022E+01  2.02072E+01  1.53405E+01  1.14966E+01  9.38197E+00
   1.03529E+01  1.24050E+01  1.45312E+01  1.68949E+01  1.99777E+01  2.34989E+01  2.62124E+01  2.76143E+01  2.69974E+01  2.31427E+01
   1.73756E+01  1.22561E+01  8.72913E+00  6.97457E+00  6.36679E+00  5.59895E+00  4.45370E+00  4.12972E+00  4.91905E+00  5.89342E+00
   6.15613E+00  5.51143E+00  3.92852E+00  1.99755E+00  3.22556E-01 -7.05698E-01 -8.40771E-01 -4.44804E-01  6.61763E-02  6.42597E-01
   1.05886E+00  1.36735E+00  1.50384E+00  1.25347E+00  6.40376E-01 -1.69175E-01 -9.77490E-01 -1.55948E+00 -1.78523E+00 -1.52625E+00
  -1.69534E+00 -2.12075E+00 -2.31591E+00 -2.09672E+00 -1.54884E+00 -1.09438E+00 -9.50834E-01 -1.27965E+00 -2.34791E+00 -4.03443E+00
  -5.53579E+00 -6.28196E+00 -6.21947E+00 -5.58480E+00 -4.24258E+00  3.43152E-01  8.03775E+00  1.48577E+01  2.07861E+01  2.84185E+01
   4.07472E+01  5.71030E+01  7.35502E+01  8.69930E+01  9.30651E+01  8.69132E+01  7.06508E+01  5.15221E+01  3.55568E+01  2.50333E+01
   1.89134E+01  1.37254E+01  5.55050E+00 -2.36838E+00 -5.03359E+00 -5.71455E+00 -5.81268E+00 -5.48843E+00 -4.13213E+00  1.68671E+00
   1.20848E+01  2.12020E+01  2.93357E+01  3.93048E+01  5.43631E+01  7.39381E+01  9.32556E+01  1.08638E+02  1.15720E+02  1.09144E+02
   9.09462E+01  6.94444E+01  5.11163E+01  3.83796E+01  2.96823E+01  2.12090E+01  9.36134E+00 -1.33239E+00 -4.06976E+00 -3.18402E+00
  -1.38022E+00 -4.96943E-02  7.30251E-02 -6.18200E-01 -1.55066E+00 -2.61487E+00 -3.57840E+00 -4.42110E+00 -5.36062E+00 -6.32303E+00
  -7.48111E+00 -8.54474E+00 -9.38971E+00 -1.03170E+01 -1.12140E+01 -1.17870E+01 -1.20180E+01 -1.20693E+01 -1.25399E+01 -1.36247E+01
  -1.49520E+01 -1.61258E+01 -1.66735E+01 -1.64164E+01 -1.57900E+01 -1.54760E+01 -1.60852E+01 -1.78443E+01 -2.02712E+01 -2.24226E+01
  -2.33716E+01 -2.37803E+01 -2.45028E+01 -2.59998E+01 -2.80144E+01 -2.93202E+01 -2.97212E+01 -2.96396E+01 -2.91287E+01 -2.86909E+01
  -2.85758E+01 -2.85286E+01 -2.82869E+01 -2.74313E+01 -2.59725E+01 -2.41919E+01 -2.21834E+01 -2.01138E+01 -1.73586E+01 -1.37844E+01
  -1.03806E+01 -8.41083E+00 -8.49559E+00 -9.98239E+00 -1.19219E+01 -1.33405E+01 -1.29151E+01 -1.09523E+01 -8.13570E+00 -4.61017E+00
  -1.17963E+00  1.44915E+00  2.89637E+00  3.20382E+00  2.00398E+00 -1.49579E+00 -7.24774E+00 -1.36039E+01 -1.87252E+01 -2.12967E+01
  -2.15500E+01 -1.84599E+01 -1.25681E+01 -5.79645E+00  7.72877E-01  5.74271E+00  8.82877E+00  1.00182E+01  7.57068E+00  8.46108E-01
  -8.28733E+00 -1.59804E+01 -2.00046E+01 -2.06998E+01 -1.81861E+01 -1.27067E+01 -5.96456E+00  3.82598E-01  4.35465E+00  6.44331E+00
   7.41670E+00  8.19338E+00  9.48764E+00  1.07187E+01  1.14971E+01  1.24793E+01  1.39169E+01  1.58446E+01  1.71930E+01  1.65596E+01
   1.42019E+01  1.09139E+01  7.67526E+00  6.03882E+00  6.99470E+00  9.91011E+00  1.36939E+01  1.77706E+01  2.14541E+01  2.40995E+01
   2.64623E+01  3.04708E+01  4.22790E+01  6.34869E+01  8.22762E+01  9.78529E+01  1.15062E+02  1.39518E+02  1.70518E+02  2.01359E+02
   2.27194E+02  2.40093E+02  2.28348E+02  1.93562E+02  1.50580E+02  1.12898E+02  8.68499E+01  7.11849E+01  5.87878E+01  4.04781E+01
   2.08229E+01  1.28446E+01  9.82070E+00  7.99484E+00  6.80087E+00  6.16944E+00  5.47365E+00  4.55319E+00  3.51961E+00  2.47775E+00
   1.53004E+00  7.45443E-01  7.95624E-02 -5.35981E-01 -1.05687E+00 -1.43688E+00 -1.71346E+00 -1.92578E+00 -2.06546E+00 -2.09011E+00
  -1.96274E+00 -1.72544E+00 -1.38869E+00 -9.37209E-01 -3.75738E-01  2.78244E-01  1.01820E+00  1.84118E+00  2.74133E+00  3.69847E+00
   4.69210E+00  5.69737E+00  6.68906E+00  7.63517E+00  8.50440E+00  9.26581E+00  9.89335E+00  1.03707E+01  1.06890E+01  1.08396E+01
   1.08247E+01  1.06539E+01  1.03406E+01  9.90538E+00  9.37874E+00  8.79517E+00  8.19423E+00  7.62688E+00  7.17873E+00  6.95710E+00
   6.68815E+00  6.22983E+00  5.80547E+00  5.55527E+00  5.43770E+00  5.15319E+00  4.45118E+00  3.52473E+00  2.42884E+00  1.03437E+00
  -2.09981E-01 -7.83112E-01 -3.92301E-01  8.96205E-01  2.72387E+00  4.79675E+00  6.87127E+00  8.84346E+00  1.04147E+01  1.15199E+01
   1.22548E+01  1.27444E+01  1.33529E+01  1.41454E+01  1.47302E+01  1.48712E+01  1.47395E+01  1.45028E+01  1.39502E+01  1.29281E+01
   1.19204E+01  1.15310E+01  1.20761E+01  1.34054E+01  1.51314E+01  1.69264E+01  1.84030E+01  1.94701E+01  2.00035E+01  1.99036E+01
   1.95102E+01  1.90961E+01  1.87551E+01  1.83330E+01  1.74970E+01  1.65437E+01  1.57141E+01  1.49186E+01  1.41218E+01  1.33177E+01
   1.25099E+01  1.17060E+01  1.09156E+01  1.01490E+01  9.41709E+00  8.73053E+00  8.09965E+00  7.53397E+00  7.04219E+00  6.63238E+00
   6.31205E+00  6.08811E+00  5.96664E+00  5.95278E+00  6.05087E+00  6.26454E+00  6.59659E+00  7.04860E+00  7.62048E+00  8.31017E+00
   9.11341E+00  1.00236E+01  1.10314E+01  1.21241E+01  1.32856E+01  1.44963E+01  1.57333E+01  1.69712E+01  1.81824E+01  1.93375E+01
   2.04065E+01  2.13600E+01  2.21704E+01  2.28132E+01  2.32682E+01  2.35199E+01  2.35584E+01  2.33803E+01  2.29888E+01  2.23932E+01
   2.16085E+01  2.06545E+01  1.95548E+01  1.83359E+01  1.70260E+01  1.56536E+01  1.42463E+01  1.28297E+01  1.14271E+01  1.00587E+01
   8.74137E+00  7.48834E+00  6.30920E+00  5.21018E+00  4.19467E+00  3.26365E+00  2.41600E+00  1.64880E+00  9.57770E-01  3.37851E-01
  -2.16377E-01 -7.10434E-01 -1.14989E+00 -1.54031E+00 -1.88701E+00 -2.19487E+00 -2.46819E+00 -2.71080E+00 -2.92624E+00 -3.11779E+00
  -3.28832E+00 -3.44026E+00 -3.57561E+00 -3.69613E+00 -3.80350E+00 -3.89926E+00 -3.98472E+00 -4.06090E+00 -4.12860E+00 -4.18862E+00
  -4.24177E+00 -4.28881E+00 -4.33033E+00 -4.36669E+00 -4.39824E+00 -4.42540E+00 -4.44864E+00 -4.46836E+00 -4.48479E+00 -4.49807E+00
  -4.50838E+00 -4.51601E+00 -4.52127E+00 -4.52434E+00 -4.52527E+00 -4.52410E+00 -4.52099E+00 -4.51617E+00 -4.50983E+00 -4.50203E+00
  -4.49274E+00 -4.48199E+00 -4.46990E+00 -4.45667E+00 -4.44239E+00 -4.42704E+00 -4.41056E+00 -4.39300E+00 -4.37452E+00 -4.35525E+00
  -4.33521E+00 -4.31432E+00 -4.29253E+00 -4.26995E+00 -4.24670E+00 -4.22285E+00 -4.19835E+00 -4.17310E+00 -4.14712E+00 -4.12049E+00
  -4.09333E+00 -4.06563E+00 -4.03728E+00 -4.00821E+00 -3.97845E+00 -3.94808E+00 -3.91715E+00 -3.88555E+00
 NY background values follow
    -2.127E+00   -2.223E+00   -2.319E+00   -2.416E+00   -2.512E+00   -2.609E+00   -2.705E+00   -2.802E+00   -2.899E+00   -2.996E+00
    -3.092E+00   -3.189E+00   -3.286E+00   -3.383E+00   -3.480E+00   -3.577E+00   -3.674E+00   -3.771E+00   -3.868E+00   -3.965E+00
    -4.062E+00   -4.159E+00   -4.256E+00   -4.353E+00   -4.450E+00   -4.547E+00   -4.644E+00   -4.741E+00   -4.838E+00   -4.935E+00
    -5.032E+00   -5.129E+00   -5.226E+00   -5.322E+00   -5.419E+00   -5.516E+00   -5.613E+00   -5.709E+00   -5.806E+00   -5.902E+00
    -5.999E+00   -6.095E+00   -6.192E+00   -6.288E+00   -6.384E+00   -6.480E+00   -6.576E+00   -6.672E+00   -6.768E+00   -6.864E+00
    -6.960E+00   -7.055E+00   -7.151E+00   -7.246E+00   -7.341E+00   -7.436E+00   -7.531E+00   -7.626E+00   -7.720E+00   -7.814E+00
    -7.908E+00   -8.002E+00   -8.096E+00   -8.189E+00   -8.282E+00   -8.375E+00   -8.468E+00   -8.560E+00   -8.652E+00   -8.744E+00
    -8.836E+00   -8.927E+00   -9.018E+00   -9.109E+00   -9.199E+00   -9.289E+00   -9.378E+00   -9.468E+00   -9.556E+00   -9.645E+00
    -9.733E+00   -9.821E+00   -9.908E+00   -9.995E+00   -1.008E+01   -1.017E+01   -1.025E+01   -1.034E+01   -1.042E+01   -1.051E+01
    -1.059E+01   -1.067E+01   -1.076E+01   -1.084E+01   -1.092E+01   -1.100E+01   -1.108E+01   -1.116E+01   -1.124E+01   -1.132E+01
    -1.140E+01   -1.148E+01   -1.156E+01   -1.163E+01   -1.171E+01   -1.179E+01   -1.186E+01   -1.194E+01   -1.201E+01   -1.208E+01
    -1.216E+01   -1.223E+01   -1.230E+01   -1.237E+01   -1.244E+01   -1.251E+01   -1.258E+01   -1.265E+01   -1.272E+01   -1.278E+01
    -1.285E+01   -1.291E+01   -1.298E+01   -1.304E+01   -1.311E+01   -1.317E+01   -1.323E+01   -1.329E+01   -1.335E+01   -1.341E+01
    -1.347E+01   -1.353E+01   -1.359E+01   -1.365E+01   -1.370E+01   -1.376E+01   -1.381E+01   -1.386E+01   -1.392E+01   -1.397E+01
    -1.402E+01   -1.407E+01   -1.412E+01   -1.417E+01   -1.422E+01   -1.427E+01   -1.431E+01   -1.436E+01   -1.440E+01   -1.445E+01
    -1.449E+01   -1.453E+01   -1.457E+01   -1.461E+01   -1.465E+01   -1.469E+01   -1.473E+01   -1.476E+01   -1.480E+01   -1.483E+01
    -1.487E+01   -1.490E+01   -1.493E+01   -1.496E+01   -1.499E+01   -1.502E+01   -1.505E+01   -1.507E+01   -1.510E+01   -1.512E+01
    -1.515E+01   -1.517E+01   -1.519E+01   -1.521E+01   -1.523E+01   -1.525E+01   -1.527E+01   -1.528E+01   -1.530E+01   -1.531E+01
    -1.533E+01   -1.534E+01   -1.535E+01   -1.536E+01   -1.537E+01   -1.538E+01   -1.538E+01   -1.539E+01   -1.539E+01   -1.540E+01
    -1.540E+01   -1.540E+01   -1.540E+01   -1.540E+01   -1.540E+01   -1.540E+01   -1.540E+01   -1.540E+01   -1.539E+01   -1.539E+01
    -1.538E+01   -1.538E+01   -1.537E+01   -1.536E+01   -1.535E+01   -1.534E+01   -1.533E+01   -1.532E+01   -1.531E+01   -1.530E+01
    -1.529E+01   -1.527E+01   -1.526E+01   -1.525E+01   -1.523E+01   -1.522E+01   -1.520E+01   -1.518E+01   -1.517E+01   -1.515E+01
    -1.513E+01   -1.512E+01   -1.510E+01   -1.508E+01   -1.506E+01   -1.504E+01   -1.502E+01   -1.500E+01   -1.498E+01   -1.496E+01
    -1.494E+01   -1.492E+01   -1.490E+01   -1.488E+01   -1.485E+01   -1.483E+01   -1.481E+01   -1.479E+01   -1.476E+01   -1.474E+01
    -1.472E+01   -1.469E+01   -1.467E+01   -1.464E+01   -1.462E+01   -1.459E+01   -1.457E+01   -1.454E+01   -1.452E+01   -1.449E+01
    -1.447E+01   -1.444E+01   -1.441E+01   -1.439E+01   -1.436E+01   -1.433E+01   -1.430E+01   -1.427E+01   -1.425E+01   -1.422E+01
    -1.419E+01   -1.416E+01   -1.413E+01   -1.410E+01   -1.407E+01   -1.404E+01   -1.401E+01   -1.398E+01   -1.395E+01   -1.392E+01
    -1.389E+01   -1.386E+01   -1.383E+01   -1.380E+01   -1.376E+01   -1.373E+01   -1.370E+01   -1.367E+01   -1.363E+01   -1.360E+01
    -1.357E+01   -1.354E+01   -1.350E+01   -1.347E+01   -1.343E+01   -1.340E+01   -1.337E+01   -1.333E+01   -1.330E+01   -1.326E+01
    -1.323E+01   -1.319E+01   -1.316E+01   -1.312E+01   -1.309E+01   -1.305E+01   -1.301E+01   -1.298E+01   -1.294E+01   -1.291E+01
    -1.287E+01   -1.283E+01   -1.280E+01   -1.276E+01   -1.272E+01   -1.268E+01   -1.265E+01   -1.261E+01   -1.257E+01   -1.253E+01
    -1.249E+01   -1.246E+01   -1.242E+01   -1.238E+01   -1.234E+01   -1.230E+01   -1.226E+01   -1.222E+01   -1.219E+01   -1.215E+01
    -1.211E+01   -1.207E+01   -1.203E+01   -1.199E+01   -1.195E+01   -1.191E+01   -1.187E+01   -1.183E+01   -1.179E+01   -1.175E+01
    -1.171E+01   -1.167E+01   -1.163E+01   -1.158E+01   -1.154E+01   -1.150E+01   -1.146E+01   -1.142E+01   -1.138E+01   -1.134E+01
    -1.130E+01   -1.126E+01   -1.121E+01   -1.117E+01   -1.113E+01   -1.109E+01   -1.105E+01   -1.101E+01   -1.097E+01   -1.092E+01
    -1.088E+01   -1.084E+01   -1.080E+01   -1.076E+01   -1.071E+01   -1.067E+01   -1.063E+01   -1.059E+01   -1.055E+01   -1.050E+01
    -1.046E+01   -1.042E+01   -1.038E+01   -1.034E+01   -1.029E+01   -1.025E+01   -1.021E+01   -1.017E+01   -1.012E+01   -1.008E+01
    -1.004E+01   -9.998E+00   -9.955E+00   -9.913E+00   -9.871E+00   -9.828E+00   -9.786E+00   -9.744E+00   -9.701E+00   -9.659E+00
    -9.616E+00   -9.574E+00   -9.531E+00   -9.489E+00   -9.446E+00   -9.404E+00   -9.361E+00   -9.319E+00   -9.276E+00   -9.234E+00
    -9.191E+00   -9.148E+00   -9.106E+00   -9.063E+00   -9.020E+00   -8.978E+00   -8.935E+00   -8.892E+00   -8.849E+00   -8.806E+00
    -8.764E+00   -8.721E+00   -8.678E+00   -8.635E+00   -8.592E+00   -8.549E+00   -8.506E+00   -8.463E+00   -8.420E+00   -8.377E+00
    -8.334E+00   -8.291E+00   -8.247E+00   -8.204E+00   -8.161E+00   -8.118E+00   -8.075E+00   -8.032E+00   -7.988E+00   -7.945E+00
    -7.902E+00   -7.858E+00   -7.815E+00   -7.772E+00   -7.729E+00   -7.685E+00   -7.642E+00   -7.599E+00   -7.555E+00   -7.512E+00
    -7.468E+00   -7.425E+00   -7.382E+00   -7.338E+00   -7.295E+00   -7.252E+00   -7.208E+00   -7.165E+00   -7.121E+00   -7.078E+00
    -7.035E+00   -6.991E+00   -6.948E+00   -6.905E+00   -6.861E+00   -6.818E+00   -6.775E+00   -6.731E+00   -6.688E+00   -6.645E+00
    -6.601E+00   -6.558E+00   -6.515E+00   -6.471E+00   -6.428E+00   -6.385E+00   -6.342E+00   -6.299E+00   -6.255E+00   -6.212E+00
    -6.169E+00   -6.126E+00   -6.083E+00   -6.040E+00   -5.997E+00   -5.953E+00   -5.910E+00   -5.867E+00   -5.824E+00   -5.781E+00
    -5.738E+00   -5.695E+00   -5.652E+00   -5.609E+00   -5.566E+00   -5.523E+00   -5.480E+00   -5.437E+00   -5.394E+00   -5.351E+00
    -5.308E+00   -5.266E+00   -5.223E+00   -5.180E+00   -5.137E+00   -5.094E+00   -5.051E+00   -5.008E+00   -4.965E+00   -4.923E+00
    -4.880E+00   -4.837E+00   -4.794E+00   -4.751E+00   -4.709E+00   -4.666E+00   -4.623E+00   -4.580E+00
 Ala      Conc. = 4.68E+02
