 LCModel (Version 6.3-1L) Copyright: S.W. Provencher.          Ref.: Magn. Reson. Med. 30:672-679 (1993).                
 Slice#1 Row#8 Col#4  PD_05_press_2_raw_act
 36 lines in following concentration table = NCONC+1
    Conc.  %SD /Cr+PCr  Metabolite                                         
  596.118  35%   0.270 Ala                                                 
    0.000 999%   0.000 Asp                                                 
  837.979  41%   0.380 Cr                                                  
 1.37E+03  26%   0.620 PCr                                                 
   29.469 978% 1.3E-02 GABA                                                
  210.531 138% 9.5E-02 Glc                                                 
 1.27E+03  34%   0.577 Gln                                                 
 3.34E+03  15%   1.515 Glu                                                 
  846.485   5%   0.383 GPC                                                 
    0.000 999%   0.000 PCh                                                 
  844.736  17%   0.383 GSH                                                 
 2.85E+03  16%   1.292 Ins                                                 
  529.346  44%   0.240 Lac                                                 
 4.86E+03   5%   2.202 NAA                                                 
  787.328  31%   0.357 NAAG                                                
  200.982  26% 9.1E-02 Scyllo                                              
  462.608  84%   0.210 Tau                                                 
  209.077  95% 9.5E-02 -CrCH2                                              
  846.485   5%   0.383 GPC+PCh                                             
 5.65E+03   3%   2.559 NAA+NAAG                                            
 2.21E+03   5%   1.000 Cr+PCr                                              
 4.62E+03  15%   2.092 Glu+Gln                                             
 5.50E+03  23%   2.492 Lip13a                                              
    0.000 999%   0.000 Lip13b                                              
 1.23E+03  56%   0.557 Lip09                                               
 2.30E+03  28%   1.040 MM09                                                
  625.543  82%   0.283 Lip20                                               
 4.02E+03  19%   1.823 MM20                                                
  644.575  67%   0.292 MM12                                                
  510.621 165%   0.231 MM14                                                
 1.50E+03  24%   0.678 MM17                                                
 5.50E+03  23%   2.492 Lip13a+Lip13b                                       
 6.66E+03  11%   3.015 MM14+Lip13a+Lip13b+MM12                             
 3.53E+03  11%   1.597 MM09+Lip09                                          
 4.65E+03  16%   2.106 MM20+Lip20                                          
   6 lines in following misc. output table
  FWHM = 0.046 ppm    S/N =  14                                            
  Data shift = 0.015 ppm                                                   
  Ph:  -9 deg      -1.1 deg/ppm                                            
  alphaB,S = 5.0E+00,   9.0E+01                                            
   14 spline knots.   Ns = 6(1)                                            
  (11) 3 infls.   ( 7) 1 extrs.                                            
  498 points on ppm-axis = NY
      4.000000     3.992357     3.984714     3.977070     3.969427     3.961784     3.954141     3.946497     3.938854     3.931211
      3.923568     3.915925     3.908281     3.900638     3.892995     3.885352     3.877708     3.870065     3.862422     3.854779
      3.847136     3.839492     3.831849     3.824206     3.816563     3.808919     3.801276     3.793633     3.785990     3.778347
      3.770703     3.763060     3.755417     3.747774     3.740130     3.732487     3.724844     3.717201     3.709558     3.701914
      3.694271     3.686628     3.678985     3.671341     3.663698     3.656055     3.648412     3.640769     3.633125     3.625482
      3.617839     3.610196     3.602552     3.594909     3.587266     3.579623     3.571980     3.564336     3.556693     3.549050
      3.541407     3.533763     3.526120     3.518477     3.510834     3.503191     3.495547     3.487904     3.480261     3.472618
      3.464974     3.457331     3.449688     3.442045     3.434402     3.426758     3.419115     3.411472     3.403829     3.396185
      3.388542     3.380899     3.373256     3.365613     3.357969     3.350326     3.342683     3.335040     3.327396     3.319753
      3.312110     3.304467     3.296824     3.289180     3.281537     3.273894     3.266251     3.258607     3.250964     3.243321
      3.235678     3.228034     3.220391     3.212748     3.205105     3.197462     3.189818     3.182175     3.174532     3.166889
      3.159245     3.151602     3.143959     3.136316     3.128673     3.121029     3.113386     3.105743     3.098100     3.090456
      3.082813     3.075170     3.067527     3.059884     3.052240     3.044597     3.036954     3.029311     3.021667     3.014024
      3.006381     2.998738     2.991095     2.983451     2.975808     2.968165     2.960522     2.952878     2.945235     2.937592
      2.929949     2.922306     2.914662     2.907019     2.899376     2.891733     2.884089     2.876446     2.868803     2.861160
      2.853517     2.845873     2.838230     2.830587     2.822944     2.815300     2.807657     2.800014     2.792371     2.784728
      2.777084     2.769441     2.761798     2.754155     2.746511     2.738868     2.731225     2.723582     2.715939     2.708295
      2.700652     2.693009     2.685366     2.677722     2.670079     2.662436     2.654793     2.647150     2.639506     2.631863
      2.624220     2.616577     2.608933     2.601290     2.593647     2.586004     2.578361     2.570717     2.563074     2.555431
      2.547788     2.540144     2.532501     2.524858     2.517215     2.509572     2.501928     2.494285     2.486642     2.478999
      2.471355     2.463712     2.456069     2.448426     2.440783     2.433139     2.425496     2.417853     2.410210     2.402566
      2.394923     2.387280     2.379637     2.371994     2.364350     2.356707     2.349064     2.341421     2.333777     2.326134
      2.318491     2.310848     2.303205     2.295561     2.287918     2.280275     2.272632     2.264988     2.257345     2.249702
      2.242059     2.234416     2.226772     2.219129     2.211486     2.203843     2.196199     2.188556     2.180913     2.173270
      2.165627     2.157983     2.150340     2.142697     2.135054     2.127410     2.119767     2.112124     2.104481     2.096838
      2.089194     2.081551     2.073908     2.066265     2.058621     2.050978     2.043335     2.035692     2.028049     2.020405
      2.012762     2.005119     1.997476     1.989833     1.982190     1.974546     1.966903     1.959260     1.951617     1.943974
      1.936331     1.928688     1.921045     1.913402     1.905759     1.898115     1.890472     1.882829     1.875186     1.867543
      1.859900     1.852257     1.844614     1.836971     1.829327     1.821684     1.814041     1.806398     1.798755     1.791112
      1.783469     1.775826     1.768183     1.760540     1.752896     1.745253     1.737610     1.729967     1.722324     1.714681
      1.707038     1.699395     1.691752     1.684108     1.676465     1.668822     1.661179     1.653536     1.645893     1.638250
      1.630607     1.622964     1.615321     1.607677     1.600034     1.592391     1.584748     1.577105     1.569462     1.561819
      1.554176     1.546533     1.538890     1.531246     1.523603     1.515960     1.508317     1.500674     1.493031     1.485388
      1.477745     1.470102     1.462458     1.454815     1.447172     1.439529     1.431886     1.424243     1.416600     1.408957
      1.401314     1.393671     1.386027     1.378384     1.370741     1.363098     1.355455     1.347812     1.340169     1.332526
      1.324883     1.317240     1.309596     1.301953     1.294310     1.286667     1.279024     1.271381     1.263738     1.256095
      1.248452     1.240808     1.233165     1.225522     1.217879     1.210236     1.202593     1.194950     1.187307     1.179664
      1.172021     1.164377     1.156734     1.149091     1.141448     1.133805     1.126162     1.118519     1.110876     1.103233
      1.095590     1.087946     1.080303     1.072660     1.065017     1.057374     1.049731     1.042088     1.034445     1.026802
      1.019158     1.011515     1.003872     0.996229     0.988586     0.980943     0.973300     0.965657     0.958014     0.950371
      0.942727     0.935084     0.927441     0.919798     0.912155     0.904512     0.896869     0.889226     0.881583     0.873940
      0.866296     0.858653     0.851010     0.843367     0.835724     0.828081     0.820438     0.812795     0.805152     0.797508
      0.789865     0.782222     0.774579     0.766936     0.759293     0.751650     0.744007     0.736364     0.728721     0.721077
      0.713434     0.705791     0.698148     0.690505     0.682862     0.675219     0.667576     0.659933     0.652290     0.644646
      0.637003     0.629360     0.621717     0.614074     0.606431     0.598788     0.591145     0.583502     0.575858     0.568215
      0.560572     0.552929     0.545286     0.537643     0.530000     0.522357     0.514714     0.507071     0.499427     0.491784
      0.484141     0.476498     0.468855     0.461212     0.453569     0.445925     0.438282     0.430639     0.422996     0.415353
      0.407710     0.400067     0.392424     0.384780     0.377137     0.369494     0.361851     0.354208     0.346565     0.338922
      0.331278     0.323635     0.315992     0.308349     0.300706     0.293063     0.285420     0.277777     0.270133     0.262490
      0.254847     0.247204     0.239561     0.231918     0.224275     0.216631     0.208988     0.201345
 NY phased data points follow
   8.67683E+00  2.19973E+00  1.86022E+01  1.48498E+01  1.88080E+01  2.52785E+01  4.32324E+01  4.41713E+01  4.29815E+01  4.69719E+01
   4.70529E+01  4.47642E+01  3.93620E+01  3.30523E+01  2.93614E+01  1.94857E+01  1.97174E+01  1.69346E+01  2.20952E+01  1.09255E+01
   1.57950E+01  8.89405E+00  1.68682E+01  1.35203E+01  1.80910E+01  1.23435E+01  1.45458E+01  1.77444E+01  2.37119E+01  2.38954E+01
   2.70369E+01  2.89157E+01  1.70236E+01  2.26301E+01  1.40741E+01  1.43787E+01  1.40026E+01  2.01706E+01  1.70142E+01  1.70314E+01
   1.75534E+01  1.11429E+01  2.04543E+01  1.53580E+01  2.63272E+01  2.42911E+01  3.15994E+01  2.86128E+01  2.99889E+01  1.63883E+01
   1.79890E+01  1.80256E+01  2.39491E+01  1.77171E+01  2.01502E+01  1.63054E+01  1.26976E+01  1.36113E+01  1.92968E+01  1.58916E+01
   5.64207E+00  9.08127E+00  9.92804E+00 -1.39084E+00 -5.22035E+00 -2.90519E+00  6.67722E+00 -6.05246E-01  5.62094E+00  2.50038E+00
   8.07953E+00  3.47654E+00  1.12452E+01 -5.51884E+00  3.62443E+00  1.55978E+01  1.10367E+01  1.93920E+00  3.75997E+00 -1.89315E-01
   3.82451E+00  9.68683E+00  1.45212E-01 -3.52186E+00  1.66439E+01  1.00026E+01  8.74428E+00  1.10882E+01  1.08682E+01  1.06231E+01
   1.33006E+00  1.11673E+01  1.24779E+01  7.18714E+00  7.66667E+00  7.32053E+00  2.20763E+01  1.06363E+01  3.18784E+01  3.93868E+01
   4.65330E+01  6.64937E+01  8.25039E+01  8.23347E+01  7.46004E+01  5.09734E+01  4.67057E+01  2.74383E+01  2.14001E+01  2.67461E+01
   1.51373E+01  1.09312E+01  1.16722E+01  1.51773E+00  6.20413E+00  5.32948E+00  5.15511E+00  5.69125E+00  9.05120E+00  2.97848E+00
  -3.27395E+00  2.04508E+01  2.45200E+01  2.90210E+01  4.82904E+01  6.06539E+01  7.99726E+01  8.16684E+01  6.82487E+01  6.24109E+01
   4.79724E+01  2.34774E+01  2.47397E+01  1.24617E+01  1.34892E+01  1.17977E+01  1.82828E+00  8.59892E+00  8.15914E+00  7.69580E+00
  -6.37871E-01 -8.67028E-01  8.53252E+00  1.27776E+01  7.01070E+00  9.17782E+00 -4.69008E+00 -8.11209E+00  6.94714E+00 -5.09301E+00
   1.57516E+00  1.81879E+00 -1.66735E+00 -1.39000E+00  5.40086E-01  2.15437E+00  5.38967E+00  8.95728E+00 -4.03862E+00 -5.05897E+00
   6.40542E+00 -2.27706E+00 -1.11750E+00  7.31238E+00 -3.84459E+00 -3.90937E-01 -4.87220E+00 -1.84060E+01 -1.14254E+01 -8.45043E+00
  -1.76865E+01 -2.24132E+01 -1.70086E+01 -2.56565E+01 -1.65242E+01 -2.94349E+01 -3.31767E+01 -3.22296E+01 -3.44734E+01 -2.91225E+01
  -2.38525E+01 -2.07616E+01 -1.93002E+01 -7.51415E+00 -1.10756E+01 -7.31587E+00 -4.30651E+00 -1.12506E+01 -2.77441E+00 -5.50054E+00
  -7.27598E+00 -5.98627E+00 -8.75370E+00 -1.30378E+01 -5.15342E+00 -1.97840E+01 -1.04254E+01 -1.97551E+01 -2.05792E+01 -1.44693E+01
  -1.95238E+01 -7.15005E-01 -7.19350E+00  3.17585E-01 -1.62616E+00 -1.24858E-01 -1.69677E+00 -1.47764E+01 -1.18747E+01 -1.37411E+01
  -2.14282E+00 -1.79571E+00  1.12332E+01  1.63966E+01  1.44914E+01  2.55879E+01  2.50029E+01  1.79668E+01  9.27317E+00 -9.43664E+00
  -6.64314E+00 -2.10665E+01 -1.04539E+01 -1.41904E+01 -2.00361E+00  1.19796E+01 -1.28535E-01  1.09948E+01  1.32562E+01  9.98188E+00
   3.44020E+00  6.70839E+00  1.34818E+01  1.98112E+00 -3.00852E-01  1.12271E+01  4.33710E+00  1.11544E+01  4.80356E-01  8.89896E+00
   6.00477E-01 -1.07234E+00  3.87851E+00  3.59904E+00  4.54656E-01  9.26842E+00  2.56737E+01  2.08062E+01  3.12207E+01  2.10375E+01
   1.94590E+01  2.50315E+01  3.34475E+01  3.96827E+01  6.51857E+01  8.53419E+01  1.01950E+02  1.25998E+02  1.53990E+02  1.84902E+02
   2.11392E+02  1.99116E+02  1.59741E+02  1.05133E+02  6.75208E+01  5.53235E+01  3.33457E+01  2.02769E+01  1.50121E+01  1.19049E+01
   1.76382E+00  6.16012E+00  2.50909E+00 -4.91021E+00 -6.14216E-02  1.53101E+00 -2.43828E+00  3.20750E+00 -9.64248E-01  1.01484E+00
  -7.99957E-01  1.33786E+00  6.02209E+00 -3.42678E+00 -8.56057E-01 -3.60251E+00  3.10595E+00 -4.89279E+00 -7.89078E-02  5.70726E+00
   3.63839E+00  1.63519E+01 -2.60659E-02 -6.72262E+00  9.68428E-01 -4.93340E+00  1.03362E+01  2.19776E+00  4.11129E+00  6.37332E+00
  -1.34137E+00  9.18129E+00  8.93310E+00  1.62882E+01  4.95858E+00  3.44574E+00  1.29082E+01  1.02857E+01  1.34421E+01  7.20115E+00
   1.76838E+01  1.94371E+01  1.21951E+01  7.64133E+00  7.06056E+00  8.79054E+00  5.80565E+00  1.24340E+01  4.52219E+00  7.72629E+00
   5.33089E+00  9.73342E-01  2.71312E+00 -7.77449E-01 -5.73845E+00 -1.31993E+01 -1.09477E+01 -8.07697E+00 -6.92669E+00 -6.71078E+00
  -4.72449E+00 -8.31407E+00 -2.14164E+00 -1.83914E+00  3.08816E+00  7.89923E+00  1.72900E+01  8.07143E+00  2.12040E+01  2.31312E+01
   3.40332E+01  2.74873E+01  1.98959E+01  3.64018E+01  3.24617E+01  3.27009E+01  3.59936E+01  2.32622E+01  2.46542E+01  2.32174E+01
   2.16656E+01  3.05818E+01  1.88198E+01  1.87719E+01  2.01796E+01  1.95050E+01  2.09641E+01  1.87218E+01  2.37004E+01  2.50899E+01
   1.82350E+01  1.94145E+01  1.46701E+01  2.04018E+01  2.08143E+01  1.75473E+01  1.45931E+01  2.07377E+01  1.53850E+01  1.54390E+01
   1.84868E+01  1.95167E+01  1.51786E+01  8.02491E+00  1.04831E+01  9.74405E+00  7.95498E+00 -4.34628E+00  1.02080E+01  6.09591E+00
   6.31033E+00  3.64622E+00  2.51973E+00  3.21062E+00  1.34613E+01  6.11018E+00 -8.72497E-01  6.86232E+00  4.85438E+00  4.11535E+00
   1.34167E+01  2.36694E-01  1.64626E+01  1.06245E+01  1.32382E+01  1.27517E+01  2.19993E+01  2.24006E+01  3.33096E+01  2.33176E+01
   2.75790E+01  2.87591E+01  1.32689E+01  1.19031E+01  2.54223E+01  2.56426E+01  2.39742E+01  2.38060E+01  1.14239E+01  1.86927E+01
   2.13522E+01  2.11857E+01  1.24491E+01  1.04570E+01  1.63854E+01  8.41408E+00  3.48126E+00  2.22495E+00  3.84122E+00  9.11880E+00
   3.09256E+00 -1.00597E+00  5.07218E+00  3.66721E-01  7.41574E+00  6.86072E+00  3.48242E+00  1.86888E+00 -1.23815E+00  5.79970E+00
   6.73161E+00  3.44327E+00  5.17013E-01 -4.90162E-01  4.44059E+00  6.91509E-02 -3.16854E+00  2.07009E+00 -6.79719E+00  1.01563E+00
  -1.29680E+00  1.28533E+00  4.25637E+00  5.71111E+00 -3.92989E+00 -5.62545E+00 -5.99226E+00 -1.96607E+00 -9.95790E+00 -2.42145E+00
  -7.37175E+00 -1.51068E+00  7.96016E+00  7.94281E+00 -1.02072E+01 -3.22089E+00 -6.15850E+00 -6.75389E+00  4.32357E-01  6.79766E-01
  -8.75936E+00  2.09157E+00 -5.22867E+00 -2.67459E+00 -8.66204E+00 -4.03048E+00 -3.13802E+00 -9.83384E-01  3.79552E+00 -7.25780E+00
   1.85996E+00 -1.56398E+01 -4.24979E+00  5.37470E+00  1.63706E+00 -1.09413E+00 -1.28539E+01  5.79591E-01 -6.10414E+00 -6.52200E+00
  -3.78276E+00  7.35827E-01  1.06837E+00 -7.27413E+00 -6.39053E+00 -6.65979E+00  4.19596E+00 -6.93840E+00  3.44958E+00  3.89872E+00
  -4.17444E+00 -6.48258E+00 -1.06225E+00  3.53243E+00 -6.60555E-01 -7.56165E+00  1.79983E-01  3.92170E+00
 NY points of the fit to the data follow
   8.89690E+00  9.08138E+00  1.05180E+01  1.41246E+01  1.89025E+01  2.46662E+01  3.23632E+01  4.04897E+01  4.69210E+01  5.01994E+01
   4.97509E+01  4.60896E+01  4.02925E+01  3.35532E+01  2.67899E+01  2.07689E+01  1.63858E+01  1.40530E+01  1.25283E+01  1.14565E+01
   1.12135E+01  1.11847E+01  1.06649E+01  1.06208E+01  1.15659E+01  1.26216E+01  1.43689E+01  1.77374E+01  2.26713E+01  2.75509E+01
   3.04195E+01  3.05043E+01  2.82338E+01  2.45152E+01  2.02548E+01  1.56118E+01  1.09104E+01  7.74068E+00  6.65370E+00  6.58993E+00
   7.57121E+00  1.01103E+01  1.38207E+01  1.76512E+01  2.14127E+01  2.52518E+01  2.82408E+01  2.86756E+01  2.57695E+01  2.02539E+01
   1.42907E+01  9.79020E+00  7.13207E+00  5.79310E+00  5.35670E+00  5.96539E+00  7.47626E+00  9.23993E+00  1.08328E+01  1.18572E+01
   1.18614E+01  1.07124E+01  8.69673E+00  6.72562E+00  5.45543E+00  5.10110E+00  5.56017E+00  6.43199E+00  7.34485E+00  8.31459E+00
   9.39153E+00  1.02477E+01  1.06719E+01  1.06354E+01  1.01996E+01  9.50547E+00  8.59510E+00  7.53046E+00  6.38159E+00  5.56267E+00
   5.67583E+00  6.80668E+00  7.89435E+00  8.74193E+00  9.67261E+00  1.04178E+01  1.03565E+01  9.04443E+00  6.78599E+00  4.60782E+00
   3.54881E+00  3.53145E+00  3.78583E+00  3.86024E+00  3.92631E+00  4.71639E+00  7.32044E+00  1.50418E+01  2.62143E+01  3.81670E+01
   5.21910E+01  6.80308E+01  8.12254E+01  8.53300E+01  7.72835E+01  6.04275E+01  4.22840E+01  2.87288E+01  1.99921E+01  1.29291E+01
   6.26725E+00  2.54827E+00  1.55668E+00  1.26396E+00  1.14897E+00  1.10859E+00  1.17502E+00  1.35545E+00  1.76423E+00  2.74340E+00
   5.77525E+00  1.33567E+01  2.41165E+01  3.59792E+01  4.95028E+01  6.41684E+01  7.60712E+01  7.99423E+01  7.31757E+01  5.86194E+01
   4.27863E+01  3.04659E+01  2.16478E+01  1.37561E+01  6.00943E+00  9.06395E-01 -1.02129E+00 -1.00245E+00  1.45347E-01  1.65740E+00
   2.90828E+00  3.63354E+00  3.71840E+00  3.24448E+00  2.54051E+00  1.84320E+00  1.19724E+00  6.17113E-01 -2.24277E-02 -6.21973E-01
  -1.11601E+00 -1.53815E+00 -1.85313E+00 -1.99080E+00 -2.01992E+00 -2.25911E+00 -2.60624E+00 -3.02275E+00 -3.71005E+00 -4.53692E+00
  -5.45552E+00 -5.99676E+00 -5.66329E+00 -4.75161E+00 -4.19323E+00 -4.70500E+00 -6.17297E+00 -7.81614E+00 -8.98774E+00 -9.80824E+00
  -1.06704E+01 -1.16872E+01 -1.25382E+01 -1.32568E+01 -1.40547E+01 -1.47992E+01 -1.48047E+01 -1.38503E+01 -1.27450E+01 -1.24031E+01
  -1.29006E+01 -1.36436E+01 -1.35436E+01 -1.23748E+01 -1.10416E+01 -9.83411E+00 -7.97935E+00 -5.06461E+00 -1.36693E+00  1.95373E+00
   3.76706E+00  3.82036E+00  2.40173E+00  4.94193E-01 -1.10060E+00 -2.18115E+00 -2.54197E+00 -1.91773E+00 -5.80449E-02  2.61337E+00
   5.51306E+00  7.94001E+00  9.42064E+00  9.37531E+00  7.28011E+00  3.65335E+00 -1.31479E+00 -6.97778E+00 -1.14339E+01 -1.30325E+01
  -1.09763E+01 -6.61358E+00 -1.06819E+00  5.10970E+00  1.09849E+01  1.46603E+01  1.39165E+01  8.31735E+00  1.28514E-01 -7.57834E+00
  -1.34766E+01 -1.69304E+01 -1.70514E+01 -1.33331E+01 -6.46353E+00  5.80069E-01  5.52380E+00  8.15242E+00  9.16785E+00  9.11599E+00
   8.28933E+00  7.52057E+00  7.53580E+00  8.46056E+00  9.83348E+00  1.12297E+01  1.20023E+01  1.17354E+01  1.05850E+01  8.68166E+00
   6.44687E+00  4.72872E+00  4.41669E+00  5.69239E+00  8.12465E+00  1.09323E+01  1.31511E+01  1.45150E+01  1.54387E+01  1.71109E+01
   2.07155E+01  2.52257E+01  3.05311E+01  3.85769E+01  5.65548E+01  8.34744E+01  1.07837E+02  1.31735E+02  1.59928E+02  1.87695E+02
   2.01585E+02  1.90165E+02  1.55285E+02  1.12515E+02  7.85617E+01  5.71501E+01  4.10846E+01  2.47390E+01  1.30872E+01  9.33301E+00
   7.68795E+00  6.70074E+00  6.24042E+00  6.03681E+00  5.73966E+00  5.22326E+00  4.49391E+00  3.69811E+00  2.96668E+00  2.33807E+00
   1.79021E+00  1.34698E+00  1.04907E+00  8.66368E-01  7.08633E-01  5.29337E-01  3.77136E-01  3.03622E-01  3.20108E-01  4.30399E-01
   6.66910E-01  1.04902E+00  1.54575E+00  2.10302E+00  2.70620E+00  3.35508E+00  4.05009E+00  4.79195E+00  5.56990E+00  6.37379E+00
   7.19602E+00  8.00345E+00  8.74921E+00  9.39214E+00  9.90549E+00  1.02741E+01  1.04846E+01  1.05266E+01  1.04082E+01  1.01425E+01
   9.74541E+00  9.23915E+00  8.65017E+00  8.00954E+00  7.35152E+00  6.71177E+00  6.12574E+00  5.63163E+00  5.27683E+00  5.13798E+00
   5.38291E+00  6.13396E+00  6.77165E+00  7.12222E+00  7.33244E+00  7.08820E+00  5.79506E+00  3.16029E+00 -2.94694E-01 -2.95626E+00
  -3.87384E+00 -3.27546E+00 -1.51962E+00  1.28134E+00  5.09844E+00  9.44171E+00  1.30046E+01  1.51174E+01  1.61785E+01  1.70214E+01
   1.82068E+01  1.98142E+01  2.14448E+01  2.28138E+01  2.41771E+01  2.53902E+01  2.59104E+01  2.51606E+01  2.30786E+01  2.07282E+01
   1.93763E+01  1.92511E+01  2.01827E+01  2.19200E+01  2.42310E+01  2.67952E+01  2.88242E+01  2.94006E+01  2.86446E+01  2.72594E+01
   2.58064E+01  2.43226E+01  2.25782E+01  2.07367E+01  1.91052E+01  1.76078E+01  1.61933E+01  1.48505E+01  1.35803E+01  1.23880E+01
   1.12796E+01  1.02603E+01  9.33372E+00  8.50233E+00  7.76814E+00  7.13348E+00  6.59988E+00  6.16852E+00  5.83989E+00  5.61528E+00
   5.49662E+00  5.48678E+00  5.58820E+00  5.80311E+00  6.13298E+00  6.57944E+00  7.14321E+00  7.82373E+00  8.61741E+00  9.51783E+00
   1.05152E+01  1.15970E+01  1.27471E+01  1.39453E+01  1.51673E+01  1.63857E+01  1.75707E+01  1.86924E+01  1.97203E+01  2.06247E+01
   2.13782E+01  2.19573E+01  2.23437E+01  2.25256E+01  2.24972E+01  2.22591E+01  2.18180E+01  2.11871E+01  2.03851E+01  1.94353E+01
   1.83629E+01  1.71952E+01  1.59591E+01  1.46819E+01  1.33889E+01  1.21033E+01  1.08442E+01  9.62758E+00  8.46581E+00  7.36860E+00
   6.34237E+00  5.39072E+00  4.51414E+00  3.71138E+00  2.97978E+00  2.31621E+00  1.71644E+00  1.17566E+00  6.88296E-01  2.49268E-01
  -1.46227E-01 -5.02209E-01 -8.22944E-01 -1.11244E+00 -1.37477E+00 -1.61295E+00 -1.82964E+00 -2.02680E+00 -2.20683E+00 -2.37183E+00
  -2.52392E+00 -2.66423E+00 -2.79383E+00 -2.91350E+00 -3.02459E+00 -3.12819E+00 -3.22529E+00 -3.31613E+00 -3.40109E+00 -3.48056E+00
  -3.55546E+00 -3.62633E+00 -3.69360E+00 -3.75708E+00 -3.81699E+00 -3.87361E+00 -3.92768E+00 -3.97940E+00 -4.02890E+00 -4.07585E+00
  -4.12051E+00 -4.16315E+00 -4.20436E+00 -4.24408E+00 -4.28223E+00 -4.31853E+00 -4.35333E+00 -4.38692E+00 -4.41971E+00 -4.45143E+00
  -4.48195E+00 -4.51108E+00 -4.53927E+00 -4.56676E+00 -4.59374E+00 -4.61983E+00 -4.64496E+00 -4.66907E+00 -4.69270E+00 -4.71594E+00
  -4.73882E+00 -4.76091E+00 -4.78224E+00 -4.80290E+00 -4.82338E+00 -4.84363E+00 -4.86357E+00 -4.88278E+00 -4.90146E+00 -4.91977E+00
  -4.93813E+00 -4.95633E+00 -4.97422E+00 -4.99149E+00 -5.00847E+00 -5.02535E+00 -5.04243E+00 -5.05936E+00
 NY background values follow
    -1.869E-01   -2.109E-01   -2.348E-01   -2.587E-01   -2.827E-01   -3.066E-01   -3.306E-01   -3.545E-01   -3.785E-01   -4.024E-01
    -4.264E-01   -4.503E-01   -4.743E-01   -4.982E-01   -5.222E-01   -5.461E-01   -5.701E-01   -5.940E-01   -6.180E-01   -6.419E-01
    -6.659E-01   -6.898E-01   -7.138E-01   -7.378E-01   -7.617E-01   -7.857E-01   -8.096E-01   -8.336E-01   -8.575E-01   -8.815E-01
    -9.054E-01   -9.293E-01   -9.533E-01   -9.772E-01   -1.001E+00   -1.025E+00   -1.049E+00   -1.073E+00   -1.097E+00   -1.121E+00
    -1.145E+00   -1.169E+00   -1.193E+00   -1.217E+00   -1.240E+00   -1.264E+00   -1.288E+00   -1.312E+00   -1.336E+00   -1.360E+00
    -1.384E+00   -1.408E+00   -1.432E+00   -1.455E+00   -1.479E+00   -1.503E+00   -1.527E+00   -1.551E+00   -1.575E+00   -1.599E+00
    -1.622E+00   -1.646E+00   -1.670E+00   -1.694E+00   -1.718E+00   -1.741E+00   -1.765E+00   -1.789E+00   -1.813E+00   -1.836E+00
    -1.860E+00   -1.884E+00   -1.907E+00   -1.931E+00   -1.955E+00   -1.978E+00   -2.002E+00   -2.025E+00   -2.049E+00   -2.073E+00
    -2.096E+00   -2.120E+00   -2.143E+00   -2.167E+00   -2.190E+00   -2.213E+00   -2.237E+00   -2.260E+00   -2.284E+00   -2.307E+00
    -2.330E+00   -2.354E+00   -2.377E+00   -2.400E+00   -2.424E+00   -2.447E+00   -2.470E+00   -2.493E+00   -2.516E+00   -2.539E+00
    -2.562E+00   -2.585E+00   -2.609E+00   -2.632E+00   -2.655E+00   -2.677E+00   -2.700E+00   -2.723E+00   -2.746E+00   -2.769E+00
    -2.792E+00   -2.814E+00   -2.837E+00   -2.860E+00   -2.883E+00   -2.905E+00   -2.928E+00   -2.950E+00   -2.973E+00   -2.995E+00
    -3.018E+00   -3.040E+00   -3.063E+00   -3.085E+00   -3.107E+00   -3.129E+00   -3.152E+00   -3.174E+00   -3.196E+00   -3.218E+00
    -3.240E+00   -3.262E+00   -3.284E+00   -3.306E+00   -3.328E+00   -3.350E+00   -3.372E+00   -3.393E+00   -3.415E+00   -3.437E+00
    -3.458E+00   -3.480E+00   -3.501E+00   -3.523E+00   -3.544E+00   -3.566E+00   -3.587E+00   -3.608E+00   -3.629E+00   -3.650E+00
    -3.671E+00   -3.692E+00   -3.713E+00   -3.734E+00   -3.755E+00   -3.776E+00   -3.797E+00   -3.817E+00   -3.838E+00   -3.858E+00
    -3.879E+00   -3.899E+00   -3.919E+00   -3.939E+00   -3.960E+00   -3.980E+00   -4.000E+00   -4.020E+00   -4.039E+00   -4.059E+00
    -4.079E+00   -4.098E+00   -4.118E+00   -4.137E+00   -4.157E+00   -4.176E+00   -4.195E+00   -4.214E+00   -4.233E+00   -4.252E+00
    -4.271E+00   -4.290E+00   -4.308E+00   -4.327E+00   -4.345E+00   -4.364E+00   -4.382E+00   -4.400E+00   -4.418E+00   -4.436E+00
    -4.454E+00   -4.472E+00   -4.489E+00   -4.507E+00   -4.525E+00   -4.542E+00   -4.559E+00   -4.577E+00   -4.594E+00   -4.611E+00
    -4.628E+00   -4.645E+00   -4.662E+00   -4.678E+00   -4.695E+00   -4.711E+00   -4.728E+00   -4.744E+00   -4.760E+00   -4.777E+00
    -4.793E+00   -4.809E+00   -4.824E+00   -4.840E+00   -4.856E+00   -4.872E+00   -4.887E+00   -4.902E+00   -4.918E+00   -4.933E+00
    -4.948E+00   -4.963E+00   -4.978E+00   -4.993E+00   -5.008E+00   -5.023E+00   -5.037E+00   -5.052E+00   -5.066E+00   -5.080E+00
    -5.095E+00   -5.109E+00   -5.123E+00   -5.137E+00   -5.151E+00   -5.164E+00   -5.178E+00   -5.192E+00   -5.205E+00   -5.219E+00
    -5.232E+00   -5.245E+00   -5.258E+00   -5.271E+00   -5.284E+00   -5.297E+00   -5.310E+00   -5.323E+00   -5.335E+00   -5.348E+00
    -5.360E+00   -5.373E+00   -5.385E+00   -5.397E+00   -5.409E+00   -5.421E+00   -5.433E+00   -5.445E+00   -5.457E+00   -5.468E+00
    -5.480E+00   -5.491E+00   -5.503E+00   -5.514E+00   -5.525E+00   -5.536E+00   -5.547E+00   -5.558E+00   -5.569E+00   -5.580E+00
    -5.591E+00   -5.601E+00   -5.612E+00   -5.622E+00   -5.633E+00   -5.643E+00   -5.653E+00   -5.663E+00   -5.673E+00   -5.683E+00
    -5.693E+00   -5.703E+00   -5.712E+00   -5.722E+00   -5.731E+00   -5.741E+00   -5.750E+00   -5.759E+00   -5.768E+00   -5.778E+00
    -5.787E+00   -5.795E+00   -5.804E+00   -5.813E+00   -5.822E+00   -5.830E+00   -5.839E+00   -5.847E+00   -5.856E+00   -5.864E+00
    -5.872E+00   -5.880E+00   -5.888E+00   -5.896E+00   -5.904E+00   -5.912E+00   -5.920E+00   -5.927E+00   -5.935E+00   -5.942E+00
    -5.950E+00   -5.957E+00   -5.964E+00   -5.972E+00   -5.979E+00   -5.986E+00   -5.993E+00   -6.000E+00   -6.007E+00   -6.013E+00
    -6.020E+00   -6.027E+00   -6.033E+00   -6.040E+00   -6.046E+00   -6.052E+00   -6.059E+00   -6.065E+00   -6.071E+00   -6.077E+00
    -6.083E+00   -6.089E+00   -6.095E+00   -6.100E+00   -6.106E+00   -6.112E+00   -6.117E+00   -6.123E+00   -6.128E+00   -6.134E+00
    -6.139E+00   -6.144E+00   -6.149E+00   -6.155E+00   -6.160E+00   -6.165E+00   -6.170E+00   -6.174E+00   -6.179E+00   -6.184E+00
    -6.189E+00   -6.193E+00   -6.198E+00   -6.203E+00   -6.207E+00   -6.211E+00   -6.216E+00   -6.220E+00   -6.224E+00   -6.229E+00
    -6.233E+00   -6.237E+00   -6.241E+00   -6.245E+00   -6.249E+00   -6.253E+00   -6.256E+00   -6.260E+00   -6.264E+00   -6.268E+00
    -6.271E+00   -6.275E+00   -6.278E+00   -6.282E+00   -6.285E+00   -6.289E+00   -6.292E+00   -6.295E+00   -6.299E+00   -6.302E+00
    -6.305E+00   -6.308E+00   -6.311E+00   -6.314E+00   -6.317E+00   -6.320E+00   -6.323E+00   -6.326E+00   -6.329E+00   -6.331E+00
    -6.334E+00   -6.337E+00   -6.339E+00   -6.342E+00   -6.345E+00   -6.347E+00   -6.350E+00   -6.352E+00   -6.354E+00   -6.357E+00
    -6.359E+00   -6.362E+00   -6.364E+00   -6.366E+00   -6.368E+00   -6.370E+00   -6.373E+00   -6.375E+00   -6.377E+00   -6.379E+00
    -6.381E+00   -6.383E+00   -6.385E+00   -6.387E+00   -6.389E+00   -6.390E+00   -6.392E+00   -6.394E+00   -6.396E+00   -6.398E+00
    -6.399E+00   -6.401E+00   -6.403E+00   -6.404E+00   -6.406E+00   -6.407E+00   -6.409E+00   -6.411E+00   -6.412E+00   -6.414E+00
    -6.415E+00   -6.417E+00   -6.418E+00   -6.419E+00   -6.421E+00   -6.422E+00   -6.424E+00   -6.425E+00   -6.426E+00   -6.428E+00
    -6.429E+00   -6.430E+00   -6.431E+00   -6.433E+00   -6.434E+00   -6.435E+00   -6.436E+00   -6.437E+00   -6.439E+00   -6.440E+00
    -6.441E+00   -6.442E+00   -6.443E+00   -6.444E+00   -6.445E+00   -6.447E+00   -6.448E+00   -6.449E+00   -6.450E+00   -6.451E+00
    -6.452E+00   -6.453E+00   -6.454E+00   -6.455E+00   -6.456E+00   -6.457E+00   -6.458E+00   -6.459E+00   -6.460E+00   -6.461E+00
    -6.462E+00   -6.463E+00   -6.464E+00   -6.465E+00   -6.466E+00   -6.467E+00   -6.468E+00   -6.469E+00   -6.470E+00   -6.470E+00
    -6.471E+00   -6.472E+00   -6.473E+00   -6.474E+00   -6.475E+00   -6.476E+00   -6.477E+00   -6.478E+00   -6.479E+00   -6.480E+00
    -6.480E+00   -6.481E+00   -6.482E+00   -6.483E+00   -6.484E+00   -6.485E+00   -6.486E+00   -6.487E+00
 Ala      Conc. = 5.96E+02
