 LCModel (Version 6.3-1L) Copyright: S.W. Provencher.          Ref.: Magn. Reson. Med. 30:672-679 (1993).                
 Slice#3 Row#10 Col#2  PD_05_press_2_raw_act
 36 lines in following concentration table = NCONC+1
    Conc.  %SD /Cr+PCr  Metabolite                                         
 1.38E+03 108%   2.150 Ala                                                 
   68.495 225%   0.106 Asp                                                 
    0.000 999%   0.000 Cr                                                  
  643.899  26%   1.000 PCr                                                 
   21.423 435% 3.3E-02 GABA                                                
   68.416 135%   0.106 Glc                                                 
 1.48E+04  12%  22.996 Gln                                                 
    0.000 999%   0.000 Glu                                                 
    0.000 999%   0.000 GPC                                                 
    0.000 999%   0.000 PCh                                                 
    0.000 999%   0.000 GSH                                                 
 1.48E+03  37%   2.295 Ins                                                 
 4.06E+03  36%   6.301 Lac                                                 
  749.085  27%   1.163 NAA                                                 
    0.000 999%   0.000 NAAG                                                
   72.380  40%   0.112 Scyllo                                              
  253.620  61%   0.394 Tau                                                 
   53.911 537% 8.4E-02 -CrCH2                                              
    0.000 999%   0.000 GPC+PCh                                             
  749.085  27%   1.163 NAA+NAAG                                            
  643.899  26%   1.000 Cr+PCr                                              
 1.48E+04  12%  22.996 Glu+Gln                                             
 4.80E+04  16%  74.486 Lip13a                                              
    0.000 999%   0.000 Lip13b                                              
 9.31E+03  23%  14.463 Lip09                                               
 6.78E+03  20%  10.534 MM09                                                
 1.69E+04  11%  26.239+Lip20                                               
 1.84E+03  66%   2.859 MM20                                                
 1.59E+03 115%   2.471 MM12                                                
 1.80E+04  19%  28.009 MM14                                                
 1.36E+04   8%  21.115 MM17                                                
 4.80E+04  16%  74.486 Lip13a+Lip13b                                       
 6.76E+04  10% 104.965 MM14+Lip13a+Lip13b+MM12                             
 1.61E+04  14%  24.997 MM09+Lip09                                          
 1.87E+04   9%  29.097 MM20+Lip20                                          
   6 lines in following misc. output table
  FWHM = 0.138 ppm    S/N =  18                                            
  Data shift = 0.145 ppm                                                   
  Ph: -17 deg      70.5 deg/ppm                                            
  alphaB,S = 8.4E-01,   1.0E+02                                            
    9 spline knots.   Ns = 9(2)                                            
  (10) 2 infls.   ( 3) 1 extrs.                                            
  498 points on ppm-axis = NY
      4.000000     3.992357     3.984714     3.977070     3.969427     3.961784     3.954141     3.946497     3.938854     3.931211
      3.923568     3.915925     3.908281     3.900638     3.892995     3.885352     3.877708     3.870065     3.862422     3.854779
      3.847136     3.839492     3.831849     3.824206     3.816563     3.808919     3.801276     3.793633     3.785990     3.778347
      3.770703     3.763060     3.755417     3.747774     3.740130     3.732487     3.724844     3.717201     3.709558     3.701914
      3.694271     3.686628     3.678985     3.671341     3.663698     3.656055     3.648412     3.640769     3.633125     3.625482
      3.617839     3.610196     3.602552     3.594909     3.587266     3.579623     3.571980     3.564336     3.556693     3.549050
      3.541407     3.533763     3.526120     3.518477     3.510834     3.503191     3.495547     3.487904     3.480261     3.472618
      3.464974     3.457331     3.449688     3.442045     3.434402     3.426758     3.419115     3.411472     3.403829     3.396185
      3.388542     3.380899     3.373256     3.365613     3.357969     3.350326     3.342683     3.335040     3.327396     3.319753
      3.312110     3.304467     3.296824     3.289180     3.281537     3.273894     3.266251     3.258607     3.250964     3.243321
      3.235678     3.228034     3.220391     3.212748     3.205105     3.197462     3.189818     3.182175     3.174532     3.166889
      3.159245     3.151602     3.143959     3.136316     3.128673     3.121029     3.113386     3.105743     3.098100     3.090456
      3.082813     3.075170     3.067527     3.059884     3.052240     3.044597     3.036954     3.029311     3.021667     3.014024
      3.006381     2.998738     2.991095     2.983451     2.975808     2.968165     2.960522     2.952878     2.945235     2.937592
      2.929949     2.922306     2.914662     2.907019     2.899376     2.891733     2.884089     2.876446     2.868803     2.861160
      2.853517     2.845873     2.838230     2.830587     2.822944     2.815300     2.807657     2.800014     2.792371     2.784728
      2.777084     2.769441     2.761798     2.754155     2.746511     2.738868     2.731225     2.723582     2.715939     2.708295
      2.700652     2.693009     2.685366     2.677722     2.670079     2.662436     2.654793     2.647150     2.639506     2.631863
      2.624220     2.616577     2.608933     2.601290     2.593647     2.586004     2.578361     2.570717     2.563074     2.555431
      2.547788     2.540144     2.532501     2.524858     2.517215     2.509572     2.501928     2.494285     2.486642     2.478999
      2.471355     2.463712     2.456069     2.448426     2.440783     2.433139     2.425496     2.417853     2.410210     2.402566
      2.394923     2.387280     2.379637     2.371994     2.364350     2.356707     2.349064     2.341421     2.333777     2.326134
      2.318491     2.310848     2.303205     2.295561     2.287918     2.280275     2.272632     2.264988     2.257345     2.249702
      2.242059     2.234416     2.226772     2.219129     2.211486     2.203843     2.196199     2.188556     2.180913     2.173270
      2.165627     2.157983     2.150340     2.142697     2.135054     2.127410     2.119767     2.112124     2.104481     2.096838
      2.089194     2.081551     2.073908     2.066265     2.058621     2.050978     2.043335     2.035692     2.028049     2.020405
      2.012762     2.005119     1.997476     1.989833     1.982190     1.974546     1.966903     1.959260     1.951617     1.943974
      1.936331     1.928688     1.921045     1.913402     1.905759     1.898115     1.890472     1.882829     1.875186     1.867543
      1.859900     1.852257     1.844614     1.836971     1.829327     1.821684     1.814041     1.806398     1.798755     1.791112
      1.783469     1.775826     1.768183     1.760540     1.752896     1.745253     1.737610     1.729967     1.722324     1.714681
      1.707038     1.699395     1.691752     1.684108     1.676465     1.668822     1.661179     1.653536     1.645893     1.638250
      1.630607     1.622964     1.615321     1.607677     1.600034     1.592391     1.584748     1.577105     1.569462     1.561819
      1.554176     1.546533     1.538890     1.531246     1.523603     1.515960     1.508317     1.500674     1.493031     1.485388
      1.477745     1.470102     1.462458     1.454815     1.447172     1.439529     1.431886     1.424243     1.416600     1.408957
      1.401314     1.393671     1.386027     1.378384     1.370741     1.363098     1.355455     1.347812     1.340169     1.332526
      1.324883     1.317240     1.309596     1.301953     1.294310     1.286667     1.279024     1.271381     1.263738     1.256095
      1.248452     1.240808     1.233165     1.225522     1.217879     1.210236     1.202593     1.194950     1.187307     1.179664
      1.172021     1.164377     1.156734     1.149091     1.141448     1.133805     1.126162     1.118519     1.110876     1.103233
      1.095590     1.087946     1.080303     1.072660     1.065017     1.057374     1.049731     1.042088     1.034445     1.026802
      1.019158     1.011515     1.003872     0.996229     0.988586     0.980943     0.973300     0.965657     0.958014     0.950371
      0.942727     0.935084     0.927441     0.919798     0.912155     0.904512     0.896869     0.889226     0.881583     0.873940
      0.866296     0.858653     0.851010     0.843367     0.835724     0.828081     0.820438     0.812795     0.805152     0.797508
      0.789865     0.782222     0.774579     0.766936     0.759293     0.751650     0.744007     0.736364     0.728721     0.721077
      0.713434     0.705791     0.698148     0.690505     0.682862     0.675219     0.667576     0.659933     0.652290     0.644646
      0.637003     0.629360     0.621717     0.614074     0.606431     0.598788     0.591145     0.583502     0.575858     0.568215
      0.560572     0.552929     0.545286     0.537643     0.530000     0.522357     0.514714     0.507071     0.499427     0.491784
      0.484141     0.476498     0.468855     0.461212     0.453569     0.445925     0.438282     0.430639     0.422996     0.415353
      0.407710     0.400067     0.392424     0.384780     0.377137     0.369494     0.361851     0.354208     0.346565     0.338922
      0.331278     0.323635     0.315992     0.308349     0.300706     0.293063     0.285420     0.277777     0.270133     0.262490
      0.254847     0.247204     0.239561     0.231918     0.224275     0.216631     0.208988     0.201345
 NY phased data points follow
  -1.65631E+02 -1.67158E+02 -1.61014E+02 -1.62588E+02 -1.59602E+02 -1.60940E+02 -1.56309E+02 -1.49522E+02 -1.52475E+02 -1.49817E+02
  -1.45029E+02 -1.47784E+02 -1.40013E+02 -1.43742E+02 -1.38065E+02 -1.34483E+02 -1.34817E+02 -1.34997E+02 -1.35318E+02 -1.33664E+02
  -1.31008E+02 -1.30363E+02 -1.27899E+02 -1.30292E+02 -1.21362E+02 -1.22705E+02 -1.20644E+02 -1.28365E+02 -1.20911E+02 -1.20875E+02
  -1.16173E+02 -1.17068E+02 -1.10265E+02 -1.14777E+02 -1.04997E+02 -1.10744E+02 -1.01229E+02 -1.07785E+02 -1.06561E+02 -1.07199E+02
  -1.02498E+02 -1.05348E+02 -9.69760E+01 -9.78568E+01 -9.10699E+01 -9.50062E+01 -9.05777E+01 -9.38364E+01 -9.04339E+01 -9.28055E+01
  -8.72185E+01 -8.42804E+01 -8.59312E+01 -8.51498E+01 -8.33028E+01 -7.99507E+01 -7.88442E+01 -7.93256E+01 -7.56521E+01 -7.67112E+01
  -7.22848E+01 -7.55991E+01 -6.89056E+01 -7.67293E+01 -7.58846E+01 -7.01043E+01 -6.86159E+01 -6.89053E+01 -6.55162E+01 -6.78624E+01
  -6.08042E+01 -6.69240E+01 -6.56051E+01 -6.55500E+01 -5.72013E+01 -6.17357E+01 -5.70943E+01 -5.68752E+01 -5.98237E+01 -6.03542E+01
  -5.05184E+01 -5.88402E+01 -5.99591E+01 -5.78585E+01 -5.68889E+01 -5.21805E+01 -5.42725E+01 -5.71676E+01 -5.16918E+01 -5.73082E+01
  -5.60894E+01 -5.21734E+01 -4.91157E+01 -5.09807E+01 -5.02231E+01 -5.20517E+01 -5.17363E+01 -4.87534E+01 -5.21151E+01 -5.22269E+01
  -4.79344E+01 -5.28586E+01 -4.96479E+01 -5.33978E+01 -5.38717E+01 -5.53880E+01 -5.92884E+01 -6.17973E+01 -5.76853E+01 -6.31693E+01
  -5.34949E+01 -5.79098E+01 -5.14607E+01 -5.81761E+01 -5.21633E+01 -5.54832E+01 -5.54864E+01 -5.51222E+01 -5.70687E+01 -4.78109E+01
  -4.88902E+01 -4.99568E+01 -4.68382E+01 -4.98583E+01 -4.73500E+01 -5.00965E+01 -4.86807E+01 -4.42315E+01 -4.46600E+01 -4.09843E+01
  -4.20718E+01 -4.15015E+01 -4.22600E+01 -3.96775E+01 -4.01620E+01 -3.64981E+01 -3.53637E+01 -3.86013E+01 -3.49906E+01 -3.93753E+01
  -3.65054E+01 -3.47174E+01 -3.72077E+01 -3.36572E+01 -3.82275E+01 -3.62207E+01 -3.77878E+01 -3.47573E+01 -3.37132E+01 -3.77910E+01
  -3.59699E+01 -4.15784E+01 -3.65656E+01 -4.19402E+01 -3.81782E+01 -3.97624E+01 -3.79606E+01 -4.18647E+01 -5.03348E+01 -4.26285E+01
  -4.53835E+01 -4.73629E+01 -5.20357E+01 -5.23904E+01 -5.06274E+01 -6.02246E+01 -5.64510E+01 -6.01229E+01 -6.28520E+01 -6.18360E+01
  -6.39124E+01 -6.46807E+01 -7.00694E+01 -7.23538E+01 -7.26353E+01 -6.80925E+01 -7.12958E+01 -7.06322E+01 -7.25152E+01 -7.69895E+01
  -7.45426E+01 -7.58880E+01 -7.95590E+01 -7.68496E+01 -7.96586E+01 -7.32226E+01 -7.23666E+01 -7.01480E+01 -7.51629E+01 -7.14260E+01
  -7.37512E+01 -7.45264E+01 -7.52674E+01 -7.69578E+01 -7.42664E+01 -7.64305E+01 -7.67738E+01 -7.56849E+01 -7.61241E+01 -7.21230E+01
  -7.30977E+01 -7.15616E+01 -7.25924E+01 -8.02910E+01 -7.65015E+01 -7.48656E+01 -7.70948E+01 -6.66367E+01 -6.65408E+01 -6.51260E+01
  -6.13536E+01 -6.34315E+01 -6.21335E+01 -6.10555E+01 -4.92575E+01 -5.18532E+01 -4.22049E+01 -4.45567E+01 -4.24801E+01 -3.85524E+01
  -3.84329E+01 -3.27507E+01 -2.91767E+01 -2.83145E+01 -2.26388E+01 -2.60867E+01 -2.40372E+01 -1.89110E+01 -1.62827E+01 -1.16840E+01
  -1.60446E+01 -1.81268E+01 -1.09172E+01 -8.22486E+00 -2.99953E+00 -8.40643E+00 -1.54721E+00 -7.23604E+00 -8.99705E+00 -1.53130E+01
  -9.74818E+00 -2.97285E+00  2.68728E+00  2.77959E+00 -1.76617E+00 -1.29596E+00 -4.86875E+00 -3.22885E+00 -1.49633E+00 -7.32903E+00
  -8.81472E+00 -4.89319E+00 -3.54406E+00 -2.12017E+00 -5.05266E+00 -9.15959E+00 -9.28473E+00 -9.14499E+00 -8.40534E+00 -5.25498E+00
  -4.41528E+00 -7.10857E+00 -1.29492E+01 -1.00230E+01 -7.65653E+00 -1.07544E+01 -1.57912E+01 -1.11537E+01 -1.77148E+01 -1.74713E+01
  -2.04513E+01 -1.81770E+01 -2.25952E+01 -2.01373E+01 -2.14554E+01 -2.32019E+01 -2.46116E+01 -2.71375E+01 -3.28747E+01 -3.11251E+01
  -3.59016E+01 -3.83982E+01 -3.91505E+01 -3.74971E+01 -3.96523E+01 -4.11505E+01 -4.33707E+01 -4.14774E+01 -4.53978E+01 -4.16435E+01
  -4.58358E+01 -4.25708E+01 -3.68249E+01 -3.59012E+01 -3.59960E+01 -3.16232E+01 -2.67091E+01 -2.05725E+01 -1.92482E+01 -1.30253E+01
  -4.14263E+00  5.80562E+00  7.89074E+00  2.32017E+01  3.40460E+01  4.55322E+01  5.18297E+01  6.92300E+01  7.64537E+01  7.94431E+01
   9.47748E+01  1.03600E+02  1.14065E+02  1.19824E+02  1.30277E+02  1.35268E+02  1.37106E+02  1.39955E+02  1.43643E+02  1.41287E+02
   1.42482E+02  1.39988E+02  1.40708E+02  1.43932E+02  1.41647E+02  1.44975E+02  1.41284E+02  1.46253E+02  1.45397E+02  1.38974E+02
   1.39567E+02  1.40403E+02  1.35984E+02  1.32009E+02  1.28299E+02  1.33388E+02  1.25328E+02  1.23497E+02  1.24939E+02  1.29040E+02
   1.26810E+02  1.29136E+02  1.24278E+02  1.33691E+02  1.29818E+02  1.26520E+02  1.28276E+02  1.31469E+02  1.30142E+02  1.31537E+02
   1.29424E+02  1.29854E+02  1.30385E+02  1.28269E+02  1.30121E+02  1.27064E+02  1.30366E+02  1.31603E+02  1.26203E+02  1.30270E+02
   1.31946E+02  1.29024E+02  1.28964E+02  1.35452E+02  1.26082E+02  1.29859E+02  1.31098E+02  1.30998E+02  1.32132E+02  1.31326E+02
   1.31058E+02  1.26912E+02  1.25863E+02  1.27642E+02  1.28421E+02  1.28770E+02  1.25163E+02  1.27764E+02  1.28037E+02  1.31315E+02
   1.23154E+02  1.23343E+02  1.22105E+02  1.27002E+02  1.21285E+02  1.19021E+02  1.19312E+02  1.22141E+02  1.21523E+02  1.19747E+02
   1.15944E+02  1.10967E+02  1.10012E+02  1.10904E+02  1.08257E+02  1.08122E+02  1.08205E+02  1.05165E+02  1.03778E+02  1.04054E+02
   1.00376E+02  1.04088E+02  9.71856E+01  9.47272E+01  9.27102E+01  9.12155E+01  9.38841E+01  8.50648E+01  8.95849E+01  8.20899E+01
   8.32758E+01  8.33570E+01  8.22700E+01  7.70851E+01  7.33246E+01  7.84873E+01  7.03904E+01  7.31356E+01  7.59277E+01  7.14487E+01
   6.94248E+01  6.71684E+01  6.24685E+01  7.11658E+01  6.55756E+01  6.61095E+01  6.16245E+01  5.98010E+01  5.90155E+01  5.78392E+01
   5.76126E+01  5.58924E+01  5.59564E+01  5.41761E+01  5.09473E+01  5.51820E+01  5.35393E+01  5.08213E+01  4.53263E+01  4.78524E+01
   4.87210E+01  4.83741E+01  4.42198E+01  4.04658E+01  4.10291E+01  3.93611E+01  4.14301E+01  3.51923E+01  4.17425E+01  3.57620E+01
   3.34309E+01  3.90860E+01  3.68673E+01  3.43201E+01  3.93379E+01  3.26814E+01  3.14944E+01  3.34535E+01  3.21346E+01  3.33303E+01
   3.10289E+01  3.36368E+01  3.35682E+01  2.69715E+01  3.22179E+01  2.69374E+01  2.60859E+01  3.07165E+01  2.80138E+01  2.50609E+01
   2.29833E+01  2.27322E+01  2.59744E+01  2.57839E+01  2.14199E+01  2.43634E+01  2.42570E+01  2.25215E+01  1.53820E+01  2.06196E+01
   1.84236E+01  1.83615E+01  1.27408E+01  1.84217E+01  1.94551E+01  1.62154E+01  1.83055E+01  1.25903E+01  1.48306E+01  1.37930E+01
   1.69682E+01  1.32168E+01  1.54826E+01  1.66333E+01  1.37784E+01  1.50466E+01  1.34950E+01  9.19135E+00
 NY points of the fit to the data follow
  -1.66774E+02 -1.63044E+02 -1.62815E+02 -1.59343E+02 -1.58333E+02 -1.55187E+02 -1.54246E+02 -1.51671E+02 -1.51025E+02 -1.49141E+02
  -1.48249E+02 -1.47004E+02 -1.45186E+02 -1.43343E+02 -1.40371E+02 -1.38378E+02 -1.35929E+02 -1.34295E+02 -1.32870E+02 -1.32155E+02
  -1.31018E+02 -1.29973E+02 -1.28329E+02 -1.26784E+02 -1.24113E+02 -1.22477E+02 -1.20533E+02 -1.19708E+02 -1.18616E+02 -1.18346E+02
  -1.16977E+02 -1.15293E+02 -1.12530E+02 -1.10315E+02 -1.07888E+02 -1.06149E+02 -1.05101E+02 -1.03904E+02 -1.03496E+02 -1.01584E+02
  -1.00669E+02 -9.77660E+01 -9.70853E+01 -9.42819E+01 -9.41867E+01 -9.15880E+01 -9.13194E+01 -8.79275E+01 -8.84687E+01 -8.59673E+01
  -8.69605E+01 -8.52967E+01 -8.67418E+01 -8.49384E+01 -8.34033E+01 -8.12058E+01 -7.96212E+01 -7.81359E+01 -7.69783E+01 -7.69181E+01
  -7.62338E+01 -7.57620E+01 -7.49165E+01 -7.43691E+01 -7.33719E+01 -7.28269E+01 -7.18379E+01 -7.12884E+01 -7.02068E+01 -6.93699E+01
  -6.79883E+01 -6.71632E+01 -6.59197E+01 -6.52349E+01 -6.40835E+01 -6.34756E+01 -6.24239E+01 -6.18991E+01 -6.08847E+01 -6.05351E+01
  -5.96841E+01 -5.94004E+01 -5.85624E+01 -5.83097E+01 -5.74634E+01 -5.73471E+01 -5.65354E+01 -5.66236E+01 -5.59050E+01 -5.61555E+01
  -5.55669E+01 -5.58281E+01 -5.53765E+01 -5.56063E+01 -5.51370E+01 -5.53585E+01 -5.50054E+01 -5.51431E+01 -5.48899E+01 -5.49772E+01
  -5.48697E+01 -5.48920E+01 -5.48819E+01 -5.48541E+01 -5.48943E+01 -5.48008E+01 -5.48769E+01 -5.45952E+01 -5.43963E+01 -5.39235E+01
  -5.37778E+01 -5.35850E+01 -5.35026E+01 -5.34856E+01 -5.33333E+01 -5.32104E+01 -5.29184E+01 -5.25982E+01 -5.20625E+01 -5.13123E+01
  -5.05995E+01 -4.97215E+01 -4.90037E+01 -4.81146E+01 -4.73753E+01 -4.64554E+01 -4.56200E+01 -4.43512E+01 -4.34116E+01 -4.22009E+01
  -4.13221E+01 -4.05655E+01 -3.98256E+01 -3.94000E+01 -3.87209E+01 -3.83798E+01 -3.77449E+01 -3.76096E+01 -3.70963E+01 -3.72683E+01
  -3.69269E+01 -3.73697E+01 -3.71672E+01 -3.76332E+01 -3.75632E+01 -3.81776E+01 -3.83107E+01 -3.91585E+01 -3.92864E+01 -3.93003E+01
  -3.94075E+01 -3.96425E+01 -4.00060E+01 -4.05158E+01 -4.11496E+01 -4.19160E+01 -4.28046E+01 -4.37975E+01 -4.49180E+01 -4.61153E+01
  -4.74044E+01 -4.87528E+01 -5.01560E+01 -5.15879E+01 -5.30525E+01 -5.44723E+01 -5.59266E+01 -5.72983E+01 -5.87030E+01 -6.00236E+01
  -6.13154E+01 -6.25400E+01 -6.36811E+01 -6.47731E+01 -6.57532E+01 -6.67291E+01 -6.76899E+01 -6.85662E+01 -6.94733E+01 -7.02978E+01
  -7.08306E+01 -7.14285E+01 -7.16235E+01 -7.17408E+01 -7.15566E+01 -7.15561E+01 -7.18174E+01 -7.19335E+01 -7.28534E+01 -7.35279E+01
  -7.47396E+01 -7.58946E+01 -7.76038E+01 -7.77213E+01 -7.76394E+01 -7.65972E+01 -7.57074E+01 -7.43640E+01 -7.38107E+01 -7.27839E+01
  -7.25132E+01 -7.16646E+01 -7.19095E+01 -7.05584E+01 -7.01402E+01 -6.82298E+01 -6.74608E+01 -6.57343E+01 -6.51747E+01 -6.42535E+01
  -6.45411E+01 -6.34599E+01 -6.26184E+01 -6.04684E+01 -5.73838E+01 -5.47262E+01 -5.11291E+01 -4.88927E+01 -4.65548E+01 -4.48237E+01
  -4.17354E+01 -3.97221E+01 -3.53808E+01 -3.22668E+01 -2.66384E+01 -2.44456E+01 -2.00864E+01 -1.80330E+01 -1.47297E+01 -1.27139E+01
  -1.00078E+01 -9.63849E+00 -1.10984E+01 -1.06154E+01 -1.09739E+01 -1.11760E+01 -1.18255E+01 -1.26790E+01 -1.28105E+01 -1.34411E+01
  -1.16141E+01 -1.16399E+01 -8.08958E+00 -8.58346E+00 -4.93650E+00 -6.94434E+00 -3.38166E+00 -6.23213E+00 -2.20858E+00 -5.04325E+00
  -4.44111E-01 -3.46654E+00  1.01887E+00 -1.99102E+00  1.66618E+00 -1.32846E+00  1.68076E+00 -1.78338E+00 -2.08461E+00 -5.61420E+00
  -6.20558E+00 -8.17474E+00 -8.55600E+00 -7.42450E+00 -8.42464E+00 -8.29946E+00 -1.02264E+01 -1.10738E+01 -1.41034E+01 -1.54915E+01
  -1.90195E+01 -2.08411E+01 -2.45518E+01 -2.56905E+01 -2.88179E+01 -2.96133E+01 -3.20178E+01 -3.24283E+01 -3.45716E+01 -3.51719E+01
  -3.70429E+01 -3.82749E+01 -3.88930E+01 -3.93220E+01 -3.96357E+01 -3.98575E+01 -3.99537E+01 -3.99127E+01 -3.97172E+01 -3.93291E+01
  -3.87089E+01 -3.78065E+01 -3.65590E+01 -3.48919E+01 -3.27313E+01 -2.99846E+01 -2.65812E+01 -2.24214E+01 -1.74381E+01 -1.15604E+01
  -4.76963E+00  2.95674E+00  1.15758E+01  2.10271E+01  3.11854E+01  4.19105E+01  5.30055E+01  6.42698E+01  7.54985E+01  8.64538E+01
   9.65278E+01  1.05923E+02  1.14155E+02  1.21402E+02  1.27489E+02  1.32486E+02  1.36298E+02  1.39513E+02  1.41627E+02  1.43377E+02
   1.43830E+02  1.44291E+02  1.43535E+02  1.43406E+02  1.42104E+02  1.41949E+02  1.40540E+02  1.41006E+02  1.39660E+02  1.40589E+02
   1.38438E+02  1.38139E+02  1.35460E+02  1.34377E+02  1.31764E+02  1.31109E+02  1.28903E+02  1.29584E+02  1.28512E+02  1.29663E+02
   1.28643E+02  1.28666E+02  1.27488E+02  1.27173E+02  1.26291E+02  1.26131E+02  1.25958E+02  1.27498E+02  1.28250E+02  1.30331E+02
   1.30227E+02  1.30951E+02  1.30328E+02  1.30369E+02  1.29474E+02  1.30280E+02  1.29195E+02  1.31066E+02  1.30591E+02  1.31740E+02
   1.31122E+02  1.31351E+02  1.30688E+02  1.31172E+02  1.30590E+02  1.30754E+02  1.30296E+02  1.29925E+02  1.30561E+02  1.31881E+02
   1.31776E+02  1.31742E+02  1.31200E+02  1.30068E+02  1.29085E+02  1.26018E+02  1.24090E+02  1.22934E+02  1.22220E+02  1.21807E+02
   1.21602E+02  1.21538E+02  1.21548E+02  1.21576E+02  1.21562E+02  1.21461E+02  1.21221E+02  1.20810E+02  1.20196E+02  1.19365E+02
   1.18305E+02  1.17025E+02  1.15533E+02  1.13857E+02  1.12021E+02  1.10062E+02  1.08016E+02  1.05922E+02  1.03812E+02  1.01723E+02
   9.96800E+01  9.77083E+01  9.58208E+01  9.40314E+01  9.23402E+01  9.07498E+01  8.92504E+01  8.78361E+01  8.64909E+01  8.52042E+01
   8.39575E+01  8.27398E+01  8.15335E+01  8.03299E+01  7.91145E+01  7.78824E+01  7.66234E+01  7.53374E+01  7.40188E+01  7.26712E+01
   7.12928E+01  6.98903E+01  6.84642E+01  6.70237E+01  6.55707E+01  6.41148E+01  6.26585E+01  6.12114E+01  5.97754E+01  5.83595E+01
   5.69646E+01  5.55985E+01  5.42607E+01  5.29580E+01  5.16886E+01  5.04581E+01  4.92636E+01  4.81095E+01  4.69920E+01  4.59147E+01
   4.48734E+01  4.38708E+01  4.29022E+01  4.19701E+01  4.10693E+01  4.02022E+01  3.93637E+01  3.85560E+01  3.77737E+01  3.70191E+01
   3.62870E+01  3.55798E+01  3.48923E+01  3.42269E+01  3.35786E+01  3.29498E+01  3.23358E+01  3.17392E+01  3.11552E+01  3.05866E+01
   3.00286E+01  2.94842E+01  2.89488E+01  2.84254E+01  2.79096E+01  2.74043E+01  2.69052E+01  2.64155E+01  2.59308E+01  2.54545E+01
   2.49822E+01  2.45172E+01  2.40553E+01  2.35999E+01  2.31468E+01  2.26995E+01  2.22539E+01  2.18133E+01  2.13736E+01  2.09385E+01
   2.05039E+01  2.00732E+01  1.96425E+01  1.92152E+01  1.87874E+01  1.83626E+01  1.79370E+01  1.75140E+01  1.70897E+01  1.66677E+01
   1.62440E+01  1.58223E+01  1.53986E+01  1.49764E+01  1.45519E+01  1.41285E+01  1.37024E+01  1.32771E+01
 NY background values follow
    -1.821E+02   -1.806E+02   -1.790E+02   -1.774E+02   -1.759E+02   -1.743E+02   -1.727E+02   -1.711E+02   -1.695E+02   -1.679E+02
    -1.662E+02   -1.646E+02   -1.630E+02   -1.614E+02   -1.598E+02   -1.581E+02   -1.565E+02   -1.549E+02   -1.532E+02   -1.516E+02
    -1.500E+02   -1.483E+02   -1.467E+02   -1.451E+02   -1.435E+02   -1.418E+02   -1.402E+02   -1.386E+02   -1.370E+02   -1.354E+02
    -1.338E+02   -1.322E+02   -1.306E+02   -1.290E+02   -1.274E+02   -1.259E+02   -1.243E+02   -1.228E+02   -1.212E+02   -1.197E+02
    -1.182E+02   -1.167E+02   -1.152E+02   -1.137E+02   -1.122E+02   -1.107E+02   -1.093E+02   -1.079E+02   -1.064E+02   -1.050E+02
    -1.036E+02   -1.023E+02   -1.009E+02   -9.955E+01   -9.822E+01   -9.691E+01   -9.562E+01   -9.434E+01   -9.309E+01   -9.185E+01
    -9.064E+01   -8.944E+01   -8.827E+01   -8.711E+01   -8.598E+01   -8.487E+01   -8.379E+01   -8.273E+01   -8.169E+01   -8.068E+01
    -7.969E+01   -7.872E+01   -7.779E+01   -7.688E+01   -7.599E+01   -7.514E+01   -7.431E+01   -7.351E+01   -7.274E+01   -7.199E+01
    -7.128E+01   -7.060E+01   -6.995E+01   -6.933E+01   -6.874E+01   -6.819E+01   -6.766E+01   -6.717E+01   -6.670E+01   -6.627E+01
    -6.586E+01   -6.548E+01   -6.512E+01   -6.480E+01   -6.450E+01   -6.423E+01   -6.398E+01   -6.376E+01   -6.356E+01   -6.338E+01
    -6.323E+01   -6.310E+01   -6.299E+01   -6.291E+01   -6.284E+01   -6.280E+01   -6.278E+01   -6.277E+01   -6.279E+01   -6.282E+01
    -6.287E+01   -6.294E+01   -6.302E+01   -6.312E+01   -6.324E+01   -6.337E+01   -6.352E+01   -6.368E+01   -6.385E+01   -6.404E+01
    -6.424E+01   -6.445E+01   -6.467E+01   -6.490E+01   -6.515E+01   -6.540E+01   -6.566E+01   -6.593E+01   -6.621E+01   -6.650E+01
    -6.679E+01   -6.709E+01   -6.739E+01   -6.770E+01   -6.802E+01   -6.834E+01   -6.866E+01   -6.899E+01   -6.931E+01   -6.964E+01
    -6.998E+01   -7.031E+01   -7.064E+01   -7.097E+01   -7.131E+01   -7.164E+01   -7.196E+01   -7.229E+01   -7.261E+01   -7.293E+01
    -7.325E+01   -7.356E+01   -7.386E+01   -7.416E+01   -7.446E+01   -7.474E+01   -7.502E+01   -7.529E+01   -7.556E+01   -7.581E+01
    -7.605E+01   -7.629E+01   -7.651E+01   -7.672E+01   -7.692E+01   -7.711E+01   -7.728E+01   -7.744E+01   -7.759E+01   -7.772E+01
    -7.785E+01   -7.796E+01   -7.805E+01   -7.814E+01   -7.821E+01   -7.827E+01   -7.832E+01   -7.836E+01   -7.839E+01   -7.840E+01
    -7.841E+01   -7.840E+01   -7.838E+01   -7.836E+01   -7.832E+01   -7.827E+01   -7.822E+01   -7.815E+01   -7.808E+01   -7.799E+01
    -7.790E+01   -7.779E+01   -7.768E+01   -7.756E+01   -7.743E+01   -7.730E+01   -7.715E+01   -7.700E+01   -7.684E+01   -7.667E+01
    -7.650E+01   -7.631E+01   -7.613E+01   -7.593E+01   -7.573E+01   -7.552E+01   -7.531E+01   -7.509E+01   -7.486E+01   -7.463E+01
    -7.439E+01   -7.415E+01   -7.391E+01   -7.365E+01   -7.340E+01   -7.314E+01   -7.287E+01   -7.260E+01   -7.233E+01   -7.206E+01
    -7.178E+01   -7.149E+01   -7.121E+01   -7.092E+01   -7.062E+01   -7.033E+01   -7.003E+01   -6.973E+01   -6.943E+01   -6.913E+01
    -6.883E+01   -6.852E+01   -6.821E+01   -6.790E+01   -6.759E+01   -6.728E+01   -6.697E+01   -6.666E+01   -6.635E+01   -6.604E+01
    -6.573E+01   -6.542E+01   -6.511E+01   -6.480E+01   -6.449E+01   -6.419E+01   -6.388E+01   -6.358E+01   -6.328E+01   -6.298E+01
    -6.268E+01   -6.238E+01   -6.209E+01   -6.179E+01   -6.150E+01   -6.121E+01   -6.092E+01   -6.064E+01   -6.035E+01   -6.007E+01
    -5.978E+01   -5.950E+01   -5.922E+01   -5.894E+01   -5.866E+01   -5.838E+01   -5.810E+01   -5.783E+01   -5.755E+01   -5.728E+01
    -5.700E+01   -5.673E+01   -5.645E+01   -5.618E+01   -5.590E+01   -5.563E+01   -5.535E+01   -5.508E+01   -5.480E+01   -5.453E+01
    -5.425E+01   -5.398E+01   -5.370E+01   -5.342E+01   -5.315E+01   -5.287E+01   -5.259E+01   -5.231E+01   -5.203E+01   -5.175E+01
    -5.146E+01   -5.118E+01   -5.090E+01   -5.061E+01   -5.032E+01   -5.003E+01   -4.974E+01   -4.945E+01   -4.915E+01   -4.886E+01
    -4.856E+01   -4.826E+01   -4.796E+01   -4.766E+01   -4.735E+01   -4.704E+01   -4.673E+01   -4.642E+01   -4.611E+01   -4.579E+01
    -4.547E+01   -4.515E+01   -4.482E+01   -4.449E+01   -4.416E+01   -4.383E+01   -4.349E+01   -4.315E+01   -4.281E+01   -4.246E+01
    -4.211E+01   -4.176E+01   -4.140E+01   -4.104E+01   -4.068E+01   -4.031E+01   -3.994E+01   -3.956E+01   -3.919E+01   -3.880E+01
    -3.842E+01   -3.803E+01   -3.763E+01   -3.723E+01   -3.683E+01   -3.642E+01   -3.601E+01   -3.560E+01   -3.518E+01   -3.476E+01
    -3.434E+01   -3.391E+01   -3.348E+01   -3.305E+01   -3.262E+01   -3.218E+01   -3.174E+01   -3.130E+01   -3.086E+01   -3.041E+01
    -2.997E+01   -2.952E+01   -2.907E+01   -2.862E+01   -2.817E+01   -2.772E+01   -2.727E+01   -2.682E+01   -2.636E+01   -2.591E+01
    -2.546E+01   -2.500E+01   -2.455E+01   -2.410E+01   -2.365E+01   -2.320E+01   -2.274E+01   -2.229E+01   -2.185E+01   -2.140E+01
    -2.095E+01   -2.051E+01   -2.007E+01   -1.962E+01   -1.919E+01   -1.875E+01   -1.831E+01   -1.788E+01   -1.745E+01   -1.702E+01
    -1.660E+01   -1.618E+01   -1.576E+01   -1.535E+01   -1.493E+01   -1.453E+01   -1.412E+01   -1.372E+01   -1.332E+01   -1.293E+01
    -1.254E+01   -1.216E+01   -1.178E+01   -1.140E+01   -1.103E+01   -1.067E+01   -1.031E+01   -9.955E+00   -9.605E+00   -9.262E+00
    -8.923E+00   -8.591E+00   -8.264E+00   -7.944E+00   -7.629E+00   -7.321E+00   -7.020E+00   -6.725E+00   -6.437E+00   -6.155E+00
    -5.881E+00   -5.614E+00   -5.354E+00   -5.102E+00   -4.857E+00   -4.619E+00   -4.390E+00   -4.168E+00   -3.954E+00   -3.747E+00
    -3.548E+00   -3.356E+00   -3.171E+00   -2.994E+00   -2.824E+00   -2.662E+00   -2.506E+00   -2.358E+00   -2.217E+00   -2.082E+00
    -1.955E+00   -1.835E+00   -1.722E+00   -1.615E+00   -1.515E+00   -1.422E+00   -1.336E+00   -1.256E+00   -1.183E+00   -1.117E+00
    -1.057E+00   -1.003E+00   -9.559E-01   -9.150E-01   -8.805E-01   -8.522E-01   -8.301E-01   -8.142E-01   -8.043E-01   -8.006E-01
    -8.028E-01   -8.110E-01   -8.250E-01   -8.450E-01   -8.707E-01   -9.022E-01   -9.394E-01   -9.823E-01   -1.031E+00   -1.085E+00
    -1.144E+00   -1.209E+00   -1.280E+00   -1.356E+00   -1.437E+00   -1.523E+00   -1.615E+00   -1.712E+00   -1.813E+00   -1.920E+00
    -2.032E+00   -2.149E+00   -2.271E+00   -2.398E+00   -2.530E+00   -2.666E+00   -2.807E+00   -2.953E+00   -3.104E+00   -3.259E+00
    -3.418E+00   -3.582E+00   -3.751E+00   -3.924E+00   -4.101E+00   -4.282E+00   -4.468E+00   -4.658E+00   -4.852E+00   -5.051E+00
    -5.253E+00   -5.459E+00   -5.669E+00   -5.884E+00   -6.102E+00   -6.323E+00   -6.549E+00   -6.778E+00
 Ala      Conc. = 1.38E+03
