 LCModel (Version 6.3-1L) Copyright: S.W. Provencher.          Ref.: Magn. Reson. Med. 30:672-679 (1993).                
 Slice#2 Row#1 Col#6  PD_05_press_2_raw_act
 36 lines in following concentration table = NCONC+1
    Conc.  %SD /Cr+PCr  Metabolite                                         
  192.924 157%   0.895 Ala                                                 
   44.963 111%   0.209 Asp                                                 
    0.000 999%   0.000 Cr                                                  
  215.530  61%   1.000 PCr                                                 
   23.419 128%   0.109 GABA                                                
   28.049 107%   0.130 Glc                                                 
    0.000 999%   0.000 Gln                                                 
    0.000 999%   0.000 Glu                                                 
  122.292  43%   0.567 GPC                                                 
    0.000 999%   0.000 PCh                                                 
  411.880  49%   1.911 GSH                                                 
 1.05E+03  58%   4.859 Ins                                                 
    9.819 999% 4.6E-02 Lac                                                 
    0.000 999%   0.000 NAA                                                 
  289.703  60%   1.344 NAAG                                                
    8.868 112% 4.1E-02 Scyllo                                              
   49.300 101%   0.229 Tau                                                 
    0.000 999%   0.000 -CrCH2                                              
  122.292  43%   0.567 GPC+PCh                                             
  289.703  60%   1.344 NAA+NAAG                                            
  215.530  61%   1.000 Cr+PCr                                              
    0.000 999%   0.000 Glu+Gln                                             
 2.58E+03  42%  11.967 Lip13a                                              
    0.000 999%   0.000 Lip13b                                              
  506.944  86%   2.352 Lip09                                               
 2.48E+03  19%  11.510 MM09                                                
  130.033 245%   0.603 Lip20                                               
 1.20E+03  69%   5.547 MM20                                                
  987.732  35%   4.583 MM12                                                
  921.866  95%   4.277 MM14                                                
  569.328  93%   2.642 MM17                                                
 2.58E+03  42%  11.967 Lip13a+Lip13b                                       
 4.49E+03  22%  20.827 MM14+Lip13a+Lip13b+MM12                             
 2.99E+03  15%  13.862 MM09+Lip09                                          
 1.33E+03  61%   6.150 MM20+Lip20                                          
   6 lines in following misc. output table
  FWHM = 0.054 ppm    S/N =   1                                            
  Data shift = 0.008 ppm                                                   
  Ph: -86 deg      12.4 deg/ppm                                            
  alphaB,S = 8.5E+01,   5.1E+01                                            
   14 spline knots.   Ns = 5(1)                                            
   2 inflections.     1 extrema                                            
  498 points on ppm-axis = NY
      4.000000     3.992357     3.984714     3.977070     3.969427     3.961784     3.954141     3.946497     3.938854     3.931211
      3.923568     3.915925     3.908281     3.900638     3.892995     3.885352     3.877708     3.870065     3.862422     3.854779
      3.847136     3.839492     3.831849     3.824206     3.816563     3.808919     3.801276     3.793633     3.785990     3.778347
      3.770703     3.763060     3.755417     3.747774     3.740130     3.732487     3.724844     3.717201     3.709558     3.701914
      3.694271     3.686628     3.678985     3.671341     3.663698     3.656055     3.648412     3.640769     3.633125     3.625482
      3.617839     3.610196     3.602552     3.594909     3.587266     3.579623     3.571980     3.564336     3.556693     3.549050
      3.541407     3.533763     3.526120     3.518477     3.510834     3.503191     3.495547     3.487904     3.480261     3.472618
      3.464974     3.457331     3.449688     3.442045     3.434402     3.426758     3.419115     3.411472     3.403829     3.396185
      3.388542     3.380899     3.373256     3.365613     3.357969     3.350326     3.342683     3.335040     3.327396     3.319753
      3.312110     3.304467     3.296824     3.289180     3.281537     3.273894     3.266251     3.258607     3.250964     3.243321
      3.235678     3.228034     3.220391     3.212748     3.205105     3.197462     3.189818     3.182175     3.174532     3.166889
      3.159245     3.151602     3.143959     3.136316     3.128673     3.121029     3.113386     3.105743     3.098100     3.090456
      3.082813     3.075170     3.067527     3.059884     3.052240     3.044597     3.036954     3.029311     3.021667     3.014024
      3.006381     2.998738     2.991095     2.983451     2.975808     2.968165     2.960522     2.952878     2.945235     2.937592
      2.929949     2.922306     2.914662     2.907019     2.899376     2.891733     2.884089     2.876446     2.868803     2.861160
      2.853517     2.845873     2.838230     2.830587     2.822944     2.815300     2.807657     2.800014     2.792371     2.784728
      2.777084     2.769441     2.761798     2.754155     2.746511     2.738868     2.731225     2.723582     2.715939     2.708295
      2.700652     2.693009     2.685366     2.677722     2.670079     2.662436     2.654793     2.647150     2.639506     2.631863
      2.624220     2.616577     2.608933     2.601290     2.593647     2.586004     2.578361     2.570717     2.563074     2.555431
      2.547788     2.540144     2.532501     2.524858     2.517215     2.509572     2.501928     2.494285     2.486642     2.478999
      2.471355     2.463712     2.456069     2.448426     2.440783     2.433139     2.425496     2.417853     2.410210     2.402566
      2.394923     2.387280     2.379637     2.371994     2.364350     2.356707     2.349064     2.341421     2.333777     2.326134
      2.318491     2.310848     2.303205     2.295561     2.287918     2.280275     2.272632     2.264988     2.257345     2.249702
      2.242059     2.234416     2.226772     2.219129     2.211486     2.203843     2.196199     2.188556     2.180913     2.173270
      2.165627     2.157983     2.150340     2.142697     2.135054     2.127410     2.119767     2.112124     2.104481     2.096838
      2.089194     2.081551     2.073908     2.066265     2.058621     2.050978     2.043335     2.035692     2.028049     2.020405
      2.012762     2.005119     1.997476     1.989833     1.982190     1.974546     1.966903     1.959260     1.951617     1.943974
      1.936331     1.928688     1.921045     1.913402     1.905759     1.898115     1.890472     1.882829     1.875186     1.867543
      1.859900     1.852257     1.844614     1.836971     1.829327     1.821684     1.814041     1.806398     1.798755     1.791112
      1.783469     1.775826     1.768183     1.760540     1.752896     1.745253     1.737610     1.729967     1.722324     1.714681
      1.707038     1.699395     1.691752     1.684108     1.676465     1.668822     1.661179     1.653536     1.645893     1.638250
      1.630607     1.622964     1.615321     1.607677     1.600034     1.592391     1.584748     1.577105     1.569462     1.561819
      1.554176     1.546533     1.538890     1.531246     1.523603     1.515960     1.508317     1.500674     1.493031     1.485388
      1.477745     1.470102     1.462458     1.454815     1.447172     1.439529     1.431886     1.424243     1.416600     1.408957
      1.401314     1.393671     1.386027     1.378384     1.370741     1.363098     1.355455     1.347812     1.340169     1.332526
      1.324883     1.317240     1.309596     1.301953     1.294310     1.286667     1.279024     1.271381     1.263738     1.256095
      1.248452     1.240808     1.233165     1.225522     1.217879     1.210236     1.202593     1.194950     1.187307     1.179664
      1.172021     1.164377     1.156734     1.149091     1.141448     1.133805     1.126162     1.118519     1.110876     1.103233
      1.095590     1.087946     1.080303     1.072660     1.065017     1.057374     1.049731     1.042088     1.034445     1.026802
      1.019158     1.011515     1.003872     0.996229     0.988586     0.980943     0.973300     0.965657     0.958014     0.950371
      0.942727     0.935084     0.927441     0.919798     0.912155     0.904512     0.896869     0.889226     0.881583     0.873940
      0.866296     0.858653     0.851010     0.843367     0.835724     0.828081     0.820438     0.812795     0.805152     0.797508
      0.789865     0.782222     0.774579     0.766936     0.759293     0.751650     0.744007     0.736364     0.728721     0.721077
      0.713434     0.705791     0.698148     0.690505     0.682862     0.675219     0.667576     0.659933     0.652290     0.644646
      0.637003     0.629360     0.621717     0.614074     0.606431     0.598788     0.591145     0.583502     0.575858     0.568215
      0.560572     0.552929     0.545286     0.537643     0.530000     0.522357     0.514714     0.507071     0.499427     0.491784
      0.484141     0.476498     0.468855     0.461212     0.453569     0.445925     0.438282     0.430639     0.422996     0.415353
      0.407710     0.400067     0.392424     0.384780     0.377137     0.369494     0.361851     0.354208     0.346565     0.338922
      0.331278     0.323635     0.315992     0.308349     0.300706     0.293063     0.285420     0.277777     0.270133     0.262490
      0.254847     0.247204     0.239561     0.231918     0.224275     0.216631     0.208988     0.201345
 NY phased data points follow
  -3.36002E+01 -2.76536E+01  4.54124E+00  8.86455E+00  2.10257E+00 -6.90875E+00 -2.12305E+00  1.89375E+01  1.14612E+01  2.04222E+00
  -5.50421E+00 -1.07551E+01 -5.52468E+00  9.28939E-01  1.29553E+00 -2.55601E+00  4.68688E+00 -4.20422E+00 -1.16713E+01 -5.42405E+00
  -6.24581E+00 -2.69778E+00 -2.08010E+01 -2.50907E+01  1.05565E+01 -5.27070E+00 -2.52110E+01 -6.22662E+00  1.02865E+01  5.60245E+00
   2.33526E+01  5.46638E+00  3.92905E+00 -4.32733E+00 -2.62803E+01  1.09627E-01  4.89611E+00  1.16978E+01 -7.34109E+00 -3.28375E+00
  -4.50632E+00  1.05732E+00 -3.43663E+01 -2.26448E+01 -1.54335E+01 -1.67652E+01 -7.68259E+00 -2.01283E+00  1.16492E+01 -1.26126E+01
  -9.09965E+00  1.56712E+00 -5.52229E+00 -1.82254E-01 -8.27665E+00 -2.03433E+01 -3.55606E+00 -7.33756E+00 -8.85462E+00 -2.34507E+00
   6.50082E+00 -1.50834E+01  2.86294E+00  1.28912E+00  2.02906E+00 -2.67022E+00 -1.80382E+01 -4.13185E+00 -8.74704E+00 -5.30650E+00
   1.92468E+00  4.39081E+00 -2.93741E+00 -2.77689E+00  1.25758E+00  6.24722E+00  1.29951E+01 -8.15497E+00 -1.44125E+01  6.77678E+00
  -3.40003E+00  2.00837E-01 -1.31327E+00  7.59906E+00 -2.08610E+01 -1.60836E+01 -1.15477E+01  3.53148E+00 -1.19659E+01  3.67336E+00
  -6.92793E+00 -1.02499E+01 -1.79224E+01 -2.25204E+00 -3.20451E+00 -1.39710E+01  1.08087E+01  1.31349E+01 -7.87071E-02  4.24246E+00
  -5.08606E+00  7.29953E-01 -1.57681E+00  8.21961E+00 -1.93180E+01  2.02418E+01  1.16682E+01 -9.06022E+00  6.99286E+00  4.09492E+00
  -7.17676E+00 -7.39044E+00 -1.15707E+00 -1.13389E+01 -7.27404E+00  4.67017E-01 -1.18688E+00  1.62685E+00 -1.97309E+01 -8.00999E+00
  -1.08616E+01  4.85142E+00  1.15372E+01  9.43617E+00 -4.46744E+00  1.47376E+01 -7.80134E+00 -2.15106E+01  8.88703E+00 -8.86984E+00
  -1.37294E+01  1.31304E+01 -1.00759E+01  7.68714E+00 -3.88247E+00  2.01768E-01 -7.77248E+00 -7.04790E+00 -3.34792E+00  1.49359E+01
   1.23952E+00 -3.41193E+01 -6.95226E-01  1.64017E+01 -6.26561E+00 -4.19321E+00 -1.63208E+00  6.12703E+00  1.57914E+00 -1.89455E+01
   8.98842E+00 -7.82017E+00 -1.39890E+01 -2.42766E+01 -8.34193E+00  4.12610E+00 -6.32382E+00 -1.12798E+01 -1.40122E+01 -1.73400E+01
  -7.04939E+00  3.29247E+00 -8.06033E+00 -9.82100E+00  9.48342E+00 -1.24268E+01 -2.06868E+00 -1.83668E+01  4.27684E+00 -1.51577E+01
  -2.40196E+01 -1.24410E+01 -1.73451E+01 -6.40127E-01 -1.12695E+01 -6.94233E+00 -1.93664E+01 -1.16234E+01  1.26496E+00 -1.12044E+01
  -1.99079E+01 -8.56064E+00 -2.19765E+01 -2.04827E+00 -6.04899E+00  5.21595E+00 -7.79284E+00  1.09933E+01 -4.08239E+00 -9.39059E+00
  -1.02429E+01 -7.81786E+00 -8.78074E+00 -2.42730E+01 -5.27040E+00 -2.11785E+01 -4.89332E+00 -7.86748E+00 -3.69928E+00 -8.25569E+00
  -4.18633E-01 -1.59291E+01 -1.88794E+01 -1.56956E+01  1.85440E+01 -1.39221E+01 -3.74941E+00  1.05329E+00  2.16938E+00 -1.61166E+01
  -3.05986E+00  3.52840E+00 -8.11379E-01 -1.47052E+01 -1.01854E+01 -1.87354E+01 -3.88018E+00  2.29691E+01 -1.43946E+01 -1.06291E+01
   1.58822E+00  1.31157E+01 -9.28000E+00 -1.73539E+01 -7.69530E-01 -2.50593E+01 -5.24169E+00 -1.09784E+01 -1.70742E+01 -1.26577E+01
   6.70516E+00 -1.28221E+01 -7.47717E+00 -1.40412E+00 -3.95511E+00  7.66235E+00 -3.88549E+00 -1.60425E+00 -1.03241E+01 -7.83007E+00
   7.60102E+00  9.07605E+00  2.59593E+00  2.35132E+01  6.97124E+00  8.47271E-01  1.57367E+01  1.97290E+00  1.72678E+01  5.79914E-01
   1.33383E+01 -6.40694E+00  3.31194E+00  4.87942E+00  7.50189E+00  1.04841E+01  4.24066E+00  1.65881E+01  2.45184E+01  1.46629E+01
  -6.02510E-01  1.91450E+00  2.07998E+00 -2.46549E+01 -1.00524E+01 -1.44322E+01 -1.75215E+01 -1.24654E+00 -6.64897E-01 -6.71434E-01
   8.86411E+00 -2.25918E+00  8.32552E+00 -7.44855E+00 -3.55788E+00 -2.99737E+00 -1.73338E+01 -1.25741E+01 -2.05454E+01 -6.82225E+00
  -1.42779E+01  1.28247E+01 -6.83462E+00 -8.65646E+00  1.55383E+01  1.02735E+00 -1.82552E+00  5.46170E+00 -1.18782E+01 -3.52966E-02
   7.84822E+00 -1.62956E+01  7.54531E-01 -1.02514E+01 -2.38411E+00  1.84996E+01 -2.30762E+00 -1.68228E+00 -5.85123E+00 -3.17774E+01
   1.04821E+01 -2.18275E-01 -1.77794E+00  1.43419E+01  1.25217E+01  1.91909E+00  1.94713E+01  2.90650E+00 -1.46580E+01  1.44966E+00
   6.60301E+00  5.92177E+00  7.46505E+00  1.89907E+01  1.24150E+01  1.75965E+01 -3.22803E+00 -1.84336E+00  3.18214E-01  2.52448E+00
   1.15825E+01 -7.07130E+00  1.15151E+01 -2.26960E+00  4.68256E+00  1.42486E+01  7.94670E+00  4.05129E+00 -3.18647E+00  9.84415E+00
  -6.36297E+00  1.12468E+01  1.07606E+00 -8.80085E+00  1.49208E+01  4.78724E+00 -1.16436E+00 -5.51110E+00  2.01960E+01  1.67974E+00
   7.44596E+00  2.78827E+01 -7.67485E-01  1.41704E+01  2.63087E+01  2.84323E+01  2.85807E+01  1.01634E+01  1.24710E+01  1.29972E+01
   1.70618E+01  1.25823E+01  2.21775E+01  7.78204E+00  2.00020E+01  1.79764E+01 -5.21576E+00  1.25568E+01  1.07531E+01 -2.79958E+00
   6.65422E+00  1.57547E+01  1.43814E+01  2.37147E+01  1.85056E+01  1.69813E+01  1.99464E+01  2.85849E+01  1.62320E+01  4.67430E+01
   3.38359E+01  3.62308E+01  1.93095E+01  2.06646E+01 -2.16526E+00  2.66492E+01  1.16565E+01  2.41754E+01  1.87125E+01  3.13661E+01
   3.04008E+01  3.31188E+01  2.18030E+01  2.84985E+01  5.04453E+01  2.78376E+01  3.45813E+01  2.15537E+01  2.68576E+01  3.35690E+01
   2.16015E+01  2.41982E+01  3.62262E+01  3.62720E+01  4.25460E+01  2.07217E+01  7.82005E+00  2.57273E+01 -1.16782E+00  8.86442E+00
  -6.94574E+00  1.52029E+01  3.23414E+00 -1.26616E+00  7.22345E+00 -1.18222E+01  1.89034E+01  1.06867E+01 -2.28425E+00  2.12581E+01
   1.02085E+01  1.52408E+00  8.08943E+00  1.09267E+00  1.64844E+01  9.37998E+00  2.26427E+01 -1.92773E+00  9.15824E+00 -4.49930E-01
   1.03610E+01  5.60409E+00  2.32381E+01  2.63219E+01  3.97344E+00  8.23697E+00  1.58409E+01  2.95671E+01 -1.72945E+01  1.74365E+00
   1.17243E+01 -5.65608E+00  7.24814E+00  2.00135E+01 -2.86758E+00  1.48584E+01 -2.21392E+00 -1.54239E+01 -5.81315E+00  1.49275E+01
   6.41920E+00  4.88177E+00 -1.20206E+01 -4.15235E+00  1.10471E+01  5.82508E+00  1.10436E+01  3.85790E+00  1.86487E+01  4.13943E+00
   1.28699E+01  5.29311E+00  3.12381E+01  1.63448E+01  3.25789E+00 -6.63916E+00  2.32214E+00  4.13042E+00  3.52786E+00 -9.77302E+00
   1.04347E+01 -1.33614E+01  1.44876E+01 -1.39269E+00  1.10084E+01  1.05840E+01  6.96833E+00  1.25440E+01 -8.52575E+00  1.19995E-01
   1.28408E+01 -9.29373E+00  5.73446E+00  2.73943E-01 -6.60639E+00  5.10747E+00  9.16478E+00  1.78538E+01 -1.53655E+01 -2.52317E+00
   2.79115E-01  7.25762E+00  1.11853E+01 -5.08011E+00 -2.03680E+01 -1.52208E+00  1.55968E+01  3.71764E+00  8.02094E+00 -1.11086E+01
   7.15494E+00  8.78134E+00  1.84601E+00 -1.22481E+01  1.52188E+01  1.36262E+01  1.86516E+00 -3.49049E+00
 NY points of the fit to the data follow
  -6.92112E+00 -7.44335E+00 -7.76980E+00 -7.70199E+00 -7.04775E+00 -5.98868E+00 -4.81443E+00 -3.78577E+00 -3.10833E+00 -2.88588E+00
  -3.11403E+00 -3.72839E+00 -4.62421E+00 -5.65399E+00 -6.62198E+00 -7.29887E+00 -7.55086E+00 -7.58795E+00 -7.54374E+00 -7.49767E+00
  -7.48326E+00 -7.52612E+00 -7.62800E+00 -7.72518E+00 -7.53825E+00 -6.42448E+00 -4.41036E+00 -2.01255E+00  2.27579E-01  1.86851E+00
   2.62031E+00  2.38885E+00  1.34615E+00 -2.49270E-01 -2.08392E+00 -3.83166E+00 -5.11963E+00 -5.67719E+00 -5.98331E+00 -6.36365E+00
  -6.79004E+00 -7.12845E+00 -7.10043E+00 -6.31098E+00 -4.66932E+00 -2.58228E+00 -7.07736E-01  4.19589E-01  5.96001E-01 -1.05376E-01
  -1.49523E+00 -3.33541E+00 -5.28932E+00 -6.95406E+00 -7.88842E+00 -7.84926E+00 -7.10250E+00 -6.05271E+00 -5.02321E+00 -4.22672E+00
  -3.80439E+00 -3.80589E+00 -4.17068E+00 -4.76265E+00 -5.42650E+00 -6.02187E+00 -6.39073E+00 -6.36672E+00 -5.98426E+00 -5.38933E+00
  -4.77944E+00 -4.29628E+00 -4.01373E+00 -3.94523E+00 -4.04794E+00 -4.27347E+00 -4.57668E+00 -4.90205E+00 -5.20221E+00 -5.39898E+00
  -5.50122E+00 -5.54004E+00 -5.59907E+00 -5.79518E+00 -6.21388E+00 -6.82733E+00 -7.51970E+00 -8.14692E+00 -8.58568E+00 -8.74791E+00
  -8.60229E+00 -8.16254E+00 -7.48013E+00 -6.71604E+00 -6.09683E+00 -5.76053E+00 -5.67325E+00 -5.49515E+00 -4.45308E+00 -2.46563E+00
  -4.24674E-02  2.26167E+00  3.94347E+00  4.71979E+00  4.52032E+00  3.36197E+00  1.40373E+00 -1.00938E+00 -3.36890E+00 -5.09222E+00
  -5.76179E+00 -5.86628E+00 -5.85416E+00 -5.79804E+00 -5.73311E+00 -5.68634E+00 -5.66959E+00 -5.67354E+00 -5.67839E+00 -5.64543E+00
  -5.49821E+00 -4.99161E+00 -3.77636E+00 -2.03808E+00 -1.62915E-01  1.46432E+00  2.55443E+00  3.00286E+00  2.91264E+00  2.40167E+00
   1.44668E+00  1.04664E-01 -1.42703E+00 -2.84835E+00 -3.92501E+00 -4.82248E+00 -5.50146E+00 -5.80572E+00 -5.69466E+00 -5.20237E+00
  -4.42569E+00 -3.58706E+00 -2.98512E+00 -2.73671E+00 -2.81600E+00 -3.14707E+00 -3.57434E+00 -3.97363E+00 -4.28497E+00 -4.51262E+00
  -4.73914E+00 -4.96324E+00 -5.15433E+00 -5.27954E+00 -5.31840E+00 -5.28797E+00 -5.21436E+00 -5.13276E+00 -5.06859E+00 -5.03967E+00
  -5.06073E+00 -5.14233E+00 -5.26091E+00 -5.36391E+00 -5.43229E+00 -5.47546E+00 -5.49073E+00 -5.47327E+00 -5.40961E+00 -5.29843E+00
  -5.17673E+00 -5.09108E+00 -5.05460E+00 -5.06199E+00 -5.09903E+00 -5.16125E+00 -5.25219E+00 -5.37285E+00 -5.49668E+00 -5.56712E+00
  -5.59540E+00 -5.60540E+00 -5.61284E+00 -5.60986E+00 -5.53982E+00 -5.32267E+00 -4.89521E+00 -4.25501E+00 -3.51076E+00 -2.83783E+00
  -2.38162E+00 -2.23456E+00 -2.51834E+00 -3.24724E+00 -4.19386E+00 -5.07517E+00 -5.65885E+00 -5.80361E+00 -5.51057E+00 -4.89934E+00
  -4.15601E+00 -3.44435E+00 -2.88087E+00 -2.55691E+00 -2.52015E+00 -2.68358E+00 -2.84025E+00 -2.91315E+00 -2.92249E+00 -2.89799E+00
  -2.86212E+00 -2.82114E+00 -2.77489E+00 -2.72175E+00 -2.65917E+00 -2.58594E+00 -2.50171E+00 -2.39320E+00 -2.25287E+00 -2.08263E+00
  -1.89217E+00 -1.69874E+00 -1.51225E+00 -1.33883E+00 -1.18697E+00 -1.07854E+00 -1.09702E+00 -1.29404E+00 -1.59358E+00 -1.86796E+00
  -1.97482E+00 -1.79911E+00 -1.27112E+00 -4.27305E-01  5.09392E-01  1.28133E+00  1.69912E+00  1.64643E+00  1.10597E+00  2.44420E-01
  -6.10083E-01 -1.15771E+00 -1.22268E+00 -7.69645E-01  1.04967E-01  1.17463E+00  2.14726E+00  2.86721E+00  3.29625E+00  3.46494E+00
   3.63626E+00  4.46898E+00  6.11481E+00  8.19250E+00  1.01699E+01  1.15774E+01  1.21495E+01  1.18369E+01  1.07010E+01  8.88479E+00
   6.68011E+00  4.49870E+00  2.82274E+00  2.00132E+00  1.65100E+00  1.40018E+00  1.17899E+00  9.83817E-01  8.18660E-01  6.88324E-01
   5.92399E-01  5.21600E-01  4.54904E-01  3.77839E-01  2.81680E-01  1.64378E-01  3.21077E-02 -1.02697E-01 -2.17743E-01 -2.93528E-01
  -3.27166E-01 -3.18986E-01 -2.76777E-01 -2.17834E-01 -1.59156E-01 -1.05078E-01 -5.39949E-02  4.42977E-03  8.06080E-02  1.83509E-01
   3.20308E-01  4.89480E-01  6.81999E-01  8.91602E-01  1.10631E+00  1.31756E+00  1.52241E+00  1.72036E+00  1.91566E+00  2.11687E+00
   2.32370E+00  2.53117E+00  2.73407E+00  2.92680E+00  3.10338E+00  3.25775E+00  3.38505E+00  3.48726E+00  3.56786E+00  3.62962E+00
   3.67614E+00  3.71150E+00  3.74036E+00  3.76803E+00  3.80041E+00  3.84393E+00  3.90543E+00  3.99239E+00  4.11358E+00  4.28080E+00
   4.51356E+00  4.85514E+00  5.38454E+00  6.00578E+00  6.48778E+00  6.69189E+00  6.56790E+00  6.14885E+00  5.51501E+00  4.75064E+00
   4.07642E+00  3.82616E+00  4.16079E+00  5.08845E+00  6.46439E+00  7.94180E+00  9.24723E+00  1.03133E+01  1.10947E+01  1.15662E+01
   1.17580E+01  1.17744E+01  1.18327E+01  1.20666E+01  1.23914E+01  1.27510E+01  1.31214E+01  1.34917E+01  1.38567E+01  1.42143E+01
   1.45718E+01  1.49368E+01  1.53087E+01  1.56802E+01  1.60376E+01  1.63582E+01  1.66230E+01  1.68250E+01  1.69600E+01  1.70269E+01
   1.70291E+01  1.69757E+01  1.68825E+01  1.67579E+01  1.66061E+01  1.64348E+01  1.62542E+01  1.60763E+01  1.59140E+01  1.57811E+01
   1.56915E+01  1.56590E+01  1.56964E+01  1.58154E+01  1.60253E+01  1.63331E+01  1.67421E+01  1.72521E+01  1.78582E+01  1.85510E+01
   1.93164E+01  2.01355E+01  2.09854E+01  2.18399E+01  2.26700E+01  2.34458E+01  2.41378E+01  2.47179E+01  2.51616E+01  2.54488E+01
   2.55651E+01  2.55025E+01  2.52598E+01  2.48428E+01  2.42631E+01  2.35380E+01  2.26889E+01  2.17404E+01  2.07182E+01  1.96482E+01
   1.85554E+01  1.74621E+01  1.63879E+01  1.53488E+01  1.43570E+01  1.34211E+01  1.25461E+01  1.17343E+01  1.09853E+01  1.02970E+01
   9.66578E+00  9.08745E+00  8.55736E+00  8.07084E+00  7.62352E+00  7.21141E+00  6.83106E+00  6.47950E+00  6.15426E+00  5.85330E+00
   5.57493E+00  5.31776E+00  5.08059E+00  4.86232E+00  4.66197E+00  4.47857E+00  4.31118E+00  4.15886E+00  4.02067E+00  3.89566E+00
   3.78288E+00  3.68140E+00  3.59033E+00  3.50880E+00  3.43598E+00  3.37111E+00  3.31344E+00  3.26231E+00  3.21710E+00  3.17727E+00
   3.14230E+00  3.11172E+00  3.08511E+00  3.06212E+00  3.04242E+00  3.02571E+00  3.01171E+00  3.00020E+00  2.99096E+00  2.98379E+00
   2.97854E+00  2.97505E+00  2.97318E+00  2.97279E+00  2.97379E+00  2.97608E+00  2.97956E+00  2.98416E+00  2.98978E+00  2.99637E+00
   3.00385E+00  3.01217E+00  3.02129E+00  3.03114E+00  3.04168E+00  3.05287E+00  3.06468E+00  3.07707E+00  3.09001E+00  3.10347E+00
   3.11741E+00  3.13180E+00  3.14664E+00  3.16190E+00  3.17756E+00  3.19358E+00  3.20996E+00  3.22668E+00  3.24372E+00  3.26108E+00
   3.27873E+00  3.29665E+00  3.31484E+00  3.33329E+00  3.35199E+00  3.37093E+00  3.39009E+00  3.40946E+00  3.42904E+00  3.44882E+00
   3.46881E+00  3.48898E+00  3.50932E+00  3.52984E+00  3.55052E+00  3.57138E+00  3.59240E+00  3.61357E+00
 NY background values follow
    -9.735E+00   -9.708E+00   -9.682E+00   -9.656E+00   -9.630E+00   -9.604E+00   -9.577E+00   -9.551E+00   -9.525E+00   -9.499E+00
    -9.472E+00   -9.446E+00   -9.420E+00   -9.394E+00   -9.367E+00   -9.341E+00   -9.315E+00   -9.289E+00   -9.263E+00   -9.236E+00
    -9.210E+00   -9.184E+00   -9.158E+00   -9.131E+00   -9.105E+00   -9.079E+00   -9.053E+00   -9.026E+00   -9.000E+00   -8.974E+00
    -8.948E+00   -8.922E+00   -8.895E+00   -8.869E+00   -8.843E+00   -8.817E+00   -8.790E+00   -8.764E+00   -8.738E+00   -8.712E+00
    -8.686E+00   -8.659E+00   -8.633E+00   -8.607E+00   -8.581E+00   -8.554E+00   -8.528E+00   -8.502E+00   -8.476E+00   -8.449E+00
    -8.423E+00   -8.397E+00   -8.371E+00   -8.345E+00   -8.318E+00   -8.292E+00   -8.266E+00   -8.240E+00   -8.213E+00   -8.187E+00
    -8.161E+00   -8.135E+00   -8.108E+00   -8.082E+00   -8.056E+00   -8.030E+00   -8.004E+00   -7.977E+00   -7.951E+00   -7.925E+00
    -7.899E+00   -7.872E+00   -7.846E+00   -7.820E+00   -7.794E+00   -7.767E+00   -7.741E+00   -7.715E+00   -7.689E+00   -7.663E+00
    -7.636E+00   -7.610E+00   -7.584E+00   -7.558E+00   -7.531E+00   -7.505E+00   -7.479E+00   -7.453E+00   -7.427E+00   -7.400E+00
    -7.374E+00   -7.348E+00   -7.322E+00   -7.295E+00   -7.269E+00   -7.243E+00   -7.217E+00   -7.190E+00   -7.164E+00   -7.138E+00
    -7.112E+00   -7.086E+00   -7.059E+00   -7.033E+00   -7.007E+00   -6.981E+00   -6.954E+00   -6.928E+00   -6.902E+00   -6.876E+00
    -6.849E+00   -6.823E+00   -6.797E+00   -6.771E+00   -6.745E+00   -6.718E+00   -6.692E+00   -6.666E+00   -6.640E+00   -6.613E+00
    -6.587E+00   -6.561E+00   -6.535E+00   -6.508E+00   -6.482E+00   -6.456E+00   -6.430E+00   -6.404E+00   -6.377E+00   -6.351E+00
    -6.325E+00   -6.299E+00   -6.272E+00   -6.246E+00   -6.220E+00   -6.194E+00   -6.167E+00   -6.141E+00   -6.115E+00   -6.089E+00
    -6.063E+00   -6.036E+00   -6.010E+00   -5.984E+00   -5.958E+00   -5.931E+00   -5.905E+00   -5.879E+00   -5.853E+00   -5.826E+00
    -5.800E+00   -5.774E+00   -5.748E+00   -5.722E+00   -5.695E+00   -5.669E+00   -5.643E+00   -5.617E+00   -5.590E+00   -5.564E+00
    -5.538E+00   -5.512E+00   -5.485E+00   -5.459E+00   -5.433E+00   -5.407E+00   -5.381E+00   -5.354E+00   -5.328E+00   -5.302E+00
    -5.276E+00   -5.249E+00   -5.223E+00   -5.197E+00   -5.171E+00   -5.144E+00   -5.118E+00   -5.092E+00   -5.066E+00   -5.040E+00
    -5.013E+00   -4.987E+00   -4.961E+00   -4.935E+00   -4.908E+00   -4.882E+00   -4.856E+00   -4.830E+00   -4.803E+00   -4.777E+00
    -4.751E+00   -4.725E+00   -4.699E+00   -4.672E+00   -4.646E+00   -4.620E+00   -4.594E+00   -4.567E+00   -4.541E+00   -4.515E+00
    -4.489E+00   -4.462E+00   -4.436E+00   -4.410E+00   -4.384E+00   -4.358E+00   -4.331E+00   -4.305E+00   -4.279E+00   -4.253E+00
    -4.226E+00   -4.200E+00   -4.174E+00   -4.148E+00   -4.121E+00   -4.095E+00   -4.069E+00   -4.043E+00   -4.016E+00   -3.990E+00
    -3.964E+00   -3.938E+00   -3.912E+00   -3.885E+00   -3.859E+00   -3.833E+00   -3.807E+00   -3.780E+00   -3.754E+00   -3.728E+00
    -3.702E+00   -3.675E+00   -3.649E+00   -3.623E+00   -3.597E+00   -3.571E+00   -3.544E+00   -3.518E+00   -3.492E+00   -3.466E+00
    -3.439E+00   -3.413E+00   -3.387E+00   -3.361E+00   -3.334E+00   -3.308E+00   -3.282E+00   -3.256E+00   -3.229E+00   -3.203E+00
    -3.177E+00   -3.151E+00   -3.125E+00   -3.098E+00   -3.072E+00   -3.046E+00   -3.020E+00   -2.993E+00   -2.967E+00   -2.941E+00
    -2.915E+00   -2.888E+00   -2.862E+00   -2.836E+00   -2.810E+00   -2.783E+00   -2.757E+00   -2.731E+00   -2.705E+00   -2.679E+00
    -2.652E+00   -2.626E+00   -2.600E+00   -2.574E+00   -2.547E+00   -2.521E+00   -2.495E+00   -2.469E+00   -2.442E+00   -2.416E+00
    -2.390E+00   -2.364E+00   -2.337E+00   -2.311E+00   -2.285E+00   -2.259E+00   -2.233E+00   -2.206E+00   -2.180E+00   -2.154E+00
    -2.128E+00   -2.101E+00   -2.075E+00   -2.049E+00   -2.023E+00   -1.996E+00   -1.970E+00   -1.944E+00   -1.918E+00   -1.891E+00
    -1.865E+00   -1.839E+00   -1.813E+00   -1.787E+00   -1.760E+00   -1.734E+00   -1.708E+00   -1.682E+00   -1.655E+00   -1.629E+00
    -1.603E+00   -1.577E+00   -1.550E+00   -1.524E+00   -1.498E+00   -1.472E+00   -1.445E+00   -1.419E+00   -1.393E+00   -1.367E+00
    -1.341E+00   -1.314E+00   -1.288E+00   -1.262E+00   -1.236E+00   -1.209E+00   -1.183E+00   -1.157E+00   -1.131E+00   -1.104E+00
    -1.078E+00   -1.052E+00   -1.026E+00   -9.994E-01   -9.732E-01   -9.470E-01   -9.207E-01   -8.945E-01   -8.683E-01   -8.420E-01
    -8.158E-01   -7.896E-01   -7.633E-01   -7.371E-01   -7.108E-01   -6.846E-01   -6.584E-01   -6.321E-01   -6.059E-01   -5.797E-01
    -5.534E-01   -5.272E-01   -5.009E-01   -4.747E-01   -4.485E-01   -4.222E-01   -3.960E-01   -3.698E-01   -3.435E-01   -3.173E-01
    -2.911E-01   -2.648E-01   -2.386E-01   -2.123E-01   -1.861E-01   -1.599E-01   -1.336E-01   -1.074E-01   -8.116E-02   -5.492E-02
    -2.869E-02   -2.449E-03    2.379E-02    5.002E-02    7.626E-02    1.025E-01    1.287E-01    1.550E-01    1.812E-01    2.074E-01
     2.337E-01    2.599E-01    2.862E-01    3.124E-01    3.386E-01    3.649E-01    3.911E-01    4.173E-01    4.436E-01    4.698E-01
     4.961E-01    5.223E-01    5.485E-01    5.748E-01    6.010E-01    6.272E-01    6.535E-01    6.797E-01    7.059E-01    7.322E-01
     7.584E-01    7.847E-01    8.109E-01    8.371E-01    8.634E-01    8.896E-01    9.158E-01    9.421E-01    9.683E-01    9.946E-01
     1.021E+00    1.047E+00    1.073E+00    1.100E+00    1.126E+00    1.152E+00    1.178E+00    1.204E+00    1.231E+00    1.257E+00
     1.283E+00    1.309E+00    1.336E+00    1.362E+00    1.388E+00    1.414E+00    1.441E+00    1.467E+00    1.493E+00    1.519E+00
     1.546E+00    1.572E+00    1.598E+00    1.624E+00    1.650E+00    1.677E+00    1.703E+00    1.729E+00    1.755E+00    1.782E+00
     1.808E+00    1.834E+00    1.860E+00    1.887E+00    1.913E+00    1.939E+00    1.965E+00    1.992E+00    2.018E+00    2.044E+00
     2.070E+00    2.097E+00    2.123E+00    2.149E+00    2.175E+00    2.201E+00    2.228E+00    2.254E+00    2.280E+00    2.306E+00
     2.333E+00    2.359E+00    2.385E+00    2.411E+00    2.438E+00    2.464E+00    2.490E+00    2.516E+00    2.543E+00    2.569E+00
     2.595E+00    2.621E+00    2.647E+00    2.674E+00    2.700E+00    2.726E+00    2.752E+00    2.779E+00    2.805E+00    2.831E+00
     2.857E+00    2.884E+00    2.910E+00    2.936E+00    2.962E+00    2.989E+00    3.015E+00    3.041E+00    3.067E+00    3.094E+00
     3.120E+00    3.146E+00    3.172E+00    3.198E+00    3.225E+00    3.251E+00    3.277E+00    3.303E+00
 Ala      Conc. = 1.93E+02
