 LCModel (Version 6.3-1L) Copyright: S.W. Provencher.          Ref.: Magn. Reson. Med. 30:672-679 (1993).                
 Slice#1 Row#7 Col#2  PD_05_press_2_raw_act
 36 lines in following concentration table = NCONC+1
    Conc.  %SD /Cr+PCr  Metabolite                                         
 1.06E+03  30%   0.399 Ala                                                 
    0.000 999%   0.000 Asp                                                 
 1.46E+03  31%   0.551 Cr                                                  
 1.19E+03  39%   0.449 PCr                                                 
  116.348 293% 4.4E-02 GABA                                                
    0.000 999%   0.000 Glc                                                 
 2.75E+03  23%   1.040 Gln                                                 
 3.16E+03  23%   1.195 Glu                                                 
  867.718   5%   0.328 GPC                                                 
    0.000 999%   0.000 PCh                                                 
 1.34E+03  13%   0.505 GSH                                                 
 4.20E+03  13%   1.587 Ins                                                 
    0.000 999%   0.000 Lac                                                 
 5.54E+03   3%   2.092 NAA                                                 
    0.000 999%   0.000 NAAG                                                
  183.938  31% 6.9E-02 Scyllo                                              
    0.000 999%   0.000 Tau                                                 
    0.000 999%   0.000 -CrCH2                                              
  867.718   5%   0.328 GPC+PCh                                             
 5.54E+03   3%   2.092 NAA+NAAG                                            
 2.65E+03   5%   1.000 Cr+PCr                                              
 5.92E+03  19%   2.235 Glu+Gln                                             
   53.871 675% 2.0E-02 Lip13a                                              
    0.000 999%   0.000 Lip13b                                              
    0.000 999%   0.000 Lip09                                               
 2.99E+03  12%   1.130 MM09                                                
   20.422 494% 7.7E-03 Lip20                                               
 8.21E+03   9%   3.102 MM20                                                
  944.373  30%   0.357 MM12                                                
 5.86E+03  14%   2.215 MM14                                                
 2.70E+03  25%   1.019 MM17                                                
   53.871 675% 2.0E-02 Lip13a+Lip13b                                       
 6.86E+03  12%   2.592 MM14+Lip13a+Lip13b+MM12                             
 2.99E+03  12%   1.130 MM09+Lip09                                          
 8.23E+03   9%   3.110 MM20+Lip20                                          
   6 lines in following misc. output table
  FWHM = 0.061 ppm    S/N =  12                                            
  Data shift = 0.023 ppm                                                   
  Ph: -11 deg      -1.4 deg/ppm                                            
  alphaB,S = 8.5E+01,   1.2E+02                                            
   14 spline knots.   Ns = 8(1)                                            
   4 inflections.     1 extrema                                            
  498 points on ppm-axis = NY
      4.000000     3.992357     3.984714     3.977070     3.969427     3.961784     3.954141     3.946497     3.938854     3.931211
      3.923568     3.915925     3.908281     3.900638     3.892995     3.885352     3.877708     3.870065     3.862422     3.854779
      3.847136     3.839492     3.831849     3.824206     3.816563     3.808919     3.801276     3.793633     3.785990     3.778347
      3.770703     3.763060     3.755417     3.747774     3.740130     3.732487     3.724844     3.717201     3.709558     3.701914
      3.694271     3.686628     3.678985     3.671341     3.663698     3.656055     3.648412     3.640769     3.633125     3.625482
      3.617839     3.610196     3.602552     3.594909     3.587266     3.579623     3.571980     3.564336     3.556693     3.549050
      3.541407     3.533763     3.526120     3.518477     3.510834     3.503191     3.495547     3.487904     3.480261     3.472618
      3.464974     3.457331     3.449688     3.442045     3.434402     3.426758     3.419115     3.411472     3.403829     3.396185
      3.388542     3.380899     3.373256     3.365613     3.357969     3.350326     3.342683     3.335040     3.327396     3.319753
      3.312110     3.304467     3.296824     3.289180     3.281537     3.273894     3.266251     3.258607     3.250964     3.243321
      3.235678     3.228034     3.220391     3.212748     3.205105     3.197462     3.189818     3.182175     3.174532     3.166889
      3.159245     3.151602     3.143959     3.136316     3.128673     3.121029     3.113386     3.105743     3.098100     3.090456
      3.082813     3.075170     3.067527     3.059884     3.052240     3.044597     3.036954     3.029311     3.021667     3.014024
      3.006381     2.998738     2.991095     2.983451     2.975808     2.968165     2.960522     2.952878     2.945235     2.937592
      2.929949     2.922306     2.914662     2.907019     2.899376     2.891733     2.884089     2.876446     2.868803     2.861160
      2.853517     2.845873     2.838230     2.830587     2.822944     2.815300     2.807657     2.800014     2.792371     2.784728
      2.777084     2.769441     2.761798     2.754155     2.746511     2.738868     2.731225     2.723582     2.715939     2.708295
      2.700652     2.693009     2.685366     2.677722     2.670079     2.662436     2.654793     2.647150     2.639506     2.631863
      2.624220     2.616577     2.608933     2.601290     2.593647     2.586004     2.578361     2.570717     2.563074     2.555431
      2.547788     2.540144     2.532501     2.524858     2.517215     2.509572     2.501928     2.494285     2.486642     2.478999
      2.471355     2.463712     2.456069     2.448426     2.440783     2.433139     2.425496     2.417853     2.410210     2.402566
      2.394923     2.387280     2.379637     2.371994     2.364350     2.356707     2.349064     2.341421     2.333777     2.326134
      2.318491     2.310848     2.303205     2.295561     2.287918     2.280275     2.272632     2.264988     2.257345     2.249702
      2.242059     2.234416     2.226772     2.219129     2.211486     2.203843     2.196199     2.188556     2.180913     2.173270
      2.165627     2.157983     2.150340     2.142697     2.135054     2.127410     2.119767     2.112124     2.104481     2.096838
      2.089194     2.081551     2.073908     2.066265     2.058621     2.050978     2.043335     2.035692     2.028049     2.020405
      2.012762     2.005119     1.997476     1.989833     1.982190     1.974546     1.966903     1.959260     1.951617     1.943974
      1.936331     1.928688     1.921045     1.913402     1.905759     1.898115     1.890472     1.882829     1.875186     1.867543
      1.859900     1.852257     1.844614     1.836971     1.829327     1.821684     1.814041     1.806398     1.798755     1.791112
      1.783469     1.775826     1.768183     1.760540     1.752896     1.745253     1.737610     1.729967     1.722324     1.714681
      1.707038     1.699395     1.691752     1.684108     1.676465     1.668822     1.661179     1.653536     1.645893     1.638250
      1.630607     1.622964     1.615321     1.607677     1.600034     1.592391     1.584748     1.577105     1.569462     1.561819
      1.554176     1.546533     1.538890     1.531246     1.523603     1.515960     1.508317     1.500674     1.493031     1.485388
      1.477745     1.470102     1.462458     1.454815     1.447172     1.439529     1.431886     1.424243     1.416600     1.408957
      1.401314     1.393671     1.386027     1.378384     1.370741     1.363098     1.355455     1.347812     1.340169     1.332526
      1.324883     1.317240     1.309596     1.301953     1.294310     1.286667     1.279024     1.271381     1.263738     1.256095
      1.248452     1.240808     1.233165     1.225522     1.217879     1.210236     1.202593     1.194950     1.187307     1.179664
      1.172021     1.164377     1.156734     1.149091     1.141448     1.133805     1.126162     1.118519     1.110876     1.103233
      1.095590     1.087946     1.080303     1.072660     1.065017     1.057374     1.049731     1.042088     1.034445     1.026802
      1.019158     1.011515     1.003872     0.996229     0.988586     0.980943     0.973300     0.965657     0.958014     0.950371
      0.942727     0.935084     0.927441     0.919798     0.912155     0.904512     0.896869     0.889226     0.881583     0.873940
      0.866296     0.858653     0.851010     0.843367     0.835724     0.828081     0.820438     0.812795     0.805152     0.797508
      0.789865     0.782222     0.774579     0.766936     0.759293     0.751650     0.744007     0.736364     0.728721     0.721077
      0.713434     0.705791     0.698148     0.690505     0.682862     0.675219     0.667576     0.659933     0.652290     0.644646
      0.637003     0.629360     0.621717     0.614074     0.606431     0.598788     0.591145     0.583502     0.575858     0.568215
      0.560572     0.552929     0.545286     0.537643     0.530000     0.522357     0.514714     0.507071     0.499427     0.491784
      0.484141     0.476498     0.468855     0.461212     0.453569     0.445925     0.438282     0.430639     0.422996     0.415353
      0.407710     0.400067     0.392424     0.384780     0.377137     0.369494     0.361851     0.354208     0.346565     0.338922
      0.331278     0.323635     0.315992     0.308349     0.300706     0.293063     0.285420     0.277777     0.270133     0.262490
      0.254847     0.247204     0.239561     0.231918     0.224275     0.216631     0.208988     0.201345
 NY phased data points follow
   1.71098E+01  2.96669E+01  1.43061E+01  3.11941E+01  3.10625E+01  4.24107E+01  4.02151E+01  4.79264E+01  5.56953E+01  6.64990E+01
   5.58370E+01  5.94811E+01  5.96020E+01  5.68753E+01  4.97297E+01  5.35919E+01  3.37570E+01  3.82980E+01  3.00708E+01  3.40315E+01
   2.37952E+01  2.67149E+01  3.37254E+01  3.42682E+01  3.00176E+01  2.91543E+01  2.55925E+01  3.60070E+01  3.72369E+01  3.91041E+01
   3.36692E+01  4.11996E+01  3.07489E+01  4.07149E+01  2.61683E+01  2.97316E+01  2.51832E+01  2.97270E+01  2.73473E+01  3.38661E+01
   2.83023E+01  3.87412E+01  3.74109E+01  4.59809E+01  3.83246E+01  3.43109E+01  3.37663E+01  3.82785E+01  3.05658E+01  3.22704E+01
   3.10074E+01  2.68511E+01  2.45723E+01  2.91530E+01  2.81727E+01  2.90294E+01  2.66018E+01  2.17338E+01  3.24706E+01  2.25018E+01
   1.87258E+01  2.76144E+01  1.16892E+01  7.61694E+00  1.06675E+01  1.38007E+01  1.30020E+01  1.21427E+01  1.40796E+01  1.50051E+01
   7.43337E+00  9.18315E+00  1.30890E+01  1.80230E+01  1.51965E+01  1.95027E+01  1.22821E+01  1.61105E+01  1.71339E+01  3.65813E+00
   1.07117E+01  1.48100E+01  9.85886E+00  1.26189E+01  1.43610E+01  1.08442E+01  1.39437E+01  1.54683E+01  8.46239E+00  1.03790E+01
   4.89430E+00  2.24645E+01  1.94155E+01  1.79709E+01  1.38300E+01  1.83778E+01  2.08999E+01  2.43936E+01  2.98344E+01  4.40956E+01
   5.22736E+01  6.82610E+01  7.91297E+01  6.79500E+01  6.64758E+01  6.77515E+01  4.76908E+01  4.02057E+01  3.49018E+01  3.86835E+01
   2.28660E+01  1.82814E+01  2.05791E+01  1.51838E+01  1.39970E+01  1.81003E+01  3.43516E+00  9.21721E+00  1.14416E+01  1.41698E+01
   1.86550E+01  3.19531E+01  3.26739E+01  4.22828E+01  6.13737E+01  7.16902E+01  8.50092E+01  8.50959E+01  8.79306E+01  8.23037E+01
   6.48088E+01  5.33127E+01  4.91445E+01  4.22336E+01  3.54060E+01  2.99681E+01  3.39831E+01  3.23251E+01  2.37407E+01  2.48470E+01
   3.17994E+01  2.13829E+01  1.28912E+01  1.65524E+01  1.16078E+01  7.53132E+00  9.77843E+00  1.33220E+01  9.78625E+00  2.07922E+01
   1.44208E+01  1.07037E+01  9.24899E+00  7.21112E+00  6.32829E+00  1.41828E+01  1.17797E+01  8.46449E+00  6.68935E+00  4.88299E+00
  -2.33360E+00  1.87428E+00  5.07581E+00  1.13164E+01  7.22548E+00  3.90361E+00  5.04071E+00 -8.75058E+00  3.37561E+00 -1.58639E+00
  -1.16708E+01 -1.00115E+01 -2.23455E+01 -1.69542E+01 -1.24983E+01 -2.54146E+01 -2.23026E+01 -2.52516E+01 -2.44244E+01 -1.67285E+01
  -2.11604E+01 -1.79841E+01 -2.10987E+01 -1.23613E+01 -8.33630E+00 -8.17621E-03 -1.02211E+00 -7.29399E+00  4.84723E+00 -8.94167E-01
   9.58745E+00  1.25503E+01  3.83408E+00 -2.86278E-01 -8.88668E+00  9.56217E-01 -6.99368E+00 -1.69561E+01  8.30785E-01  9.45485E-01
  -3.25055E+00  4.30358E+00  5.36270E+00  6.76725E+00  1.10651E+01  5.47220E+00  1.36147E+01  6.86886E+00  2.54583E+00  7.01230E+00
   3.45264E+00  1.38935E+01  7.44103E+00  2.34013E+01  1.80402E+01  2.84625E+01  2.69434E+01  3.44462E+01  2.21866E+01  2.13794E+01
   1.01833E+01 -4.57279E-01  1.38498E+01  1.76180E+01  1.40584E+01  3.37596E+01  2.30093E+01  1.05973E+01  2.56313E+01  3.11585E+01
   1.89489E+01  2.83196E+01  2.71487E+01  3.26983E+01  2.57651E+01  2.56008E+01  3.01941E+01  3.77526E+01  3.03237E+01  2.40669E+01
   1.84925E+01  2.56678E+01  3.04966E+01  1.56071E+01  2.65620E+01  2.75533E+01  3.66130E+01  3.75998E+01  4.11387E+01  3.77895E+01
   2.99393E+01  4.37747E+01  4.88843E+01  5.46507E+01  6.35378E+01  9.40846E+01  1.07149E+02  1.33926E+02  1.62005E+02  1.82958E+02
   1.90921E+02  1.82497E+02  1.61084E+02  1.32233E+02  1.16589E+02  9.03437E+01  6.37780E+01  6.32204E+01  3.96925E+01  3.42980E+01
   2.96941E+01  1.92942E+01  1.98044E+01  2.20591E+01  2.27677E+01  2.33654E+01  1.97873E+01  2.14462E+01  1.70102E+01  5.47272E+00
   1.01974E+01  1.06425E+01  1.71924E+01  6.01769E+00  6.15898E+00  1.25451E+01  7.86605E+00  1.47824E+01  5.03026E+00  2.26332E+01
   1.64881E+01  1.16797E+01  1.21598E+01  1.92624E+01  4.20417E+00  1.11418E+01  9.53684E+00  7.12672E+00  1.52361E+01  2.11436E+01
   2.02691E+01  1.85597E+01  1.51444E+01  3.62260E+01  2.33033E+01  3.11278E+01  3.28912E+01  2.28271E+01  3.07534E+01  3.17531E+01
   2.59982E+01  3.19251E+01  3.94003E+01  3.79446E+01  3.95728E+01  4.85533E+01  4.30852E+01  5.43756E+01  5.69269E+01  5.26330E+01
   5.55723E+01  5.61433E+01  6.34461E+01  5.31150E+01  5.39250E+01  5.47204E+01  5.00161E+01  5.09543E+01  4.53261E+01  2.70233E+01
   4.22858E+01  2.82124E+01  2.80833E+01  2.27240E+01  1.92266E+01  2.47620E+01  3.22330E+01  2.48068E+01  2.32276E+01  1.30663E+01
   9.96454E+00  1.13240E+01  1.31618E+01  1.00674E+01  1.49286E+01  1.07998E+01  1.25370E+01  1.56893E+01  2.28911E+00  9.10195E+00
   1.18973E+01  6.93598E+00 -3.80919E-01  6.60889E+00  1.23329E+01  1.03222E+01  2.54175E+00  1.05771E+01  2.42709E+00 -5.92588E+00
   3.20334E+00  6.77048E-01  7.81437E+00  7.59920E+00  1.00616E+01 -2.40203E+00  4.57310E+00  1.11763E+01  1.18061E+01  3.86570E+00
   5.96271E+00  1.02465E+01  1.35314E+01  8.10000E+00  1.32570E+01  1.64265E+01  4.90023E+00 -2.87964E+00  1.10686E+01  4.41719E-02
   4.66531E+00  5.08134E+00  1.15575E+01  8.91860E+00  4.86951E+00  7.07813E+00  7.00573E+00  1.22609E+01  5.62645E+00  1.28023E+01
   1.73147E+00  1.44314E+01  1.41480E+01  1.32989E+01  1.78741E+01  8.47855E+00  1.23326E+01  1.25033E+01  1.03961E+01  1.21012E+01
   1.34509E+01  1.40192E+01  2.63742E+01  7.09397E+00  7.28217E+00  2.02040E+01  1.20757E+01  1.80072E+01  1.37633E+01  1.08921E+01
   6.00733E+00  1.39044E+01  1.19757E+01  3.18952E+00  5.13717E+00  1.44866E+01  1.61106E+01  9.14539E+00  3.03173E+00  8.23859E+00
   2.69616E+00  1.02335E+01  6.81390E+00  3.84503E+00 -6.47125E+00  8.71664E+00  6.35390E+00 -5.27981E+00  2.28268E-01 -3.01417E+00
   7.23363E+00  4.51471E+00  4.98934E+00 -1.46478E+00 -4.08509E+00  4.03398E+00  2.91909E-01  2.96069E+00 -3.07872E+00 -1.74893E+00
  -4.46472E+00  8.85772E+00 -2.85092E+00  1.43311E+00 -7.46479E+00  4.03664E-01 -3.30452E+00  5.41835E+00 -6.32468E+00 -6.95546E+00
  -6.92581E+00 -1.93103E-01 -8.94423E+00  9.49870E+00 -4.33696E-02 -9.17565E-01 -7.54545E+00  7.86266E+00 -1.18490E+01 -3.22766E+00
   4.25845E+00 -1.66563E-01 -5.15436E+00  2.50154E-02 -3.47463E+00  2.58067E+00 -1.19768E+00  3.89666E-01 -2.48682E+00 -6.20372E+00
  -1.05197E+00 -5.35526E-02  1.83148E+00 -9.09752E+00 -5.61643E+00  5.64986E+00  3.00578E-01  2.04802E+00  1.46347E+00 -1.02058E+01
  -3.36084E+00 -2.50460E-01 -8.90012E+00 -1.72220E+00 -6.55938E+00 -6.18896E+00 -9.44530E-01 -7.76524E-01  2.64545E+00  6.08277E-01
  -4.33442E+00  4.43871E+00 -3.58389E+00 -4.79382E+00 -2.55779E+00 -9.70855E+00  1.46842E+00 -2.74679E+00
 NY points of the fit to the data follow
   1.92981E+01  1.91408E+01  2.05513E+01  2.30198E+01  2.70201E+01  3.28858E+01  3.98374E+01  4.70640E+01  5.36692E+01  5.88009E+01
   6.16881E+01  6.18948E+01  5.94834E+01  5.50144E+01  4.95444E+01  4.41023E+01  3.91480E+01  3.47926E+01  3.10381E+01  2.82709E+01
   2.59179E+01  2.38456E+01  2.32751E+01  2.39986E+01  2.54547E+01  2.77595E+01  3.11832E+01  3.55553E+01  3.99761E+01  4.34102E+01
   4.49896E+01  4.45367E+01  4.24161E+01  3.89001E+01  3.45681E+01  3.04273E+01  2.67365E+01  2.34458E+01  2.11004E+01  2.10159E+01
   2.31781E+01  2.60335E+01  2.95096E+01  3.35096E+01  3.74257E+01  4.02347E+01  4.08677E+01  3.90495E+01  3.50897E+01  3.01427E+01
   2.57273E+01  2.26004E+01  2.09147E+01  2.04446E+01  2.03326E+01  1.99854E+01  1.99465E+01  2.07377E+01  2.16606E+01  2.17581E+01
   2.08985E+01  1.94185E+01  1.77894E+01  1.65749E+01  1.60520E+01  1.62568E+01  1.69022E+01  1.75508E+01  1.80920E+01  1.85590E+01
   1.88451E+01  1.89294E+01  1.87191E+01  1.82650E+01  1.76705E+01  1.70019E+01  1.63726E+01  1.58372E+01  1.54272E+01  1.51267E+01
   1.46745E+01  1.42856E+01  1.39834E+01  1.36974E+01  1.33272E+01  1.27897E+01  1.20681E+01  1.13203E+01  1.07830E+01  1.05712E+01
   1.06844E+01  1.09750E+01  1.12532E+01  1.13694E+01  1.17025E+01  1.41459E+01  1.89463E+01  2.55864E+01  3.40146E+01  4.44440E+01
   5.62463E+01  6.72557E+01  7.44364E+01  7.55550E+01  7.05219E+01  6.15429E+01  5.15675E+01  4.25955E+01  3.56141E+01  3.06378E+01
   2.63571E+01  2.12326E+01  1.53856E+01  1.19846E+01  1.11867E+01  1.10616E+01  1.11715E+01  1.15215E+01  1.24907E+01  1.53064E+01
   2.07948E+01  2.84615E+01  3.77920E+01  4.88644E+01  6.14045E+01  7.40448E+01  8.40866E+01  8.87989E+01  8.70782E+01  7.99072E+01
   6.96971E+01  5.89142E+01  4.90259E+01  4.07238E+01  3.37070E+01  2.70855E+01  2.06408E+01  1.60826E+01  1.46999E+01  1.51758E+01
   1.56737E+01  1.55920E+01  1.50205E+01  1.43958E+01  1.38343E+01  1.32428E+01  1.26221E+01  1.18939E+01  1.09859E+01  1.00393E+01
   9.10241E+00  8.40646E+00  7.93323E+00  7.48486E+00  6.99573E+00  6.49282E+00  5.94562E+00  5.38624E+00  4.76274E+00  4.07779E+00
   3.53807E+00  3.34778E+00  3.51809E+00  3.78851E+00  3.78745E+00  3.30715E+00  2.38970E+00  1.20614E+00 -3.77756E-02 -1.15611E+00
  -1.93031E+00 -2.65381E+00 -3.58077E+00 -4.71477E+00 -5.80197E+00 -6.28885E+00 -6.18105E+00 -5.86931E+00 -5.64480E+00 -5.75390E+00
  -6.07363E+00 -6.20036E+00 -5.93438E+00 -5.16011E+00 -3.80782E+00 -1.89968E+00  3.87721E-01  2.82017E+00  5.26728E+00  7.27092E+00
   8.33537E+00  8.14367E+00  6.88412E+00  5.36112E+00  4.27935E+00  4.11782E+00  5.14368E+00  7.11286E+00  9.69353E+00  1.26919E+01
   1.56143E+01  1.79033E+01  1.87491E+01  1.80252E+01  1.57856E+01  1.20857E+01  7.34515E+00  2.61995E+00 -6.86213E-01 -1.65499E+00
  -3.17139E-01  3.04262E+00  7.65700E+00  1.24524E+01  1.63736E+01  1.84658E+01  1.83806E+01  1.66059E+01  1.38146E+01  1.07172E+01
   7.63816E+00  5.85248E+00  6.23490E+00  8.12012E+00  1.06013E+01  1.31358E+01  1.55213E+01  1.74587E+01  1.84000E+01  1.89385E+01
   1.97201E+01  2.10392E+01  2.26176E+01  2.40080E+01  2.52055E+01  2.62537E+01  2.70848E+01  2.76351E+01  2.78221E+01  2.75936E+01
   2.70488E+01  2.62939E+01  2.57767E+01  2.60990E+01  2.73417E+01  2.90566E+01  3.06951E+01  3.24151E+01  3.40990E+01  3.56038E+01
   3.72553E+01  3.98289E+01  4.62109E+01  5.85487E+01  7.37476E+01  9.16437E+01  1.12900E+02  1.37331E+02  1.61892E+02  1.80611E+02
   1.87365E+02  1.79662E+02  1.60332E+02  1.35724E+02  1.11710E+02  9.15675E+01  7.64357E+01  6.46579E+01  5.23444E+01  3.75831E+01
   2.50622E+01  2.04183E+01  1.86709E+01  1.75672E+01  1.67390E+01  1.60304E+01  1.52412E+01  1.44101E+01  1.35900E+01  1.28183E+01
   1.21326E+01  1.15565E+01  1.10605E+01  1.06346E+01  1.03100E+01  1.00968E+01  9.98167E+00  9.95905E+00  1.00304E+01  1.02025E+01
   1.04779E+01  1.08394E+01  1.12916E+01  1.18412E+01  1.24863E+01  1.32282E+01  1.40698E+01  1.50080E+01  1.60352E+01  1.71439E+01
   1.83301E+01  1.95876E+01  2.09099E+01  2.22938E+01  2.37352E+01  2.52317E+01  2.67838E+01  2.83934E+01  3.00634E+01  3.17957E+01
   3.35904E+01  3.54444E+01  3.73512E+01  3.93011E+01  4.12813E+01  4.32748E+01  4.52661E+01  4.72505E+01  4.92627E+01  5.14305E+01
   5.36030E+01  5.53032E+01  5.64584E+01  5.69711E+01  5.65952E+01  5.49070E+01  5.15115E+01  4.65925E+01  4.11120E+01  3.58090E+01
   3.13392E+01  2.81186E+01  2.63225E+01  2.58388E+01  2.60869E+01  2.62366E+01  2.57759E+01  2.48365E+01  2.35421E+01  2.16124E+01
   1.94069E+01  1.73484E+01  1.56305E+01  1.40540E+01  1.22325E+01  1.02142E+01  8.71854E+00  7.68725E+00  6.93990E+00  6.39603E+00
   6.00920E+00  5.74679E+00  5.58357E+00  5.49899E+00  5.47576E+00  5.49911E+00  5.55646E+00  5.63709E+00  5.73183E+00  5.83283E+00
   5.93330E+00  6.02760E+00  6.11129E+00  6.18112E+00  6.23494E+00  6.27152E+00  6.29061E+00  6.29299E+00  6.28053E+00  6.25605E+00
   6.22311E+00  6.18584E+00  6.14884E+00  6.11724E+00  6.09656E+00  6.09248E+00  6.11061E+00  6.15635E+00  6.23490E+00  6.35123E+00
   6.51000E+00  6.71529E+00  6.97041E+00  7.27788E+00  7.63941E+00  8.05575E+00  8.52653E+00  9.04999E+00  9.62277E+00  1.02399E+01
   1.08948E+01  1.15792E+01  1.22832E+01  1.29951E+01  1.37016E+01  1.43885E+01  1.50407E+01  1.56430E+01  1.61804E+01  1.66383E+01
   1.70038E+01  1.72658E+01  1.74155E+01  1.74473E+01  1.73581E+01  1.71483E+01  1.68212E+01  1.63834E+01  1.58442E+01  1.52149E+01
   1.45087E+01  1.37398E+01  1.29231E+01  1.20736E+01  1.12057E+01  1.03329E+01  9.46737E+00  8.61951E+00  7.79825E+00  7.01075E+00
   6.26241E+00  5.55687E+00  4.89624E+00  4.28138E+00  3.71211E+00  3.18739E+00  2.70544E+00  2.26388E+00  1.86004E+00  1.49112E+00
   1.15434E+00  8.46930E-01  5.66113E-01  3.09221E-01  7.37973E-02 -1.42340E-01 -3.41143E-01 -5.24421E-01 -6.93871E-01 -8.51025E-01
  -9.97190E-01 -1.13346E+00 -1.26079E+00 -1.38011E+00 -1.49228E+00 -1.59807E+00 -1.69807E+00 -1.79277E+00 -1.88263E+00 -1.96812E+00
  -2.04971E+00 -2.12773E+00 -2.20247E+00 -2.27411E+00 -2.34291E+00 -2.40916E+00 -2.47312E+00 -2.53494E+00 -2.59472E+00 -2.65258E+00
  -2.70869E+00 -2.76322E+00 -2.81631E+00 -2.86801E+00 -2.91835E+00 -2.96742E+00 -3.01536E+00 -3.06228E+00 -3.10825E+00 -3.15326E+00
  -3.19731E+00 -3.24049E+00 -3.28289E+00 -3.32460E+00 -3.36561E+00 -3.40589E+00 -3.44547E+00 -3.48442E+00 -3.52283E+00 -3.56073E+00
  -3.59807E+00 -3.63482E+00 -3.67102E+00 -3.70676E+00 -3.74208E+00 -3.77695E+00 -3.81133E+00 -3.84519E+00 -3.87858E+00 -3.91158E+00
  -3.94418E+00 -3.97632E+00 -4.00793E+00 -4.03902E+00 -4.06964E+00 -4.09979E+00 -4.12943E+00 -4.15845E+00
 NY background values follow
     8.702E+00    8.676E+00    8.650E+00    8.624E+00    8.598E+00    8.572E+00    8.546E+00    8.520E+00    8.494E+00    8.468E+00
     8.442E+00    8.416E+00    8.390E+00    8.364E+00    8.338E+00    8.311E+00    8.285E+00    8.259E+00    8.233E+00    8.207E+00
     8.181E+00    8.155E+00    8.129E+00    8.103E+00    8.077E+00    8.051E+00    8.025E+00    7.999E+00    7.973E+00    7.946E+00
     7.920E+00    7.894E+00    7.868E+00    7.842E+00    7.816E+00    7.790E+00    7.764E+00    7.738E+00    7.712E+00    7.686E+00
     7.660E+00    7.634E+00    7.608E+00    7.581E+00    7.555E+00    7.529E+00    7.503E+00    7.477E+00    7.451E+00    7.425E+00
     7.399E+00    7.373E+00    7.347E+00    7.321E+00    7.295E+00    7.268E+00    7.242E+00    7.216E+00    7.190E+00    7.164E+00
     7.138E+00    7.112E+00    7.086E+00    7.060E+00    7.034E+00    7.008E+00    6.982E+00    6.955E+00    6.929E+00    6.903E+00
     6.877E+00    6.851E+00    6.825E+00    6.799E+00    6.773E+00    6.747E+00    6.721E+00    6.695E+00    6.669E+00    6.642E+00
     6.616E+00    6.590E+00    6.564E+00    6.538E+00    6.512E+00    6.486E+00    6.460E+00    6.434E+00    6.408E+00    6.382E+00
     6.355E+00    6.329E+00    6.303E+00    6.277E+00    6.251E+00    6.225E+00    6.199E+00    6.173E+00    6.147E+00    6.121E+00
     6.095E+00    6.068E+00    6.042E+00    6.016E+00    5.990E+00    5.964E+00    5.938E+00    5.912E+00    5.886E+00    5.860E+00
     5.834E+00    5.808E+00    5.781E+00    5.755E+00    5.729E+00    5.703E+00    5.677E+00    5.651E+00    5.625E+00    5.599E+00
     5.573E+00    5.547E+00    5.520E+00    5.494E+00    5.468E+00    5.442E+00    5.416E+00    5.390E+00    5.364E+00    5.338E+00
     5.312E+00    5.286E+00    5.260E+00    5.233E+00    5.207E+00    5.181E+00    5.155E+00    5.129E+00    5.103E+00    5.077E+00
     5.051E+00    5.025E+00    4.999E+00    4.972E+00    4.946E+00    4.920E+00    4.894E+00    4.868E+00    4.842E+00    4.816E+00
     4.790E+00    4.764E+00    4.738E+00    4.712E+00    4.685E+00    4.659E+00    4.633E+00    4.607E+00    4.581E+00    4.555E+00
     4.529E+00    4.503E+00    4.477E+00    4.451E+00    4.424E+00    4.398E+00    4.372E+00    4.346E+00    4.320E+00    4.294E+00
     4.268E+00    4.242E+00    4.216E+00    4.190E+00    4.164E+00    4.137E+00    4.111E+00    4.085E+00    4.059E+00    4.033E+00
     4.007E+00    3.981E+00    3.955E+00    3.929E+00    3.903E+00    3.877E+00    3.850E+00    3.824E+00    3.798E+00    3.772E+00
     3.746E+00    3.720E+00    3.694E+00    3.668E+00    3.642E+00    3.616E+00    3.590E+00    3.563E+00    3.537E+00    3.511E+00
     3.485E+00    3.459E+00    3.433E+00    3.407E+00    3.381E+00    3.355E+00    3.329E+00    3.303E+00    3.276E+00    3.250E+00
     3.224E+00    3.198E+00    3.172E+00    3.146E+00    3.120E+00    3.094E+00    3.068E+00    3.042E+00    3.016E+00    2.990E+00
     2.963E+00    2.937E+00    2.911E+00    2.885E+00    2.859E+00    2.833E+00    2.807E+00    2.781E+00    2.755E+00    2.729E+00
     2.703E+00    2.677E+00    2.650E+00    2.624E+00    2.598E+00    2.572E+00    2.546E+00    2.520E+00    2.494E+00    2.468E+00
     2.442E+00    2.416E+00    2.390E+00    2.364E+00    2.337E+00    2.311E+00    2.285E+00    2.259E+00    2.233E+00    2.207E+00
     2.181E+00    2.155E+00    2.129E+00    2.103E+00    2.077E+00    2.051E+00    2.024E+00    1.998E+00    1.972E+00    1.946E+00
     1.920E+00    1.894E+00    1.868E+00    1.842E+00    1.816E+00    1.790E+00    1.764E+00    1.738E+00    1.712E+00    1.685E+00
     1.659E+00    1.633E+00    1.607E+00    1.581E+00    1.555E+00    1.529E+00    1.503E+00    1.477E+00    1.451E+00    1.425E+00
     1.399E+00    1.373E+00    1.346E+00    1.320E+00    1.294E+00    1.268E+00    1.242E+00    1.216E+00    1.190E+00    1.164E+00
     1.138E+00    1.112E+00    1.086E+00    1.060E+00    1.034E+00    1.007E+00    9.814E-01    9.554E-01    9.293E-01    9.032E-01
     8.771E-01    8.511E-01    8.250E-01    7.989E-01    7.729E-01    7.468E-01    7.207E-01    6.947E-01    6.686E-01    6.425E-01
     6.165E-01    5.904E-01    5.643E-01    5.383E-01    5.122E-01    4.861E-01    4.601E-01    4.340E-01    4.079E-01    3.819E-01
     3.558E-01    3.297E-01    3.037E-01    2.776E-01    2.515E-01    2.255E-01    1.994E-01    1.734E-01    1.473E-01    1.212E-01
     9.517E-02    6.911E-02    4.305E-02    1.699E-02   -9.069E-03   -3.513E-02   -6.119E-02   -8.725E-02   -1.133E-01   -1.394E-01
    -1.654E-01   -1.915E-01   -2.175E-01   -2.436E-01   -2.697E-01   -2.957E-01   -3.218E-01   -3.478E-01   -3.739E-01   -3.999E-01
    -4.260E-01   -4.520E-01   -4.781E-01   -5.041E-01   -5.302E-01   -5.563E-01   -5.823E-01   -6.084E-01   -6.344E-01   -6.605E-01
    -6.865E-01   -7.126E-01   -7.386E-01   -7.647E-01   -7.907E-01   -8.168E-01   -8.428E-01   -8.689E-01   -8.949E-01   -9.210E-01
    -9.470E-01   -9.730E-01   -9.991E-01   -1.025E+00   -1.051E+00   -1.077E+00   -1.103E+00   -1.129E+00   -1.155E+00   -1.181E+00
    -1.207E+00   -1.233E+00   -1.260E+00   -1.286E+00   -1.312E+00   -1.338E+00   -1.364E+00   -1.390E+00   -1.416E+00   -1.442E+00
    -1.468E+00   -1.494E+00   -1.520E+00   -1.546E+00   -1.572E+00   -1.598E+00   -1.624E+00   -1.650E+00   -1.676E+00   -1.702E+00
    -1.728E+00   -1.754E+00   -1.780E+00   -1.806E+00   -1.832E+00   -1.858E+00   -1.884E+00   -1.910E+00   -1.936E+00   -1.963E+00
    -1.989E+00   -2.015E+00   -2.041E+00   -2.067E+00   -2.093E+00   -2.119E+00   -2.145E+00   -2.171E+00   -2.197E+00   -2.223E+00
    -2.249E+00   -2.275E+00   -2.301E+00   -2.327E+00   -2.353E+00   -2.379E+00   -2.405E+00   -2.431E+00   -2.457E+00   -2.483E+00
    -2.509E+00   -2.535E+00   -2.561E+00   -2.587E+00   -2.613E+00   -2.639E+00   -2.665E+00   -2.691E+00   -2.717E+00   -2.743E+00
    -2.769E+00   -2.795E+00   -2.821E+00   -2.847E+00   -2.873E+00   -2.899E+00   -2.925E+00   -2.951E+00   -2.977E+00   -3.003E+00
    -3.029E+00   -3.055E+00   -3.081E+00   -3.107E+00   -3.133E+00   -3.159E+00   -3.185E+00   -3.211E+00   -3.237E+00   -3.263E+00
    -3.289E+00   -3.315E+00   -3.341E+00   -3.367E+00   -3.393E+00   -3.419E+00   -3.445E+00   -3.471E+00   -3.497E+00   -3.523E+00
    -3.549E+00   -3.575E+00   -3.601E+00   -3.627E+00   -3.653E+00   -3.679E+00   -3.705E+00   -3.731E+00   -3.757E+00   -3.783E+00
    -3.809E+00   -3.835E+00   -3.861E+00   -3.887E+00   -3.913E+00   -3.939E+00   -3.965E+00   -3.991E+00   -4.017E+00   -4.043E+00
    -4.069E+00   -4.095E+00   -4.121E+00   -4.147E+00   -4.173E+00   -4.199E+00   -4.225E+00   -4.251E+00
 Ala      Conc. = 1.06E+03
