 LCModel (Version 6.3-1L) Copyright: S.W. Provencher.          Ref.: Magn. Reson. Med. 30:672-679 (1993).                
 Slice#3 Row#2 Col#8  PD_05_press_2_raw_act
 36 lines in following concentration table = NCONC+1
    Conc.  %SD /Cr+PCr  Metabolite                                         
    0.000 999%   0.000 Ala                                                 
   32.953 109% 8.7E-02 Asp                                                 
  376.676  28%   1.000 Cr                                                  
    0.000 999%   0.000 PCr                                                 
   17.970 120% 4.8E-02 GABA                                                
   17.511 124% 4.6E-02 Glc                                                 
 1.69E+03  34%   4.487 Gln                                                 
  907.882  64%   2.410 Glu                                                 
    0.000 999%   0.000 GPC                                                 
   36.451 103% 9.7E-02 PCh                                                 
    7.856 999% 2.1E-02 GSH                                                 
    0.000 999%   0.000 Ins                                                 
  573.886  50%   1.524 Lac                                                 
  122.832  91%   0.326 NAA                                                 
    0.000 999%   0.000 NAAG                                                
    5.425 133% 1.4E-02 Scyllo                                              
   29.247 123% 7.8E-02 Tau                                                 
   30.436 266% 8.1E-02 -CrCH2                                              
   36.451 103% 9.7E-02 GPC+PCh                                             
  122.832  91%   0.326 NAA+NAAG                                            
  376.676  28%   1.000 Cr+PCr                                              
 2.60E+03  35%   6.897 Glu+Gln                                             
 2.96E+03  20%   7.857 Lip13a                                              
    0.000 999%   0.000 Lip13b                                              
  696.657  27%   1.849 Lip09                                               
    0.000 999%   0.000 MM09                                                
  432.145  29%   1.147 Lip20                                               
    0.000 999%   0.000 MM20                                                
 1.51E-03 999% 4.0E-06 MM12                                                
 3.11E-02 999% 8.3E-05 MM14                                                
    0.000 999%   0.000 MM17                                                
 2.96E+03  20%   7.857 Lip13a+Lip13b                                       
 2.96E+03  20%   7.857 MM14+Lip13a+Lip13b+MM12                             
  696.657  27%   1.849 MM09+Lip09                                          
  432.145  29%   1.147 MM20+Lip20                                          
   6 lines in following misc. output table
  FWHM = 0.061 ppm    S/N =   1                                            
  Data shift =-0.046 ppm                                                   
  Ph: -70 deg     -39.1 deg/ppm                                            
  alphaB,S = 8.5E+01,   3.2E+00                                            
   14 spline knots.   Ns = 5(1)                                            
   2 inflections.     3 extrema                                            
  498 points on ppm-axis = NY
      4.000000     3.992357     3.984714     3.977070     3.969427     3.961784     3.954141     3.946497     3.938854     3.931211
      3.923568     3.915925     3.908281     3.900638     3.892995     3.885352     3.877708     3.870065     3.862422     3.854779
      3.847136     3.839492     3.831849     3.824206     3.816563     3.808919     3.801276     3.793633     3.785990     3.778347
      3.770703     3.763060     3.755417     3.747774     3.740130     3.732487     3.724844     3.717201     3.709558     3.701914
      3.694271     3.686628     3.678985     3.671341     3.663698     3.656055     3.648412     3.640769     3.633125     3.625482
      3.617839     3.610196     3.602552     3.594909     3.587266     3.579623     3.571980     3.564336     3.556693     3.549050
      3.541407     3.533763     3.526120     3.518477     3.510834     3.503191     3.495547     3.487904     3.480261     3.472618
      3.464974     3.457331     3.449688     3.442045     3.434402     3.426758     3.419115     3.411472     3.403829     3.396185
      3.388542     3.380899     3.373256     3.365613     3.357969     3.350326     3.342683     3.335040     3.327396     3.319753
      3.312110     3.304467     3.296824     3.289180     3.281537     3.273894     3.266251     3.258607     3.250964     3.243321
      3.235678     3.228034     3.220391     3.212748     3.205105     3.197462     3.189818     3.182175     3.174532     3.166889
      3.159245     3.151602     3.143959     3.136316     3.128673     3.121029     3.113386     3.105743     3.098100     3.090456
      3.082813     3.075170     3.067527     3.059884     3.052240     3.044597     3.036954     3.029311     3.021667     3.014024
      3.006381     2.998738     2.991095     2.983451     2.975808     2.968165     2.960522     2.952878     2.945235     2.937592
      2.929949     2.922306     2.914662     2.907019     2.899376     2.891733     2.884089     2.876446     2.868803     2.861160
      2.853517     2.845873     2.838230     2.830587     2.822944     2.815300     2.807657     2.800014     2.792371     2.784728
      2.777084     2.769441     2.761798     2.754155     2.746511     2.738868     2.731225     2.723582     2.715939     2.708295
      2.700652     2.693009     2.685366     2.677722     2.670079     2.662436     2.654793     2.647150     2.639506     2.631863
      2.624220     2.616577     2.608933     2.601290     2.593647     2.586004     2.578361     2.570717     2.563074     2.555431
      2.547788     2.540144     2.532501     2.524858     2.517215     2.509572     2.501928     2.494285     2.486642     2.478999
      2.471355     2.463712     2.456069     2.448426     2.440783     2.433139     2.425496     2.417853     2.410210     2.402566
      2.394923     2.387280     2.379637     2.371994     2.364350     2.356707     2.349064     2.341421     2.333777     2.326134
      2.318491     2.310848     2.303205     2.295561     2.287918     2.280275     2.272632     2.264988     2.257345     2.249702
      2.242059     2.234416     2.226772     2.219129     2.211486     2.203843     2.196199     2.188556     2.180913     2.173270
      2.165627     2.157983     2.150340     2.142697     2.135054     2.127410     2.119767     2.112124     2.104481     2.096838
      2.089194     2.081551     2.073908     2.066265     2.058621     2.050978     2.043335     2.035692     2.028049     2.020405
      2.012762     2.005119     1.997476     1.989833     1.982190     1.974546     1.966903     1.959260     1.951617     1.943974
      1.936331     1.928688     1.921045     1.913402     1.905759     1.898115     1.890472     1.882829     1.875186     1.867543
      1.859900     1.852257     1.844614     1.836971     1.829327     1.821684     1.814041     1.806398     1.798755     1.791112
      1.783469     1.775826     1.768183     1.760540     1.752896     1.745253     1.737610     1.729967     1.722324     1.714681
      1.707038     1.699395     1.691752     1.684108     1.676465     1.668822     1.661179     1.653536     1.645893     1.638250
      1.630607     1.622964     1.615321     1.607677     1.600034     1.592391     1.584748     1.577105     1.569462     1.561819
      1.554176     1.546533     1.538890     1.531246     1.523603     1.515960     1.508317     1.500674     1.493031     1.485388
      1.477745     1.470102     1.462458     1.454815     1.447172     1.439529     1.431886     1.424243     1.416600     1.408957
      1.401314     1.393671     1.386027     1.378384     1.370741     1.363098     1.355455     1.347812     1.340169     1.332526
      1.324883     1.317240     1.309596     1.301953     1.294310     1.286667     1.279024     1.271381     1.263738     1.256095
      1.248452     1.240808     1.233165     1.225522     1.217879     1.210236     1.202593     1.194950     1.187307     1.179664
      1.172021     1.164377     1.156734     1.149091     1.141448     1.133805     1.126162     1.118519     1.110876     1.103233
      1.095590     1.087946     1.080303     1.072660     1.065017     1.057374     1.049731     1.042088     1.034445     1.026802
      1.019158     1.011515     1.003872     0.996229     0.988586     0.980943     0.973300     0.965657     0.958014     0.950371
      0.942727     0.935084     0.927441     0.919798     0.912155     0.904512     0.896869     0.889226     0.881583     0.873940
      0.866296     0.858653     0.851010     0.843367     0.835724     0.828081     0.820438     0.812795     0.805152     0.797508
      0.789865     0.782222     0.774579     0.766936     0.759293     0.751650     0.744007     0.736364     0.728721     0.721077
      0.713434     0.705791     0.698148     0.690505     0.682862     0.675219     0.667576     0.659933     0.652290     0.644646
      0.637003     0.629360     0.621717     0.614074     0.606431     0.598788     0.591145     0.583502     0.575858     0.568215
      0.560572     0.552929     0.545286     0.537643     0.530000     0.522357     0.514714     0.507071     0.499427     0.491784
      0.484141     0.476498     0.468855     0.461212     0.453569     0.445925     0.438282     0.430639     0.422996     0.415353
      0.407710     0.400067     0.392424     0.384780     0.377137     0.369494     0.361851     0.354208     0.346565     0.338922
      0.331278     0.323635     0.315992     0.308349     0.300706     0.293063     0.285420     0.277777     0.270133     0.262490
      0.254847     0.247204     0.239561     0.231918     0.224275     0.216631     0.208988     0.201345
 NY phased data points follow
   1.30142E+00 -1.88884E+01 -8.98048E+00 -3.14191E+01  7.69804E+00 -1.26445E+01  1.21260E+01 -2.26476E+01  4.17409E+00  1.74917E+01
   1.57262E+01 -8.22465E+00 -7.79736E+00 -8.60915E+00 -2.94919E+00  9.37090E+00  1.02788E+01 -5.06116E+00 -4.26055E+00 -7.00993E+00
  -1.57364E+01 -3.93908E-01  1.29559E+01 -5.90401E+00 -1.16336E+01 -1.24447E+01 -7.60226E+00 -9.64956E+00  1.40307E+01  8.11008E+00
  -7.26767E+00 -1.00067E+01 -9.44158E+00 -3.62713E+01 -7.02580E+00  2.11160E-01  1.74076E+01  3.81329E+00 -2.57959E+00 -1.16869E+01
  -5.47289E+00 -1.85604E+01  3.77752E+00 -1.38711E+01 -2.31930E-01 -3.41804E-02 -1.96805E+00 -9.27473E+00 -1.35918E+01 -2.62780E+00
   5.86612E+00 -2.69257E+01 -9.69485E+00 -1.23070E+01 -1.88002E+01 -2.48568E+00  2.67533E+00 -6.76070E-01  1.55312E+01 -1.26409E+01
   6.30529E+00 -6.72051E+00  9.00112E+00 -4.33779E+00 -1.17682E+01 -2.00693E+01 -2.98847E+01 -2.14483E+01 -1.36569E+01 -1.36709E+01
  -9.28779E+00 -1.41043E+01 -5.86710E+00  8.37244E-01  1.02268E+01 -4.83253E+00 -1.28989E+01 -1.45465E+01 -1.10534E+00 -9.14287E+00
  -8.86560E-01  5.14253E+00 -3.45444E+01 -1.91728E+01 -4.42798E+00 -6.42866E+00 -7.42683E+00 -1.50148E+01 -9.56897E+00 -1.04192E+01
   4.83364E-01 -1.54537E+00 -5.05008E+00 -6.76078E-01 -1.24354E+00 -2.75930E+01 -3.74252E+00 -1.56321E+01 -3.99918E+00 -2.31936E+01
  -6.65380E+00 -4.33129E+00  8.11113E-01 -1.15932E+01 -3.35595E+00 -8.90097E+00  1.57592E+01 -2.96315E+00 -7.86467E+00 -2.47710E+00
   6.67559E-02 -1.11320E+01  3.57554E+00 -1.28419E+01 -6.68237E+00  1.81886E+01 -1.28996E+01  5.38942E+00  1.66092E+00 -3.20345E+00
  -2.42931E+00 -1.04023E+01 -1.66716E+01 -1.12903E+01  2.62665E+00 -3.52094E+00 -1.20386E+00 -8.56486E+00  5.41012E+00 -1.18351E+01
   5.99825E+00  3.37113E+00  1.41869E+01 -1.45390E+00  1.83229E+00  7.93295E+00  6.23824E+00 -9.16276E+00 -6.66839E+00 -4.72066E+00
  -1.38871E+01 -6.65462E-01 -2.93285E+00 -2.39106E+00 -1.72921E+00 -1.49254E+01  3.00654E+00 -2.00700E+01 -1.21122E+01 -2.10008E+01
   2.00506E+00  8.83446E+00 -2.28757E+01 -1.13998E+01  1.54103E+00  8.09166E-01 -8.09901E+00 -5.21854E+00 -8.24335E+00 -9.05564E+00
  -9.87761E+00 -5.18263E+00 -1.33924E+01 -1.66111E+01 -1.03481E+01 -1.27515E+01  3.50190E+00 -1.11880E+01 -1.60773E+01  4.33403E+00
  -1.01579E-01 -2.67982E+00 -1.08351E+01 -7.78921E+00  4.71466E+00 -1.44308E+00 -8.51231E+00 -2.07462E+01 -2.14725E+01 -8.37442E+00
  -4.80538E+00 -9.99875E+00 -6.71174E-01 -9.63416E+00 -8.74608E+00 -1.14201E+01 -1.70994E+01 -1.78196E+00 -5.18982E+00  3.93995E+00
  -5.31057E+00 -1.95839E+01 -2.19593E+00  5.50375E+00  4.51912E-01 -6.19425E+00  7.62461E+00 -3.46298E-01 -2.07191E+00  7.18617E+00
  -6.11226E-01 -8.87061E+00  1.67575E+00  6.82237E+00 -1.70105E+01 -1.00949E+00  2.01237E-01 -9.39041E+00 -1.18794E+01 -5.98086E+00
   1.17664E+01 -6.67952E+00 -5.25290E+00 -8.32644E+00 -4.92787E+00 -5.70962E+00  2.88147E+00  2.76854E+00  7.21949E+00  9.46601E+00
   1.79026E+00  7.21832E+00  9.00025E+00 -6.94411E+00  1.18244E+01 -7.50616E-01  1.46653E-01 -5.80342E+00  1.00575E+00  2.09052E+00
  -7.31707E+00  2.50334E+00 -1.63617E+00 -6.14800E+00  4.84583E+00  6.87426E+00 -3.23601E+00  7.56570E+00  1.41334E+00 -1.12262E+00
   6.40370E+00  4.21263E+00  8.55159E+00 -4.57999E+00  1.68772E+00 -5.46676E+00  7.28523E-01 -1.35031E+01 -1.15508E+01  4.32104E-01
   2.85067E+00 -1.02350E+01 -3.01785E+00 -1.37354E+01 -7.94713E+00 -1.24272E+01 -6.72743E+00 -1.37173E+00  4.00637E+00 -1.70403E+01
  -9.07977E+00 -5.40379E+00 -1.86909E+00  1.84354E+01  1.03426E+01 -4.23152E+00 -4.87120E+00  5.51318E+00 -5.28833E+00 -1.33524E+00
   1.09930E-01 -1.18119E+01 -3.57797E+00 -9.06974E+00  8.81894E+00 -7.90578E+00 -9.23686E+00  1.96400E+00 -7.67424E+00  3.15540E+00
  -5.82465E+00 -1.24416E+01 -1.89731E+00 -1.74296E+01 -1.21490E+01 -5.19795E+00 -1.39115E+01 -5.95598E+00 -8.61297E+00 -7.81562E+00
  -3.73714E+00 -1.16525E+01 -1.42381E+00 -1.04843E+00 -3.12776E+00 -1.26437E+01 -1.16660E+01  3.40483E+00 -6.96836E+00 -1.56873E+01
  -1.56598E+01 -5.57470E+00  5.62513E+00 -1.07887E+01  2.35912E+00  3.13244E-01 -5.18337E+00  1.27219E+01 -4.37312E+00  1.03245E+00
   3.11161E+00 -9.93743E+00 -1.57554E+00 -1.13375E+01  1.07884E+01 -4.87438E+00 -1.55835E+01 -7.28436E+00 -2.64905E+00  3.67198E+00
  -3.05345E+00 -8.20399E+00 -8.77560E-01 -3.32338E-01  2.14551E+00  6.52161E+00 -5.94633E+00  9.29586E+00  1.14829E+01  7.42175E+00
   1.59560E+00  1.33920E+01 -8.08679E+00  1.61711E+01  1.47795E+01  1.09488E+01  1.23226E+01  1.01149E+01  1.30210E+01  1.58348E+01
   3.57987E+00 -1.27137E+01  2.21512E+01  6.26106E+00  2.98365E+00  9.46426E+00 -7.10106E+00  6.06628E+00  7.82180E+00  9.69464E+00
   6.46647E+00 -5.80272E+00  1.00921E+00 -2.50994E+00 -1.25912E+00  2.53239E+01  1.68152E+01  1.97729E+00  1.29972E+01  6.13558E+00
   2.60299E+01  3.44583E+01  1.93916E+01  2.49333E+01  2.24779E+01  2.61585E+01  7.85982E+00  1.11460E+01  4.83112E+00  1.19254E+01
   1.24619E+01  4.53749E+00  7.21123E+00  2.07255E+01  1.60718E+01  1.27346E+01  1.22186E+01  8.17921E+00  1.93950E+01  7.27754E+00
  -1.41307E+00 -2.26751E+00  3.51926E-01 -4.03048E+00 -1.27979E+01 -1.76796E+01 -9.40018E+00 -2.72416E+00 -1.19578E-01 -3.94355E+00
  -2.90628E+00  4.92949E+00 -8.27812E+00 -3.57763E+00 -1.18789E+01 -3.61319E-01 -2.19870E+00  6.20609E+00  7.91392E-02  3.40751E+00
   6.86859E+00  3.93850E+00 -9.28831E+00  9.35478E-01  4.76849E+00  3.17604E+00  5.80414E+00  1.20522E+01  2.12164E+01 -1.38717E+01
   7.19152E+00 -1.09944E+01 -3.23744E+00  8.52655E+00  2.05606E+00  6.50896E+00 -3.74092E+00  1.58264E+00 -6.63007E+00 -9.29741E+00
  -4.73094E+00  7.59040E+00  6.05230E+00 -7.10891E+00 -1.68744E+01 -1.62438E+01 -4.09018E+00 -6.23152E+00  8.14458E-01  4.81799E+00
  -2.23904E+00 -4.10241E+00 -9.10759E+00  5.46820E-01 -1.06527E+00  2.00894E+00 -7.44627E+00  5.14431E+00  3.46321E+00  1.07905E+00
  -1.71079E+00  6.23657E+00  6.75746E+00 -1.26209E+00 -1.17578E+00 -8.46214E+00  1.13076E+00  2.10046E+00 -7.08342E-02  3.55880E+00
  -2.92857E+00 -3.77218E+00 -2.51466E+00  4.42621E+00 -3.40445E-01  5.94714E+00  4.44631E+00  5.24972E+00 -1.98017E+00 -7.74785E+00
  -1.02566E+01  5.02350E+00 -7.97217E+00 -5.40719E+00 -6.85795E+00 -1.01767E+01  2.37215E+01 -1.00260E+01  4.18625E+00  7.48617E+00
   7.98583E+00 -9.85166E-01  9.92844E+00  1.52978E+00  4.45430E+00 -1.15211E+00 -7.43780E+00  4.69501E+00 -9.77484E+00  5.51602E+00
  -9.38292E+00  4.81877E+00 -3.71909E+00 -9.84814E+00 -2.40910E+00  1.22155E+01  1.33494E+01  3.37211E+00 -1.70679E+01  5.14376E+00
   7.13910E+00  6.04395E+00 -3.22398E+00  1.04094E+01  7.84918E+00  6.56073E+00  3.39564E+00 -2.31301E+00
 NY points of the fit to the data follow
  -7.33348E+00 -7.90177E+00 -8.00452E+00 -7.61444E+00 -7.21574E+00 -7.33162E+00 -7.65496E+00 -6.47246E+00 -1.47057E+00  2.22761E+00
  -2.33256E-01 -4.59521E+00 -6.32417E+00 -5.41342E+00 -4.22742E-01  3.86221E+00  3.42754E+00 -6.23645E-01 -4.01197E+00 -4.85898E+00
  -4.56018E+00 -3.55215E+00 -3.57203E+00 -6.22511E+00 -9.28240E+00 -9.79074E+00 -8.24085E+00 -5.49104E+00 -6.12646E-01  2.67265E+00
  -9.57909E-01 -7.75356E+00 -1.13771E+01 -1.19787E+01 -8.64307E+00 -1.98089E+00  3.83919E+00  3.46726E+00 -2.01200E+00 -7.37438E+00
  -1.12591E+01 -1.19983E+01 -9.13977E+00 -5.31911E+00 -3.37093E+00 -3.65553E+00 -4.50340E+00 -5.09483E+00 -5.48874E+00 -5.71355E+00
  -5.83533E+00 -5.94478E+00 -6.04133E+00 -6.13352E+00 -6.22388E+00 -6.27500E+00 -6.27863E+00 -6.26608E+00 -6.27534E+00 -6.30245E+00
  -6.33216E+00 -6.35416E+00 -6.35297E+00 -6.31999E+00 -6.31797E+00 -6.33725E+00 -6.34264E+00 -6.35857E+00 -6.35269E+00 -6.28071E+00
  -6.25799E+00 -6.24107E+00 -6.15042E+00 -6.11577E+00 -6.21234E+00 -6.29445E+00 -6.31426E+00 -6.28237E+00 -6.13873E+00 -5.99034E+00
  -5.99163E+00 -6.12059E+00 -6.12603E+00 -5.97030E+00 -5.92586E+00 -6.02334E+00 -6.07293E+00 -6.06172E+00 -5.92569E+00 -5.71162E+00
  -5.68577E+00 -5.87485E+00 -6.07294E+00 -6.13276E+00 -6.05460E+00 -5.89699E+00 -5.83842E+00 -5.95193E+00 -6.05968E+00 -5.24916E+00
  -3.07549E+00 -2.05138E+00 -3.40226E+00 -4.89561E+00 -5.32019E+00 -4.57270E+00 -2.47691E+00 -1.25294E+00 -2.02274E+00 -3.92189E+00
  -5.22935E+00 -5.58330E+00 -5.66211E+00 -5.69955E+00 -5.71550E+00 -5.70734E+00 -5.70405E+00 -5.69844E+00 -5.65614E+00 -5.59683E+00
  -5.53288E+00 -5.44159E+00 -5.45414E+00 -3.39208E+00  3.78883E+00  8.09017E+00  3.66220E+00 -2.01941E+00 -3.69490E+00 -1.80126E+00
   5.38897E+00  1.05564E+01  8.75019E+00  2.20974E+00 -2.94620E+00 -4.56103E+00 -4.89659E+00 -5.01818E+00 -5.10745E+00 -5.18780E+00
  -5.22816E+00 -5.19415E+00 -5.09687E+00 -4.98878E+00 -4.95639E+00 -4.99539E+00 -5.00883E+00 -4.97309E+00 -4.89996E+00 -4.82802E+00
  -4.80725E+00 -4.82862E+00 -4.84842E+00 -4.83712E+00 -4.81117E+00 -4.78989E+00 -4.79727E+00 -4.86589E+00 -4.93026E+00 -4.89789E+00
  -4.81227E+00 -4.73346E+00 -4.73350E+00 -4.85920E+00 -4.98231E+00 -4.98757E+00 -4.92301E+00 -4.83982E+00 -4.81401E+00 -4.83623E+00
  -4.87950E+00 -4.91427E+00 -4.96757E+00 -5.06805E+00 -5.08840E+00 -5.01847E+00 -4.98265E+00 -5.03711E+00 -5.14921E+00 -5.21258E+00
  -5.13291E+00 -4.97931E+00 -4.89999E+00 -5.00433E+00 -5.08370E+00 -4.99997E+00 -4.86096E+00 -4.72118E+00 -4.61899E+00 -4.68605E+00
  -5.38131E+00 -6.07608E+00 -6.58197E+00 -7.34218E+00 -7.53167E+00 -6.82649E+00 -6.81764E+00 -6.21298E+00 -4.26452E+00 -2.77679E+00
  -3.40242E+00 -3.75238E+00 -2.56912E+00 -1.97806E+00 -1.59097E+00 -1.51495E+00 -7.07294E+00 -1.21175E+01 -7.72552E+00 -1.23103E+00
  -1.05381E+00 -4.37212E+00 -9.25345E+00 -1.34140E+01 -1.29469E+01 -7.27044E+00 -1.23234E+00  9.32972E-01  1.42992E+00  7.37904E-01
   2.18249E-01  1.23596E-01 -7.76673E-01 -2.31682E+00 -4.73095E+00 -7.04772E+00 -6.74443E+00 -3.84001E+00 -1.24102E+00 -6.36840E-02
   5.64365E-01  4.80410E-01 -2.63858E+00 -5.84404E+00 -4.61925E+00 -1.23915E+00  8.88582E-01  2.56721E+00  8.10721E-01 -5.45704E+00
  -9.31748E+00 -6.19885E+00 -2.01017E+00  2.16984E-01  1.83418E+00 -3.19413E-01 -5.09900E+00 -7.79506E+00 -7.14232E+00 -5.95533E+00
  -5.12874E+00 -4.19173E+00 -3.74880E+00 -3.57808E+00 -2.90228E+00 -1.83740E+00  3.57723E-01  3.82267E+00  4.71146E+00  1.91047E+00
  -8.60299E-01 -2.45666E+00 -2.04976E+00  9.20819E-01  3.26477E+00  2.76680E+00  7.46447E-01 -7.96839E-01 -1.63590E+00 -2.04661E+00
  -1.94224E+00 -1.73214E+00 -1.84378E+00 -2.11074E+00 -2.34113E+00 -2.40937E+00 -2.25491E+00 -2.04744E+00 -1.93669E+00 -1.93229E+00
  -1.98372E+00 -2.04758E+00 -2.14207E+00 -2.25898E+00 -2.34846E+00 -2.37556E+00 -2.34217E+00 -2.30451E+00 -2.29028E+00 -2.27285E+00
  -2.26086E+00 -2.26688E+00 -2.26504E+00 -2.25016E+00 -2.23961E+00 -2.23245E+00 -2.22344E+00 -2.21144E+00 -2.20042E+00 -2.18334E+00
  -2.15876E+00 -2.13479E+00 -2.10990E+00 -2.08150E+00 -2.05390E+00 -2.02371E+00 -1.98910E+00 -1.95319E+00 -1.91618E+00 -1.87717E+00
  -1.83608E+00 -1.79351E+00 -1.74831E+00 -1.69894E+00 -1.64638E+00 -1.59110E+00 -1.53229E+00 -1.46806E+00 -1.39754E+00 -1.32084E+00
  -1.23873E+00 -1.15054E+00 -1.05426E+00 -9.47363E-01 -8.28818E-01 -6.98368E-01 -5.55619E-01 -3.98026E-01 -2.21775E-01 -2.30335E-02
   2.00304E-01  4.50013E-01  7.29100E-01  1.04346E+00  1.40023E+00  1.80646E+00  2.26809E+00  2.79289E+00  3.39395E+00  4.09382E+00
   4.92720E+00  5.94550E+00  7.37855E+00  1.07560E+01  1.41384E+01  1.15815E+01  5.90967E+00  4.39727E+00  6.47707E+00  9.97676E+00
   1.21310E+01  1.13263E+01  1.13745E+01  1.09646E+01  9.02870E+00  7.52857E+00  5.97817E+00  7.08733E+00  1.27173E+01  1.84201E+01
   1.99377E+01  1.75517E+01  1.48242E+01  1.31910E+01  1.20410E+01  1.10775E+01  1.02017E+01  9.37549E+00  8.58533E+00  7.82964E+00
   7.11084E+00  6.43194E+00  5.79493E+00  5.20202E+00  4.65566E+00  4.15842E+00  3.71124E+00  3.31344E+00  2.96294E+00  2.65795E+00
   2.39694E+00  2.17864E+00  2.00081E+00  1.86076E+00  1.75556E+00  1.68327E+00  1.64232E+00  1.63143E+00  1.64854E+00  1.69147E+00
   1.75791E+00  1.84627E+00  1.95475E+00  2.08125E+00  2.22266E+00  2.37563E+00  2.53655E+00  2.70213E+00  2.86851E+00  3.03159E+00
   3.18654E+00  3.32890E+00  3.45445E+00  3.55977E+00  3.64151E+00  3.69689E+00  3.72344E+00  3.71995E+00  3.68610E+00  3.62274E+00
   3.53116E+00  3.41340E+00  3.27186E+00  3.10996E+00  2.93143E+00  2.74044E+00  2.54067E+00  2.33589E+00  2.12936E+00  1.92454E+00
   1.72433E+00  1.53133E+00  1.34713E+00  1.17314E+00  1.01017E+00  8.59064E-01  7.20057E-01  5.93198E-01  4.77886E-01  3.73643E-01
   2.79765E-01  1.95818E-01  1.20968E-01  5.45140E-02 -4.54022E-03 -5.68145E-02 -1.03041E-01 -1.43624E-01 -1.79278E-01 -2.10467E-01
  -2.37877E-01 -2.61791E-01 -2.82628E-01 -3.00504E-01 -3.15896E-01 -3.29021E-01 -3.40265E-01 -3.49644E-01 -3.57405E-01 -3.63534E-01
  -3.68366E-01 -3.71969E-01 -3.74584E-01 -3.76095E-01 -3.76675E-01 -3.76298E-01 -3.75240E-01 -3.73444E-01 -3.71042E-01 -3.67910E-01
  -3.64228E-01 -3.59918E-01 -3.55220E-01 -3.50044E-01 -3.44493E-01 -3.38441E-01 -3.32058E-01 -3.25249E-01 -3.18180E-01 -3.10740E-01
  -3.03067E-01 -2.95030E-01 -2.86806E-01 -2.78287E-01 -2.69608E-01 -2.60635E-01 -2.51506E-01 -2.42104E-01 -2.32590E-01 -2.22839E-01
  -2.12977E-01 -2.02869E-01 -1.92670E-01 -1.82272E-01 -1.71817E-01 -1.61154E-01 -1.50402E-01 -1.39442E-01 -1.28444E-01 -1.17290E-01
  -1.06096E-01 -9.46957E-02 -8.32224E-02 -7.15814E-02 -5.99466E-02 -4.81758E-02 -3.63509E-02 -2.43014E-02
 NY background values follow
    -7.495E+00   -7.480E+00   -7.466E+00   -7.451E+00   -7.436E+00   -7.422E+00   -7.407E+00   -7.392E+00   -7.378E+00   -7.363E+00
    -7.348E+00   -7.334E+00   -7.319E+00   -7.304E+00   -7.290E+00   -7.275E+00   -7.260E+00   -7.246E+00   -7.231E+00   -7.216E+00
    -7.202E+00   -7.187E+00   -7.172E+00   -7.158E+00   -7.143E+00   -7.128E+00   -7.114E+00   -7.099E+00   -7.084E+00   -7.070E+00
    -7.055E+00   -7.040E+00   -7.026E+00   -7.011E+00   -6.996E+00   -6.981E+00   -6.967E+00   -6.952E+00   -6.937E+00   -6.923E+00
    -6.908E+00   -6.893E+00   -6.879E+00   -6.864E+00   -6.849E+00   -6.835E+00   -6.820E+00   -6.805E+00   -6.791E+00   -6.776E+00
    -6.761E+00   -6.747E+00   -6.732E+00   -6.717E+00   -6.703E+00   -6.688E+00   -6.673E+00   -6.659E+00   -6.644E+00   -6.629E+00
    -6.615E+00   -6.600E+00   -6.585E+00   -6.571E+00   -6.556E+00   -6.541E+00   -6.527E+00   -6.512E+00   -6.497E+00   -6.483E+00
    -6.468E+00   -6.453E+00   -6.439E+00   -6.424E+00   -6.409E+00   -6.394E+00   -6.380E+00   -6.365E+00   -6.350E+00   -6.336E+00
    -6.321E+00   -6.306E+00   -6.292E+00   -6.277E+00   -6.262E+00   -6.248E+00   -6.233E+00   -6.218E+00   -6.204E+00   -6.189E+00
    -6.174E+00   -6.160E+00   -6.145E+00   -6.130E+00   -6.116E+00   -6.101E+00   -6.086E+00   -6.072E+00   -6.057E+00   -6.042E+00
    -6.028E+00   -6.013E+00   -5.998E+00   -5.984E+00   -5.969E+00   -5.954E+00   -5.940E+00   -5.925E+00   -5.910E+00   -5.896E+00
    -5.881E+00   -5.866E+00   -5.852E+00   -5.837E+00   -5.822E+00   -5.807E+00   -5.793E+00   -5.778E+00   -5.763E+00   -5.749E+00
    -5.734E+00   -5.719E+00   -5.705E+00   -5.690E+00   -5.675E+00   -5.661E+00   -5.646E+00   -5.631E+00   -5.617E+00   -5.602E+00
    -5.587E+00   -5.573E+00   -5.558E+00   -5.543E+00   -5.529E+00   -5.514E+00   -5.499E+00   -5.485E+00   -5.470E+00   -5.455E+00
    -5.441E+00   -5.426E+00   -5.411E+00   -5.397E+00   -5.382E+00   -5.367E+00   -5.353E+00   -5.338E+00   -5.323E+00   -5.309E+00
    -5.294E+00   -5.279E+00   -5.265E+00   -5.250E+00   -5.235E+00   -5.220E+00   -5.206E+00   -5.191E+00   -5.176E+00   -5.162E+00
    -5.147E+00   -5.132E+00   -5.118E+00   -5.103E+00   -5.088E+00   -5.074E+00   -5.059E+00   -5.044E+00   -5.030E+00   -5.015E+00
    -5.000E+00   -4.986E+00   -4.971E+00   -4.956E+00   -4.942E+00   -4.927E+00   -4.912E+00   -4.898E+00   -4.883E+00   -4.868E+00
    -4.854E+00   -4.839E+00   -4.824E+00   -4.810E+00   -4.795E+00   -4.780E+00   -4.766E+00   -4.751E+00   -4.736E+00   -4.722E+00
    -4.707E+00   -4.692E+00   -4.677E+00   -4.663E+00   -4.648E+00   -4.633E+00   -4.619E+00   -4.604E+00   -4.589E+00   -4.575E+00
    -4.560E+00   -4.545E+00   -4.531E+00   -4.516E+00   -4.501E+00   -4.487E+00   -4.472E+00   -4.457E+00   -4.443E+00   -4.428E+00
    -4.413E+00   -4.399E+00   -4.384E+00   -4.369E+00   -4.355E+00   -4.340E+00   -4.325E+00   -4.311E+00   -4.296E+00   -4.281E+00
    -4.267E+00   -4.252E+00   -4.237E+00   -4.223E+00   -4.208E+00   -4.193E+00   -4.179E+00   -4.164E+00   -4.149E+00   -4.134E+00
    -4.120E+00   -4.105E+00   -4.090E+00   -4.076E+00   -4.061E+00   -4.046E+00   -4.032E+00   -4.017E+00   -4.002E+00   -3.988E+00
    -3.973E+00   -3.958E+00   -3.944E+00   -3.929E+00   -3.914E+00   -3.900E+00   -3.885E+00   -3.870E+00   -3.856E+00   -3.841E+00
    -3.826E+00   -3.812E+00   -3.797E+00   -3.782E+00   -3.768E+00   -3.753E+00   -3.738E+00   -3.724E+00   -3.709E+00   -3.694E+00
    -3.680E+00   -3.665E+00   -3.650E+00   -3.636E+00   -3.621E+00   -3.606E+00   -3.591E+00   -3.577E+00   -3.562E+00   -3.547E+00
    -3.533E+00   -3.518E+00   -3.503E+00   -3.489E+00   -3.474E+00   -3.459E+00   -3.445E+00   -3.430E+00   -3.415E+00   -3.401E+00
    -3.386E+00   -3.371E+00   -3.357E+00   -3.342E+00   -3.327E+00   -3.313E+00   -3.298E+00   -3.283E+00   -3.269E+00   -3.254E+00
    -3.239E+00   -3.225E+00   -3.210E+00   -3.195E+00   -3.181E+00   -3.166E+00   -3.151E+00   -3.137E+00   -3.122E+00   -3.107E+00
    -3.093E+00   -3.078E+00   -3.063E+00   -3.048E+00   -3.034E+00   -3.019E+00   -3.004E+00   -2.990E+00   -2.975E+00   -2.960E+00
    -2.946E+00   -2.931E+00   -2.916E+00   -2.902E+00   -2.887E+00   -2.872E+00   -2.858E+00   -2.843E+00   -2.828E+00   -2.814E+00
    -2.799E+00   -2.784E+00   -2.770E+00   -2.755E+00   -2.740E+00   -2.726E+00   -2.711E+00   -2.696E+00   -2.682E+00   -2.667E+00
    -2.652E+00   -2.638E+00   -2.623E+00   -2.608E+00   -2.594E+00   -2.579E+00   -2.564E+00   -2.550E+00   -2.535E+00   -2.520E+00
    -2.505E+00   -2.491E+00   -2.476E+00   -2.461E+00   -2.447E+00   -2.432E+00   -2.417E+00   -2.403E+00   -2.388E+00   -2.373E+00
    -2.359E+00   -2.344E+00   -2.329E+00   -2.315E+00   -2.300E+00   -2.285E+00   -2.271E+00   -2.256E+00   -2.241E+00   -2.227E+00
    -2.212E+00   -2.197E+00   -2.183E+00   -2.168E+00   -2.153E+00   -2.139E+00   -2.124E+00   -2.109E+00   -2.095E+00   -2.080E+00
    -2.065E+00   -2.051E+00   -2.036E+00   -2.021E+00   -2.006E+00   -1.992E+00   -1.977E+00   -1.962E+00   -1.948E+00   -1.933E+00
    -1.918E+00   -1.904E+00   -1.889E+00   -1.874E+00   -1.860E+00   -1.845E+00   -1.830E+00   -1.816E+00   -1.801E+00   -1.786E+00
    -1.772E+00   -1.757E+00   -1.742E+00   -1.728E+00   -1.713E+00   -1.698E+00   -1.684E+00   -1.669E+00   -1.654E+00   -1.640E+00
    -1.625E+00   -1.610E+00   -1.596E+00   -1.581E+00   -1.566E+00   -1.552E+00   -1.537E+00   -1.522E+00   -1.508E+00   -1.493E+00
    -1.478E+00   -1.463E+00   -1.449E+00   -1.434E+00   -1.419E+00   -1.405E+00   -1.390E+00   -1.375E+00   -1.361E+00   -1.346E+00
    -1.331E+00   -1.317E+00   -1.302E+00   -1.287E+00   -1.273E+00   -1.258E+00   -1.243E+00   -1.229E+00   -1.214E+00   -1.199E+00
    -1.185E+00   -1.170E+00   -1.155E+00   -1.141E+00   -1.126E+00   -1.111E+00   -1.097E+00   -1.082E+00   -1.067E+00   -1.053E+00
    -1.038E+00   -1.023E+00   -1.009E+00   -9.938E-01   -9.792E-01   -9.645E-01   -9.498E-01   -9.351E-01   -9.205E-01   -9.058E-01
    -8.911E-01   -8.764E-01   -8.617E-01   -8.471E-01   -8.324E-01   -8.177E-01   -8.030E-01   -7.884E-01   -7.737E-01   -7.590E-01
    -7.443E-01   -7.297E-01   -7.150E-01   -7.003E-01   -6.856E-01   -6.710E-01   -6.563E-01   -6.416E-01   -6.269E-01   -6.122E-01
    -5.976E-01   -5.829E-01   -5.682E-01   -5.535E-01   -5.389E-01   -5.242E-01   -5.095E-01   -4.948E-01   -4.802E-01   -4.655E-01
    -4.508E-01   -4.361E-01   -4.215E-01   -4.068E-01   -3.921E-01   -3.774E-01   -3.627E-01   -3.481E-01   -3.334E-01   -3.187E-01
    -3.040E-01   -2.894E-01   -2.747E-01   -2.600E-01   -2.453E-01   -2.307E-01   -2.160E-01   -2.013E-01
 Asp      Conc. = 3.30E+01
