 LCModel (Version 6.3-1L) Copyright: S.W. Provencher.          Ref.: Magn. Reson. Med. 30:672-679 (1993).                
 Slice#2 Row#10 Col#8  PD_05_press_2_raw_act
 36 lines in following concentration table = NCONC+1
    Conc.  %SD /Cr+PCr  Metabolite                                         
    0.000 999%   0.000 Ala                                                 
    0.000 999%   0.000 Asp                                                 
  389.284  84%   0.210 Cr                                                  
 1.46E+03  23%   0.790 PCr                                                 
   54.430 368% 2.9E-02 GABA                                                
    0.000 999%   0.000 Glc                                                 
  908.848  43%   0.491 Gln                                                 
 1.70E+03  27%   0.920 Glu                                                 
  457.515   5%   0.247 GPC                                                 
    0.000 999%   0.000 PCh                                                 
  533.723  17%   0.288 GSH                                                 
 1.07E+03  27%   0.576 Ins                                                 
  286.076  70%   0.154 Lac                                                 
 3.03E+03   7%   1.635 NAA                                                 
  289.867  84%   0.156 NAAG                                                
   52.091  63% 2.8E-02 Scyllo                                              
    0.000 999%   0.000 Tau                                                 
  197.221  61%   0.106 -CrCH2                                              
  457.515   5%   0.247 GPC+PCh                                             
 3.32E+03   3%   1.792 NAA+NAAG                                            
 1.85E+03   4%   1.000 Cr+PCr                                              
 2.61E+03  27%   1.411 Glu+Gln                                             
  399.248 111%   0.216 Lip13a                                              
    0.000 999%   0.000 Lip13b                                              
   78.886 221% 4.3E-02 Lip09                                               
 1.63E+03  15%   0.879 MM09                                                
   21.886 502% 1.2E-02 Lip20                                               
 1.61E+03  25%   0.869 MM20                                                
  668.085  30%   0.361 MM12                                                
 3.22E+03  14%   1.739 MM14                                                
 1.38E+03  22%   0.746 MM17                                                
  399.248 111%   0.216 Lip13a+Lip13b                                       
 4.29E+03   9%   2.315 MM14+Lip13a+Lip13b+MM12                             
 1.71E+03  11%   0.921 MM09+Lip09                                          
 1.63E+03  24%   0.881 MM20+Lip20                                          
   6 lines in following misc. output table
  FWHM = 0.069 ppm    S/N =  12                                            
  Data shift = 0.008 ppm                                                   
  Ph: -32 deg      -5.2 deg/ppm                                            
  alphaB,S = 8.5E+01,   4.1E+02                                            
   14 spline knots.   Ns = 9(1)                                            
   2 inflections.     1 extrema                                            
  498 points on ppm-axis = NY
      4.000000     3.992357     3.984714     3.977070     3.969427     3.961784     3.954141     3.946497     3.938854     3.931211
      3.923568     3.915925     3.908281     3.900638     3.892995     3.885352     3.877708     3.870065     3.862422     3.854779
      3.847136     3.839492     3.831849     3.824206     3.816563     3.808919     3.801276     3.793633     3.785990     3.778347
      3.770703     3.763060     3.755417     3.747774     3.740130     3.732487     3.724844     3.717201     3.709558     3.701914
      3.694271     3.686628     3.678985     3.671341     3.663698     3.656055     3.648412     3.640769     3.633125     3.625482
      3.617839     3.610196     3.602552     3.594909     3.587266     3.579623     3.571980     3.564336     3.556693     3.549050
      3.541407     3.533763     3.526120     3.518477     3.510834     3.503191     3.495547     3.487904     3.480261     3.472618
      3.464974     3.457331     3.449688     3.442045     3.434402     3.426758     3.419115     3.411472     3.403829     3.396185
      3.388542     3.380899     3.373256     3.365613     3.357969     3.350326     3.342683     3.335040     3.327396     3.319753
      3.312110     3.304467     3.296824     3.289180     3.281537     3.273894     3.266251     3.258607     3.250964     3.243321
      3.235678     3.228034     3.220391     3.212748     3.205105     3.197462     3.189818     3.182175     3.174532     3.166889
      3.159245     3.151602     3.143959     3.136316     3.128673     3.121029     3.113386     3.105743     3.098100     3.090456
      3.082813     3.075170     3.067527     3.059884     3.052240     3.044597     3.036954     3.029311     3.021667     3.014024
      3.006381     2.998738     2.991095     2.983451     2.975808     2.968165     2.960522     2.952878     2.945235     2.937592
      2.929949     2.922306     2.914662     2.907019     2.899376     2.891733     2.884089     2.876446     2.868803     2.861160
      2.853517     2.845873     2.838230     2.830587     2.822944     2.815300     2.807657     2.800014     2.792371     2.784728
      2.777084     2.769441     2.761798     2.754155     2.746511     2.738868     2.731225     2.723582     2.715939     2.708295
      2.700652     2.693009     2.685366     2.677722     2.670079     2.662436     2.654793     2.647150     2.639506     2.631863
      2.624220     2.616577     2.608933     2.601290     2.593647     2.586004     2.578361     2.570717     2.563074     2.555431
      2.547788     2.540144     2.532501     2.524858     2.517215     2.509572     2.501928     2.494285     2.486642     2.478999
      2.471355     2.463712     2.456069     2.448426     2.440783     2.433139     2.425496     2.417853     2.410210     2.402566
      2.394923     2.387280     2.379637     2.371994     2.364350     2.356707     2.349064     2.341421     2.333777     2.326134
      2.318491     2.310848     2.303205     2.295561     2.287918     2.280275     2.272632     2.264988     2.257345     2.249702
      2.242059     2.234416     2.226772     2.219129     2.211486     2.203843     2.196199     2.188556     2.180913     2.173270
      2.165627     2.157983     2.150340     2.142697     2.135054     2.127410     2.119767     2.112124     2.104481     2.096838
      2.089194     2.081551     2.073908     2.066265     2.058621     2.050978     2.043335     2.035692     2.028049     2.020405
      2.012762     2.005119     1.997476     1.989833     1.982190     1.974546     1.966903     1.959260     1.951617     1.943974
      1.936331     1.928688     1.921045     1.913402     1.905759     1.898115     1.890472     1.882829     1.875186     1.867543
      1.859900     1.852257     1.844614     1.836971     1.829327     1.821684     1.814041     1.806398     1.798755     1.791112
      1.783469     1.775826     1.768183     1.760540     1.752896     1.745253     1.737610     1.729967     1.722324     1.714681
      1.707038     1.699395     1.691752     1.684108     1.676465     1.668822     1.661179     1.653536     1.645893     1.638250
      1.630607     1.622964     1.615321     1.607677     1.600034     1.592391     1.584748     1.577105     1.569462     1.561819
      1.554176     1.546533     1.538890     1.531246     1.523603     1.515960     1.508317     1.500674     1.493031     1.485388
      1.477745     1.470102     1.462458     1.454815     1.447172     1.439529     1.431886     1.424243     1.416600     1.408957
      1.401314     1.393671     1.386027     1.378384     1.370741     1.363098     1.355455     1.347812     1.340169     1.332526
      1.324883     1.317240     1.309596     1.301953     1.294310     1.286667     1.279024     1.271381     1.263738     1.256095
      1.248452     1.240808     1.233165     1.225522     1.217879     1.210236     1.202593     1.194950     1.187307     1.179664
      1.172021     1.164377     1.156734     1.149091     1.141448     1.133805     1.126162     1.118519     1.110876     1.103233
      1.095590     1.087946     1.080303     1.072660     1.065017     1.057374     1.049731     1.042088     1.034445     1.026802
      1.019158     1.011515     1.003872     0.996229     0.988586     0.980943     0.973300     0.965657     0.958014     0.950371
      0.942727     0.935084     0.927441     0.919798     0.912155     0.904512     0.896869     0.889226     0.881583     0.873940
      0.866296     0.858653     0.851010     0.843367     0.835724     0.828081     0.820438     0.812795     0.805152     0.797508
      0.789865     0.782222     0.774579     0.766936     0.759293     0.751650     0.744007     0.736364     0.728721     0.721077
      0.713434     0.705791     0.698148     0.690505     0.682862     0.675219     0.667576     0.659933     0.652290     0.644646
      0.637003     0.629360     0.621717     0.614074     0.606431     0.598788     0.591145     0.583502     0.575858     0.568215
      0.560572     0.552929     0.545286     0.537643     0.530000     0.522357     0.514714     0.507071     0.499427     0.491784
      0.484141     0.476498     0.468855     0.461212     0.453569     0.445925     0.438282     0.430639     0.422996     0.415353
      0.407710     0.400067     0.392424     0.384780     0.377137     0.369494     0.361851     0.354208     0.346565     0.338922
      0.331278     0.323635     0.315992     0.308349     0.300706     0.293063     0.285420     0.277777     0.270133     0.262490
      0.254847     0.247204     0.239561     0.231918     0.224275     0.216631     0.208988     0.201345
 NY phased data points follow
  -4.47424E+00  4.69388E+00  8.56889E+00  1.05355E+01  7.11843E+00  1.45174E+01  1.75890E+01  2.73112E+01  2.50822E+01  2.45924E+01
   2.19006E+01  2.15352E+01  2.20630E+01  1.91359E+01  1.57157E+01  1.38234E+01  3.94216E+00  4.60321E+00  8.09265E-01  6.86092E+00
   3.04507E+00  4.91352E+00 -2.52147E-01  1.10551E+00  1.21295E+00  6.84722E+00 -7.68027E-02  4.93898E+00  9.35848E+00  6.75906E+00
   7.37769E+00  3.23817E+00  5.03267E+00  7.01246E+00  8.97435E-01  6.39910E+00  4.49611E-01  3.32643E-01  3.03737E+00 -3.85672E-01
   9.82632E-01  2.04867E+00  2.10965E+00  4.23927E+00  7.07806E+00  6.35327E+00  7.29715E+00  1.03667E+01  4.86054E+00  3.86166E+00
  -1.26960E+00  5.01349E+00 -4.30121E+00  5.53613E+00  1.72263E+00 -1.94356E+00 -9.81335E-02 -1.40015E+00 -3.49433E+00 -2.02077E+00
  -3.16994E+00 -4.08888E+00 -4.67511E+00 -7.44731E+00 -6.07560E+00 -7.42036E+00 -6.37844E+00 -7.71823E+00 -9.15354E+00 -7.34605E+00
  -7.12525E+00 -5.96780E+00 -9.07325E+00 -8.74246E+00 -2.91088E+00 -1.59869E+00 -7.31041E+00 -1.54400E+00 -4.20125E+00 -5.10026E+00
  -1.61465E+00 -4.49429E+00 -1.82040E+00 -7.17115E+00 -6.41850E+00 -4.46422E+00 -8.87442E+00  1.08190E+00 -4.89400E+00 -5.87134E-01
  -4.23873E+00  4.74767E+00  8.59513E-01 -2.54424E+00  3.58853E+00  6.35777E+00  5.53817E+00  1.20895E+01  1.21988E+01  1.95763E+01
   1.60956E+01  1.84486E+01  2.53418E+01  2.85843E+01  2.51220E+01  1.98203E+01  2.35975E+01  1.89695E+01  1.72036E+01  1.02005E+00
   7.25848E+00 -1.83901E+00  4.22400E+00  7.47825E-01 -5.72948E+00 -2.26755E+00  1.58755E+00  5.00314E+00 -3.37167E-01  9.30122E+00
   6.19842E+00  1.36523E+01  1.37648E+01  2.44027E+01  2.87763E+01  3.53080E+01  4.45797E+01  4.23334E+01  4.63197E+01  4.01212E+01
   3.25288E+01  2.45206E+01  1.83225E+01  1.10758E+01  6.56481E+00  7.10272E+00  2.24893E+00  3.55555E+00  1.07436E+00 -3.20628E+00
  -2.78200E+00 -1.10596E+00 -6.05028E+00 -2.76976E+00 -6.35173E+00 -8.01351E+00 -1.93126E+00 -5.74967E+00 -4.13977E+00  3.35919E+00
  -6.64313E+00 -6.38922E+00 -4.05658E+00 -5.33013E+00 -7.63928E+00 -8.69364E+00 -7.67454E+00 -1.03668E+01 -5.04056E+00 -1.19551E+00
  -6.27021E+00 -5.91043E+00 -6.45682E+00 -9.26204E+00 -9.65958E+00 -6.64965E+00 -1.24034E+00  3.29659E-01 -5.42239E+00 -8.07231E+00
  -1.66336E+01 -1.45475E+01 -1.66037E+01 -1.20705E+01 -1.88392E+01 -1.12268E+01 -1.55666E+01 -1.82018E+01 -1.36734E+01 -1.66206E+01
  -1.39269E+01 -1.20231E+01 -1.39663E+01 -1.26631E+01 -1.27040E+01 -9.46570E+00 -7.77264E+00 -5.91937E+00 -9.79290E+00 -6.36356E+00
   4.08110E-01 -4.08788E+00 -4.09683E+00  3.11027E+00  1.37848E+00  1.68600E+00 -6.32245E+00 -4.15867E+00 -6.23087E+00 -5.52423E+00
  -5.70527E-01 -3.78849E+00 -2.65598E+00 -2.66501E+00 -8.27658E+00 -2.34503E+00 -3.24156E+00 -3.59884E+00 -9.77795E+00 -5.88292E+00
  -7.83337E+00 -8.65771E+00 -5.89616E+00  1.02628E+00  8.69234E-01  2.61215E-01 -5.28718E-01  5.82010E+00  1.27740E+00 -3.46895E+00
  -7.76331E+00 -1.99532E+00 -7.06473E+00 -6.31250E+00 -5.86216E+00 -3.41286E+00 -6.04437E+00  3.32570E+00 -2.49279E+00  1.81192E+00
   2.09907E+00 -2.54477E+00 -8.69168E+00  3.26119E+00  2.38829E+00 -5.56554E+00 -1.88878E+00 -3.67497E+00 -8.07706E+00 -6.47129E+00
  -5.88792E+00  6.02039E-01 -5.83535E-01 -2.03773E+00  1.57705E+00  1.85726E-02 -3.59659E+00  8.66657E+00  5.57132E+00  3.35266E+00
   1.01036E+01  1.27864E+01  1.99274E+01  2.53850E+01  3.22046E+01  3.68078E+01  4.75161E+01  6.20022E+01  7.40151E+01  8.35990E+01
   8.83613E+01  7.90607E+01  7.80590E+01  6.62475E+01  5.79316E+01  4.46360E+01  2.87118E+01  1.83551E+01  9.06852E+00  9.47397E+00
   7.09388E+00  1.19313E+00  6.96884E+00 -7.23787E-01  4.72486E-01  3.22605E+00  2.13344E+00  1.77076E+00 -1.41894E+00 -3.01834E+00
   2.78603E-01 -6.25321E+00 -2.20387E+00 -1.46209E+00 -8.52974E+00 -1.46841E+00  1.35286E+00 -1.78434E+00 -2.12520E+00  1.50655E+00
  -3.36824E+00  3.82256E+00 -2.03767E+00  3.15995E+00  5.87758E+00  2.98466E+00 -2.27175E+00  5.15214E+00  2.91533E+00  5.05324E+00
  -5.56093E+00  2.17426E+00  2.61612E+00  4.34684E-01  8.55010E+00  7.04172E+00  9.20029E+00  6.84721E+00  7.48304E+00  1.24472E+01
   9.62799E+00  5.56543E+00  1.04970E+01  9.01267E+00  6.97753E+00  1.17638E+01  7.20060E+00  1.09491E+01  1.42574E+01  1.65388E+01
   1.26734E+01  1.16512E+01  8.73215E+00  1.53441E+01  1.36826E+01  1.06541E+01  1.58741E+01  1.76385E+01  1.65655E+01  1.85220E+01
   2.22010E+01  1.68846E+01  1.79766E+01  2.28880E+01  1.67000E+01  2.15544E+01  1.33175E+01  1.87904E+01  1.55625E+01  1.65537E+01
   1.64381E+01  1.26598E+01  1.19907E+01  1.58509E+01  8.07322E+00  1.32762E+01  9.31448E+00  1.13788E+01  6.08767E+00  2.54639E+00
   5.49061E+00  6.83503E+00 -1.03058E+00  2.72994E+00  2.32631E+00  6.49629E+00  3.90868E+00  7.20659E+00  6.35501E+00  5.74535E+00
   2.06213E+00  2.66559E+00  2.28969E+00 -4.07781E-01  4.63404E+00  4.94614E-01  6.20188E+00  1.03494E+01  2.57287E+00  3.62474E+00
   5.48459E+00  5.05482E+00  7.66784E+00  4.58798E+00  6.63752E+00  3.69874E+00  5.94537E+00  5.12407E+00  6.52419E+00 -1.09683E+00
   3.78610E-01  3.40499E+00 -3.28652E+00  5.81084E+00  4.22712E+00  5.73667E+00  9.88862E-01  2.09117E+00 -4.01290E-02 -1.68015E+00
   2.89209E+00  9.58985E-01  1.41096E+00  5.62275E+00  2.72521E+00  4.63973E+00  3.24909E+00  3.38332E+00  7.06790E+00  6.18330E+00
   1.41080E+01  1.08475E+01  8.02576E+00  1.43077E+01  9.02658E-01  1.19388E+01  7.28004E+00  1.35221E+01  9.77543E+00  1.15077E+01
   1.54661E+01  1.56024E+01  9.19814E+00  1.00852E+01  8.05433E+00  4.97293E+00  3.69896E+00  5.05574E+00  8.29375E+00  7.96671E+00
   5.59269E+00  4.09070E+00  4.87550E+00  5.14430E+00  3.81146E+00  1.73137E+00  2.75932E+00  1.27875E+00 -1.43673E+00  7.16869E-01
  -1.22821E+00 -4.36035E-01 -3.40072E+00 -2.88797E+00 -2.14558E-01  2.11691E+00 -1.35687E+00  1.54659E+00  1.32098E+00 -5.13313E-01
   5.44845E+00  3.59541E+00  3.31593E-01  2.35572E+00  5.53666E+00 -5.97646E+00  4.95523E-01  1.86414E+00  1.82045E+00 -3.08572E+00
  -5.33847E+00  4.00994E+00 -2.22007E-01  1.26059E+00 -1.27644E+00 -2.31407E+00 -2.19047E+00 -1.45277E+00  3.39491E+00 -3.60115E-01
  -3.35701E+00 -5.96705E+00 -3.38420E+00  1.29690E+00 -2.17674E+00  2.64806E+00 -4.44969E+00 -4.39567E+00  1.61999E+00 -8.37322E-01
   4.65328E-01 -1.33420E+00 -4.79708E-01  1.41100E+00  4.16068E+00 -1.07883E+00 -3.04752E-01 -6.28981E+00 -2.20232E+00  3.84044E-01
  -2.60093E+00  3.62732E-01 -3.72458E+00 -2.70401E+00 -9.01758E+00 -3.14140E+00 -2.11279E+00 -3.70837E+00 -4.91210E+00  1.37430E+00
  -3.68588E+00 -1.47054E+00 -1.70529E+00 -1.99345E+00  3.69681E+00 -4.54289E+00 -3.77294E+00  2.84505E+00
 NY points of the fit to the data follow
   1.31246E+00  2.90552E+00  5.12705E+00  7.89583E+00  1.10891E+01  1.45671E+01  1.81375E+01  2.14552E+01  2.40567E+01  2.55114E+01
   2.55803E+01  2.42609E+01  2.17413E+01  1.83509E+01  1.45016E+01  1.06373E+01  7.16778E+00  4.31476E+00  2.11235E+00  5.04832E-01
  -3.59610E-01 -4.96135E-01 -2.23637E-01  3.54046E-01  1.16803E+00  2.21103E+00  3.45062E+00  4.78194E+00  6.07488E+00  7.13240E+00
   7.77233E+00  7.91066E+00  7.47590E+00  6.46983E+00  5.01715E+00  3.31959E+00  1.63256E+00  2.46017E-01 -5.98545E-01 -8.68585E-01
  -6.28463E-01  1.58492E-02  8.61128E-01  1.79465E+00  2.67784E+00  3.35779E+00  3.70402E+00  3.64377E+00  3.18519E+00  2.39562E+00
   1.41957E+00  4.07933E-01 -5.38965E-01 -1.32615E+00 -1.88523E+00 -2.21170E+00 -2.35012E+00 -2.34058E+00 -2.22939E+00 -2.12172E+00
  -2.11273E+00 -2.23267E+00 -2.44708E+00 -2.69482E+00 -2.93330E+00 -3.12363E+00 -3.22837E+00 -3.22745E+00 -3.13429E+00 -2.98164E+00
  -2.80550E+00 -2.65454E+00 -2.56591E+00 -2.55583E+00 -2.62154E+00 -2.74100E+00 -2.88135E+00 -2.98925E+00 -3.03673E+00 -3.06795E+00
  -3.10149E+00 -3.13026E+00 -3.14160E+00 -3.14271E+00 -3.16174E+00 -3.21834E+00 -3.31965E+00 -3.43938E+00 -3.55332E+00 -3.64128E+00
  -3.67688E+00 -3.62318E+00 -3.41703E+00 -2.81968E+00 -1.16576E+00  1.50852E+00  4.64913E+00  8.06086E+00  1.18039E+01  1.58848E+01
   2.00685E+01  2.38424E+01  2.65634E+01  2.77073E+01  2.70692E+01  2.47660E+01  2.11148E+01  1.65648E+01  1.16640E+01  7.00865E+00
   3.08645E+00  1.06969E-01 -1.97895E+00 -3.25101E+00 -3.68331E+00 -3.58860E+00 -3.23382E+00 -2.34458E+00  2.02358E-02  3.84159E+00
   8.38890E+00  1.33865E+01  1.89078E+01  2.49678E+01  3.12253E+01  3.69075E+01  4.10266E+01  4.28224E+01  4.20191E+01  3.87920E+01
   3.36083E+01  2.70783E+01  1.99677E+01  1.31072E+01  7.18560E+00  2.55066E+00 -7.99454E-01 -2.92529E+00 -3.78232E+00 -3.85825E+00
  -3.67380E+00 -3.41546E+00 -3.18895E+00 -3.05663E+00 -3.03911E+00 -3.15199E+00 -3.39124E+00 -3.69916E+00 -4.02190E+00 -4.32270E+00
  -4.56962E+00 -4.78614E+00 -5.02773E+00 -5.28087E+00 -5.51443E+00 -5.69760E+00 -5.81872E+00 -5.95627E+00 -6.14866E+00 -6.36633E+00
  -6.56118E+00 -6.71219E+00 -6.82838E+00 -6.93956E+00 -7.08431E+00 -7.29761E+00 -7.61311E+00 -8.06959E+00 -8.61748E+00 -9.15240E+00
  -9.62948E+00 -1.00679E+01 -1.05228E+01 -1.09321E+01 -1.12181E+01 -1.13415E+01 -1.13335E+01 -1.12903E+01 -1.12749E+01 -1.12146E+01
  -1.10328E+01 -1.07141E+01 -1.02707E+01 -9.70694E+00 -9.01607E+00 -8.18585E+00 -7.21094E+00 -6.14615E+00 -5.07227E+00 -4.11936E+00
  -3.36643E+00 -2.86813E+00 -2.65101E+00 -2.66917E+00 -2.81268E+00 -2.94080E+00 -2.94059E+00 -2.73508E+00 -2.31940E+00 -1.70652E+00
  -1.01421E+00 -4.84347E-01 -2.09525E-01 -2.65905E-01 -7.96832E-01 -1.78266E+00 -3.05015E+00 -4.28436E+00 -5.30035E+00 -5.99838E+00
  -6.21018E+00 -5.83827E+00 -4.94138E+00 -3.78901E+00 -2.69918E+00 -1.88211E+00 -1.49167E+00 -1.67116E+00 -2.42320E+00 -3.58580E+00
  -4.89178E+00 -6.04018E+00 -6.72979E+00 -6.80895E+00 -6.28460E+00 -5.26486E+00 -3.96691E+00 -2.62483E+00 -1.43003E+00 -5.17125E-01
   7.05346E-02  3.91201E-01  5.56890E-01  6.12634E-01  5.54304E-01  4.86577E-01  4.78821E-01  4.68559E-01  3.64879E-01  1.42204E-01
  -1.71498E-01 -5.21273E-01 -8.41906E-01 -1.04174E+00 -1.02162E+00 -7.51480E-01 -2.18305E-01  6.69696E-01  1.87402E+00  3.27081E+00
   5.23366E+00  9.56707E+00  1.65419E+01  2.47985E+01  3.36609E+01  4.31725E+01  5.33603E+01  6.36763E+01  7.29658E+01  7.97520E+01
   8.27731E+01  8.15021E+01  7.62040E+01  6.76102E+01  5.67150E+01  4.47437E+01  3.30960E+01  2.30157E+01  1.50459E+01  9.07687E+00
   4.94048E+00  2.81208E+00  1.95707E+00  1.47636E+00  1.14563E+00  8.94416E-01  6.73038E-01  4.50571E-01  2.24618E-01 -5.40541E-03
  -2.30853E-01 -4.37636E-01 -6.13817E-01 -7.52322E-01 -8.46759E-01 -8.94360E-01 -8.98868E-01 -8.65542E-01 -7.96956E-01 -6.91738E-01
  -5.47401E-01 -3.61565E-01 -1.32594E-01  1.42144E-01  4.63821E-01  8.31078E-01  1.24088E+00  1.69063E+00  2.17682E+00  2.69471E+00
   3.23840E+00  3.80004E+00  4.37018E+00  4.93934E+00  5.49717E+00  6.03317E+00  6.53864E+00  7.00754E+00  7.43707E+00  7.82735E+00
   8.18140E+00  8.50585E+00  8.80993E+00  9.10458E+00  9.40215E+00  9.71525E+00  1.00558E+01  1.04344E+01  1.08591E+01  1.13351E+01
   1.18636E+01  1.24417E+01  1.30622E+01  1.37138E+01  1.43816E+01  1.50478E+01  1.56924E+01  1.62946E+01  1.68333E+01  1.72889E+01
   1.76444E+01  1.78857E+01  1.80032E+01  1.79921E+01  1.78535E+01  1.75952E+01  1.72339E+01  1.68039E+01  1.63651E+01  1.58970E+01
   1.53306E+01  1.46638E+01  1.39195E+01  1.31000E+01  1.21701E+01  1.10854E+01  9.89917E+00  8.67412E+00  7.44185E+00  6.25937E+00
   5.21247E+00  4.39584E+00  3.88477E+00  3.70717E+00  3.82429E+00  4.13671E+00  4.52481E+00  4.89509E+00  5.18996E+00  5.34231E+00
   5.31721E+00  5.14981E+00  4.89613E+00  4.60594E+00  4.30534E+00  4.00929E+00  3.75426E+00  3.54068E+00  3.34463E+00  3.15521E+00
   2.96817E+00  2.78226E+00  2.59793E+00  2.41671E+00  2.24096E+00  2.07347E+00  1.91742E+00  1.77610E+00  1.65297E+00  1.55149E+00
   1.47526E+00  1.42780E+00  1.41264E+00  1.43322E+00  1.49295E+00  1.59511E+00  1.74285E+00  1.93899E+00  2.18590E+00  2.48530E+00
   2.83812E+00  3.24420E+00  3.70213E+00  4.20889E+00  4.75975E+00  5.34804E+00  5.96525E+00  6.60091E+00  7.24290E+00  7.87760E+00
   8.49037E+00  9.06607E+00  9.58972E+00  1.00471E+01  1.04254E+01  1.07139E+01  1.09043E+01  1.09916E+01  1.09736E+01  1.08519E+01
   1.06309E+01  1.03180E+01  9.92304E+00  9.45783E+00  8.93548E+00  8.36968E+00  7.77419E+00  7.16220E+00  6.54593E+00  5.93625E+00
   5.34242E+00  4.77194E+00  4.23052E+00  3.72220E+00  3.24948E+00  2.81350E+00  2.41429E+00  2.05091E+00  1.72176E+00  1.42471E+00
   1.15743E+00  9.17381E-01  7.02025E-01  5.08818E-01  3.35393E-01  1.79523E-01  3.92379E-02 -8.72950E-02 -2.01676E-01 -3.05385E-01
  -3.99661E-01 -4.85612E-01 -5.64150E-01 -6.36129E-01 -7.02263E-01 -7.63222E-01 -8.19524E-01 -8.71655E-01 -9.19990E-01 -9.64924E-01
  -1.00677E+00 -1.04585E+00 -1.08237E+00 -1.11656E+00 -1.14859E+00 -1.17866E+00 -1.20693E+00 -1.23357E+00 -1.25866E+00 -1.28232E+00
  -1.30464E+00 -1.32576E+00 -1.34575E+00 -1.36470E+00 -1.38265E+00 -1.39967E+00 -1.41582E+00 -1.43120E+00 -1.44582E+00 -1.45976E+00
  -1.47302E+00 -1.48565E+00 -1.49770E+00 -1.50924E+00 -1.52027E+00 -1.53082E+00 -1.54090E+00 -1.55057E+00 -1.55985E+00 -1.56879E+00
  -1.57739E+00 -1.58567E+00 -1.59364E+00 -1.60136E+00 -1.60884E+00 -1.61612E+00 -1.62318E+00 -1.63006E+00 -1.63677E+00 -1.64337E+00
  -1.64987E+00 -1.65631E+00 -1.66266E+00 -1.66898E+00 -1.67529E+00 -1.68166E+00 -1.68811E+00 -1.69467E+00
 NY background values follow
    -6.643E+00   -6.636E+00   -6.630E+00   -6.623E+00   -6.617E+00   -6.610E+00   -6.604E+00   -6.597E+00   -6.591E+00   -6.584E+00
    -6.578E+00   -6.571E+00   -6.565E+00   -6.558E+00   -6.552E+00   -6.545E+00   -6.539E+00   -6.532E+00   -6.526E+00   -6.519E+00
    -6.513E+00   -6.506E+00   -6.499E+00   -6.493E+00   -6.486E+00   -6.480E+00   -6.473E+00   -6.466E+00   -6.460E+00   -6.453E+00
    -6.447E+00   -6.440E+00   -6.433E+00   -6.427E+00   -6.420E+00   -6.414E+00   -6.407E+00   -6.400E+00   -6.394E+00   -6.387E+00
    -6.380E+00   -6.374E+00   -6.367E+00   -6.360E+00   -6.354E+00   -6.347E+00   -6.340E+00   -6.334E+00   -6.327E+00   -6.320E+00
    -6.314E+00   -6.307E+00   -6.300E+00   -6.294E+00   -6.287E+00   -6.280E+00   -6.273E+00   -6.267E+00   -6.260E+00   -6.253E+00
    -6.247E+00   -6.240E+00   -6.233E+00   -6.226E+00   -6.220E+00   -6.213E+00   -6.206E+00   -6.199E+00   -6.193E+00   -6.186E+00
    -6.179E+00   -6.172E+00   -6.166E+00   -6.159E+00   -6.152E+00   -6.145E+00   -6.138E+00   -6.132E+00   -6.125E+00   -6.118E+00
    -6.111E+00   -6.104E+00   -6.098E+00   -6.091E+00   -6.084E+00   -6.077E+00   -6.070E+00   -6.063E+00   -6.057E+00   -6.050E+00
    -6.043E+00   -6.036E+00   -6.029E+00   -6.022E+00   -6.015E+00   -6.009E+00   -6.002E+00   -5.995E+00   -5.988E+00   -5.981E+00
    -5.974E+00   -5.967E+00   -5.960E+00   -5.954E+00   -5.947E+00   -5.940E+00   -5.933E+00   -5.926E+00   -5.919E+00   -5.912E+00
    -5.905E+00   -5.898E+00   -5.891E+00   -5.884E+00   -5.878E+00   -5.871E+00   -5.864E+00   -5.857E+00   -5.850E+00   -5.843E+00
    -5.836E+00   -5.829E+00   -5.822E+00   -5.815E+00   -5.808E+00   -5.801E+00   -5.794E+00   -5.787E+00   -5.780E+00   -5.773E+00
    -5.766E+00   -5.759E+00   -5.752E+00   -5.745E+00   -5.738E+00   -5.731E+00   -5.724E+00   -5.717E+00   -5.710E+00   -5.703E+00
    -5.696E+00   -5.689E+00   -5.682E+00   -5.675E+00   -5.668E+00   -5.661E+00   -5.654E+00   -5.647E+00   -5.640E+00   -5.633E+00
    -5.626E+00   -5.619E+00   -5.612E+00   -5.605E+00   -5.598E+00   -5.591E+00   -5.584E+00   -5.576E+00   -5.569E+00   -5.562E+00
    -5.555E+00   -5.548E+00   -5.541E+00   -5.534E+00   -5.527E+00   -5.520E+00   -5.513E+00   -5.506E+00   -5.498E+00   -5.491E+00
    -5.484E+00   -5.477E+00   -5.470E+00   -5.463E+00   -5.456E+00   -5.449E+00   -5.442E+00   -5.434E+00   -5.427E+00   -5.420E+00
    -5.413E+00   -5.406E+00   -5.399E+00   -5.392E+00   -5.384E+00   -5.377E+00   -5.370E+00   -5.363E+00   -5.356E+00   -5.349E+00
    -5.342E+00   -5.334E+00   -5.327E+00   -5.320E+00   -5.313E+00   -5.306E+00   -5.299E+00   -5.291E+00   -5.284E+00   -5.277E+00
    -5.270E+00   -5.263E+00   -5.255E+00   -5.248E+00   -5.241E+00   -5.234E+00   -5.227E+00   -5.219E+00   -5.212E+00   -5.205E+00
    -5.198E+00   -5.191E+00   -5.183E+00   -5.176E+00   -5.169E+00   -5.162E+00   -5.154E+00   -5.147E+00   -5.140E+00   -5.133E+00
    -5.125E+00   -5.118E+00   -5.111E+00   -5.104E+00   -5.096E+00   -5.089E+00   -5.082E+00   -5.075E+00   -5.067E+00   -5.060E+00
    -5.053E+00   -5.046E+00   -5.038E+00   -5.031E+00   -5.024E+00   -5.017E+00   -5.009E+00   -5.002E+00   -4.995E+00   -4.987E+00
    -4.980E+00   -4.973E+00   -4.966E+00   -4.958E+00   -4.951E+00   -4.944E+00   -4.936E+00   -4.929E+00   -4.922E+00   -4.915E+00
    -4.907E+00   -4.900E+00   -4.893E+00   -4.885E+00   -4.878E+00   -4.871E+00   -4.863E+00   -4.856E+00   -4.849E+00   -4.841E+00
    -4.834E+00   -4.827E+00   -4.819E+00   -4.812E+00   -4.805E+00   -4.797E+00   -4.790E+00   -4.783E+00   -4.775E+00   -4.768E+00
    -4.761E+00   -4.753E+00   -4.746E+00   -4.739E+00   -4.731E+00   -4.724E+00   -4.717E+00   -4.709E+00   -4.702E+00   -4.695E+00
    -4.687E+00   -4.680E+00   -4.672E+00   -4.665E+00   -4.658E+00   -4.650E+00   -4.643E+00   -4.636E+00   -4.628E+00   -4.621E+00
    -4.613E+00   -4.606E+00   -4.599E+00   -4.591E+00   -4.584E+00   -4.577E+00   -4.569E+00   -4.562E+00   -4.554E+00   -4.547E+00
    -4.540E+00   -4.532E+00   -4.525E+00   -4.517E+00   -4.510E+00   -4.503E+00   -4.495E+00   -4.488E+00   -4.480E+00   -4.473E+00
    -4.466E+00   -4.458E+00   -4.451E+00   -4.443E+00   -4.436E+00   -4.429E+00   -4.421E+00   -4.414E+00   -4.406E+00   -4.399E+00
    -4.391E+00   -4.384E+00   -4.377E+00   -4.369E+00   -4.362E+00   -4.354E+00   -4.347E+00   -4.339E+00   -4.332E+00   -4.325E+00
    -4.317E+00   -4.310E+00   -4.302E+00   -4.295E+00   -4.287E+00   -4.280E+00   -4.273E+00   -4.265E+00   -4.258E+00   -4.250E+00
    -4.243E+00   -4.235E+00   -4.228E+00   -4.220E+00   -4.213E+00   -4.205E+00   -4.198E+00   -4.191E+00   -4.183E+00   -4.176E+00
    -4.168E+00   -4.161E+00   -4.153E+00   -4.146E+00   -4.138E+00   -4.131E+00   -4.123E+00   -4.116E+00   -4.109E+00   -4.101E+00
    -4.094E+00   -4.086E+00   -4.079E+00   -4.071E+00   -4.064E+00   -4.056E+00   -4.049E+00   -4.041E+00   -4.034E+00   -4.026E+00
    -4.019E+00   -4.011E+00   -4.004E+00   -3.997E+00   -3.989E+00   -3.982E+00   -3.974E+00   -3.967E+00   -3.959E+00   -3.952E+00
    -3.944E+00   -3.937E+00   -3.929E+00   -3.922E+00   -3.914E+00   -3.907E+00   -3.899E+00   -3.892E+00   -3.884E+00   -3.877E+00
    -3.869E+00   -3.862E+00   -3.854E+00   -3.847E+00   -3.839E+00   -3.832E+00   -3.824E+00   -3.817E+00   -3.809E+00   -3.802E+00
    -3.794E+00   -3.787E+00   -3.779E+00   -3.772E+00   -3.765E+00   -3.757E+00   -3.750E+00   -3.742E+00   -3.735E+00   -3.727E+00
    -3.720E+00   -3.712E+00   -3.705E+00   -3.697E+00   -3.690E+00   -3.682E+00   -3.675E+00   -3.667E+00   -3.660E+00   -3.652E+00
    -3.645E+00   -3.637E+00   -3.630E+00   -3.622E+00   -3.615E+00   -3.607E+00   -3.600E+00   -3.592E+00   -3.585E+00   -3.577E+00
    -3.570E+00   -3.562E+00   -3.555E+00   -3.547E+00   -3.540E+00   -3.532E+00   -3.525E+00   -3.517E+00   -3.510E+00   -3.502E+00
    -3.495E+00   -3.487E+00   -3.480E+00   -3.472E+00   -3.465E+00   -3.457E+00   -3.450E+00   -3.442E+00   -3.435E+00   -3.427E+00
    -3.420E+00   -3.412E+00   -3.405E+00   -3.397E+00   -3.390E+00   -3.382E+00   -3.375E+00   -3.367E+00   -3.360E+00   -3.352E+00
    -3.345E+00   -3.337E+00   -3.330E+00   -3.322E+00   -3.315E+00   -3.307E+00   -3.300E+00   -3.292E+00   -3.285E+00   -3.277E+00
    -3.270E+00   -3.262E+00   -3.255E+00   -3.247E+00   -3.240E+00   -3.232E+00   -3.225E+00   -3.217E+00   -3.210E+00   -3.202E+00
    -3.195E+00   -3.187E+00   -3.180E+00   -3.172E+00   -3.165E+00   -3.157E+00   -3.150E+00   -3.142E+00   -3.135E+00   -3.128E+00
    -3.120E+00   -3.113E+00   -3.105E+00   -3.098E+00   -3.090E+00   -3.083E+00   -3.075E+00   -3.068E+00
 Cr       Conc. = 3.89E+02
