 LCModel (Version 6.3-1L) Copyright: S.W. Provencher.          Ref.: Magn. Reson. Med. 30:672-679 (1993).                
 Slice#2 Row#6 Col#12  PD_05_press_2_raw_act
 36 lines in following concentration table = NCONC+1
    Conc.  %SD /Cr+PCr  Metabolite                                         
  103.792 184%   1.268 Ala                                                 
   53.733 147%   0.657 Asp                                                 
    0.000 999%   0.000 Cr                                                  
   81.838  72%   1.000 PCr                                                 
   46.879 103%   0.573 GABA                                                
   44.989 106%   0.550 Glc                                                 
    0.000 999%   0.000 Gln                                                 
  945.284  45%  11.551 Glu                                                 
    0.000 999%   0.000 GPC                                                 
    0.000 999%   0.000 PCh                                                 
    0.000 999%   0.000 GSH                                                 
  173.731 148%   2.123 Ins                                                 
  296.881  76%   3.628 Lac                                                 
 1.45E+03  13%  17.712 NAA                                                 
   35.947 574%   0.439 NAAG                                                
   11.615 125%   0.142 Scyllo                                              
   69.402 110%   0.848 Tau                                                 
    9.924 385%   0.121 -CrCH2                                              
    0.000 999%   0.000 GPC+PCh                                             
 1.49E+03   7%  18.151 NAA+NAAG                                            
   81.838  72%   1.000 Cr+PCr                                              
  945.284  45%  11.551 Glu+Gln                                             
 2.47E+03  23%  30.157 Lip13a                                              
    0.000 999%   0.000 Lip13b                                              
  571.185  45%   6.979 Lip09                                               
  922.389  30%  11.271 MM09                                                
  507.430  34%   6.200 Lip20                                               
 1.84E+03  22%  22.456 MM20                                                
  259.758  62%   3.174 MM12                                                
  538.559  74%   6.581 MM14                                                
  470.864  39%   5.754 MM17                                                
 2.47E+03  23%  30.157 Lip13a+Lip13b                                       
 3.27E+03  12%  39.912 MM14+Lip13a+Lip13b+MM12                             
 1.49E+03  12%  18.250 MM09+Lip09                                          
 2.35E+03  16%  28.656 MM20+Lip20                                          
   6 lines in following misc. output table
  FWHM = 0.076 ppm    S/N =   5                                            
  Data shift =-0.008 ppm                                                   
  Ph: -46 deg     -13.9 deg/ppm                                            
  alphaB,S = 8.5E+01,   2.0E+02                                            
   14 spline knots.   Ns = 9(1)                                            
   2 inflections.     1 extrema                                            
  498 points on ppm-axis = NY
      4.000000     3.992357     3.984714     3.977070     3.969427     3.961784     3.954141     3.946497     3.938854     3.931211
      3.923568     3.915925     3.908281     3.900638     3.892995     3.885352     3.877708     3.870065     3.862422     3.854779
      3.847136     3.839492     3.831849     3.824206     3.816563     3.808919     3.801276     3.793633     3.785990     3.778347
      3.770703     3.763060     3.755417     3.747774     3.740130     3.732487     3.724844     3.717201     3.709558     3.701914
      3.694271     3.686628     3.678985     3.671341     3.663698     3.656055     3.648412     3.640769     3.633125     3.625482
      3.617839     3.610196     3.602552     3.594909     3.587266     3.579623     3.571980     3.564336     3.556693     3.549050
      3.541407     3.533763     3.526120     3.518477     3.510834     3.503191     3.495547     3.487904     3.480261     3.472618
      3.464974     3.457331     3.449688     3.442045     3.434402     3.426758     3.419115     3.411472     3.403829     3.396185
      3.388542     3.380899     3.373256     3.365613     3.357969     3.350326     3.342683     3.335040     3.327396     3.319753
      3.312110     3.304467     3.296824     3.289180     3.281537     3.273894     3.266251     3.258607     3.250964     3.243321
      3.235678     3.228034     3.220391     3.212748     3.205105     3.197462     3.189818     3.182175     3.174532     3.166889
      3.159245     3.151602     3.143959     3.136316     3.128673     3.121029     3.113386     3.105743     3.098100     3.090456
      3.082813     3.075170     3.067527     3.059884     3.052240     3.044597     3.036954     3.029311     3.021667     3.014024
      3.006381     2.998738     2.991095     2.983451     2.975808     2.968165     2.960522     2.952878     2.945235     2.937592
      2.929949     2.922306     2.914662     2.907019     2.899376     2.891733     2.884089     2.876446     2.868803     2.861160
      2.853517     2.845873     2.838230     2.830587     2.822944     2.815300     2.807657     2.800014     2.792371     2.784728
      2.777084     2.769441     2.761798     2.754155     2.746511     2.738868     2.731225     2.723582     2.715939     2.708295
      2.700652     2.693009     2.685366     2.677722     2.670079     2.662436     2.654793     2.647150     2.639506     2.631863
      2.624220     2.616577     2.608933     2.601290     2.593647     2.586004     2.578361     2.570717     2.563074     2.555431
      2.547788     2.540144     2.532501     2.524858     2.517215     2.509572     2.501928     2.494285     2.486642     2.478999
      2.471355     2.463712     2.456069     2.448426     2.440783     2.433139     2.425496     2.417853     2.410210     2.402566
      2.394923     2.387280     2.379637     2.371994     2.364350     2.356707     2.349064     2.341421     2.333777     2.326134
      2.318491     2.310848     2.303205     2.295561     2.287918     2.280275     2.272632     2.264988     2.257345     2.249702
      2.242059     2.234416     2.226772     2.219129     2.211486     2.203843     2.196199     2.188556     2.180913     2.173270
      2.165627     2.157983     2.150340     2.142697     2.135054     2.127410     2.119767     2.112124     2.104481     2.096838
      2.089194     2.081551     2.073908     2.066265     2.058621     2.050978     2.043335     2.035692     2.028049     2.020405
      2.012762     2.005119     1.997476     1.989833     1.982190     1.974546     1.966903     1.959260     1.951617     1.943974
      1.936331     1.928688     1.921045     1.913402     1.905759     1.898115     1.890472     1.882829     1.875186     1.867543
      1.859900     1.852257     1.844614     1.836971     1.829327     1.821684     1.814041     1.806398     1.798755     1.791112
      1.783469     1.775826     1.768183     1.760540     1.752896     1.745253     1.737610     1.729967     1.722324     1.714681
      1.707038     1.699395     1.691752     1.684108     1.676465     1.668822     1.661179     1.653536     1.645893     1.638250
      1.630607     1.622964     1.615321     1.607677     1.600034     1.592391     1.584748     1.577105     1.569462     1.561819
      1.554176     1.546533     1.538890     1.531246     1.523603     1.515960     1.508317     1.500674     1.493031     1.485388
      1.477745     1.470102     1.462458     1.454815     1.447172     1.439529     1.431886     1.424243     1.416600     1.408957
      1.401314     1.393671     1.386027     1.378384     1.370741     1.363098     1.355455     1.347812     1.340169     1.332526
      1.324883     1.317240     1.309596     1.301953     1.294310     1.286667     1.279024     1.271381     1.263738     1.256095
      1.248452     1.240808     1.233165     1.225522     1.217879     1.210236     1.202593     1.194950     1.187307     1.179664
      1.172021     1.164377     1.156734     1.149091     1.141448     1.133805     1.126162     1.118519     1.110876     1.103233
      1.095590     1.087946     1.080303     1.072660     1.065017     1.057374     1.049731     1.042088     1.034445     1.026802
      1.019158     1.011515     1.003872     0.996229     0.988586     0.980943     0.973300     0.965657     0.958014     0.950371
      0.942727     0.935084     0.927441     0.919798     0.912155     0.904512     0.896869     0.889226     0.881583     0.873940
      0.866296     0.858653     0.851010     0.843367     0.835724     0.828081     0.820438     0.812795     0.805152     0.797508
      0.789865     0.782222     0.774579     0.766936     0.759293     0.751650     0.744007     0.736364     0.728721     0.721077
      0.713434     0.705791     0.698148     0.690505     0.682862     0.675219     0.667576     0.659933     0.652290     0.644646
      0.637003     0.629360     0.621717     0.614074     0.606431     0.598788     0.591145     0.583502     0.575858     0.568215
      0.560572     0.552929     0.545286     0.537643     0.530000     0.522357     0.514714     0.507071     0.499427     0.491784
      0.484141     0.476498     0.468855     0.461212     0.453569     0.445925     0.438282     0.430639     0.422996     0.415353
      0.407710     0.400067     0.392424     0.384780     0.377137     0.369494     0.361851     0.354208     0.346565     0.338922
      0.331278     0.323635     0.315992     0.308349     0.300706     0.293063     0.285420     0.277777     0.270133     0.262490
      0.254847     0.247204     0.239561     0.231918     0.224275     0.216631     0.208988     0.201345
 NY phased data points follow
  -7.61265E+00  3.23759E+00 -1.04938E+00 -4.25293E+00 -3.30934E+00 -8.11967E-03 -3.91589E+00  9.03531E-01  4.48941E+00  2.84474E+00
   2.71018E+00 -7.40443E-01  4.58912E+00 -4.03858E+00 -1.97210E+00 -3.51513E+00 -3.83928E+00 -8.58855E+00 -6.80863E+00 -4.97152E+00
   3.31215E+00  7.59773E+00 -5.65236E+00 -2.34901E+00 -8.63726E-01 -3.47717E+00 -9.89888E-01  8.75687E-01 -5.73707E-01  7.49714E+00
  -2.80274E+00 -1.87443E+00 -4.39314E+00 -8.00625E-01  2.49215E+00 -3.87492E+00  2.93798E+00  1.09286E+00 -8.46312E+00  9.08575E-02
  -4.33824E-01 -1.16791E+00 -1.39837E+00 -1.93347E+00 -2.12467E+00 -6.69593E+00  5.62576E+00  3.97737E-01  3.02917E+00  7.26144E-01
   9.87020E-01  6.11643E+00 -3.25859E+00 -1.86483E+00 -3.90212E+00  3.42190E-03 -2.92036E+00 -2.11335E+00 -9.93653E-01  1.41038E+00
   1.68611E+00  1.18040E+00  6.44382E+00  1.66355E+00  5.46435E+00  1.70595E+00 -1.07937E+00  2.32542E+00 -4.56155E+00 -1.00353E+00
  -1.47455E+00  2.57964E+00  2.16710E+00 -3.97338E+00 -1.80130E+00 -2.11604E+00  1.04871E+00  1.10995E+00  3.67060E+00 -5.32344E-01
  -1.95856E+00 -2.73947E+00 -1.78876E+00  3.14234E+00  1.22001E-01 -6.24449E+00  3.24621E-01 -3.84896E+00  3.89406E+00  1.42317E+00
   6.54250E-01 -5.11363E+00 -3.68995E+00  1.13353E+00  2.35088E+00 -4.54920E-01 -4.24662E-01 -6.50456E+00  6.20048E+00 -5.09524E+00
  -4.23864E+00 -2.04494E+00 -2.77318E+00 -1.66343E+00  9.89046E-02  6.01487E+00 -6.92912E+00 -3.92420E+00  3.37216E+00 -3.43412E+00
  -2.44393E+00  7.82752E+00  1.16607E+00 -1.16458E+00 -2.63090E+00  9.18586E-01  5.37971E+00 -3.24927E+00 -5.30693E+00 -3.69919E+00
   6.89365E+00  4.81989E+00  3.09592E+00  1.06542E+00 -1.57241E+00  1.90676E+00  1.71989E-01  8.09390E-01  4.11018E+00  7.74201E+00
   8.39184E+00  2.30184E+00  8.58871E-01 -5.72766E+00 -6.26004E+00  4.78245E+00  6.26733E+00  9.87470E+00  2.27064E+00  7.44691E-01
  -2.76451E+00  7.24804E+00  4.01905E+00 -1.46107E+00 -2.67557E+00 -8.89959E-01  7.41044E+00 -3.84181E+00 -4.55492E-01  4.54968E+00
   1.82219E+00  6.71910E+00 -5.15871E+00  1.79629E+00 -2.22475E+00  8.79030E+00  2.93383E+00  4.42859E+00  7.69053E+00 -2.34528E-01
  -1.59690E+00  1.57494E+00 -1.90225E+00 -1.07117E+00  6.10113E-01  1.93903E+00  2.96292E+00  2.26673E+00  6.39371E-01  2.28517E+00
  -1.60653E+00 -4.01443E+00 -1.68357E+00  4.35282E-01  1.18678E+00 -3.37036E+00  9.68974E-01 -1.32606E+00 -1.51851E+00 -1.15839E+00
  -3.91895E+00 -2.05654E+00  1.26101E+00 -5.40702E+00  3.33688E+00 -1.14596E+00  2.26614E+00 -4.30129E+00  3.29575E-01  1.49730E+00
   7.03265E+00  5.48464E+00  2.46749E+00  3.28263E+00 -2.73818E-01  3.39711E+00  1.90010E+00 -3.43086E-02  4.09567E+00 -4.94389E+00
   1.45269E+00 -2.55378E+00  2.75100E+00 -4.03659E+00  1.30457E+00 -1.44415E+00  7.79496E+00 -4.00487E+00  2.19060E+00  3.85811E+00
   4.97199E+00  4.59662E+00  2.30948E+00  2.56802E+00  2.48450E+00  4.02733E+00  5.38006E+00  9.53266E+00  6.44440E+00 -1.25315E+00
   7.42355E-01 -5.70979E+00 -2.46958E+00 -1.56592E+00  1.26530E+00  1.14137E+00  1.22713E+00  3.49489E+00  5.34355E+00  1.74721E+00
   7.58398E-01 -3.28752E+00  3.23034E+00  7.26752E+00  7.50998E+00  9.13775E+00  9.30986E+00  8.34344E+00  3.28284E+00  7.90824E+00
   8.70939E+00  6.91437E+00  7.87799E+00  9.05457E+00  1.07894E+01  3.99849E-01  1.00945E+01  1.27675E+00  1.27918E+01  1.11729E+01
   1.44365E+01  7.61559E+00  1.59765E+01  2.02764E+01  2.63847E+01  2.66736E+01  3.34474E+01  3.42949E+01  3.99574E+01  4.13346E+01
   3.99308E+01  4.42713E+01  4.51296E+01  4.42684E+01  3.22243E+01  2.13120E+01  1.69317E+01  1.37195E+01  1.48342E+01  1.05239E+01
   3.95427E+00  9.33564E+00  9.11130E-01  6.41262E+00  5.23880E+00  7.21187E+00  4.08756E+00  8.28113E+00  4.09432E+00  2.17970E-01
   5.33930E+00 -1.33424E+00  2.73860E+00  5.26901E+00  1.05624E+00 -5.65126E+00  7.62307E+00  5.06492E+00 -1.34739E+00  6.70435E+00
  -7.96037E+00  5.20129E+00 -6.20397E-01  4.55507E+00  7.43175E+00  1.81879E+00  1.01985E+01 -7.19159E-01  4.02648E+00  2.80443E+00
   3.86597E+00  6.71632E+00  6.75611E+00  6.21837E+00  9.60646E+00  1.34030E+01  4.35443E+00  2.54210E+00  2.46703E+00  2.34677E-01
   6.42639E-01  1.26347E+00  3.02224E+00  3.87975E+00  6.23460E+00  1.34088E-01 -2.66125E+00  4.21989E+00 -1.34592E+00 -5.97415E-01
   5.56571E+00  3.53990E+00 -6.52494E+00 -4.03924E+00 -1.00373E+00 -1.79997E+00  5.46795E+00  2.07508E+00  3.71637E+00 -2.71975E+00
  -4.06284E-01  2.78108E+00  8.51277E+00  2.51394E+00  8.71537E+00  1.01560E+01  1.30802E+01  1.02932E+01  1.32143E+01  1.77817E+01
   9.68859E+00  1.49606E+01  1.64367E+01  1.59344E+01  1.61013E+01  8.29235E+00  1.24027E+01  1.67225E+01  1.46567E+01  1.85679E+01
   1.05115E+01  1.73131E+01  5.41247E+00  1.58334E+01  1.31324E+01  1.41150E+01  9.08812E+00  1.13877E+01  1.37910E+01  7.97149E+00
   1.31772E+01  1.13379E+01  1.45821E+01  9.73612E+00  1.10294E+01  1.25463E+01  7.75366E+00  9.62781E+00  5.07418E+00  7.92779E+00
   8.11781E+00  8.75704E+00  5.64515E+00  1.28292E+01  7.44416E+00  8.78871E+00  5.88600E+00 -1.70580E+00  5.46043E+00  1.03331E+01
   6.90721E+00  5.66243E+00  3.86228E+00  1.99844E+00  1.31880E+00  5.04053E-01  3.75174E+00  3.87865E-01  1.13171E+01  6.98352E+00
   7.60859E+00  1.08433E+01  2.87063E+00  3.59812E+00  3.72742E+00  5.55170E+00  9.80712E+00  1.14219E+01  1.08545E+01  7.98088E+00
   8.32109E+00  6.81532E+00  1.12589E+01  1.23012E+01  1.42995E+01  1.36174E+01  1.11235E+01  7.39845E+00  1.25374E+01  7.25847E+00
   5.70210E+00  1.34690E+01  1.27946E+01  4.55564E+00  5.90594E+00  3.42449E+00  6.59197E+00 -3.68818E-01  6.43666E+00  1.04004E+01
   2.50022E+00  7.14166E+00  5.80227E+00 -1.39621E-01  5.66066E+00  3.70417E+00  1.89381E+00 -3.62202E+00  7.43320E+00  5.99771E-01
   5.41695E+00  3.24104E+00  2.97531E-01  6.89748E+00 -1.05785E+01  2.47397E+00  7.75129E+00 -1.80137E+00  1.31045E+00  6.11467E-01
  -9.47494E-01  4.00650E+00  1.33119E+00  2.89482E+00  1.01144E+00  5.56791E+00 -4.13365E+00  2.23260E+00 -2.61996E+00  1.61415E+00
  -1.78136E+00 -7.79040E-01  5.30772E+00 -1.04284E+00  6.12049E+00  1.06221E+00  1.74900E+00  4.37138E+00 -1.33317E+00 -1.95769E+00
   9.93778E-01 -4.53919E+00  2.67727E+00  1.28386E+00  2.15603E+00  6.88052E-01 -3.23155E+00  2.51998E+00 -3.28617E+00  3.05736E+00
  -4.17044E-01 -4.47263E+00 -7.26977E+00  3.65687E+00 -3.06603E+00 -1.60021E+00 -2.06160E+00 -3.37463E+00  5.27341E+00 -5.24478E+00
  -4.43717E+00  6.62468E-01 -1.47222E+00  5.32742E+00  4.42195E+00 -2.04222E+00  5.66521E-01  3.85317E-02 -2.04031E+00 -2.58822E+00
  -1.41640E-01 -1.92875E+00 -2.92572E+00 -2.48086E+00 -9.00220E-03 -4.08783E-01 -5.44544E+00  2.44644E+00
 NY points of the fit to the data follow
  -6.46969E-01 -6.67145E-01 -6.13816E-01 -5.07088E-01 -3.73517E-01 -2.34736E-01 -9.97687E-02  2.71768E-02  1.31930E-01  1.94276E-01
   2.01036E-01  1.43182E-01  2.45568E-02 -1.31070E-01 -2.87754E-01 -4.11137E-01 -4.77769E-01 -4.79501E-01 -4.22578E-01 -3.49877E-01
  -2.94366E-01 -2.77907E-01 -3.04955E-01 -3.55517E-01 -3.90192E-01 -3.78483E-01 -3.22578E-01 -2.61500E-01 -2.26836E-01 -2.22845E-01
  -2.26650E-01 -1.81900E-01 -5.39245E-02  1.27874E-01  2.87450E-01  3.47611E-01  2.70074E-01  7.49641E-02 -1.64083E-01 -3.59763E-01
  -4.40483E-01 -3.96138E-01 -2.66750E-01 -1.00016E-01  7.01546E-02  2.18538E-01  3.27193E-01  3.83310E-01  3.81001E-01  3.08361E-01
   1.68537E-01 -3.22199E-03 -1.71534E-01 -3.08579E-01 -3.99644E-01 -4.46720E-01 -4.61245E-01 -4.51629E-01 -4.18886E-01 -3.69849E-01
  -3.18391E-01 -2.80034E-01 -2.63907E-01 -2.67898E-01 -2.85039E-01 -3.05831E-01 -3.14965E-01 -2.99029E-01 -2.60663E-01 -2.11158E-01
  -1.59403E-01 -1.12362E-01 -7.45386E-02 -4.56528E-02 -2.67285E-02 -2.06165E-02 -2.83802E-02 -4.11780E-02 -5.53310E-02 -7.69671E-02
  -1.06269E-01 -1.36992E-01 -1.59569E-01 -1.67961E-01 -1.69245E-01 -1.75943E-01 -1.95915E-01 -2.33690E-01 -2.92989E-01 -3.67892E-01
  -4.41354E-01 -5.00117E-01 -5.37599E-01 -5.54901E-01 -5.62329E-01 -5.68543E-01 -5.70291E-01 -5.60178E-01 -5.43230E-01 -5.26923E-01
  -5.15455E-01 -5.09477E-01 -5.05226E-01 -4.95874E-01 -4.76287E-01 -4.43962E-01 -3.98809E-01 -3.43248E-01 -2.81636E-01 -2.17428E-01
  -1.53546E-01 -9.53118E-02 -4.20732E-02  9.50142E-03  5.92653E-02  1.08419E-01  1.63042E-01  2.44971E-01  4.04158E-01  6.47542E-01
   9.43954E-01  1.26310E+00  1.58730E+00  1.90709E+00  2.21408E+00  2.49531E+00  2.73037E+00  2.89354E+00  2.95250E+00  2.88004E+00
   2.67786E+00  2.38672E+00  2.06963E+00  1.77593E+00  1.52450E+00  1.31577E+00  1.15103E+00  1.04275E+00  9.95129E-01  9.76135E-01
   9.63963E-01  9.53206E-01  9.41618E-01  9.27756E-01  9.11680E-01  8.93917E-01  8.74799E-01  8.54469E-01  8.31746E-01  8.08028E-01
   7.87181E-01  7.64362E-01  7.12208E-01  6.17795E-01  4.94298E-01  3.67921E-01  2.70942E-01  1.99883E-01  1.28737E-01  4.00360E-02
  -6.78146E-02 -1.83992E-01 -2.89895E-01 -3.68204E-01 -4.17844E-01 -4.63687E-01 -5.51636E-01 -7.31124E-01 -1.00616E+00 -1.31102E+00
  -1.58187E+00 -1.80078E+00 -2.00000E+00 -2.19112E+00 -2.35401E+00 -2.46178E+00 -2.49791E+00 -2.47961E+00 -2.43536E+00 -2.36654E+00
  -2.26383E+00 -2.13378E+00 -1.98013E+00 -1.79130E+00 -1.55353E+00 -1.26880E+00 -9.56067E-01 -6.25174E-01 -2.49386E-01  1.79599E-01
   6.20219E-01  1.01139E+00  1.30091E+00  1.48292E+00  1.59558E+00  1.69436E+00  1.79723E+00  1.89027E+00  1.94688E+00  1.96380E+00
   1.95867E+00  1.93035E+00  1.88460E+00  1.81643E+00  1.69403E+00  1.51519E+00  1.31811E+00  1.19622E+00  1.19395E+00  1.27375E+00
   1.40566E+00  1.57497E+00  1.76165E+00  1.91384E+00  1.98318E+00  1.97287E+00  1.89222E+00  1.70135E+00  1.34927E+00  8.46554E-01
   2.94824E-01 -1.57316E-01 -3.71676E-01 -2.76144E-01  1.46263E-01  8.78830E-01  1.83969E+00  2.88434E+00  3.82821E+00  4.55778E+00
   5.07661E+00  5.42498E+00  5.63091E+00  5.72212E+00  5.74242E+00  5.77071E+00  5.85776E+00  6.00238E+00  6.19023E+00  6.41496E+00
   6.67432E+00  6.95651E+00  7.24722E+00  7.55108E+00  7.89105E+00  8.27789E+00  8.70390E+00  9.15675E+00  9.61626E+00  1.00750E+01
   1.06780E+01  1.21231E+01  1.49984E+01  1.89522E+01  2.33834E+01  2.78392E+01  3.20645E+01  3.59098E+01  3.92506E+01  4.18908E+01
   4.35054E+01  4.36471E+01  4.18588E+01  3.79739E+01  3.24339E+01  2.62302E+01  2.03972E+01  1.55072E+01  1.15954E+01  8.50189E+00
   6.23741E+00  4.96560E+00  4.42858E+00  4.11817E+00  3.89388E+00  3.71855E+00  3.56224E+00  3.40420E+00  3.24257E+00  3.07947E+00
   2.92235E+00  2.78106E+00  2.66420E+00  2.57788E+00  2.52870E+00  2.51923E+00  2.54554E+00  2.60179E+00  2.68313E+00  2.78558E+00
   2.90573E+00  3.04004E+00  3.18485E+00  3.33742E+00  3.49384E+00  3.64933E+00  3.79904E+00  3.93813E+00  4.06153E+00  4.16454E+00
   4.24347E+00  4.29575E+00  4.31974E+00  4.31511E+00  4.28271E+00  4.22444E+00  4.14352E+00  4.04429E+00  3.93196E+00  3.81231E+00
   3.69137E+00  3.57525E+00  3.46990E+00  3.38097E+00  3.31401E+00  3.27467E+00  3.26960E+00  3.30971E+00  3.40917E+00  3.55043E+00
   3.70114E+00  3.84329E+00  3.97189E+00  4.08681E+00  4.18511E+00  4.26080E+00  4.33143E+00  4.42461E+00  4.54868E+00  4.70761E+00
   4.91782E+00  5.21011E+00  5.61315E+00  6.13532E+00  6.76207E+00  7.46856E+00  8.23231E+00  9.04000E+00  9.89443E+00  1.07424E+01
   1.14856E+01  1.20837E+01  1.25363E+01  1.28515E+01  1.30242E+01  1.30461E+01  1.29827E+01  1.29012E+01  1.27959E+01  1.26512E+01
   1.24909E+01  1.23931E+01  1.24490E+01  1.27006E+01  1.31129E+01  1.36000E+01  1.40641E+01  1.44118E+01  1.45550E+01  1.44142E+01
   1.39890E+01  1.33771E+01  1.26698E+01  1.19167E+01  1.11386E+01  1.03650E+01  9.64928E+00  9.00329E+00  8.40434E+00  7.84476E+00
   7.32369E+00  6.84214E+00  6.40153E+00  6.00316E+00  5.64801E+00  5.33670E+00  5.06955E+00  4.84663E+00  4.66789E+00  4.53320E+00
   4.44243E+00  4.39551E+00  4.39244E+00  4.43328E+00  4.51812E+00  4.64699E+00  4.81975E+00  5.03597E+00  5.29473E+00  5.59449E+00
   5.93287E+00  6.30650E+00  6.71085E+00  7.14013E+00  7.58726E+00  8.04390E+00  8.50053E+00  8.94669E+00  9.37127E+00  9.76288E+00
   1.01103E+01  1.04028E+01  1.06311E+01  1.07871E+01  1.08648E+01  1.08607E+01  1.07734E+01  1.06043E+01  1.03571E+01  1.00377E+01
   9.65418E+00  9.21584E+00  8.73320E+00  8.21733E+00  7.67934E+00  7.13002E+00  6.57939E+00  6.03641E+00  5.50881E+00  5.00290E+00
   4.52357E+00  4.07432E+00  3.65735E+00  3.27373E+00  2.92351E+00  2.60596E+00  2.31972E+00  2.06299E+00  1.83366E+00  1.62947E+00
   1.44810E+00  1.28726E+00  1.14476E+00  1.01854E+00  9.06705E-01  8.07532E-01  7.19475E-01  6.41163E-01  5.71386E-01  5.09088E-01
   4.53346E-01  4.03357E-01  3.58426E-01  3.17950E-01  2.81412E-01  2.48361E-01  2.18405E-01  1.91203E-01  1.66460E-01  1.43919E-01
   1.23358E-01  1.04579E-01  8.74089E-02  7.16928E-02  5.72975E-02  4.41042E-02  3.20082E-02  2.09136E-02  1.07352E-02  1.39607E-03
  -7.17053E-03 -1.50254E-02 -2.22228E-02 -2.88139E-02 -3.48439E-02 -4.03539E-02 -4.53787E-02 -4.99516E-02 -5.41025E-02 -5.78610E-02
  -6.12524E-02 -6.42995E-02 -6.70214E-02 -6.94377E-02 -7.15662E-02 -7.34248E-02 -7.50278E-02 -7.63885E-02 -7.75179E-02 -7.84286E-02
  -7.91314E-02 -7.96368E-02 -7.99517E-02 -8.00831E-02 -8.00366E-02 -7.98192E-02 -7.94359E-02 -7.88914E-02 -7.81871E-02 -7.73256E-02
  -7.63077E-02 -7.51354E-02 -7.38076E-02 -7.23222E-02 -7.06744E-02 -6.88598E-02 -6.68715E-02 -6.47015E-02
 NY background values follow
    -1.015E+00   -1.013E+00   -1.010E+00   -1.008E+00   -1.006E+00   -1.003E+00   -1.001E+00   -9.989E-01   -9.965E-01   -9.942E-01
    -9.919E-01   -9.896E-01   -9.873E-01   -9.849E-01   -9.826E-01   -9.803E-01   -9.780E-01   -9.757E-01   -9.734E-01   -9.710E-01
    -9.687E-01   -9.664E-01   -9.641E-01   -9.617E-01   -9.594E-01   -9.571E-01   -9.548E-01   -9.525E-01   -9.501E-01   -9.478E-01
    -9.455E-01   -9.432E-01   -9.408E-01   -9.385E-01   -9.362E-01   -9.339E-01   -9.315E-01   -9.292E-01   -9.269E-01   -9.246E-01
    -9.222E-01   -9.199E-01   -9.176E-01   -9.152E-01   -9.129E-01   -9.106E-01   -9.083E-01   -9.059E-01   -9.036E-01   -9.013E-01
    -8.989E-01   -8.966E-01   -8.943E-01   -8.919E-01   -8.896E-01   -8.873E-01   -8.849E-01   -8.826E-01   -8.803E-01   -8.779E-01
    -8.756E-01   -8.733E-01   -8.709E-01   -8.686E-01   -8.663E-01   -8.639E-01   -8.616E-01   -8.593E-01   -8.569E-01   -8.546E-01
    -8.523E-01   -8.499E-01   -8.476E-01   -8.452E-01   -8.429E-01   -8.406E-01   -8.382E-01   -8.359E-01   -8.336E-01   -8.312E-01
    -8.289E-01   -8.265E-01   -8.242E-01   -8.219E-01   -8.195E-01   -8.172E-01   -8.148E-01   -8.125E-01   -8.102E-01   -8.078E-01
    -8.055E-01   -8.031E-01   -8.008E-01   -7.984E-01   -7.961E-01   -7.938E-01   -7.914E-01   -7.891E-01   -7.867E-01   -7.844E-01
    -7.820E-01   -7.797E-01   -7.773E-01   -7.750E-01   -7.727E-01   -7.703E-01   -7.680E-01   -7.656E-01   -7.633E-01   -7.609E-01
    -7.586E-01   -7.562E-01   -7.539E-01   -7.515E-01   -7.492E-01   -7.469E-01   -7.445E-01   -7.422E-01   -7.398E-01   -7.375E-01
    -7.351E-01   -7.328E-01   -7.304E-01   -7.281E-01   -7.257E-01   -7.234E-01   -7.210E-01   -7.187E-01   -7.163E-01   -7.140E-01
    -7.116E-01   -7.093E-01   -7.069E-01   -7.046E-01   -7.022E-01   -6.999E-01   -6.975E-01   -6.952E-01   -6.928E-01   -6.905E-01
    -6.881E-01   -6.858E-01   -6.834E-01   -6.810E-01   -6.787E-01   -6.763E-01   -6.740E-01   -6.716E-01   -6.693E-01   -6.669E-01
    -6.646E-01   -6.622E-01   -6.599E-01   -6.575E-01   -6.552E-01   -6.528E-01   -6.505E-01   -6.481E-01   -6.457E-01   -6.434E-01
    -6.410E-01   -6.387E-01   -6.363E-01   -6.340E-01   -6.316E-01   -6.293E-01   -6.269E-01   -6.245E-01   -6.222E-01   -6.198E-01
    -6.175E-01   -6.151E-01   -6.128E-01   -6.104E-01   -6.081E-01   -6.057E-01   -6.033E-01   -6.010E-01   -5.986E-01   -5.963E-01
    -5.939E-01   -5.916E-01   -5.892E-01   -5.868E-01   -5.845E-01   -5.821E-01   -5.798E-01   -5.774E-01   -5.750E-01   -5.727E-01
    -5.703E-01   -5.680E-01   -5.656E-01   -5.633E-01   -5.609E-01   -5.585E-01   -5.562E-01   -5.538E-01   -5.515E-01   -5.491E-01
    -5.467E-01   -5.444E-01   -5.420E-01   -5.397E-01   -5.373E-01   -5.349E-01   -5.326E-01   -5.302E-01   -5.279E-01   -5.255E-01
    -5.231E-01   -5.208E-01   -5.184E-01   -5.161E-01   -5.137E-01   -5.113E-01   -5.090E-01   -5.066E-01   -5.043E-01   -5.019E-01
    -4.995E-01   -4.972E-01   -4.948E-01   -4.925E-01   -4.901E-01   -4.877E-01   -4.854E-01   -4.830E-01   -4.807E-01   -4.783E-01
    -4.759E-01   -4.736E-01   -4.712E-01   -4.689E-01   -4.665E-01   -4.641E-01   -4.618E-01   -4.594E-01   -4.570E-01   -4.547E-01
    -4.523E-01   -4.500E-01   -4.476E-01   -4.452E-01   -4.429E-01   -4.405E-01   -4.382E-01   -4.358E-01   -4.334E-01   -4.311E-01
    -4.287E-01   -4.264E-01   -4.240E-01   -4.216E-01   -4.193E-01   -4.169E-01   -4.145E-01   -4.122E-01   -4.098E-01   -4.075E-01
    -4.051E-01   -4.027E-01   -4.004E-01   -3.980E-01   -3.957E-01   -3.933E-01   -3.909E-01   -3.886E-01   -3.862E-01   -3.838E-01
    -3.815E-01   -3.791E-01   -3.768E-01   -3.744E-01   -3.720E-01   -3.697E-01   -3.673E-01   -3.650E-01   -3.626E-01   -3.602E-01
    -3.579E-01   -3.555E-01   -3.532E-01   -3.508E-01   -3.484E-01   -3.461E-01   -3.437E-01   -3.413E-01   -3.390E-01   -3.366E-01
    -3.343E-01   -3.319E-01   -3.295E-01   -3.272E-01   -3.248E-01   -3.225E-01   -3.201E-01   -3.177E-01   -3.154E-01   -3.130E-01
    -3.107E-01   -3.083E-01   -3.059E-01   -3.036E-01   -3.012E-01   -2.989E-01   -2.965E-01   -2.941E-01   -2.918E-01   -2.894E-01
    -2.871E-01   -2.847E-01   -2.823E-01   -2.800E-01   -2.776E-01   -2.753E-01   -2.729E-01   -2.705E-01   -2.682E-01   -2.658E-01
    -2.635E-01   -2.611E-01   -2.588E-01   -2.564E-01   -2.540E-01   -2.517E-01   -2.493E-01   -2.470E-01   -2.446E-01   -2.422E-01
    -2.399E-01   -2.375E-01   -2.352E-01   -2.328E-01   -2.305E-01   -2.281E-01   -2.257E-01   -2.234E-01   -2.210E-01   -2.187E-01
    -2.163E-01   -2.140E-01   -2.116E-01   -2.092E-01   -2.069E-01   -2.045E-01   -2.022E-01   -1.998E-01   -1.975E-01   -1.951E-01
    -1.927E-01   -1.904E-01   -1.880E-01   -1.857E-01   -1.833E-01   -1.810E-01   -1.786E-01   -1.763E-01   -1.739E-01   -1.716E-01
    -1.692E-01   -1.668E-01   -1.645E-01   -1.621E-01   -1.598E-01   -1.574E-01   -1.551E-01   -1.527E-01   -1.504E-01   -1.480E-01
    -1.457E-01   -1.433E-01   -1.410E-01   -1.386E-01   -1.362E-01   -1.339E-01   -1.315E-01   -1.292E-01   -1.268E-01   -1.245E-01
    -1.221E-01   -1.198E-01   -1.174E-01   -1.151E-01   -1.127E-01   -1.104E-01   -1.080E-01   -1.057E-01   -1.033E-01   -1.010E-01
    -9.863E-02   -9.628E-02   -9.393E-02   -9.158E-02   -8.924E-02   -8.689E-02   -8.454E-02   -8.219E-02   -7.984E-02   -7.749E-02
    -7.515E-02   -7.280E-02   -7.045E-02   -6.810E-02   -6.576E-02   -6.341E-02   -6.106E-02   -5.872E-02   -5.637E-02   -5.402E-02
    -5.168E-02   -4.933E-02   -4.699E-02   -4.464E-02   -4.230E-02   -3.995E-02   -3.761E-02   -3.526E-02   -3.292E-02   -3.058E-02
    -2.823E-02   -2.589E-02   -2.354E-02   -2.120E-02   -1.886E-02   -1.652E-02   -1.417E-02   -1.183E-02   -9.490E-03   -7.149E-03
    -4.807E-03   -2.466E-03   -1.252E-04    2.215E-03    4.556E-03    6.896E-03    9.236E-03    1.158E-02    1.392E-02    1.625E-02
     1.859E-02    2.093E-02    2.327E-02    2.561E-02    2.795E-02    3.028E-02    3.262E-02    3.496E-02    3.730E-02    3.963E-02
     4.197E-02    4.430E-02    4.664E-02    4.898E-02    5.131E-02    5.365E-02    5.598E-02    5.832E-02    6.065E-02    6.298E-02
     6.532E-02    6.765E-02    6.998E-02    7.232E-02    7.465E-02    7.698E-02    7.931E-02    8.164E-02    8.398E-02    8.631E-02
     8.864E-02    9.097E-02    9.330E-02    9.563E-02    9.796E-02    1.003E-01    1.026E-01    1.049E-01    1.073E-01    1.096E-01
     1.119E-01    1.143E-01    1.166E-01    1.189E-01    1.212E-01    1.236E-01    1.259E-01    1.282E-01    1.305E-01    1.329E-01
     1.352E-01    1.375E-01    1.398E-01    1.422E-01    1.445E-01    1.468E-01    1.491E-01    1.515E-01
 Ala      Conc. = 1.04E+02
