 LCModel (Version 6.3-1L) Copyright: S.W. Provencher.          Ref.: Magn. Reson. Med. 30:672-679 (1993).                
 Slice#1 Row#11 Col#5  PD_05_press_2_raw_act
 36 lines in following concentration table = NCONC+1
    Conc.  %SD /Cr+PCr  Metabolite                                         
    0.000 999%   0.000 Ala                                                 
   54.664 103%   0.373 Asp                                                 
  146.708  22%   1.000 Cr                                                  
    0.000 999%   0.000 PCr                                                 
   35.190  96%   0.240 GABA                                                
   27.199 126%   0.185 Glc                                                 
    0.000 999%   0.000 Gln                                                 
  500.653  28%   3.413 Glu                                                 
   80.873  16%   0.551 GPC                                                 
    0.000 999%   0.000 PCh                                                 
  195.775  23%   1.334 GSH                                                 
  452.003  35%   3.081 Ins                                                 
    0.000 999%   0.000 Lac                                                 
  522.212   8%   3.560 NAA                                                 
    0.000 999%   0.000 NAAG                                                
   20.702  49%   0.141 Scyllo                                              
   59.254  94%   0.404 Tau                                                 
   60.820  70%   0.415 -CrCH2                                              
   80.873  16%   0.551 GPC+PCh                                             
  522.212   8%   3.560 NAA+NAAG                                            
  146.708  22%   1.000 Cr+PCr                                              
  500.653  28%   3.413 Glu+Gln                                             
 1.50E+03  20%  10.258 Lip13a                                              
    0.000 999%   0.000 Lip13b                                              
    0.000 999%   0.000 Lip09                                               
  457.031  26%   3.115 MM09                                                
  259.830  62%   1.771 Lip20                                               
  752.795  28%   5.131 MM20                                                
  152.930  37%   1.042 MM12                                                
    0.000 999%   0.000 MM14                                                
  535.959  17%   3.653 MM17                                                
 1.50E+03  20%  10.258 Lip13a+Lip13b                                       
 1.66E+03  19%  11.301 MM14+Lip13a+Lip13b+MM12                             
  457.031  26%   3.115 MM09+Lip09                                          
 1.01E+03  24%   6.902 MM20+Lip20                                          
   6 lines in following misc. output table
  FWHM = 0.046 ppm    S/N =   4                                            
  Data shift = 0.015 ppm                                                   
  Ph: -61 deg      -8.4 deg/ppm                                            
  alphaB,S = 4.5E-01,   2.6E+01                                            
   14 spline knots.   Ns = 5(1)                                            
  ( 8) 2 infls.   ( 7) 1 extrs.                                            
  498 points on ppm-axis = NY
      4.000000     3.992357     3.984714     3.977070     3.969427     3.961784     3.954141     3.946497     3.938854     3.931211
      3.923568     3.915925     3.908281     3.900638     3.892995     3.885352     3.877708     3.870065     3.862422     3.854779
      3.847136     3.839492     3.831849     3.824206     3.816563     3.808919     3.801276     3.793633     3.785990     3.778347
      3.770703     3.763060     3.755417     3.747774     3.740130     3.732487     3.724844     3.717201     3.709558     3.701914
      3.694271     3.686628     3.678985     3.671341     3.663698     3.656055     3.648412     3.640769     3.633125     3.625482
      3.617839     3.610196     3.602552     3.594909     3.587266     3.579623     3.571980     3.564336     3.556693     3.549050
      3.541407     3.533763     3.526120     3.518477     3.510834     3.503191     3.495547     3.487904     3.480261     3.472618
      3.464974     3.457331     3.449688     3.442045     3.434402     3.426758     3.419115     3.411472     3.403829     3.396185
      3.388542     3.380899     3.373256     3.365613     3.357969     3.350326     3.342683     3.335040     3.327396     3.319753
      3.312110     3.304467     3.296824     3.289180     3.281537     3.273894     3.266251     3.258607     3.250964     3.243321
      3.235678     3.228034     3.220391     3.212748     3.205105     3.197462     3.189818     3.182175     3.174532     3.166889
      3.159245     3.151602     3.143959     3.136316     3.128673     3.121029     3.113386     3.105743     3.098100     3.090456
      3.082813     3.075170     3.067527     3.059884     3.052240     3.044597     3.036954     3.029311     3.021667     3.014024
      3.006381     2.998738     2.991095     2.983451     2.975808     2.968165     2.960522     2.952878     2.945235     2.937592
      2.929949     2.922306     2.914662     2.907019     2.899376     2.891733     2.884089     2.876446     2.868803     2.861160
      2.853517     2.845873     2.838230     2.830587     2.822944     2.815300     2.807657     2.800014     2.792371     2.784728
      2.777084     2.769441     2.761798     2.754155     2.746511     2.738868     2.731225     2.723582     2.715939     2.708295
      2.700652     2.693009     2.685366     2.677722     2.670079     2.662436     2.654793     2.647150     2.639506     2.631863
      2.624220     2.616577     2.608933     2.601290     2.593647     2.586004     2.578361     2.570717     2.563074     2.555431
      2.547788     2.540144     2.532501     2.524858     2.517215     2.509572     2.501928     2.494285     2.486642     2.478999
      2.471355     2.463712     2.456069     2.448426     2.440783     2.433139     2.425496     2.417853     2.410210     2.402566
      2.394923     2.387280     2.379637     2.371994     2.364350     2.356707     2.349064     2.341421     2.333777     2.326134
      2.318491     2.310848     2.303205     2.295561     2.287918     2.280275     2.272632     2.264988     2.257345     2.249702
      2.242059     2.234416     2.226772     2.219129     2.211486     2.203843     2.196199     2.188556     2.180913     2.173270
      2.165627     2.157983     2.150340     2.142697     2.135054     2.127410     2.119767     2.112124     2.104481     2.096838
      2.089194     2.081551     2.073908     2.066265     2.058621     2.050978     2.043335     2.035692     2.028049     2.020405
      2.012762     2.005119     1.997476     1.989833     1.982190     1.974546     1.966903     1.959260     1.951617     1.943974
      1.936331     1.928688     1.921045     1.913402     1.905759     1.898115     1.890472     1.882829     1.875186     1.867543
      1.859900     1.852257     1.844614     1.836971     1.829327     1.821684     1.814041     1.806398     1.798755     1.791112
      1.783469     1.775826     1.768183     1.760540     1.752896     1.745253     1.737610     1.729967     1.722324     1.714681
      1.707038     1.699395     1.691752     1.684108     1.676465     1.668822     1.661179     1.653536     1.645893     1.638250
      1.630607     1.622964     1.615321     1.607677     1.600034     1.592391     1.584748     1.577105     1.569462     1.561819
      1.554176     1.546533     1.538890     1.531246     1.523603     1.515960     1.508317     1.500674     1.493031     1.485388
      1.477745     1.470102     1.462458     1.454815     1.447172     1.439529     1.431886     1.424243     1.416600     1.408957
      1.401314     1.393671     1.386027     1.378384     1.370741     1.363098     1.355455     1.347812     1.340169     1.332526
      1.324883     1.317240     1.309596     1.301953     1.294310     1.286667     1.279024     1.271381     1.263738     1.256095
      1.248452     1.240808     1.233165     1.225522     1.217879     1.210236     1.202593     1.194950     1.187307     1.179664
      1.172021     1.164377     1.156734     1.149091     1.141448     1.133805     1.126162     1.118519     1.110876     1.103233
      1.095590     1.087946     1.080303     1.072660     1.065017     1.057374     1.049731     1.042088     1.034445     1.026802
      1.019158     1.011515     1.003872     0.996229     0.988586     0.980943     0.973300     0.965657     0.958014     0.950371
      0.942727     0.935084     0.927441     0.919798     0.912155     0.904512     0.896869     0.889226     0.881583     0.873940
      0.866296     0.858653     0.851010     0.843367     0.835724     0.828081     0.820438     0.812795     0.805152     0.797508
      0.789865     0.782222     0.774579     0.766936     0.759293     0.751650     0.744007     0.736364     0.728721     0.721077
      0.713434     0.705791     0.698148     0.690505     0.682862     0.675219     0.667576     0.659933     0.652290     0.644646
      0.637003     0.629360     0.621717     0.614074     0.606431     0.598788     0.591145     0.583502     0.575858     0.568215
      0.560572     0.552929     0.545286     0.537643     0.530000     0.522357     0.514714     0.507071     0.499427     0.491784
      0.484141     0.476498     0.468855     0.461212     0.453569     0.445925     0.438282     0.430639     0.422996     0.415353
      0.407710     0.400067     0.392424     0.384780     0.377137     0.369494     0.361851     0.354208     0.346565     0.338922
      0.331278     0.323635     0.315992     0.308349     0.300706     0.293063     0.285420     0.277777     0.270133     0.262490
      0.254847     0.247204     0.239561     0.231918     0.224275     0.216631     0.208988     0.201345
 NY phased data points follow
  -1.15138E+02 -1.14036E+02 -1.14750E+02 -1.10504E+02 -1.09538E+02 -1.11507E+02 -1.05939E+02 -1.03306E+02 -1.00423E+02 -9.79071E+01
  -9.71048E+01 -9.46432E+01 -9.58542E+01 -9.56742E+01 -9.75326E+01 -9.86421E+01 -9.17430E+01 -9.12655E+01 -9.15051E+01 -9.19405E+01
  -9.02980E+01 -9.54513E+01 -8.93904E+01 -8.34397E+01 -9.01106E+01 -8.48593E+01 -8.39448E+01 -7.87905E+01 -7.84081E+01 -8.01102E+01
  -7.92325E+01 -7.57655E+01 -7.72624E+01 -7.95244E+01 -7.52323E+01 -7.76864E+01 -7.48005E+01 -7.46534E+01 -7.65259E+01 -7.43857E+01
  -6.97824E+01 -7.28880E+01 -7.31617E+01 -6.74163E+01 -6.93892E+01 -7.10048E+01 -6.78188E+01 -6.73122E+01 -6.45761E+01 -6.80733E+01
  -6.76874E+01 -6.46930E+01 -6.60124E+01 -6.39012E+01 -6.68166E+01 -6.29182E+01 -6.01438E+01 -6.48368E+01 -6.19935E+01 -6.23358E+01
  -6.27216E+01 -6.44145E+01 -5.99314E+01 -6.17181E+01 -6.22063E+01 -6.30873E+01 -6.06714E+01 -6.05451E+01 -5.87932E+01 -5.63001E+01
  -6.07776E+01 -5.92610E+01 -5.24609E+01 -5.69903E+01 -5.64085E+01 -5.22334E+01 -5.55926E+01 -5.56054E+01 -5.62796E+01 -5.44930E+01
  -5.48098E+01 -5.54486E+01 -5.15665E+01 -5.37148E+01 -5.01174E+01 -5.20265E+01 -4.72716E+01 -4.83128E+01 -4.95008E+01 -5.11944E+01
  -4.94500E+01 -4.62796E+01 -4.94709E+01 -4.70458E+01 -4.88304E+01 -4.65323E+01 -4.86409E+01 -5.18901E+01 -4.71821E+01 -4.31643E+01
  -4.52308E+01 -4.11956E+01 -4.08044E+01 -3.69459E+01 -3.81590E+01 -3.79823E+01 -3.85744E+01 -3.85124E+01 -4.29185E+01 -4.50014E+01
  -4.40759E+01 -4.26714E+01 -4.21733E+01 -3.79385E+01 -4.41108E+01 -4.26334E+01 -4.35000E+01 -4.05635E+01 -4.45950E+01 -4.34122E+01
  -4.34911E+01 -4.42465E+01 -4.02898E+01 -3.82557E+01 -3.87939E+01 -3.52216E+01 -3.41695E+01 -3.04067E+01 -3.53924E+01 -3.31424E+01
  -3.66561E+01 -3.34372E+01 -3.58643E+01 -3.74378E+01 -3.86354E+01 -3.98814E+01 -4.16131E+01 -3.81671E+01 -3.82099E+01 -4.15914E+01
  -3.70237E+01 -4.04067E+01 -3.21703E+01 -3.55577E+01 -4.05234E+01 -3.50910E+01 -3.72850E+01 -3.44968E+01 -3.48418E+01 -3.64524E+01
  -3.69758E+01 -3.23221E+01 -3.51232E+01 -3.45680E+01 -3.26804E+01 -3.28926E+01 -3.15275E+01 -3.63220E+01 -3.65970E+01 -3.40781E+01
  -3.28382E+01 -3.43680E+01 -3.20816E+01 -3.51690E+01 -3.24834E+01 -3.16098E+01 -3.18999E+01 -3.24255E+01 -3.29975E+01 -3.37655E+01
  -2.94109E+01 -3.37541E+01 -3.22939E+01 -3.25547E+01 -3.59365E+01 -3.11941E+01 -3.44777E+01 -3.43054E+01 -3.04540E+01 -3.19619E+01
  -2.92690E+01 -3.02487E+01 -2.79837E+01 -2.69714E+01 -3.14098E+01 -2.32282E+01 -3.15588E+01 -2.93740E+01 -3.02591E+01 -2.94283E+01
  -3.43376E+01 -2.96989E+01 -2.72406E+01 -2.94004E+01 -3.04299E+01 -2.72549E+01 -3.05693E+01 -2.96072E+01 -2.65380E+01 -2.63107E+01
  -2.64662E+01 -2.39390E+01 -2.86251E+01 -2.71720E+01 -2.82596E+01 -2.78713E+01 -2.55571E+01 -2.10518E+01 -2.53913E+01 -2.73936E+01
  -2.53475E+01 -2.56086E+01 -2.79015E+01 -2.16850E+01 -1.90403E+01 -2.17953E+01 -2.27807E+01 -2.16952E+01 -2.42340E+01 -2.24080E+01
  -2.58699E+01 -2.92408E+01 -2.59987E+01 -2.73215E+01 -2.39169E+01 -2.68762E+01 -2.16469E+01 -2.72442E+01 -2.65812E+01 -2.07425E+01
  -2.25189E+01 -2.23608E+01 -2.08607E+01 -2.20981E+01 -2.05431E+01 -1.92595E+01 -2.14665E+01 -1.88605E+01 -2.11368E+01 -2.25255E+01
  -2.12604E+01 -2.09509E+01 -1.85355E+01 -1.82640E+01 -2.02148E+01 -1.95703E+01 -2.11800E+01 -1.80008E+01 -1.74307E+01 -2.01615E+01
  -1.97438E+01 -1.68913E+01 -1.94875E+01 -2.05774E+01 -1.71812E+01 -1.81173E+01 -1.57990E+01 -1.16401E+01 -5.10360E+00 -1.46154E+00
   3.46777E+00  1.13013E+00  7.97570E-01 -8.38977E+00 -1.48622E+01 -1.81449E+01 -1.73822E+01 -2.20870E+01 -1.72138E+01 -2.21411E+01
  -2.04622E+01 -2.22668E+01 -2.40290E+01 -1.82001E+01 -2.28563E+01 -1.93797E+01 -1.83623E+01 -1.99036E+01 -2.27657E+01 -1.90845E+01
  -2.05287E+01 -1.93485E+01 -1.95179E+01 -1.90316E+01 -1.98246E+01 -1.58269E+01 -1.96542E+01 -1.95219E+01 -1.90477E+01 -1.70293E+01
  -2.06207E+01 -1.50647E+01 -1.50863E+01 -1.62085E+01 -1.68677E+01 -2.00595E+01 -1.74669E+01 -1.62206E+01 -1.99522E+01 -1.91564E+01
  -1.91659E+01 -1.57715E+01 -1.50006E+01 -1.87893E+01 -1.49526E+01 -1.85051E+01 -2.30129E+01 -1.93289E+01 -1.89029E+01 -2.07369E+01
  -2.08979E+01 -2.46030E+01 -2.07998E+01 -2.27700E+01 -2.52706E+01 -2.50017E+01 -2.62680E+01 -2.01999E+01 -2.58162E+01 -2.37879E+01
  -2.54810E+01 -2.47944E+01 -2.70364E+01 -2.71169E+01 -2.67112E+01 -2.48055E+01 -2.51412E+01 -2.24979E+01 -2.93036E+01 -2.60905E+01
  -2.45789E+01 -2.23648E+01 -2.13314E+01 -2.31387E+01 -1.94742E+01 -2.50844E+01 -2.47910E+01 -2.10323E+01 -2.34096E+01 -1.76322E+01
  -1.74936E+01 -1.74746E+01 -1.38270E+01 -1.43765E+01 -1.19926E+01 -1.48561E+01 -1.14587E+01 -1.37383E+01 -1.07981E+01 -1.33069E+01
  -1.07587E+01 -1.25578E+01 -1.19489E+01 -1.77395E+01 -2.03121E+01 -1.42341E+01 -1.97421E+01 -1.52979E+01 -1.77016E+01 -1.76592E+01
  -1.69889E+01 -1.55916E+01 -1.38672E+01 -1.35451E+01 -1.38021E+01 -1.24162E+01 -9.81342E+00 -1.14810E+01 -1.14038E+01 -1.05820E+01
  -9.06950E+00 -1.09376E+01 -1.43442E+01 -9.39086E+00 -1.07571E+01 -1.12783E+01 -1.08819E+01 -8.28946E+00 -1.02005E+01 -1.27624E+01
  -8.68944E+00 -9.31608E+00 -1.47443E+01 -1.12784E+01 -1.22859E+01 -1.21222E+01 -1.22798E+01 -8.44771E+00 -1.18028E+01 -1.38668E+01
  -1.20887E+01 -1.43483E+01 -1.18516E+01 -1.14248E+01 -1.03706E+01 -1.41044E+01 -1.36166E+01 -1.31543E+01 -8.42169E+00 -1.22549E+01
  -1.42301E+01 -1.28637E+01 -1.39131E+01 -1.13526E+01 -7.72864E+00 -1.22909E+01 -1.16788E+01 -7.37622E+00 -1.03243E+01 -1.39639E+01
  -1.22497E+01 -1.05428E+01 -9.19860E+00 -1.03019E+01 -1.15989E+01 -9.21572E+00 -9.95937E+00 -7.80714E+00 -1.16260E+01 -1.20198E+01
  -8.59321E+00 -1.07734E+01 -1.03145E+01 -1.18967E+01 -1.00076E+01 -7.56243E+00 -1.49894E+01 -9.45546E+00 -1.24794E+01 -1.31672E+01
  -9.87469E+00 -6.89790E+00 -1.09880E+01 -6.24700E+00 -8.75204E+00 -1.17690E+01 -1.22841E+01 -8.76266E+00 -1.01199E+01 -8.21496E+00
  -1.54296E+01 -1.21294E+01 -1.07693E+01 -6.90076E+00 -8.86200E+00 -7.50804E+00 -5.24241E+00 -9.48499E+00 -9.69133E+00 -1.03641E+01
  -3.63077E+00 -9.75288E+00 -8.47901E+00 -1.10472E+01 -8.89828E+00 -1.03049E+01 -1.08530E+01 -9.33572E+00 -9.36812E+00 -7.32207E+00
  -8.62717E+00 -9.17157E+00 -9.22133E+00 -9.47159E+00 -1.05186E+01 -4.45146E+00 -9.03216E+00 -4.67782E+00 -8.57184E+00 -7.12961E+00
  -6.29120E+00 -8.31229E+00 -4.50852E+00 -6.17998E+00 -4.02107E+00 -7.96546E+00 -4.37075E+00 -8.42200E+00 -9.32395E+00 -8.19138E+00
  -9.08667E+00 -2.77760E+00 -4.97758E+00 -7.69717E+00 -8.73394E+00 -4.42330E+00 -2.86141E+00 -1.00836E+01 -4.95994E+00 -4.99737E+00
  -6.00820E+00 -4.66022E+00 -3.52063E+00 -3.83310E+00 -7.36372E+00 -9.23642E+00 -5.43723E+00 -4.26163E+00
 NY points of the fit to the data follow
  -1.08288E+02 -1.07562E+02 -1.06766E+02 -1.05967E+02 -1.05266E+02 -1.04615E+02 -1.03765E+02 -1.02535E+02 -1.00989E+02 -9.92446E+01
  -9.74777E+01 -9.59417E+01 -9.49228E+01 -9.45165E+01 -9.44713E+01 -9.43582E+01 -9.39804E+01 -9.34115E+01 -9.27343E+01 -9.19915E+01
  -9.12367E+01 -9.04536E+01 -8.96270E+01 -8.87934E+01 -8.77707E+01 -8.62470E+01 -8.43584E+01 -8.23734E+01 -8.05075E+01 -7.89437E+01
  -7.78899E+01 -7.74916E+01 -7.76401E+01 -7.79227E+01 -7.80585E+01 -7.81451E+01 -7.82094E+01 -7.80711E+01 -7.77085E+01 -7.71186E+01
  -7.63350E+01 -7.53366E+01 -7.40355E+01 -7.24837E+01 -7.08239E+01 -6.92575E+01 -6.80252E+01 -6.73036E+01 -6.71723E+01 -6.75683E+01
  -6.81593E+01 -6.84913E+01 -6.83853E+01 -6.79584E+01 -6.72898E+01 -6.64158E+01 -6.54164E+01 -6.43977E+01 -6.34581E+01 -6.26847E+01
  -6.21395E+01 -6.18451E+01 -6.17202E+01 -6.16050E+01 -6.13542E+01 -6.09266E+01 -6.03257E+01 -5.96026E+01 -5.88430E+01 -5.81263E+01
  -5.74754E+01 -5.68733E+01 -5.63333E+01 -5.58728E+01 -5.54944E+01 -5.51840E+01 -5.49042E+01 -5.46473E+01 -5.43978E+01 -5.41017E+01
  -5.37189E+01 -5.32202E+01 -5.26343E+01 -5.20743E+01 -5.16353E+01 -5.13494E+01 -5.12020E+01 -5.11476E+01 -5.11044E+01 -5.09603E+01
  -5.06266E+01 -5.01237E+01 -4.96017E+01 -4.91491E+01 -4.87663E+01 -4.84601E+01 -4.82026E+01 -4.79083E+01 -4.72585E+01 -4.57462E+01
  -4.35327E+01 -4.10559E+01 -3.88156E+01 -3.72800E+01 -3.69170E+01 -3.78481E+01 -3.97027E+01 -4.15961E+01 -4.28042E+01 -4.33777E+01
  -4.36220E+01 -4.35584E+01 -4.33599E+01 -4.31235E+01 -4.28842E+01 -4.26580E+01 -4.24471E+01 -4.22452E+01 -4.20452E+01 -4.18260E+01
  -4.15522E+01 -4.11334E+01 -4.02588E+01 -3.88398E+01 -3.71415E+01 -3.54644E+01 -3.41033E+01 -3.33491E+01 -3.33315E+01 -3.39905E+01
  -3.50270E+01 -3.59564E+01 -3.66381E+01 -3.72937E+01 -3.79047E+01 -3.83464E+01 -3.84934E+01 -3.82271E+01 -3.76177E+01 -3.68775E+01
  -3.61825E+01 -3.56664E+01 -3.53987E+01 -3.53194E+01 -3.53230E+01 -3.53295E+01 -3.52956E+01 -3.52432E+01 -3.51772E+01 -3.51014E+01
  -3.50202E+01 -3.49218E+01 -3.47957E+01 -3.46339E+01 -3.44440E+01 -3.42465E+01 -3.40885E+01 -3.40022E+01 -3.39761E+01 -3.39685E+01
  -3.39040E+01 -3.37436E+01 -3.34931E+01 -3.31798E+01 -3.28704E+01 -3.26496E+01 -3.25454E+01 -3.25153E+01 -3.24981E+01 -3.24466E+01
  -3.23667E+01 -3.23154E+01 -3.23137E+01 -3.23165E+01 -3.22866E+01 -3.21973E+01 -3.20574E+01 -3.18792E+01 -3.16723E+01 -3.14748E+01
  -3.13462E+01 -3.12830E+01 -3.12352E+01 -3.11530E+01 -3.09889E+01 -3.06978E+01 -3.02406E+01 -2.95914E+01 -2.88304E+01 -2.81089E+01
  -2.75790E+01 -2.73609E+01 -2.74686E+01 -2.77755E+01 -2.80951E+01 -2.82911E+01 -2.82981E+01 -2.81307E+01 -2.78097E+01 -2.73454E+01
  -2.68146E+01 -2.63068E+01 -2.58763E+01 -2.55411E+01 -2.53118E+01 -2.52686E+01 -2.54301E+01 -2.57394E+01 -2.61089E+01 -2.64309E+01
  -2.65528E+01 -2.62670E+01 -2.55041E+01 -2.44369E+01 -2.33388E+01 -2.25186E+01 -2.22430E+01 -2.27530E+01 -2.40241E+01 -2.56216E+01
  -2.69330E+01 -2.76085E+01 -2.75825E+01 -2.68587E+01 -2.55724E+01 -2.41112E+01 -2.29471E+01 -2.23623E+01 -2.22495E+01 -2.23537E+01
  -2.24932E+01 -2.24895E+01 -2.21660E+01 -2.15586E+01 -2.08898E+01 -2.04189E+01 -2.03113E+01 -2.05655E+01 -2.11396E+01 -2.18662E+01
  -2.24225E+01 -2.25396E+01 -2.21906E+01 -2.14950E+01 -2.06117E+01 -1.97548E+01 -1.91592E+01 -1.89677E+01 -1.91348E+01 -1.94448E+01
  -1.97286E+01 -1.98954E+01 -1.98649E+01 -1.96301E+01 -1.91804E+01 -1.78070E+01 -1.45747E+01 -1.00503E+01 -5.17340E+00 -9.72559E-01
   1.47921E+00  1.18399E+00 -2.02618E+00 -7.17669E+00 -1.21613E+01 -1.55381E+01 -1.76452E+01 -1.90549E+01 -1.97594E+01 -2.01648E+01
  -2.04431E+01 -2.06143E+01 -2.06790E+01 -2.06785E+01 -2.06496E+01 -2.06298E+01 -2.06541E+01 -2.07259E+01 -2.08160E+01 -2.08955E+01
  -2.09413E+01 -2.09315E+01 -2.08567E+01 -2.07182E+01 -2.05254E+01 -2.02933E+01 -2.00353E+01 -1.97613E+01 -1.94827E+01 -1.92077E+01
  -1.89426E+01 -1.86971E+01 -1.84815E+01 -1.83050E+01 -1.81751E+01 -1.80990E+01 -1.80817E+01 -1.81251E+01 -1.82290E+01 -1.83903E+01
  -1.86029E+01 -1.88590E+01 -1.91490E+01 -1.94627E+01 -1.97894E+01 -2.01190E+01 -2.04420E+01 -2.07497E+01 -2.10350E+01 -2.12925E+01
  -2.15192E+01 -2.17130E+01 -2.18736E+01 -2.20016E+01 -2.20985E+01 -2.21664E+01 -2.22076E+01 -2.22246E+01 -2.22202E+01 -2.21967E+01
  -2.21562E+01 -2.21007E+01 -2.20316E+01 -2.19501E+01 -2.18570E+01 -2.17528E+01 -2.16378E+01 -2.15120E+01 -2.13755E+01 -2.12278E+01
  -2.10686E+01 -2.08974E+01 -2.07136E+01 -2.05167E+01 -2.03061E+01 -2.00812E+01 -1.98417E+01 -1.95871E+01 -1.93173E+01 -1.90323E+01
  -1.87323E+01 -1.84180E+01 -1.80901E+01 -1.77500E+01 -1.73993E+01 -1.70401E+01 -1.66748E+01 -1.63063E+01 -1.59378E+01 -1.55726E+01
  -1.52146E+01 -1.48675E+01 -1.45352E+01 -1.42212E+01 -1.39292E+01 -1.36624E+01 -1.34233E+01 -1.32142E+01 -1.30366E+01 -1.28915E+01
  -1.27789E+01 -1.26985E+01 -1.26489E+01 -1.26284E+01 -1.26345E+01 -1.26642E+01 -1.27144E+01 -1.27814E+01 -1.28615E+01 -1.29510E+01
  -1.30461E+01 -1.31434E+01 -1.32393E+01 -1.33309E+01 -1.34152E+01 -1.34897E+01 -1.35522E+01 -1.36008E+01 -1.36340E+01 -1.36505E+01
  -1.36492E+01 -1.36294E+01 -1.35905E+01 -1.35323E+01 -1.34547E+01 -1.33579E+01 -1.32423E+01 -1.31087E+01 -1.29581E+01 -1.27919E+01
  -1.26118E+01 -1.24198E+01 -1.22185E+01 -1.20105E+01 -1.17989E+01 -1.15872E+01 -1.13786E+01 -1.11768E+01 -1.09850E+01 -1.08066E+01
  -1.06445E+01 -1.05010E+01 -1.03780E+01 -1.02769E+01 -1.01981E+01 -1.01416E+01 -1.01066E+01 -1.00917E+01 -1.00950E+01 -1.01140E+01
  -1.01461E+01 -1.01884E+01 -1.02379E+01 -1.02920E+01 -1.03477E+01 -1.04028E+01 -1.04551E+01 -1.05028E+01 -1.05445E+01 -1.05792E+01
  -1.06062E+01 -1.06250E+01 -1.06356E+01 -1.06379E+01 -1.06323E+01 -1.06190E+01 -1.05987E+01 -1.05717E+01 -1.05388E+01 -1.05003E+01
  -1.04569E+01 -1.04090E+01 -1.03572E+01 -1.03019E+01 -1.02435E+01 -1.01823E+01 -1.01186E+01 -1.00528E+01 -9.98504E+00 -9.91560E+00
  -9.84463E+00 -9.77231E+00 -9.69877E+00 -9.62413E+00 -9.54851E+00 -9.47200E+00 -9.39467E+00 -9.31660E+00 -9.23784E+00 -9.15845E+00
  -9.07848E+00 -8.99796E+00 -8.91692E+00 -8.83540E+00 -8.75343E+00 -8.67105E+00 -8.58829E+00 -8.50519E+00 -8.42178E+00 -8.33808E+00
  -8.25411E+00 -8.16990E+00 -8.08547E+00 -8.00084E+00 -7.91602E+00 -7.83102E+00 -7.74587E+00 -7.66059E+00 -7.57518E+00 -7.48966E+00
  -7.40403E+00 -7.31831E+00 -7.23251E+00 -7.14665E+00 -7.06072E+00 -6.97473E+00 -6.88870E+00 -6.80263E+00 -6.71654E+00 -6.63044E+00
  -6.54432E+00 -6.45819E+00 -6.37207E+00 -6.28595E+00 -6.19985E+00 -6.11377E+00 -6.02772E+00 -5.94170E+00 -5.85571E+00 -5.76977E+00
  -5.68388E+00 -5.59804E+00 -5.51227E+00 -5.42655E+00 -5.34090E+00 -5.25533E+00 -5.16985E+00 -5.08444E+00
 NY background values follow
    -1.091E+02   -1.082E+02   -1.074E+02   -1.065E+02   -1.057E+02   -1.048E+02   -1.040E+02   -1.031E+02   -1.023E+02   -1.014E+02
    -1.006E+02   -9.976E+01   -9.892E+01   -9.809E+01   -9.725E+01   -9.642E+01   -9.559E+01   -9.476E+01   -9.394E+01   -9.312E+01
    -9.230E+01   -9.148E+01   -9.067E+01   -8.987E+01   -8.906E+01   -8.826E+01   -8.747E+01   -8.668E+01   -8.590E+01   -8.512E+01
    -8.434E+01   -8.357E+01   -8.281E+01   -8.205E+01   -8.130E+01   -8.056E+01   -7.982E+01   -7.909E+01   -7.836E+01   -7.764E+01
    -7.693E+01   -7.622E+01   -7.553E+01   -7.484E+01   -7.415E+01   -7.348E+01   -7.281E+01   -7.216E+01   -7.151E+01   -7.087E+01
    -7.023E+01   -6.961E+01   -6.899E+01   -6.838E+01   -6.778E+01   -6.718E+01   -6.659E+01   -6.602E+01   -6.544E+01   -6.488E+01
    -6.432E+01   -6.377E+01   -6.323E+01   -6.269E+01   -6.217E+01   -6.165E+01   -6.113E+01   -6.062E+01   -6.012E+01   -5.963E+01
    -5.914E+01   -5.867E+01   -5.819E+01   -5.773E+01   -5.727E+01   -5.681E+01   -5.637E+01   -5.593E+01   -5.549E+01   -5.507E+01
    -5.464E+01   -5.423E+01   -5.382E+01   -5.342E+01   -5.302E+01   -5.263E+01   -5.224E+01   -5.186E+01   -5.149E+01   -5.112E+01
    -5.076E+01   -5.040E+01   -5.005E+01   -4.971E+01   -4.937E+01   -4.903E+01   -4.870E+01   -4.838E+01   -4.806E+01   -4.774E+01
    -4.743E+01   -4.713E+01   -4.683E+01   -4.653E+01   -4.624E+01   -4.595E+01   -4.566E+01   -4.538E+01   -4.511E+01   -4.484E+01
    -4.457E+01   -4.430E+01   -4.404E+01   -4.378E+01   -4.353E+01   -4.328E+01   -4.303E+01   -4.278E+01   -4.254E+01   -4.230E+01
    -4.207E+01   -4.183E+01   -4.160E+01   -4.137E+01   -4.115E+01   -4.092E+01   -4.070E+01   -4.048E+01   -4.026E+01   -4.004E+01
    -3.983E+01   -3.962E+01   -3.940E+01   -3.919E+01   -3.899E+01   -3.878E+01   -3.857E+01   -3.837E+01   -3.816E+01   -3.796E+01
    -3.776E+01   -3.756E+01   -3.736E+01   -3.716E+01   -3.696E+01   -3.677E+01   -3.657E+01   -3.638E+01   -3.618E+01   -3.599E+01
    -3.580E+01   -3.561E+01   -3.542E+01   -3.523E+01   -3.505E+01   -3.486E+01   -3.468E+01   -3.449E+01   -3.431E+01   -3.413E+01
    -3.395E+01   -3.377E+01   -3.359E+01   -3.342E+01   -3.324E+01   -3.306E+01   -3.289E+01   -3.272E+01   -3.255E+01   -3.238E+01
    -3.221E+01   -3.204E+01   -3.187E+01   -3.170E+01   -3.154E+01   -3.137E+01   -3.121E+01   -3.105E+01   -3.089E+01   -3.073E+01
    -3.057E+01   -3.041E+01   -3.025E+01   -3.010E+01   -2.994E+01   -2.979E+01   -2.964E+01   -2.949E+01   -2.934E+01   -2.919E+01
    -2.904E+01   -2.889E+01   -2.875E+01   -2.860E+01   -2.846E+01   -2.832E+01   -2.818E+01   -2.804E+01   -2.791E+01   -2.777E+01
    -2.764E+01   -2.750E+01   -2.737E+01   -2.724E+01   -2.711E+01   -2.699E+01   -2.686E+01   -2.674E+01   -2.662E+01   -2.650E+01
    -2.638E+01   -2.626E+01   -2.615E+01   -2.604E+01   -2.593E+01   -2.582E+01   -2.571E+01   -2.560E+01   -2.550E+01   -2.540E+01
    -2.530E+01   -2.520E+01   -2.510E+01   -2.501E+01   -2.492E+01   -2.483E+01   -2.474E+01   -2.465E+01   -2.457E+01   -2.449E+01
    -2.441E+01   -2.433E+01   -2.426E+01   -2.418E+01   -2.411E+01   -2.404E+01   -2.397E+01   -2.391E+01   -2.385E+01   -2.379E+01
    -2.373E+01   -2.367E+01   -2.362E+01   -2.356E+01   -2.351E+01   -2.346E+01   -2.342E+01   -2.337E+01   -2.333E+01   -2.329E+01
    -2.326E+01   -2.322E+01   -2.319E+01   -2.315E+01   -2.312E+01   -2.310E+01   -2.307E+01   -2.305E+01   -2.303E+01   -2.301E+01
    -2.299E+01   -2.298E+01   -2.297E+01   -2.295E+01   -2.295E+01   -2.294E+01   -2.294E+01   -2.293E+01   -2.293E+01   -2.294E+01
    -2.294E+01   -2.295E+01   -2.296E+01   -2.297E+01   -2.298E+01   -2.299E+01   -2.301E+01   -2.303E+01   -2.304E+01   -2.306E+01
    -2.308E+01   -2.311E+01   -2.313E+01   -2.315E+01   -2.318E+01   -2.320E+01   -2.322E+01   -2.325E+01   -2.327E+01   -2.330E+01
    -2.332E+01   -2.334E+01   -2.337E+01   -2.339E+01   -2.341E+01   -2.343E+01   -2.345E+01   -2.347E+01   -2.349E+01   -2.350E+01
    -2.352E+01   -2.353E+01   -2.354E+01   -2.355E+01   -2.355E+01   -2.356E+01   -2.356E+01   -2.356E+01   -2.355E+01   -2.355E+01
    -2.354E+01   -2.353E+01   -2.351E+01   -2.349E+01   -2.347E+01   -2.344E+01   -2.341E+01   -2.338E+01   -2.334E+01   -2.330E+01
    -2.326E+01   -2.321E+01   -2.316E+01   -2.310E+01   -2.304E+01   -2.298E+01   -2.292E+01   -2.285E+01   -2.278E+01   -2.270E+01
    -2.263E+01   -2.255E+01   -2.246E+01   -2.238E+01   -2.229E+01   -2.220E+01   -2.211E+01   -2.202E+01   -2.192E+01   -2.182E+01
    -2.172E+01   -2.162E+01   -2.151E+01   -2.141E+01   -2.130E+01   -2.119E+01   -2.108E+01   -2.097E+01   -2.085E+01   -2.074E+01
    -2.062E+01   -2.051E+01   -2.039E+01   -2.027E+01   -2.015E+01   -2.003E+01   -1.991E+01   -1.979E+01   -1.967E+01   -1.955E+01
    -1.942E+01   -1.930E+01   -1.918E+01   -1.906E+01   -1.893E+01   -1.881E+01   -1.869E+01   -1.856E+01   -1.844E+01   -1.832E+01
    -1.820E+01   -1.807E+01   -1.795E+01   -1.783E+01   -1.771E+01   -1.758E+01   -1.746E+01   -1.734E+01   -1.722E+01   -1.710E+01
    -1.697E+01   -1.685E+01   -1.673E+01   -1.661E+01   -1.649E+01   -1.637E+01   -1.625E+01   -1.613E+01   -1.601E+01   -1.589E+01
    -1.578E+01   -1.566E+01   -1.554E+01   -1.542E+01   -1.531E+01   -1.519E+01   -1.507E+01   -1.496E+01   -1.484E+01   -1.473E+01
    -1.462E+01   -1.450E+01   -1.439E+01   -1.428E+01   -1.417E+01   -1.406E+01   -1.395E+01   -1.384E+01   -1.373E+01   -1.362E+01
    -1.352E+01   -1.341E+01   -1.330E+01   -1.320E+01   -1.309E+01   -1.299E+01   -1.289E+01   -1.278E+01   -1.268E+01   -1.258E+01
    -1.248E+01   -1.238E+01   -1.228E+01   -1.218E+01   -1.208E+01   -1.198E+01   -1.188E+01   -1.178E+01   -1.168E+01   -1.158E+01
    -1.149E+01   -1.139E+01   -1.129E+01   -1.120E+01   -1.110E+01   -1.101E+01   -1.091E+01   -1.082E+01   -1.072E+01   -1.063E+01
    -1.053E+01   -1.044E+01   -1.035E+01   -1.025E+01   -1.016E+01   -1.007E+01   -9.974E+00   -9.881E+00   -9.788E+00   -9.696E+00
    -9.603E+00   -9.511E+00   -9.418E+00   -9.326E+00   -9.234E+00   -9.141E+00   -9.049E+00   -8.957E+00   -8.865E+00   -8.773E+00
    -8.681E+00   -8.589E+00   -8.497E+00   -8.405E+00   -8.313E+00   -8.222E+00   -8.130E+00   -8.039E+00   -7.947E+00   -7.856E+00
    -7.765E+00   -7.673E+00   -7.582E+00   -7.491E+00   -7.400E+00   -7.309E+00   -7.219E+00   -7.128E+00   -7.037E+00   -6.947E+00
    -6.857E+00   -6.766E+00   -6.676E+00   -6.586E+00   -6.496E+00   -6.406E+00   -6.316E+00   -6.227E+00   -6.137E+00   -6.048E+00
    -5.959E+00   -5.869E+00   -5.780E+00   -5.691E+00   -5.603E+00   -5.514E+00   -5.425E+00   -5.337E+00
 Asp      Conc. = 5.47E+01
