 LCModel (Version 6.3-1L) Copyright: S.W. Provencher.          Ref.: Magn. Reson. Med. 30:672-679 (1993).                
 Slice#1 Row#3 Col#6  PD_05_press_2_raw_act
 36 lines in following concentration table = NCONC+1
    Conc.  %SD /Cr+PCr  Metabolite                                         
   52.777 999% 2.2E-02 Ala                                                 
  117.353 403% 4.8E-02 Asp                                                 
    0.000 999%   0.000 Cr                                                  
 2.43E+03  12%   1.000 PCr                                                 
  290.031 100%   0.120 GABA                                                
  138.009 209% 5.7E-02 Glc                                                 
    0.000 999%   0.000 Gln                                                 
    0.000 999%   0.000 Glu                                                 
  881.575  14%   0.363 GPC                                                 
    0.000 999%   0.000 PCh                                                 
 1.07E+03  42%   0.440 GSH                                                 
 6.77E+03  18%   2.790 Ins                                                 
    0.000 999%   0.000 Lac                                                 
 3.70E+03  31%   1.526 NAA                                                 
  530.253 213%   0.219 NAAG                                                
   24.435 345% 1.0E-02 Scyllo                                              
   25.725 999% 1.1E-02 Tau                                                 
    0.000 999%   0.000 -CrCH2                                              
  881.575  14%   0.363 GPC+PCh                                             
 4.23E+03  10%   1.744 NAA+NAAG                                            
 2.43E+03  12%   1.000 Cr+PCr                                              
    0.000 999%   0.000 Glu+Gln                                             
 4.94E+03  33%   2.035 Lip13a                                              
    0.000 999%   0.000 Lip13b                                              
 1.35E+03  42%   0.556 Lip09                                               
 1.23E+03  57%   0.506 MM09                                                
  829.855  43%   0.342 Lip20                                               
 1.67E+03  73%   0.688 MM20                                                
  308.417 124%   0.127 MM12                                                
 2.78E+03  36%   1.145 MM14                                                
    0.000 999%   0.000 MM17                                                
 4.94E+03  33%   2.035 Lip13a+Lip13b                                       
 8.02E+03  15%   3.307 MM14+Lip13a+Lip13b+MM12                             
 2.58E+03  19%   1.062 MM09+Lip09                                          
 2.50E+03  46%   1.030 MM20+Lip20                                          
   6 lines in following misc. output table
  FWHM = 0.122 ppm    S/N =   3                                            
  Data shift = 0.031 ppm                                                   
  Ph:   2 deg      10.3 deg/ppm                                            
  alphaB,S = 8.5E+01,   1.0E+02                                            
   14 spline knots.   Ns = 8(2)                                            
   2 inflections.     1 extrema                                            
  498 points on ppm-axis = NY
      4.000000     3.992357     3.984714     3.977070     3.969427     3.961784     3.954141     3.946497     3.938854     3.931211
      3.923568     3.915925     3.908281     3.900638     3.892995     3.885352     3.877708     3.870065     3.862422     3.854779
      3.847136     3.839492     3.831849     3.824206     3.816563     3.808919     3.801276     3.793633     3.785990     3.778347
      3.770703     3.763060     3.755417     3.747774     3.740130     3.732487     3.724844     3.717201     3.709558     3.701914
      3.694271     3.686628     3.678985     3.671341     3.663698     3.656055     3.648412     3.640769     3.633125     3.625482
      3.617839     3.610196     3.602552     3.594909     3.587266     3.579623     3.571980     3.564336     3.556693     3.549050
      3.541407     3.533763     3.526120     3.518477     3.510834     3.503191     3.495547     3.487904     3.480261     3.472618
      3.464974     3.457331     3.449688     3.442045     3.434402     3.426758     3.419115     3.411472     3.403829     3.396185
      3.388542     3.380899     3.373256     3.365613     3.357969     3.350326     3.342683     3.335040     3.327396     3.319753
      3.312110     3.304467     3.296824     3.289180     3.281537     3.273894     3.266251     3.258607     3.250964     3.243321
      3.235678     3.228034     3.220391     3.212748     3.205105     3.197462     3.189818     3.182175     3.174532     3.166889
      3.159245     3.151602     3.143959     3.136316     3.128673     3.121029     3.113386     3.105743     3.098100     3.090456
      3.082813     3.075170     3.067527     3.059884     3.052240     3.044597     3.036954     3.029311     3.021667     3.014024
      3.006381     2.998738     2.991095     2.983451     2.975808     2.968165     2.960522     2.952878     2.945235     2.937592
      2.929949     2.922306     2.914662     2.907019     2.899376     2.891733     2.884089     2.876446     2.868803     2.861160
      2.853517     2.845873     2.838230     2.830587     2.822944     2.815300     2.807657     2.800014     2.792371     2.784728
      2.777084     2.769441     2.761798     2.754155     2.746511     2.738868     2.731225     2.723582     2.715939     2.708295
      2.700652     2.693009     2.685366     2.677722     2.670079     2.662436     2.654793     2.647150     2.639506     2.631863
      2.624220     2.616577     2.608933     2.601290     2.593647     2.586004     2.578361     2.570717     2.563074     2.555431
      2.547788     2.540144     2.532501     2.524858     2.517215     2.509572     2.501928     2.494285     2.486642     2.478999
      2.471355     2.463712     2.456069     2.448426     2.440783     2.433139     2.425496     2.417853     2.410210     2.402566
      2.394923     2.387280     2.379637     2.371994     2.364350     2.356707     2.349064     2.341421     2.333777     2.326134
      2.318491     2.310848     2.303205     2.295561     2.287918     2.280275     2.272632     2.264988     2.257345     2.249702
      2.242059     2.234416     2.226772     2.219129     2.211486     2.203843     2.196199     2.188556     2.180913     2.173270
      2.165627     2.157983     2.150340     2.142697     2.135054     2.127410     2.119767     2.112124     2.104481     2.096838
      2.089194     2.081551     2.073908     2.066265     2.058621     2.050978     2.043335     2.035692     2.028049     2.020405
      2.012762     2.005119     1.997476     1.989833     1.982190     1.974546     1.966903     1.959260     1.951617     1.943974
      1.936331     1.928688     1.921045     1.913402     1.905759     1.898115     1.890472     1.882829     1.875186     1.867543
      1.859900     1.852257     1.844614     1.836971     1.829327     1.821684     1.814041     1.806398     1.798755     1.791112
      1.783469     1.775826     1.768183     1.760540     1.752896     1.745253     1.737610     1.729967     1.722324     1.714681
      1.707038     1.699395     1.691752     1.684108     1.676465     1.668822     1.661179     1.653536     1.645893     1.638250
      1.630607     1.622964     1.615321     1.607677     1.600034     1.592391     1.584748     1.577105     1.569462     1.561819
      1.554176     1.546533     1.538890     1.531246     1.523603     1.515960     1.508317     1.500674     1.493031     1.485388
      1.477745     1.470102     1.462458     1.454815     1.447172     1.439529     1.431886     1.424243     1.416600     1.408957
      1.401314     1.393671     1.386027     1.378384     1.370741     1.363098     1.355455     1.347812     1.340169     1.332526
      1.324883     1.317240     1.309596     1.301953     1.294310     1.286667     1.279024     1.271381     1.263738     1.256095
      1.248452     1.240808     1.233165     1.225522     1.217879     1.210236     1.202593     1.194950     1.187307     1.179664
      1.172021     1.164377     1.156734     1.149091     1.141448     1.133805     1.126162     1.118519     1.110876     1.103233
      1.095590     1.087946     1.080303     1.072660     1.065017     1.057374     1.049731     1.042088     1.034445     1.026802
      1.019158     1.011515     1.003872     0.996229     0.988586     0.980943     0.973300     0.965657     0.958014     0.950371
      0.942727     0.935084     0.927441     0.919798     0.912155     0.904512     0.896869     0.889226     0.881583     0.873940
      0.866296     0.858653     0.851010     0.843367     0.835724     0.828081     0.820438     0.812795     0.805152     0.797508
      0.789865     0.782222     0.774579     0.766936     0.759293     0.751650     0.744007     0.736364     0.728721     0.721077
      0.713434     0.705791     0.698148     0.690505     0.682862     0.675219     0.667576     0.659933     0.652290     0.644646
      0.637003     0.629360     0.621717     0.614074     0.606431     0.598788     0.591145     0.583502     0.575858     0.568215
      0.560572     0.552929     0.545286     0.537643     0.530000     0.522357     0.514714     0.507071     0.499427     0.491784
      0.484141     0.476498     0.468855     0.461212     0.453569     0.445925     0.438282     0.430639     0.422996     0.415353
      0.407710     0.400067     0.392424     0.384780     0.377137     0.369494     0.361851     0.354208     0.346565     0.338922
      0.331278     0.323635     0.315992     0.308349     0.300706     0.293063     0.285420     0.277777     0.270133     0.262490
      0.254847     0.247204     0.239561     0.231918     0.224275     0.216631     0.208988     0.201345
 NY phased data points follow
   6.48424E+01  5.61871E+01  2.02671E+01  1.94735E+01  4.40118E+01  5.87516E+01  6.98642E+01  4.76479E+01  3.20434E+01  4.95040E+01
   5.40444E+01  7.39302E+01  5.85279E+01  6.59928E+01  2.27466E+01  3.23471E+01  4.40889E+01  2.62475E+01  4.30601E+01  3.05443E+01
   2.00898E+01  3.88177E+01  4.89218E+01  3.54079E+01  3.19806E+01  8.87730E+00  5.32712E+01  1.64257E+01  2.37913E+01  5.03126E+01
   2.81382E+01  3.17492E+01  2.80090E+01  8.60310E+00  6.70180E+00  2.85188E+01  3.88028E+01  1.01845E+01  2.98612E+01  1.27354E+01
   6.30244E+01  2.95702E+01  4.47466E+01  2.48188E+01  3.14292E+01  4.22475E+01  4.01678E+01  5.46889E+01  2.85000E+01  3.49065E+01
   3.99148E+01  2.25018E+01  4.03876E+01  3.67073E+01  1.44598E+01  3.71375E+01  3.59003E+01  3.81499E+01  3.24554E+01  4.27262E+01
   5.78005E+01  3.85495E+01  1.57181E+01  2.69331E+01  1.43540E+01 -8.86334E+00  3.14795E+01  3.64307E+01  9.03144E+00  1.51419E+01
   3.01453E+01  8.42345E+00  1.35811E+01  4.20514E+01  1.77338E+01  5.85847E+00  3.27944E+01  8.93338E-01  1.31121E+01  2.03379E+01
   4.92791E+00  4.30727E+00  6.06894E+00 -1.80178E+00  1.32294E+01  2.24231E+00 -5.15759E+00  2.25916E+01  3.67559E+00  8.97806E+00
   1.98492E+01 -5.87398E+00  1.96422E+01  4.46496E+00  3.26548E+01  9.46412E+00  2.67391E+01  3.11639E+01  2.15723E+01  1.64122E+01
   1.87798E+01  3.28771E+01  5.57351E+01  4.51995E+01  4.36959E+01  4.67529E+01  3.96537E+01  5.16043E+01  3.70207E+01  2.67416E+01
   3.22675E+01  3.18486E+01  6.21108E+01  8.35887E+00  3.18196E+01  2.16624E+01  2.92782E+01  2.45579E+01  2.07872E+01 -1.36542E+00
   2.11753E+01  1.73978E+01  2.11384E+01  2.45984E+01  2.73202E+01  3.87588E+01  5.12690E+01  6.65335E+01  3.31508E+01  5.09285E+01
   3.05692E+01  3.89210E+01  4.96309E+01  8.15489E+00  3.58948E+01  3.53318E+01  2.85356E+01  3.78344E+01  4.57656E+01  1.62932E+01
   4.49527E-01  8.80188E+00  1.97776E+01  1.76427E+01  1.34750E+01  1.57462E+01  2.61862E+01  1.16952E+01  3.00368E+01  1.46278E+01
   1.53446E+01 -3.42520E+00  3.50841E+01  3.58792E+00  3.79228E+00  2.35723E+01 -4.95723E+00  1.87752E+01  4.58390E+00  1.96957E+00
   2.64247E+01  1.52305E+01  1.48893E+01  1.94271E+01  1.43641E+01  8.91468E+00 -5.19355E+00  3.51550E+01  2.78306E+01 -4.65708E+00
   1.32692E+01 -2.65646E+01 -1.39905E-01 -1.21479E+01  7.12145E+00 -1.32822E+01 -1.47132E+01 -1.48290E+01  1.87376E+00 -6.62934E+00
  -2.86089E+00 -1.90302E+01 -1.13444E+01  1.45816E+01  9.74212E+00  1.03847E+01 -1.95484E+00  3.23024E+00  1.84180E+01 -5.21027E+00
   9.22649E+00  1.49987E+01  2.78353E+01 -1.26873E+01  3.42629E+00 -2.57415E+01  8.69985E+00  2.15342E+00 -5.47200E+00 -2.29639E+01
  -1.79428E+01 -9.52567E+00 -7.92270E+00 -2.31139E+00  3.72383E+00  2.62385E+00  2.72882E+01  7.79895E+00  1.37346E+01  9.64762E+00
   8.02397E+00  9.96099E+00  1.51127E+00  1.69261E+01  2.39352E+01 -3.39629E+00  7.83106E+00  1.40081E+01  4.36163E+00  6.45297E+00
   2.56340E+01 -5.09840E+00  1.23517E+01  7.55377E+00 -4.64083E+00  1.63378E+01 -4.14077E+00  2.60662E+01 -6.28094E+00 -1.45923E-01
  -1.19452E+01  3.28727E-01  2.48489E+01  2.30432E+01  1.60329E+00  1.00681E+00  3.15595E+01  1.51913E+01  1.23090E+01  1.56752E+01
   1.20032E+01  1.09131E+01  2.28304E+00  1.67093E+01  1.66093E+01 -1.42961E+01  2.55279E+01  8.89968E+00  2.86259E+01  1.95648E+01
   2.54034E+01  3.53196E+01  3.93290E+01  2.89149E+01  4.19919E+01  6.44575E+01  7.02549E+01  6.11300E+01  6.77046E+01  7.40300E+01
   8.12024E+01  8.28757E+01  6.43691E+01  8.00847E+01  6.66203E+01  7.10319E+01  6.53522E+01  6.01719E+01  3.05953E+01  1.05853E+01
   2.24493E+01  1.91982E+01  1.69998E+01  7.46445E+00  1.85301E+01  1.95252E+00 -1.48863E+00  2.52344E+01 -2.41802E+00 -1.38816E+00
  -2.04239E+01  2.33252E+00 -2.44392E+01  1.15986E+00 -2.42011E+00 -3.76830E+00 -1.65088E+01 -1.48158E+01  2.47277E+01  1.07144E+01
  -3.14681E+00 -3.95844E+00  1.97460E+00 -1.91574E+01 -2.42234E+01  5.64070E+00  2.48816E+01  2.22573E+01  6.84622E-01 -7.52581E+00
  -1.27615E+01 -2.09846E+01 -2.57894E+01 -3.68892E+00  3.22114E+00 -5.68480E+00 -2.81731E+00  6.68173E+00  5.98412E+00 -1.75786E+01
  -5.25530E+00  1.26739E+00  1.53079E+01 -1.42043E+00 -1.26796E+01 -1.26300E+01  1.06539E+01  3.58100E+01  5.56987E+00  1.27333E+01
   1.43764E+00  6.89535E+00 -2.43513E+00  2.17213E+00  2.28288E+01  1.69548E+01  2.70338E+01  8.58993E-02  1.98881E+01  1.61093E+01
   3.23009E+00  1.32142E+01  8.14882E+00  5.49409E+01  2.53636E+01  2.47148E+01  2.43617E+01  2.98347E+01  3.69918E+01  1.74637E+01
   3.49074E+01  1.12251E+01  9.01072E+00  2.24804E+01  9.72794E+00  1.41157E+01  1.74111E+01  1.98047E+01  3.40665E+01  5.57849E+01
   2.88694E+01  1.81388E+01  2.93723E+01  3.41638E+01  8.78572E+00  2.06299E+01 -1.71648E-01  2.72192E+01  3.03595E+01  8.35526E+00
   2.97318E+01 -1.27924E+01 -4.70671E+00  1.28396E+01  1.28693E+01  7.36197E-01  1.74808E+00  3.17278E+00  2.83579E+01  4.80616E+00
   1.63567E+01  1.22495E+01  2.97256E+00 -5.72408E+00  2.80759E+01  1.25022E+01  3.70376E+01 -1.52822E+01 -8.56449E+00  1.38447E+01
  -1.17753E+01  1.50140E-01  4.27992E+00 -1.05228E+01 -2.07777E+00 -8.78712E+00  6.31192E+00  6.34206E+00 -3.15196E+01 -3.77476E+01
   6.85134E+00 -3.56884E+00  1.85586E+01 -4.29818E+00  3.88922E+00  8.33912E+00 -1.14526E+01  1.61118E+01  2.34951E+01  1.86373E+01
   2.19010E+01 -1.21123E+01  3.97655E+01  2.64314E+01  8.63262E+00  8.15475E+00 -1.82968E+00  1.02872E+01 -1.18890E+00  3.41302E+00
   4.84396E+00  1.63824E+01  1.58200E+01  2.12183E+01 -9.31313E+00  1.68692E+01  2.07348E+01 -2.11913E+01  6.14223E+00  1.85467E+01
  -7.95727E+00  1.80561E+01  8.78540E+00  3.35325E+01 -8.37414E+00 -1.67832E+01  6.71963E+00 -6.83825E+00 -7.54287E+00  1.56030E+01
  -7.70506E+00  1.56362E+01 -2.01007E+01 -3.01859E+01  2.17167E+00 -3.13342E+00 -5.35942E+00 -1.40530E+01 -4.11955E+00  1.76172E+01
  -1.02506E+01 -8.84839E+00 -2.66059E+01 -1.42199E+01 -1.73903E+01 -1.49885E+01  1.09359E+01 -3.65079E+01  3.18009E+01 -2.78519E+01
  -3.94345E+00 -1.86844E+01 -1.98361E+01  6.46877E+00 -1.27040E+01 -1.83966E+01 -2.71941E+01 -2.67107E+01 -1.86682E+01  1.63649E+00
  -2.94514E+00 -9.41007E+00 -6.12036E+00 -3.08593E+01 -3.03444E+01 -8.49091E+00  6.03653E+00 -1.25886E+01 -1.55421E+00 -9.31054E+00
   7.30114E+00 -1.20153E+01 -3.96695E+00  1.54270E+00 -7.31722E+00  5.23310E+00 -1.63022E+01 -1.06367E+01  1.82479E-01  5.72509E+00
  -2.08920E+01 -2.59048E-02 -1.20626E+01  6.24431E+00  5.28945E+00 -6.05255E+00 -2.81096E+01 -3.77155E-01 -1.12335E+01 -7.47520E+00
  -8.76775E+00 -7.89656E+00 -2.06311E+01 -3.36432E+01 -1.47816E+01  9.44013E+00 -1.58977E+01 -2.60242E+00
 NY points of the fit to the data follow
   3.92654E+01  4.02663E+01  3.99778E+01  4.17122E+01  4.15931E+01  4.38984E+01  4.37795E+01  4.60299E+01  4.56254E+01  4.69976E+01
   4.60573E+01  4.59878E+01  4.44898E+01  4.33923E+01  4.13592E+01  3.96010E+01  3.76660E+01  3.58230E+01  3.42794E+01  3.24947E+01
   3.14650E+01  2.96056E+01  2.92288E+01  2.73468E+01  2.79719E+01  2.62886E+01  2.80914E+01  2.66688E+01  2.94618E+01  2.83162E+01
   3.13169E+01  2.95141E+01  3.21147E+01  2.99940E+01  3.22074E+01  3.02079E+01  3.21743E+01  3.05377E+01  3.23945E+01  3.12101E+01
   3.30398E+01  3.25029E+01  3.42811E+01  3.43419E+01  3.57881E+01  3.62340E+01  3.71028E+01  3.74291E+01  3.74647E+01  3.72297E+01
   3.65942E+01  3.56451E+01  3.44057E+01  3.32195E+01  3.20025E+01  3.11449E+01  3.03752E+01  2.98594E+01  2.94291E+01  2.86427E+01
   2.81544E+01  2.68454E+01  2.63084E+01  2.48336E+01  2.46010E+01  2.34213E+01  2.38681E+01  2.34143E+01  2.44855E+01  2.40390E+01
   2.50804E+01  2.43124E+01  2.51194E+01  2.38933E+01  2.42780E+01  2.26837E+01  2.26811E+01  2.09239E+01  2.06391E+01  1.89135E+01
   1.85481E+01  1.66344E+01  1.61739E+01  1.38686E+01  1.33662E+01  1.08313E+01  1.05137E+01  8.23059E+00  8.50237E+00  7.20739E+00
   8.45578E+00  8.53458E+00  1.09017E+01  1.20118E+01  1.52106E+01  1.70099E+01  2.08910E+01  2.33043E+01  2.78827E+01  3.04397E+01
   3.55712E+01  3.73417E+01  4.24866E+01  4.21368E+01  4.64732E+01  4.32699E+01  4.61816E+01  4.06564E+01  4.21246E+01  3.55475E+01
   3.61138E+01  3.00537E+01  3.03947E+01  2.58043E+01  2.61934E+01  2.33698E+01  2.36190E+01  2.26546E+01  2.26159E+01  2.41163E+01
   2.40484E+01  2.86863E+01  2.86277E+01  3.62885E+01  3.56791E+01  4.37481E+01  4.15352E+01  4.83622E+01  4.43427E+01  4.87021E+01
   4.33927E+01  4.51817E+01  3.94024E+01  3.91565E+01  3.37822E+01  3.25693E+01  2.80451E+01  2.63949E+01  2.27593E+01  2.06345E+01
   1.78451E+01  1.52942E+01  1.34280E+01  1.08937E+01  9.97165E+00  8.04741E+00  8.00601E+00  7.31906E+00  7.40054E+00  6.83119E+00
   6.87568E+00  6.40175E+00  6.41968E+00  5.99202E+00  5.92464E+00  5.39128E+00  5.18986E+00  4.62950E+00  4.33951E+00  3.88105E+00
   3.56450E+00  3.23644E+00  2.86393E+00  2.61123E+00  2.12855E+00  1.90970E+00  1.34875E+00  1.10366E+00  5.15518E-01  1.85040E-01
  -3.69149E-01 -8.08275E-01 -1.22436E+00 -1.76059E+00 -1.95419E+00 -2.56743E+00 -2.42824E+00 -3.07236E+00 -2.55601E+00 -3.20692E+00
  -2.34784E+00 -2.97010E+00 -1.78597E+00 -2.23123E+00 -8.23264E-01 -9.91546E-01  4.71270E-01  5.91250E-01  1.96504E+00  2.31712E+00
   3.39703E+00  3.86648E+00  4.49484E+00  5.01154E+00  5.15011E+00  5.70501E+00  5.47933E+00  6.14044E+00  5.83704E+00  6.53148E+00
   6.25794E+00  6.77173E+00  6.56669E+00  6.77181E+00  6.61844E+00  6.42078E+00  6.27889E+00  5.77451E+00  5.75114E+00  5.15753E+00
   5.32008E+00  4.74251E+00  5.10645E+00  4.58124E+00  5.07859E+00  4.67342E+00  5.21680E+00  4.95503E+00  5.42976E+00  5.37118E+00
   5.79024E+00  5.87517E+00  6.22536E+00  6.42779E+00  6.73148E+00  6.95235E+00  7.15957E+00  7.36587E+00  7.49359E+00  7.69990E+00
   7.81475E+00  8.07239E+00  8.23741E+00  8.50910E+00  8.75323E+00  8.98404E+00  9.24784E+00  9.34925E+00  9.60460E+00  9.62499E+00
   9.96934E+00  1.01212E+01  1.07818E+01  1.12581E+01  1.25128E+01  1.34446E+01  1.58367E+01  1.74012E+01  2.12882E+01  2.36024E+01
   2.87420E+01  3.17741E+01  3.79500E+01  4.18197E+01  4.88683E+01  5.34219E+01  6.01440E+01  6.47960E+01  6.93211E+01  7.31412E+01
   7.35081E+01  7.56931E+01  7.12554E+01  7.15849E+01  6.36953E+01  6.25563E+01  5.30534E+01  5.10471E+01  4.18110E+01  3.95616E+01
   3.12236E+01  2.89547E+01  2.14088E+01  1.91391E+01  1.25780E+01  1.05009E+01  5.70888E+00  4.02867E+00  1.33547E+00  4.64086E-01
   2.18094E-01  2.89308E-02 -6.30886E-02 -1.81704E-01 -2.13261E-01 -2.96136E-01 -2.90566E-01 -3.53032E-01 -3.27726E-01 -3.77500E-01
  -3.41717E-01 -3.68884E-01 -3.17634E-01 -3.20939E-01 -2.54409E-01 -2.35594E-01 -1.56129E-01 -1.20899E-01 -3.38153E-02  1.88825E-02
   1.19401E-01  1.94562E-01  3.13724E-01  4.21097E-01  5.66455E-01  7.12773E-01  8.94450E-01  1.08589E+00  1.31196E+00  1.55881E+00
   1.84277E+00  2.15739E+00  2.51601E+00  2.91453E+00  3.35522E+00  3.84782E+00  4.37514E+00  4.96607E+00  5.58168E+00  6.27064E+00
   6.97126E+00  7.75629E+00  8.52806E+00  9.39356E+00  1.02153E+01  1.11309E+01  1.19748E+01  1.29027E+01  1.37439E+01  1.46512E+01
   1.54712E+01  1.63294E+01  1.71063E+01  1.78860E+01  1.85961E+01  1.92692E+01  1.98844E+01  2.04281E+01  2.09293E+01  2.13406E+01
   2.17289E+01  2.20225E+01  2.23109E+01  2.25118E+01  2.27144E+01  2.28370E+01  2.29552E+01  2.29947E+01  2.30070E+01  2.29381E+01
   2.28288E+01  2.26351E+01  2.23837E+01  2.20469E+01  2.16370E+01  2.11482E+01  2.05763E+01  1.99214E+01  1.91860E+01  1.83753E+01
   1.74966E+01  1.65593E+01  1.55743E+01  1.45536E+01  1.35100E+01  1.24565E+01  1.14059E+01  1.03705E+01  9.36165E+00  8.38949E+00
   7.46294E+00  6.58946E+00  5.77518E+00  5.02483E+00  4.34199E+00  3.72914E+00  3.18790E+00  2.71920E+00  2.32354E+00  2.00110E+00
   1.75197E+00  1.57623E+00  1.47408E+00  1.44584E+00  1.49200E+00  1.61311E+00  1.80965E+00  2.08184E+00  2.42940E+00  2.85125E+00
   3.34518E+00  3.90753E+00  4.53281E+00  5.21344E+00  5.93953E+00  6.69875E+00  7.47640E+00  8.25552E+00  9.01726E+00  9.74141E+00
   1.04070E+01  1.09934E+01  1.14806E+01  1.18508E+01  1.20889E+01  1.21833E+01  1.21265E+01  1.19158E+01  1.15531E+01  1.10450E+01
   1.04024E+01  9.63993E+00  8.77528E+00  7.82820E+00  6.81964E+00  5.77081E+00  4.70227E+00  3.63321E+00  2.58084E+00  1.55996E+00
   5.82629E-01 -3.41814E-01 -1.20682E+00 -2.00831E+00 -2.74453E+00 -3.41561E+00 -4.02331E+00 -4.57055E+00 -5.06115E+00 -5.49947E+00
  -5.89016E+00 -6.23793E+00 -6.54741E+00 -6.82302E+00 -7.06883E+00 -7.28861E+00 -7.48570E+00 -7.66311E+00 -7.82346E+00 -7.96908E+00
  -8.10193E+00 -8.22373E+00 -8.33594E+00 -8.43983E+00 -8.53647E+00 -8.62680E+00 -8.71159E+00 -8.79150E+00 -8.86713E+00 -8.93896E+00
  -9.00744E+00 -9.07292E+00 -9.13573E+00 -9.19614E+00 -9.25440E+00 -9.31072E+00 -9.36530E+00 -9.41829E+00 -9.46983E+00 -9.52006E+00
  -9.56909E+00 -9.61703E+00 -9.66397E+00 -9.70998E+00 -9.75513E+00 -9.79949E+00 -9.84312E+00 -9.88608E+00 -9.92840E+00 -9.97013E+00
  -1.00113E+01 -1.00519E+01 -1.00921E+01 -1.01318E+01 -1.01711E+01 -1.02099E+01 -1.02483E+01 -1.02863E+01 -1.03240E+01 -1.03613E+01
  -1.03983E+01 -1.04348E+01 -1.04711E+01 -1.05070E+01 -1.05425E+01 -1.05777E+01 -1.06126E+01 -1.06471E+01 -1.06812E+01 -1.07149E+01
  -1.07482E+01 -1.07811E+01 -1.08135E+01 -1.08454E+01 -1.08768E+01 -1.09076E+01 -1.09377E+01 -1.09671E+01
 NY background values follow
     9.765E+00    9.725E+00    9.686E+00    9.646E+00    9.606E+00    9.566E+00    9.526E+00    9.486E+00    9.447E+00    9.407E+00
     9.367E+00    9.327E+00    9.287E+00    9.247E+00    9.207E+00    9.168E+00    9.128E+00    9.088E+00    9.048E+00    9.008E+00
     8.968E+00    8.928E+00    8.888E+00    8.849E+00    8.809E+00    8.769E+00    8.729E+00    8.689E+00    8.649E+00    8.609E+00
     8.569E+00    8.529E+00    8.490E+00    8.450E+00    8.410E+00    8.370E+00    8.330E+00    8.290E+00    8.250E+00    8.210E+00
     8.170E+00    8.130E+00    8.090E+00    8.051E+00    8.011E+00    7.971E+00    7.931E+00    7.891E+00    7.851E+00    7.811E+00
     7.771E+00    7.731E+00    7.691E+00    7.651E+00    7.611E+00    7.571E+00    7.532E+00    7.492E+00    7.452E+00    7.412E+00
     7.372E+00    7.332E+00    7.292E+00    7.252E+00    7.212E+00    7.172E+00    7.132E+00    7.092E+00    7.052E+00    7.012E+00
     6.972E+00    6.932E+00    6.893E+00    6.853E+00    6.813E+00    6.773E+00    6.733E+00    6.693E+00    6.653E+00    6.613E+00
     6.573E+00    6.533E+00    6.493E+00    6.453E+00    6.413E+00    6.373E+00    6.333E+00    6.293E+00    6.253E+00    6.213E+00
     6.173E+00    6.133E+00    6.094E+00    6.054E+00    6.014E+00    5.974E+00    5.934E+00    5.894E+00    5.854E+00    5.814E+00
     5.774E+00    5.734E+00    5.694E+00    5.654E+00    5.614E+00    5.574E+00    5.534E+00    5.494E+00    5.454E+00    5.414E+00
     5.374E+00    5.334E+00    5.294E+00    5.254E+00    5.214E+00    5.175E+00    5.135E+00    5.095E+00    5.055E+00    5.015E+00
     4.975E+00    4.935E+00    4.895E+00    4.855E+00    4.815E+00    4.775E+00    4.735E+00    4.695E+00    4.655E+00    4.615E+00
     4.575E+00    4.535E+00    4.495E+00    4.455E+00    4.415E+00    4.375E+00    4.335E+00    4.296E+00    4.256E+00    4.216E+00
     4.176E+00    4.136E+00    4.096E+00    4.056E+00    4.016E+00    3.976E+00    3.936E+00    3.896E+00    3.856E+00    3.816E+00
     3.776E+00    3.736E+00    3.696E+00    3.656E+00    3.617E+00    3.577E+00    3.537E+00    3.497E+00    3.457E+00    3.417E+00
     3.377E+00    3.337E+00    3.297E+00    3.257E+00    3.217E+00    3.177E+00    3.137E+00    3.098E+00    3.058E+00    3.018E+00
     2.978E+00    2.938E+00    2.898E+00    2.858E+00    2.818E+00    2.778E+00    2.738E+00    2.698E+00    2.659E+00    2.619E+00
     2.579E+00    2.539E+00    2.499E+00    2.459E+00    2.419E+00    2.379E+00    2.339E+00    2.299E+00    2.260E+00    2.220E+00
     2.180E+00    2.140E+00    2.100E+00    2.060E+00    2.020E+00    1.980E+00    1.941E+00    1.901E+00    1.861E+00    1.821E+00
     1.781E+00    1.741E+00    1.701E+00    1.662E+00    1.622E+00    1.582E+00    1.542E+00    1.502E+00    1.462E+00    1.422E+00
     1.383E+00    1.343E+00    1.303E+00    1.263E+00    1.223E+00    1.183E+00    1.144E+00    1.104E+00    1.064E+00    1.024E+00
     9.843E-01    9.445E-01    9.047E-01    8.649E-01    8.250E-01    7.852E-01    7.454E-01    7.056E-01    6.658E-01    6.260E-01
     5.863E-01    5.465E-01    5.067E-01    4.669E-01    4.271E-01    3.873E-01    3.476E-01    3.078E-01    2.680E-01    2.283E-01
     1.885E-01    1.487E-01    1.090E-01    6.922E-02    2.947E-02   -1.028E-02   -5.003E-02   -8.977E-02   -1.295E-01   -1.692E-01
    -2.090E-01   -2.487E-01   -2.884E-01   -3.282E-01   -3.679E-01   -4.076E-01   -4.473E-01   -4.870E-01   -5.267E-01   -5.664E-01
    -6.061E-01   -6.458E-01   -6.855E-01   -7.252E-01   -7.649E-01   -8.046E-01   -8.443E-01   -8.839E-01   -9.236E-01   -9.633E-01
    -1.003E+00   -1.043E+00   -1.082E+00   -1.122E+00   -1.162E+00   -1.201E+00   -1.241E+00   -1.281E+00   -1.320E+00   -1.360E+00
    -1.399E+00   -1.439E+00   -1.479E+00   -1.518E+00   -1.558E+00   -1.598E+00   -1.637E+00   -1.677E+00   -1.716E+00   -1.756E+00
    -1.795E+00   -1.835E+00   -1.875E+00   -1.914E+00   -1.954E+00   -1.993E+00   -2.033E+00   -2.073E+00   -2.112E+00   -2.152E+00
    -2.191E+00   -2.231E+00   -2.270E+00   -2.310E+00   -2.349E+00   -2.389E+00   -2.428E+00   -2.468E+00   -2.507E+00   -2.547E+00
    -2.586E+00   -2.626E+00   -2.665E+00   -2.705E+00   -2.744E+00   -2.784E+00   -2.823E+00   -2.863E+00   -2.902E+00   -2.942E+00
    -2.981E+00   -3.021E+00   -3.060E+00   -3.100E+00   -3.139E+00   -3.178E+00   -3.218E+00   -3.257E+00   -3.297E+00   -3.336E+00
    -3.376E+00   -3.415E+00   -3.454E+00   -3.494E+00   -3.533E+00   -3.573E+00   -3.612E+00   -3.651E+00   -3.691E+00   -3.730E+00
    -3.769E+00   -3.809E+00   -3.848E+00   -3.887E+00   -3.927E+00   -3.966E+00   -4.005E+00   -4.045E+00   -4.084E+00   -4.123E+00
    -4.163E+00   -4.202E+00   -4.241E+00   -4.281E+00   -4.320E+00   -4.359E+00   -4.398E+00   -4.438E+00   -4.477E+00   -4.516E+00
    -4.556E+00   -4.595E+00   -4.634E+00   -4.673E+00   -4.713E+00   -4.752E+00   -4.791E+00   -4.830E+00   -4.869E+00   -4.909E+00
    -4.948E+00   -4.987E+00   -5.026E+00   -5.065E+00   -5.105E+00   -5.144E+00   -5.183E+00   -5.222E+00   -5.261E+00   -5.300E+00
    -5.339E+00   -5.379E+00   -5.418E+00   -5.457E+00   -5.496E+00   -5.535E+00   -5.574E+00   -5.613E+00   -5.652E+00   -5.691E+00
    -5.731E+00   -5.770E+00   -5.809E+00   -5.848E+00   -5.887E+00   -5.926E+00   -5.965E+00   -6.004E+00   -6.043E+00   -6.082E+00
    -6.121E+00   -6.160E+00   -6.199E+00   -6.238E+00   -6.277E+00   -6.316E+00   -6.355E+00   -6.394E+00   -6.433E+00   -6.472E+00
    -6.511E+00   -6.550E+00   -6.589E+00   -6.628E+00   -6.667E+00   -6.706E+00   -6.744E+00   -6.783E+00   -6.822E+00   -6.861E+00
    -6.900E+00   -6.939E+00   -6.978E+00   -7.017E+00   -7.055E+00   -7.094E+00   -7.133E+00   -7.172E+00   -7.211E+00   -7.250E+00
    -7.289E+00   -7.327E+00   -7.366E+00   -7.405E+00   -7.444E+00   -7.482E+00   -7.521E+00   -7.560E+00   -7.599E+00   -7.638E+00
    -7.676E+00   -7.715E+00   -7.754E+00   -7.792E+00   -7.831E+00   -7.870E+00   -7.909E+00   -7.947E+00   -7.986E+00   -8.025E+00
    -8.063E+00   -8.102E+00   -8.141E+00   -8.179E+00   -8.218E+00   -8.257E+00   -8.295E+00   -8.334E+00   -8.372E+00   -8.411E+00
    -8.450E+00   -8.488E+00   -8.527E+00   -8.565E+00   -8.604E+00   -8.643E+00   -8.681E+00   -8.720E+00   -8.758E+00   -8.797E+00
    -8.835E+00   -8.874E+00   -8.912E+00   -8.951E+00   -8.989E+00   -9.028E+00   -9.066E+00   -9.105E+00   -9.143E+00   -9.182E+00
    -9.220E+00   -9.258E+00   -9.297E+00   -9.335E+00   -9.374E+00   -9.412E+00   -9.450E+00   -9.489E+00   -9.527E+00   -9.566E+00
    -9.604E+00   -9.642E+00   -9.681E+00   -9.719E+00   -9.757E+00   -9.796E+00   -9.834E+00   -9.872E+00
 Ala      Conc. = 5.28E+01
