 LCModel (Version 6.3-1L) Copyright: S.W. Provencher.          Ref.: Magn. Reson. Med. 30:672-679 (1993).                
 Slice#1 Row#8 Col#6  PD_05_press_2_raw_act
 36 lines in following concentration table = NCONC+1
    Conc.  %SD /Cr+PCr  Metabolite                                         
  211.456  73%   0.119 Ala                                                 
  295.910 104%   0.166 Asp                                                 
 1.45E+03  17%   0.814 Cr                                                  
  332.274  76%   0.186 PCr                                                 
    2.817 999% 1.6E-03 GABA                                                
  216.233  92%   0.121 Glc                                                 
 1.36E+03  24%   0.763 Gln                                                 
 2.11E+03  17%   1.183 Glu                                                 
  404.738   9%   0.227 GPC                                                 
    0.000 999%   0.000 PCh                                                 
  562.512  21%   0.316 GSH                                                 
 2.28E+03  16%   1.280 Ins                                                 
  156.739 106% 8.8E-02 Lac                                                 
 3.52E+03   6%   1.974 NAA                                                 
  317.398  61%   0.178 NAAG                                                
   52.438  77% 2.9E-02 Scyllo                                              
  354.502  75%   0.199 Tau                                                 
   64.500 264% 3.6E-02 -CrCH2                                              
  404.738   9%   0.227 GPC+PCh                                             
 3.84E+03   4%   2.152 NAA+NAAG                                            
 1.78E+03   6%   1.000 Cr+PCr                                              
 3.47E+03  14%   1.946 Glu+Gln                                             
 3.31E+03  37%   1.859 Lip13a                                              
  113.244 446% 6.4E-02 Lip13b                                              
   22.223 999% 1.2E-02 Lip09                                               
 3.03E+03  18%   1.699 MM09                                                
  181.748 222%   0.102 Lip20                                               
 5.71E+03  12%   3.204 MM20                                                
 1.08E+03  33%   0.608 MM12                                                
 1.86E+03  37%   1.041 MM14                                                
  759.875  46%   0.426 MM17                                                
 3.43E+03  29%   1.923 Lip13a+Lip13b                                       
 6.37E+03  10%   3.572 MM14+Lip13a+Lip13b+MM12                             
 3.05E+03  12%   1.711 MM09+Lip09                                          
 5.89E+03  11%   3.306 MM20+Lip20                                          
   6 lines in following misc. output table
  FWHM = 0.038 ppm    S/N =  12                                            
  Data shift = 0.000 ppm                                                   
  Ph:   4 deg       9.9 deg/ppm                                            
  alphaB,S = 6.4E+00,   7.2E+00                                            
   14 spline knots.   Ns = 5(1)                                            
  ( 7) 4 infls.   ( 7) 1 extrs.                                            
  498 points on ppm-axis = NY
      4.000000     3.992357     3.984714     3.977070     3.969427     3.961784     3.954141     3.946497     3.938854     3.931211
      3.923568     3.915925     3.908281     3.900638     3.892995     3.885352     3.877708     3.870065     3.862422     3.854779
      3.847136     3.839492     3.831849     3.824206     3.816563     3.808919     3.801276     3.793633     3.785990     3.778347
      3.770703     3.763060     3.755417     3.747774     3.740130     3.732487     3.724844     3.717201     3.709558     3.701914
      3.694271     3.686628     3.678985     3.671341     3.663698     3.656055     3.648412     3.640769     3.633125     3.625482
      3.617839     3.610196     3.602552     3.594909     3.587266     3.579623     3.571980     3.564336     3.556693     3.549050
      3.541407     3.533763     3.526120     3.518477     3.510834     3.503191     3.495547     3.487904     3.480261     3.472618
      3.464974     3.457331     3.449688     3.442045     3.434402     3.426758     3.419115     3.411472     3.403829     3.396185
      3.388542     3.380899     3.373256     3.365613     3.357969     3.350326     3.342683     3.335040     3.327396     3.319753
      3.312110     3.304467     3.296824     3.289180     3.281537     3.273894     3.266251     3.258607     3.250964     3.243321
      3.235678     3.228034     3.220391     3.212748     3.205105     3.197462     3.189818     3.182175     3.174532     3.166889
      3.159245     3.151602     3.143959     3.136316     3.128673     3.121029     3.113386     3.105743     3.098100     3.090456
      3.082813     3.075170     3.067527     3.059884     3.052240     3.044597     3.036954     3.029311     3.021667     3.014024
      3.006381     2.998738     2.991095     2.983451     2.975808     2.968165     2.960522     2.952878     2.945235     2.937592
      2.929949     2.922306     2.914662     2.907019     2.899376     2.891733     2.884089     2.876446     2.868803     2.861160
      2.853517     2.845873     2.838230     2.830587     2.822944     2.815300     2.807657     2.800014     2.792371     2.784728
      2.777084     2.769441     2.761798     2.754155     2.746511     2.738868     2.731225     2.723582     2.715939     2.708295
      2.700652     2.693009     2.685366     2.677722     2.670079     2.662436     2.654793     2.647150     2.639506     2.631863
      2.624220     2.616577     2.608933     2.601290     2.593647     2.586004     2.578361     2.570717     2.563074     2.555431
      2.547788     2.540144     2.532501     2.524858     2.517215     2.509572     2.501928     2.494285     2.486642     2.478999
      2.471355     2.463712     2.456069     2.448426     2.440783     2.433139     2.425496     2.417853     2.410210     2.402566
      2.394923     2.387280     2.379637     2.371994     2.364350     2.356707     2.349064     2.341421     2.333777     2.326134
      2.318491     2.310848     2.303205     2.295561     2.287918     2.280275     2.272632     2.264988     2.257345     2.249702
      2.242059     2.234416     2.226772     2.219129     2.211486     2.203843     2.196199     2.188556     2.180913     2.173270
      2.165627     2.157983     2.150340     2.142697     2.135054     2.127410     2.119767     2.112124     2.104481     2.096838
      2.089194     2.081551     2.073908     2.066265     2.058621     2.050978     2.043335     2.035692     2.028049     2.020405
      2.012762     2.005119     1.997476     1.989833     1.982190     1.974546     1.966903     1.959260     1.951617     1.943974
      1.936331     1.928688     1.921045     1.913402     1.905759     1.898115     1.890472     1.882829     1.875186     1.867543
      1.859900     1.852257     1.844614     1.836971     1.829327     1.821684     1.814041     1.806398     1.798755     1.791112
      1.783469     1.775826     1.768183     1.760540     1.752896     1.745253     1.737610     1.729967     1.722324     1.714681
      1.707038     1.699395     1.691752     1.684108     1.676465     1.668822     1.661179     1.653536     1.645893     1.638250
      1.630607     1.622964     1.615321     1.607677     1.600034     1.592391     1.584748     1.577105     1.569462     1.561819
      1.554176     1.546533     1.538890     1.531246     1.523603     1.515960     1.508317     1.500674     1.493031     1.485388
      1.477745     1.470102     1.462458     1.454815     1.447172     1.439529     1.431886     1.424243     1.416600     1.408957
      1.401314     1.393671     1.386027     1.378384     1.370741     1.363098     1.355455     1.347812     1.340169     1.332526
      1.324883     1.317240     1.309596     1.301953     1.294310     1.286667     1.279024     1.271381     1.263738     1.256095
      1.248452     1.240808     1.233165     1.225522     1.217879     1.210236     1.202593     1.194950     1.187307     1.179664
      1.172021     1.164377     1.156734     1.149091     1.141448     1.133805     1.126162     1.118519     1.110876     1.103233
      1.095590     1.087946     1.080303     1.072660     1.065017     1.057374     1.049731     1.042088     1.034445     1.026802
      1.019158     1.011515     1.003872     0.996229     0.988586     0.980943     0.973300     0.965657     0.958014     0.950371
      0.942727     0.935084     0.927441     0.919798     0.912155     0.904512     0.896869     0.889226     0.881583     0.873940
      0.866296     0.858653     0.851010     0.843367     0.835724     0.828081     0.820438     0.812795     0.805152     0.797508
      0.789865     0.782222     0.774579     0.766936     0.759293     0.751650     0.744007     0.736364     0.728721     0.721077
      0.713434     0.705791     0.698148     0.690505     0.682862     0.675219     0.667576     0.659933     0.652290     0.644646
      0.637003     0.629360     0.621717     0.614074     0.606431     0.598788     0.591145     0.583502     0.575858     0.568215
      0.560572     0.552929     0.545286     0.537643     0.530000     0.522357     0.514714     0.507071     0.499427     0.491784
      0.484141     0.476498     0.468855     0.461212     0.453569     0.445925     0.438282     0.430639     0.422996     0.415353
      0.407710     0.400067     0.392424     0.384780     0.377137     0.369494     0.361851     0.354208     0.346565     0.338922
      0.331278     0.323635     0.315992     0.308349     0.300706     0.293063     0.285420     0.277777     0.270133     0.262490
      0.254847     0.247204     0.239561     0.231918     0.224275     0.216631     0.208988     0.201345
 NY phased data points follow
   3.68088E+01  2.37780E+01  3.07458E+01  2.47413E+01  2.17676E+01  1.74133E+01  3.96748E+01  4.04416E+01  4.16825E+01  4.43156E+01
   6.14553E+01  6.42420E+01  7.07923E+01  5.34178E+01  5.93774E+01  3.72742E+01  3.93205E+01  3.18967E+01  2.38903E+01  3.09241E+01
   3.00062E+01  3.37944E+01  2.77328E+01  2.61918E+01  3.08406E+01  1.47563E+01  3.27938E+01  2.37604E+01  3.89694E+01  2.76715E+01
   4.40095E+01  3.30314E+01  4.58177E+01  2.66583E+01  2.93535E+01  1.92217E+01  1.85945E+01  2.43624E+01  2.92195E+01  2.78638E+01
   2.85738E+01  1.91888E+01  2.85865E+01  2.21839E+01  2.40705E+01  3.60316E+01  3.55173E+01  3.62892E+01  3.95901E+01  4.17384E+01
   3.93692E+01  3.40571E+01  1.69572E+01  1.60367E+01  3.78519E+01  1.76663E+01  3.11325E+01  2.52224E+01  3.61411E+01  2.50494E+01
   3.15018E+01  2.35012E+01  2.16147E+01  1.26466E+01  1.80354E+01  1.47219E+01  1.09955E+01  1.71697E+01  3.34906E+01  7.99805E+00
   3.10113E+01  1.60668E+01  2.30214E+01  1.47564E+01  2.59019E+01  1.07184E+01  2.73890E+01  1.00195E+01  1.29579E+01  2.13185E+01
   2.04061E+01  2.31115E+01  5.16419E+00  1.72856E+01  1.27823E+01  1.45050E+01  2.08153E+01  6.22193E+00  1.60153E+01  1.41014E+01
   1.88458E+01  2.05921E+01  1.98405E+01  1.18355E+01  1.64401E+01  1.29929E+01  1.45883E+01  9.20302E+00  1.84123E+01  2.55875E+01
   3.85191E+01  3.50355E+01  5.18227E+01  5.74021E+01  6.26270E+01  5.27289E+01  4.59770E+01  2.21528E+01  2.79934E+01  2.03329E+01
   1.92094E+01  2.17510E+01  2.51471E+01  7.12880E+00  2.14598E+01  2.44514E+01  2.42525E+01  2.26324E+01  2.81485E+01  1.49701E+01
   1.56172E+01  1.25967E+01  2.03497E+01  2.84988E+01  3.76142E+01  4.97780E+01  8.81740E+01  9.26701E+01  9.86708E+01  7.42458E+01
   6.51262E+01  3.55395E+01  3.89163E+01  1.20507E+01  2.75514E+01  2.55598E+01  2.43790E+01  2.07143E+01  1.50247E+01  1.90804E+01
   1.54020E+01  1.63219E+01  1.91850E+01  9.74380E+00  2.01901E+01  1.65990E+01  1.62958E+01  5.67970E+00  1.59641E+01  3.59315E+00
   1.13573E+01  3.00783E+00  1.25090E+01  1.95008E+01  7.81449E+00  8.86878E+00  1.40134E+01  8.10816E+00  5.86419E+00  8.12477E+00
   4.57687E+00  9.25500E+00  8.36273E+00  1.99237E+00  5.48830E+00  1.60859E+01  7.74898E+00  3.77982E+00  9.55239E+00  5.35419E+00
  -2.60583E+00 -7.98255E+00 -1.22436E+01 -7.93652E+00 -7.72384E+00 -1.56218E+01 -8.60797E+00 -1.23167E+01 -1.19184E+01 -9.00057E+00
  -4.89007E+00 -1.32711E+01 -1.57519E+00 -3.20463E+00  2.86809E+00 -4.26408E+00  6.79827E-01  6.32054E+00  4.31230E+00  4.33917E+00
   3.67975E+00 -2.36531E+00 -1.07685E+01  2.51974E+00 -1.32555E+00 -6.14525E+00 -4.62799E+00 -6.52164E+00 -4.92511E+00 -5.83570E+00
   9.34037E-01  5.04952E+00  2.24435E+01  1.14752E+01  1.63281E+01  1.08740E+01  9.52413E+00  1.38805E+01 -1.71108E+00 -6.57046E+00
   1.61245E+00  5.32724E+00  1.31696E+01  1.63565E+01  3.11775E+01  3.59798E+01  4.10343E+01  2.78206E+01  2.77212E+01  3.01415E+00
   1.03076E+01  7.07879E-01  6.38382E+00 -4.20878E+00 -8.64805E-01  1.77338E+01  1.78196E+01  2.31302E+01  2.79856E+01  1.36012E+01
   1.92865E+01  1.03519E+01  1.33257E+01  1.43015E+01  1.39175E+01  1.83342E+01  1.19962E+01  1.96842E+01  2.65324E+01  2.38870E+01
   1.37355E+01  1.61457E+01  8.38756E+00  1.44075E+01  2.95512E+01  2.37341E+01  2.74729E+01  3.84071E+01  4.47569E+01  3.85777E+01
   3.84814E+01  3.69547E+01  3.77827E+01  4.26105E+01  6.19164E+01  5.18634E+01  6.01758E+01  9.62018E+01  1.24821E+02  1.45552E+02
   2.00155E+02  1.79495E+02  1.58262E+02  1.08779E+02  5.91763E+01  3.68364E+01  2.29975E+01  2.81435E+01  3.24050E+01  1.46836E+01
   2.28882E+01  1.35094E+01  1.95185E+01  8.80973E+00  3.73298E+00  3.61242E+00  1.35159E+01  4.28757E+00  9.67033E-01  3.94211E+00
   5.38436E+00  5.24667E+00 -1.70691E-01 -2.25547E+00  3.93153E+00 -7.27197E+00  1.47426E+01 -6.54443E+00  3.96702E+00 -3.18661E+00
   1.47341E+01  1.06177E+01  1.56121E+00  4.25653E+00  4.25238E+00  7.03623E+00  3.34374E+00 -5.49734E+00  7.66868E+00  3.59873E+00
   5.17620E+00  1.74245E+01  2.17065E+01  1.15697E+01  1.11263E+01  6.58192E+00  5.18068E+00  1.15932E+01  7.24802E+00  1.35844E+01
   5.95527E+00  1.12662E+01  1.19514E+01  4.87513E+00  1.52268E+01  1.60556E+01  1.60963E+01  1.37458E+01  9.70287E+00 -6.13761E+00
   5.83939E+00  9.29210E+00  4.86518E+00 -1.05578E+00  1.02769E+01  6.67330E+00  9.86986E+00  1.88313E+01  2.04756E+01  2.41324E+00
   1.18036E+01  5.54573E+00  6.63488E+00  8.48152E+00  1.35224E+01  2.30255E+01  1.92476E+01  7.63178E+00  2.08183E+01  1.95177E+01
   3.46839E+01  2.54850E+01  2.76151E+01  4.85767E+00  1.28186E+01  2.79140E+01  2.32701E+01  1.37382E+01  2.57239E+01  1.46615E+01
   1.96839E+01  1.85723E+01  2.54615E+01  1.88523E+01  2.87393E+01  2.71979E+01  3.74029E+01  2.97759E+01  1.35150E+01  2.26419E+01
   3.28911E+01  2.28477E+01  2.59683E+01  2.21368E+01  2.07411E+01  1.92526E+01  1.69003E+01  1.98016E+01  2.27038E+01  1.84427E+01
   1.69572E+01  2.11474E+01  2.01368E+01  2.60771E+01  1.28198E+01  1.01341E+01  1.37656E+01  9.58489E-01  6.55951E+00  1.18419E+01
   5.90576E+00  1.62365E+01  1.66115E+01  1.48677E+01  1.28992E+01  1.41533E+01  1.76554E+01  1.57977E+01  1.73074E+01  1.20927E+01
   1.01221E+01  1.56114E+01  2.14648E+01  1.79423E+01  1.90622E+01  1.49777E+01  2.50587E+01  2.47456E+01  1.51898E+01  2.28057E+01
   2.07004E+01  2.81518E+01  1.29627E+01  2.69203E+01  2.20690E+01  2.51114E+01  1.69311E+01  2.44676E+01  1.82700E+01  6.24444E+00
   1.39068E+01  8.13313E+00  8.24129E+00  4.27718E+00  1.48018E+00  7.00465E+00  2.59278E+00  4.73233E+00  4.36524E+00 -2.35979E-01
   7.50634E+00  3.51355E+00  4.10402E+00 -1.12813E+00 -5.55481E+00 -6.45733E+00 -5.96497E+00 -3.85991E-01 -6.62329E-02 -2.34007E+00
  -1.89619E+00 -5.77421E+00 -8.97988E+00 -4.62078E+00  9.16076E+00 -5.08551E+00  3.90407E+00 -1.54761E+00 -6.64527E+00 -2.33056E+00
   4.10697E+00  6.33986E-01 -2.54306E+00 -2.84435E+00 -2.37823E+00 -1.31395E+00 -6.45049E+00 -1.62615E+00 -7.03026E+00  3.61226E-02
  -1.22660E+01  5.02787E-01 -9.91256E+00 -6.58150E-01 -5.65705E+00 -6.08127E+00 -5.79978E+00  1.09557E-01  4.48313E+00 -1.14884E+01
  -1.87151E+00 -6.42791E+00 -1.59954E+00 -2.08880E+00 -2.94589E+00  6.61192E+00 -1.17349E+00 -2.53647E+00  6.26902E+00  8.33646E+00
   1.05957E+01 -9.98910E+00  1.00851E+01 -9.37887E+00  1.45928E+00 -3.93235E+00 -9.29458E-01 -5.55846E+00 -5.24171E+00 -8.10331E+00
   4.01265E+00  2.75799E-01 -4.25308E+00 -2.17170E+00 -9.09003E+00 -2.40254E+00 -3.76547E+00 -1.37742E+01 -5.03183E+00 -4.43715E+00
  -1.60864E+00 -6.57148E+00  1.15626E+00 -5.14179E+00  3.37085E-03  8.65243E+00 -5.50928E+00  6.99716E+00
 NY points of the fit to the data follow
   2.31706E+01  2.25940E+01  2.24948E+01  2.29056E+01  2.39735E+01  2.59153E+01  2.88902E+01  3.36581E+01  4.19565E+01  5.10686E+01
   5.89563E+01  6.78671E+01  6.82253E+01  6.03539E+01  5.00460E+01  3.65958E+01  2.90607E+01  2.58555E+01  2.36965E+01  2.28644E+01
   2.30522E+01  2.37445E+01  2.41282E+01  2.38631E+01  2.30238E+01  2.21580E+01  2.31564E+01  2.53266E+01  2.96671E+01  3.68799E+01
   4.12805E+01  4.31831E+01  4.12861E+01  3.57366E+01  3.07876E+01  2.53502E+01  2.11447E+01  1.90863E+01  1.84224E+01  1.91379E+01
   2.00863E+01  2.03635E+01  2.14711E+01  2.36589E+01  2.70645E+01  3.16050E+01  3.67439E+01  4.10104E+01  4.15274E+01  3.72116E+01
   2.99152E+01  2.24584E+01  1.77688E+01  1.60595E+01  1.58514E+01  1.67091E+01  1.84147E+01  2.03350E+01  2.25379E+01  2.48780E+01
   2.60490E+01  2.59704E+01  2.41587E+01  2.11301E+01  1.87505E+01  1.72723E+01  1.72508E+01  1.80847E+01  1.93635E+01  2.07886E+01
   2.15913E+01  2.26814E+01  2.36169E+01  2.37738E+01  2.38109E+01  2.32907E+01  2.21809E+01  2.08781E+01  1.94684E+01  1.81269E+01
   1.75150E+01  1.76576E+01  1.81487E+01  1.85641E+01  1.83927E+01  1.76509E+01  1.60730E+01  1.36050E+01  1.14428E+01  1.02474E+01
   1.05659E+01  1.21875E+01  1.39156E+01  1.50796E+01  1.57658E+01  1.61561E+01  1.65041E+01  1.66692E+01  1.80314E+01  2.22779E+01
   3.03473E+01  4.06619E+01  5.27770E+01  6.39996E+01  6.32263E+01  5.41932E+01  4.08806E+01  2.66866E+01  2.06225E+01  1.74127E+01
   1.55129E+01  1.48951E+01  1.48154E+01  1.49148E+01  1.50418E+01  1.51564E+01  1.52730E+01  1.54140E+01  1.55822E+01  1.58791E+01
   1.65100E+01  1.78558E+01  2.11879E+01  2.90353E+01  4.25984E+01  5.91708E+01  7.73866E+01  9.40458E+01  9.46287E+01  8.16077E+01
   6.26156E+01  4.12769E+01  3.03290E+01  2.43499E+01  1.88980E+01  1.52363E+01  1.29926E+01  1.21147E+01  1.31205E+01  1.46102E+01
   1.60112E+01  1.69662E+01  1.66884E+01  1.60311E+01  1.50624E+01  1.42290E+01  1.36068E+01  1.28687E+01  1.22011E+01  1.15148E+01
   1.08877E+01  1.03671E+01  9.89812E+00  9.55922E+00  9.36561E+00  9.40520E+00  9.38014E+00  8.96084E+00  8.07818E+00  6.80046E+00
   5.21445E+00  4.43618E+00  5.04704E+00  6.20828E+00  8.08038E+00  8.70760E+00  7.60472E+00  6.30333E+00  4.72842E+00  3.85526E+00
   3.60971E+00  3.25477E+00  2.60050E+00  1.65422E+00  6.80703E-01 -1.81921E-01 -5.39040E-01  4.75769E-01  1.58540E+00  2.26861E+00
   2.15393E+00  1.05623E+00  9.26427E-01  1.27267E+00  1.86224E+00  2.59934E+00  3.09822E+00  4.70265E+00  8.02896E+00  1.11928E+01
   1.35053E+01  1.40110E+01  1.21347E+01  9.66405E+00  7.45716E+00  5.64422E+00  5.50935E+00  6.24883E+00  7.91077E+00  1.08894E+01
   1.42171E+01  1.76820E+01  1.97442E+01  2.08201E+01  1.97029E+01  1.57577E+01  1.00049E+01  3.13076E+00 -2.61378E+00 -6.16838E+00
  -5.04800E+00 -4.46910E-01  5.61273E+00  1.32663E+01  1.94506E+01  2.48693E+01  2.74176E+01  2.40110E+01  1.73104E+01  8.52706E+00
   1.34140E+00 -3.01472E+00 -4.67905E+00 -1.74116E+00  4.90250E+00  1.22369E+01  1.82526E+01  2.11472E+01  2.11657E+01  2.04082E+01
   1.85264E+01  1.63880E+01  1.55572E+01  1.60494E+01  1.74509E+01  1.96598E+01  2.28243E+01  2.55339E+01  2.68496E+01  2.63395E+01
   2.39155E+01  2.09800E+01  1.88812E+01  1.87978E+01  2.08352E+01  2.45497E+01  2.81642E+01  3.06375E+01  3.20834E+01  3.29343E+01
   3.38452E+01  3.51485E+01  3.79866E+01  4.19295E+01  4.64101E+01  5.44526E+01  6.95002E+01  9.38453E+01  1.21963E+02  1.56154E+02
   1.89175E+02  1.84314E+02  1.53990E+02  1.10141E+02  6.29922E+01  4.24338E+01  3.10708E+01  2.30421E+01  1.94745E+01  1.76497E+01
   1.61532E+01  1.50775E+01  1.44248E+01  1.40735E+01  1.37513E+01  1.32934E+01  1.25639E+01  1.16201E+01  1.06982E+01  9.89027E+00
   9.18513E+00  8.63133E+00  8.23367E+00  7.94543E+00  7.71422E+00  7.45654E+00  7.18889E+00  6.94083E+00  6.75287E+00  6.62683E+00
   6.57137E+00  6.61656E+00  6.72925E+00  6.87074E+00  7.03018E+00  7.17425E+00  7.32322E+00  7.48914E+00  7.66093E+00  7.85901E+00
   8.08575E+00  8.31992E+00  8.56113E+00  8.77770E+00  8.95801E+00  9.10345E+00  9.20594E+00  9.26847E+00  9.29731E+00  9.29605E+00
   9.26920E+00  9.22179E+00  9.16041E+00  9.09361E+00  9.03205E+00  8.98664E+00  8.96741E+00  8.98486E+00  9.04993E+00  9.17653E+00
   9.38331E+00  9.70216E+00  1.01994E+01  1.09271E+01  1.17542E+01  1.23664E+01  1.27520E+01  1.25347E+01  1.12497E+01  9.84885E+00
   8.71540E+00  8.28239E+00  9.13321E+00  1.04085E+01  1.21353E+01  1.46652E+01  1.68203E+01  1.81993E+01  1.89289E+01  1.88015E+01
   1.88637E+01  1.91857E+01  1.96908E+01  2.04629E+01  2.13236E+01  2.20145E+01  2.25722E+01  2.24843E+01  2.16911E+01  2.09555E+01
   2.04076E+01  2.06593E+01  2.16888E+01  2.28462E+01  2.44893E+01  2.60954E+01  2.69488E+01  2.72139E+01  2.66193E+01  2.57349E+01
   2.49157E+01  2.40326E+01  2.31194E+01  2.22002E+01  2.12629E+01  2.03107E+01  1.93522E+01  1.83969E+01  1.74549E+01  1.65369E+01
   1.56534E+01  1.48147E+01  1.40305E+01  1.33107E+01  1.26651E+01  1.21032E+01  1.16338E+01  1.12639E+01  1.09999E+01  1.08474E+01
   1.08112E+01  1.08950E+01  1.11005E+01  1.14270E+01  1.18718E+01  1.24303E+01  1.30951E+01  1.38555E+01  1.46968E+01  1.56010E+01
   1.65465E+01  1.75095E+01  1.84639E+01  1.93812E+01  2.02322E+01  2.09878E+01  2.16212E+01  2.21088E+01  2.24308E+01  2.25721E+01
   2.25231E+01  2.22809E+01  2.18488E+01  2.12369E+01  2.04602E+01  1.95379E+01  1.84929E+01  1.73506E+01  1.61380E+01  1.48817E+01
   1.36068E+01  1.23361E+01  1.10897E+01  9.88485E+00  8.73527E+00  7.65128E+00  6.63923E+00  5.70256E+00  4.84221E+00  4.05743E+00
   3.34566E+00  2.70288E+00  2.12383E+00  1.60301E+00  1.13491E+00  7.14508E-01  3.36603E-01 -3.84249E-03 -3.11756E-01 -5.91241E-01
  -8.45741E-01 -1.07806E+00 -1.29108E+00 -1.48743E+00 -1.66956E+00 -1.83914E+00 -1.99748E+00 -2.14564E+00 -2.28498E+00 -2.41673E+00
  -2.54194E+00 -2.66108E+00 -2.77452E+00 -2.88272E+00 -2.98647E+00 -3.08642E+00 -3.18299E+00 -3.27615E+00 -3.36604E+00 -3.45294E+00
  -3.53746E+00 -3.61989E+00 -3.70033E+00 -3.77855E+00 -3.85469E+00 -3.92902E+00 -4.00202E+00 -4.07376E+00 -4.14416E+00 -4.21300E+00
  -4.28048E+00 -4.34689E+00 -4.41256E+00 -4.47735E+00 -4.54111E+00 -4.60368E+00 -4.66540E+00 -4.72651E+00 -4.78719E+00 -4.84719E+00
  -4.90635E+00 -4.96464E+00 -5.02243E+00 -5.07987E+00 -5.13701E+00 -5.19350E+00 -5.24929E+00 -5.30448E+00 -5.35945E+00 -5.41424E+00
  -5.46874E+00 -5.52264E+00 -5.57599E+00 -5.62897E+00 -5.68190E+00 -5.73470E+00 -5.78717E+00 -5.83906E+00 -5.89057E+00 -5.94191E+00
  -5.99330E+00 -6.04451E+00 -6.09536E+00 -6.14568E+00 -6.19580E+00 -6.24588E+00 -6.29601E+00 -6.34587E+00
 NY background values follow
     1.713E+01    1.707E+01    1.702E+01    1.696E+01    1.690E+01    1.685E+01    1.679E+01    1.674E+01    1.668E+01    1.663E+01
     1.657E+01    1.651E+01    1.646E+01    1.640E+01    1.635E+01    1.629E+01    1.624E+01    1.618E+01    1.613E+01    1.607E+01
     1.601E+01    1.596E+01    1.590E+01    1.585E+01    1.579E+01    1.574E+01    1.568E+01    1.563E+01    1.557E+01    1.551E+01
     1.546E+01    1.540E+01    1.535E+01    1.529E+01    1.524E+01    1.518E+01    1.512E+01    1.507E+01    1.501E+01    1.496E+01
     1.490E+01    1.485E+01    1.479E+01    1.474E+01    1.468E+01    1.462E+01    1.457E+01    1.451E+01    1.446E+01    1.440E+01
     1.435E+01    1.429E+01    1.424E+01    1.418E+01    1.413E+01    1.407E+01    1.401E+01    1.396E+01    1.390E+01    1.385E+01
     1.379E+01    1.374E+01    1.368E+01    1.363E+01    1.357E+01    1.352E+01    1.346E+01    1.340E+01    1.335E+01    1.329E+01
     1.324E+01    1.318E+01    1.313E+01    1.307E+01    1.302E+01    1.296E+01    1.291E+01    1.285E+01    1.280E+01    1.274E+01
     1.269E+01    1.263E+01    1.257E+01    1.252E+01    1.246E+01    1.241E+01    1.235E+01    1.230E+01    1.224E+01    1.219E+01
     1.213E+01    1.208E+01    1.202E+01    1.197E+01    1.191E+01    1.186E+01    1.180E+01    1.175E+01    1.169E+01    1.164E+01
     1.158E+01    1.153E+01    1.147E+01    1.142E+01    1.137E+01    1.131E+01    1.126E+01    1.120E+01    1.115E+01    1.109E+01
     1.104E+01    1.098E+01    1.093E+01    1.087E+01    1.082E+01    1.076E+01    1.071E+01    1.065E+01    1.060E+01    1.055E+01
     1.049E+01    1.044E+01    1.038E+01    1.033E+01    1.027E+01    1.022E+01    1.017E+01    1.011E+01    1.006E+01    1.000E+01
     9.949E+00    9.895E+00    9.841E+00    9.787E+00    9.733E+00    9.679E+00    9.625E+00    9.571E+00    9.518E+00    9.464E+00
     9.410E+00    9.356E+00    9.303E+00    9.249E+00    9.195E+00    9.142E+00    9.088E+00    9.034E+00    8.981E+00    8.928E+00
     8.874E+00    8.821E+00    8.767E+00    8.714E+00    8.661E+00    8.608E+00    8.554E+00    8.501E+00    8.448E+00    8.395E+00
     8.342E+00    8.289E+00    8.236E+00    8.183E+00    8.131E+00    8.078E+00    8.025E+00    7.972E+00    7.920E+00    7.867E+00
     7.815E+00    7.762E+00    7.710E+00    7.657E+00    7.605E+00    7.553E+00    7.500E+00    7.448E+00    7.396E+00    7.344E+00
     7.292E+00    7.240E+00    7.188E+00    7.136E+00    7.084E+00    7.033E+00    6.981E+00    6.929E+00    6.878E+00    6.826E+00
     6.775E+00    6.723E+00    6.672E+00    6.621E+00    6.569E+00    6.518E+00    6.467E+00    6.416E+00    6.365E+00    6.314E+00
     6.263E+00    6.212E+00    6.161E+00    6.110E+00    6.059E+00    6.009E+00    5.958E+00    5.907E+00    5.857E+00    5.806E+00
     5.756E+00    5.706E+00    5.655E+00    5.605E+00    5.555E+00    5.505E+00    5.455E+00    5.404E+00    5.354E+00    5.304E+00
     5.255E+00    5.205E+00    5.155E+00    5.105E+00    5.055E+00    5.006E+00    4.956E+00    4.907E+00    4.857E+00    4.808E+00
     4.758E+00    4.709E+00    4.660E+00    4.610E+00    4.561E+00    4.512E+00    4.463E+00    4.414E+00    4.365E+00    4.316E+00
     4.267E+00    4.218E+00    4.170E+00    4.121E+00    4.072E+00    4.024E+00    3.975E+00    3.926E+00    3.878E+00    3.830E+00
     3.781E+00    3.733E+00    3.685E+00    3.636E+00    3.588E+00    3.540E+00    3.492E+00    3.444E+00    3.396E+00    3.348E+00
     3.300E+00    3.252E+00    3.205E+00    3.157E+00    3.109E+00    3.062E+00    3.014E+00    2.967E+00    2.919E+00    2.872E+00
     2.824E+00    2.777E+00    2.730E+00    2.683E+00    2.635E+00    2.588E+00    2.541E+00    2.494E+00    2.447E+00    2.400E+00
     2.353E+00    2.307E+00    2.260E+00    2.213E+00    2.166E+00    2.120E+00    2.073E+00    2.027E+00    1.980E+00    1.934E+00
     1.887E+00    1.841E+00    1.795E+00    1.748E+00    1.702E+00    1.656E+00    1.610E+00    1.564E+00    1.518E+00    1.472E+00
     1.426E+00    1.380E+00    1.334E+00    1.288E+00    1.243E+00    1.197E+00    1.151E+00    1.106E+00    1.060E+00    1.014E+00
     9.689E-01    9.235E-01    8.780E-01    8.327E-01    7.873E-01    7.420E-01    6.968E-01    6.516E-01    6.064E-01    5.613E-01
     5.162E-01    4.712E-01    4.262E-01    3.812E-01    3.363E-01    2.914E-01    2.465E-01    2.017E-01    1.570E-01    1.122E-01
     6.754E-02    2.289E-02   -2.173E-02   -6.631E-02   -1.109E-01   -1.554E-01   -1.998E-01   -2.443E-01   -2.887E-01   -3.330E-01
    -3.774E-01   -4.216E-01   -4.659E-01   -5.101E-01   -5.543E-01   -5.985E-01   -6.426E-01   -6.867E-01   -7.307E-01   -7.748E-01
    -8.188E-01   -8.627E-01   -9.066E-01   -9.505E-01   -9.944E-01   -1.038E+00   -1.082E+00   -1.126E+00   -1.170E+00   -1.213E+00
    -1.257E+00   -1.301E+00   -1.344E+00   -1.388E+00   -1.431E+00   -1.475E+00   -1.518E+00   -1.562E+00   -1.605E+00   -1.649E+00
    -1.692E+00   -1.736E+00   -1.779E+00   -1.822E+00   -1.865E+00   -1.909E+00   -1.952E+00   -1.995E+00   -2.038E+00   -2.081E+00
    -2.125E+00   -2.168E+00   -2.211E+00   -2.254E+00   -2.297E+00   -2.340E+00   -2.383E+00   -2.426E+00   -2.469E+00   -2.512E+00
    -2.554E+00   -2.597E+00   -2.640E+00   -2.683E+00   -2.726E+00   -2.769E+00   -2.811E+00   -2.854E+00   -2.897E+00   -2.939E+00
    -2.982E+00   -3.025E+00   -3.067E+00   -3.110E+00   -3.152E+00   -3.195E+00   -3.237E+00   -3.280E+00   -3.322E+00   -3.365E+00
    -3.407E+00   -3.450E+00   -3.492E+00   -3.534E+00   -3.577E+00   -3.619E+00   -3.661E+00   -3.704E+00   -3.746E+00   -3.788E+00
    -3.831E+00   -3.873E+00   -3.915E+00   -3.957E+00   -3.999E+00   -4.042E+00   -4.084E+00   -4.126E+00   -4.168E+00   -4.210E+00
    -4.252E+00   -4.294E+00   -4.336E+00   -4.378E+00   -4.420E+00   -4.462E+00   -4.504E+00   -4.546E+00   -4.588E+00   -4.630E+00
    -4.672E+00   -4.714E+00   -4.756E+00   -4.798E+00   -4.840E+00   -4.882E+00   -4.924E+00   -4.966E+00   -5.008E+00   -5.050E+00
    -5.091E+00   -5.133E+00   -5.175E+00   -5.217E+00   -5.259E+00   -5.301E+00   -5.342E+00   -5.384E+00   -5.426E+00   -5.468E+00
    -5.510E+00   -5.551E+00   -5.593E+00   -5.635E+00   -5.677E+00   -5.719E+00   -5.760E+00   -5.802E+00   -5.844E+00   -5.885E+00
    -5.927E+00   -5.969E+00   -6.011E+00   -6.052E+00   -6.094E+00   -6.136E+00   -6.178E+00   -6.219E+00   -6.261E+00   -6.303E+00
    -6.344E+00   -6.386E+00   -6.428E+00   -6.469E+00   -6.511E+00   -6.553E+00   -6.594E+00   -6.636E+00   -6.678E+00   -6.720E+00
    -6.761E+00   -6.803E+00   -6.845E+00   -6.886E+00   -6.928E+00   -6.970E+00   -7.011E+00   -7.053E+00
 Ala      Conc. = 2.11E+02
