 LCModel (Version 6.3-1L) Copyright: S.W. Provencher.          Ref.: Magn. Reson. Med. 30:672-679 (1993).                
 Slice#3 Row#9 Col#8  PD_05_press_2_raw_act
 36 lines in following concentration table = NCONC+1
    Conc.  %SD /Cr+PCr  Metabolite                                         
   93.236 228% 2.8E-02 Ala                                                 
  459.929  90%   0.137 Asp                                                 
 1.35E+03  31%   0.403 Cr                                                  
 2.00E+03  22%   0.597 PCr                                                 
  128.895 244% 3.8E-02 GABA                                                
    0.000 999%   0.000 Glc                                                 
 1.03E+03  44%   0.308 Gln                                                 
 2.73E+03  20%   0.815 Glu                                                 
 1.02E+03   4%   0.304 GPC                                                 
    0.000 999%   0.000 PCh                                                 
  950.515  13%   0.284 GSH                                                 
 1.66E+03  24%   0.497 Ins                                                 
  712.253  34%   0.213 Lac                                                 
 4.45E+03   5%   1.328 NAA                                                 
  302.765  87% 9.0E-02 NAAG                                                
  240.030  20% 7.2E-02 Scyllo                                              
    0.000 999%   0.000 Tau                                                 
   38.908 446% 1.2E-02 -CrCH2                                              
 1.02E+03   4%   0.304 GPC+PCh                                             
 4.75E+03   3%   1.418 NAA+NAAG                                            
 3.35E+03   3%   1.000 Cr+PCr                                              
 3.76E+03  21%   1.124 Glu+Gln                                             
 2.35E+03  26%   0.701 Lip13a                                              
    0.000 999%   0.000 Lip13b                                              
    0.000 999%   0.000 Lip09                                               
 2.43E+03  12%   0.725 MM09                                                
  195.341 130% 5.8E-02 Lip20                                               
 5.24E+03  10%   1.566 MM20                                                
  870.712  24%   0.260 MM12                                                
 3.76E+03  15%   1.124 MM14                                                
 1.87E+03  21%   0.559 MM17                                                
 2.35E+03  26%   0.701 Lip13a+Lip13b                                       
 6.98E+03   8%   2.085 MM14+Lip13a+Lip13b+MM12                             
 2.43E+03  12%   0.725 MM09+Lip09                                          
 5.44E+03  10%   1.624 MM20+Lip20                                          
   6 lines in following misc. output table
  FWHM = 0.061 ppm    S/N =  14                                            
  Data shift =-0.008 ppm                                                   
  Ph: -28 deg      -4.7 deg/ppm                                            
  alphaB,S = 8.5E+01,   3.0E+02                                            
   14 spline knots.   Ns = 8(1)                                            
   2 inflections.     1 extrema                                            
  498 points on ppm-axis = NY
      4.000000     3.992357     3.984714     3.977070     3.969427     3.961784     3.954141     3.946497     3.938854     3.931211
      3.923568     3.915925     3.908281     3.900638     3.892995     3.885352     3.877708     3.870065     3.862422     3.854779
      3.847136     3.839492     3.831849     3.824206     3.816563     3.808919     3.801276     3.793633     3.785990     3.778347
      3.770703     3.763060     3.755417     3.747774     3.740130     3.732487     3.724844     3.717201     3.709558     3.701914
      3.694271     3.686628     3.678985     3.671341     3.663698     3.656055     3.648412     3.640769     3.633125     3.625482
      3.617839     3.610196     3.602552     3.594909     3.587266     3.579623     3.571980     3.564336     3.556693     3.549050
      3.541407     3.533763     3.526120     3.518477     3.510834     3.503191     3.495547     3.487904     3.480261     3.472618
      3.464974     3.457331     3.449688     3.442045     3.434402     3.426758     3.419115     3.411472     3.403829     3.396185
      3.388542     3.380899     3.373256     3.365613     3.357969     3.350326     3.342683     3.335040     3.327396     3.319753
      3.312110     3.304467     3.296824     3.289180     3.281537     3.273894     3.266251     3.258607     3.250964     3.243321
      3.235678     3.228034     3.220391     3.212748     3.205105     3.197462     3.189818     3.182175     3.174532     3.166889
      3.159245     3.151602     3.143959     3.136316     3.128673     3.121029     3.113386     3.105743     3.098100     3.090456
      3.082813     3.075170     3.067527     3.059884     3.052240     3.044597     3.036954     3.029311     3.021667     3.014024
      3.006381     2.998738     2.991095     2.983451     2.975808     2.968165     2.960522     2.952878     2.945235     2.937592
      2.929949     2.922306     2.914662     2.907019     2.899376     2.891733     2.884089     2.876446     2.868803     2.861160
      2.853517     2.845873     2.838230     2.830587     2.822944     2.815300     2.807657     2.800014     2.792371     2.784728
      2.777084     2.769441     2.761798     2.754155     2.746511     2.738868     2.731225     2.723582     2.715939     2.708295
      2.700652     2.693009     2.685366     2.677722     2.670079     2.662436     2.654793     2.647150     2.639506     2.631863
      2.624220     2.616577     2.608933     2.601290     2.593647     2.586004     2.578361     2.570717     2.563074     2.555431
      2.547788     2.540144     2.532501     2.524858     2.517215     2.509572     2.501928     2.494285     2.486642     2.478999
      2.471355     2.463712     2.456069     2.448426     2.440783     2.433139     2.425496     2.417853     2.410210     2.402566
      2.394923     2.387280     2.379637     2.371994     2.364350     2.356707     2.349064     2.341421     2.333777     2.326134
      2.318491     2.310848     2.303205     2.295561     2.287918     2.280275     2.272632     2.264988     2.257345     2.249702
      2.242059     2.234416     2.226772     2.219129     2.211486     2.203843     2.196199     2.188556     2.180913     2.173270
      2.165627     2.157983     2.150340     2.142697     2.135054     2.127410     2.119767     2.112124     2.104481     2.096838
      2.089194     2.081551     2.073908     2.066265     2.058621     2.050978     2.043335     2.035692     2.028049     2.020405
      2.012762     2.005119     1.997476     1.989833     1.982190     1.974546     1.966903     1.959260     1.951617     1.943974
      1.936331     1.928688     1.921045     1.913402     1.905759     1.898115     1.890472     1.882829     1.875186     1.867543
      1.859900     1.852257     1.844614     1.836971     1.829327     1.821684     1.814041     1.806398     1.798755     1.791112
      1.783469     1.775826     1.768183     1.760540     1.752896     1.745253     1.737610     1.729967     1.722324     1.714681
      1.707038     1.699395     1.691752     1.684108     1.676465     1.668822     1.661179     1.653536     1.645893     1.638250
      1.630607     1.622964     1.615321     1.607677     1.600034     1.592391     1.584748     1.577105     1.569462     1.561819
      1.554176     1.546533     1.538890     1.531246     1.523603     1.515960     1.508317     1.500674     1.493031     1.485388
      1.477745     1.470102     1.462458     1.454815     1.447172     1.439529     1.431886     1.424243     1.416600     1.408957
      1.401314     1.393671     1.386027     1.378384     1.370741     1.363098     1.355455     1.347812     1.340169     1.332526
      1.324883     1.317240     1.309596     1.301953     1.294310     1.286667     1.279024     1.271381     1.263738     1.256095
      1.248452     1.240808     1.233165     1.225522     1.217879     1.210236     1.202593     1.194950     1.187307     1.179664
      1.172021     1.164377     1.156734     1.149091     1.141448     1.133805     1.126162     1.118519     1.110876     1.103233
      1.095590     1.087946     1.080303     1.072660     1.065017     1.057374     1.049731     1.042088     1.034445     1.026802
      1.019158     1.011515     1.003872     0.996229     0.988586     0.980943     0.973300     0.965657     0.958014     0.950371
      0.942727     0.935084     0.927441     0.919798     0.912155     0.904512     0.896869     0.889226     0.881583     0.873940
      0.866296     0.858653     0.851010     0.843367     0.835724     0.828081     0.820438     0.812795     0.805152     0.797508
      0.789865     0.782222     0.774579     0.766936     0.759293     0.751650     0.744007     0.736364     0.728721     0.721077
      0.713434     0.705791     0.698148     0.690505     0.682862     0.675219     0.667576     0.659933     0.652290     0.644646
      0.637003     0.629360     0.621717     0.614074     0.606431     0.598788     0.591145     0.583502     0.575858     0.568215
      0.560572     0.552929     0.545286     0.537643     0.530000     0.522357     0.514714     0.507071     0.499427     0.491784
      0.484141     0.476498     0.468855     0.461212     0.453569     0.445925     0.438282     0.430639     0.422996     0.415353
      0.407710     0.400067     0.392424     0.384780     0.377137     0.369494     0.361851     0.354208     0.346565     0.338922
      0.331278     0.323635     0.315992     0.308349     0.300706     0.293063     0.285420     0.277777     0.270133     0.262490
      0.254847     0.247204     0.239561     0.231918     0.224275     0.216631     0.208988     0.201345
 NY phased data points follow
  -3.30123E+01 -3.07137E+01 -3.93358E+01 -2.75682E+01 -2.33422E+01 -1.25790E+01  1.53445E+00  1.51825E+01  1.96193E+01  3.52808E+01
   3.32159E+01  2.64733E+01  2.17511E+01  1.31364E+01  3.43606E+00 -1.11912E+01 -1.98182E+01 -2.39004E+01 -2.54152E+01 -2.84091E+01
  -2.56083E+01 -3.42288E+01 -3.00663E+01 -2.64813E+01 -2.82052E+01 -2.40929E+01 -2.22734E+01 -1.58505E+01 -1.69305E+01 -1.22748E+01
  -1.46341E+01 -1.93820E+01 -6.19811E+00 -1.50485E+01 -1.72339E+01 -2.10711E+01 -1.85360E+01 -1.96945E+01 -2.48901E+01 -2.28222E+01
  -2.62672E+01 -2.04116E+01 -2.02004E+01 -2.61480E+01 -2.01666E+01 -1.36232E+01 -1.36849E+01 -1.11046E+01 -1.52092E+01 -1.07092E+01
  -2.69453E+01 -2.13174E+01 -2.17710E+01 -2.34542E+01 -2.61020E+01 -2.13096E+01 -2.47055E+01 -2.08445E+01 -3.20723E+01 -2.83045E+01
  -3.29013E+01 -2.89233E+01 -3.05361E+01 -3.91959E+01 -3.65306E+01 -4.20874E+01 -3.53505E+01 -3.81404E+01 -3.91550E+01 -4.37332E+01
  -3.81317E+01 -3.81269E+01 -2.96078E+01 -3.40218E+01 -3.24228E+01 -3.57295E+01 -2.74861E+01 -3.49428E+01 -3.71028E+01 -3.28072E+01
  -3.26781E+01 -3.12193E+01 -2.98670E+01 -2.69827E+01 -2.76039E+01 -2.86725E+01 -2.60384E+01 -2.70995E+01 -2.23283E+01 -2.70512E+01
  -1.61563E+01 -1.84452E+01 -2.47131E+01 -1.98304E+01 -2.43630E+01 -1.32781E+01 -1.04874E+01 -6.60272E+00 -5.74973E+00  6.44630E+00
   2.21169E+01  3.13900E+01  4.02831E+01  5.16613E+01  3.96774E+01  3.63564E+01  3.15592E+01  1.40006E+01  1.26744E+01  7.11445E+00
  -4.67871E+00 -5.08605E+00 -1.66528E+01 -1.81967E+01 -2.28956E+01 -1.30727E+01 -1.93329E+01 -1.49979E+01 -8.53798E+00 -1.53545E+01
  -5.96989E+00 -9.65670E-01  1.13100E+01  2.29247E+01  3.43881E+01  6.05623E+01  7.36878E+01  6.84504E+01  6.60183E+01  5.66874E+01
   4.71939E+01  2.43739E+01  1.01676E+01  5.33770E+00 -1.88357E+00 -8.02041E+00 -1.47147E+01 -1.42157E+01 -1.71191E+01 -2.09235E+01
  -2.06824E+01 -2.61671E+01 -2.10047E+01 -2.71910E+01 -2.42392E+01 -2.82078E+01 -3.02469E+01 -2.64440E+01 -2.49365E+01 -3.06523E+01
  -3.01586E+01 -2.49056E+01 -2.87908E+01 -2.46320E+01 -2.85917E+01 -3.34263E+01 -2.91169E+01 -3.58103E+01 -3.35232E+01 -2.58280E+01
  -3.49552E+01 -3.05703E+01 -3.35359E+01 -2.88954E+01 -3.24704E+01 -3.08651E+01 -2.67451E+01 -2.11530E+01 -2.91602E+01 -2.53057E+01
  -3.03986E+01 -3.78040E+01 -3.41093E+01 -3.45140E+01 -3.48916E+01 -4.40858E+01 -3.82436E+01 -4.49909E+01 -3.67457E+01 -3.99575E+01
  -4.13126E+01 -4.46978E+01 -4.29566E+01 -4.86753E+01 -3.49743E+01 -3.97332E+01 -2.63481E+01 -2.89330E+01 -2.51999E+01 -2.32125E+01
  -1.83046E+01 -1.69721E+01 -1.52922E+01 -9.85482E+00 -1.70140E+01 -1.05739E+01 -1.81779E+01 -2.22441E+01 -1.90491E+01 -2.66683E+01
  -2.16869E+01 -1.90854E+01 -1.47335E+01 -2.12877E+01 -2.22689E+01 -1.82212E+01 -3.10379E+01 -2.52684E+01 -3.10677E+01 -2.95724E+01
  -3.52979E+01 -2.91818E+01 -2.00163E+01 -2.22208E+01 -2.46479E+01 -1.11015E+01 -1.03306E+01 -1.98545E+01 -1.57235E+01 -1.60681E+01
  -2.23010E+01 -2.47405E+01 -2.71696E+01 -2.45168E+01 -2.60552E+01 -1.60260E+01 -1.65309E+01 -1.33663E+01 -1.55400E+01 -1.59182E+01
  -1.06144E+01 -1.48419E+01 -3.85166E+00 -1.49488E+01 -7.64129E+00 -7.37607E+00 -8.13722E+00 -6.87321E+00 -3.94430E+00 -1.54817E+01
  -9.93358E+00 -1.25655E+01 -1.23298E+01 -1.20279E+01 -5.24367E+00 -3.23679E+00 -6.82424E+00 -1.11691E+00  4.86687E+00  1.00380E+01
   1.18928E+01  1.82432E+01  8.48123E+00  1.90730E+01  3.15545E+01  4.10217E+01  5.47684E+01  7.95280E+01  1.01615E+02  1.17396E+02
   1.34407E+02  1.34773E+02  1.17298E+02  1.02427E+02  7.21618E+01  5.92503E+01  4.80554E+01  2.72130E+01  2.29886E+01  9.41868E+00
   8.78141E-01  9.94612E-01  3.02115E+00 -3.81258E-01 -2.24051E+00 -7.89701E+00 -4.66588E+00 -1.42297E+00 -3.37112E+00 -9.76136E+00
  -1.11893E+00 -5.41089E+00 -7.36467E+00  7.81554E-01 -4.96229E+00 -6.65236E+00 -7.83142E+00 -8.35663E+00 -3.24241E+00 -9.54603E+00
  -1.39637E+01  2.40372E+00 -5.38643E+00 -6.68030E+00 -7.41242E+00 -3.98054E+00 -3.41035E+00 -6.16065E+00 -4.79997E+00 -1.10678E+01
  -8.51320E+00 -1.17949E+01 -1.06345E+01 -7.22333E+00 -1.84372E+00 -5.05105E+00 -2.44054E+00 -5.33072E+00 -6.95744E-01 -6.22646E-01
   6.04653E+00  3.91528E+00  6.31060E+00 -1.94936E+00 -7.14904E+00  7.74114E+00  3.65382E+00  7.15875E-02 -2.38038E+00  7.69118E+00
   8.04126E+00  5.80541E+00  5.06048E+00  3.01929E+00  6.55506E+00  5.98921E+00  8.63458E+00  8.46124E+00  7.23638E+00  7.56813E+00
   8.49370E+00  9.83029E+00  8.41153E+00  9.82404E+00  8.39056E+00  6.33421E+00  1.14611E+01  1.15149E+01  1.11150E+01  1.42750E+01
   9.18254E+00  5.50901E+00  9.22841E+00  2.55910E+00  1.27894E+01  1.18078E+01  7.30303E+00  8.82054E+00  1.38679E+01 -1.80647E+00
   5.53269E+00 -1.29011E+01  9.04912E+00  8.69799E-01 -6.32245E-01  4.31054E+00  1.24775E+01  9.03670E+00  9.49351E+00  1.12341E+01
   4.49221E+00  9.77212E+00  7.43060E+00  4.32643E+00  5.51613E+00  8.93380E+00  9.07735E+00  2.40190E+00  9.42104E+00  4.08457E+00
   1.68582E+00  6.34502E+00  5.63223E-01  3.75069E+00  3.72894E+00  3.07055E+00 -1.32025E-02  1.11078E-01 -4.97639E-02  4.36527E+00
  -4.97623E-01 -2.74452E+00 -2.93433E+00 -2.82732E+00  2.28596E+00 -2.63016E+00 -6.43128E-01  2.58238E+00  5.64052E+00 -1.54384E+00
  -4.43685E+00 -5.69323E-04  9.14252E-01  4.37214E+00  5.30530E+00  4.85133E+00  1.07968E+00  7.76012E+00  2.81668E+00  1.14462E+00
  -3.57413E+00 -1.75473E+00  5.39428E+00  2.24476E+00  7.10584E+00  5.58899E+00 -4.41269E-01  7.25028E+00  3.34567E+00  6.53236E+00
  -4.04651E-01  6.88395E+00  4.90308E+00  7.09517E+00  4.05783E+00  9.99740E+00  7.78558E-01  1.68261E+00  3.93092E+00 -1.30370E+00
   4.09807E-01  3.54212E-01  2.35095E+00  3.86395E+00 -1.37988E+00 -3.67544E+00  3.02900E+00 -6.56253E+00 -5.09787E+00 -6.50133E+00
  -4.25253E+00  3.12167E-02 -8.69090E+00 -5.89767E+00 -7.36172E+00 -1.16599E+00 -6.15400E+00 -3.89229E+00 -4.66257E+00 -7.96401E+00
  -6.35917E+00 -5.57802E+00 -4.55922E-01 -7.57914E+00 -1.47773E+01 -5.94651E+00 -7.89699E+00 -1.28369E+00 -6.79113E+00 -1.27521E+01
  -5.60540E+00 -7.54653E+00 -4.30092E+00 -9.18710E+00 -5.15574E-01  9.17035E-01 -8.80018E+00 -2.19006E+00 -8.14556E+00 -7.52997E-01
  -1.94281E+00 -6.60601E+00 -6.81042E+00 -4.01943E+00 -1.00711E+00 -2.35151E+00  3.55978E-01 -3.62470E+00 -8.42258E+00 -4.74221E+00
  -2.55771E+00 -4.33775E+00 -5.81195E+00 -1.93431E+00  3.42361E+00 -4.16343E+00 -3.00188E+00 -3.52649E+00 -3.85431E+00 -5.95762E+00
   4.64945E-01  3.95981E+00 -4.11524E+00 -1.55779E+00 -3.23798E+00 -3.74880E+00 -1.50926E+00 -2.73077E+00 -6.34909E-01 -2.22737E+00
  -5.46422E+00  1.06244E+00 -2.97896E+00 -5.08936E+00  1.84028E+00 -3.89088E+00 -4.88446E+00 -4.25308E-01
 NY points of the fit to the data follow
  -3.43270E+01 -3.28382E+01 -2.92390E+01 -2.37166E+01 -1.66625E+01 -7.99894E+00  2.08944E+00  1.25889E+01  2.17866E+01  2.78146E+01
   2.93923E+01  2.64336E+01  2.00002E+01  1.17915E+01  3.40852E+00 -4.23029E+00 -1.09867E+01 -1.70464E+01 -2.22823E+01 -2.59226E+01
  -2.80076E+01 -2.90250E+01 -2.91723E+01 -2.87398E+01 -2.79287E+01 -2.65551E+01 -2.43328E+01 -2.12323E+01 -1.76969E+01 -1.43612E+01
  -1.19346E+01 -1.09504E+01 -1.15030E+01 -1.34160E+01 -1.62672E+01 -1.94146E+01 -2.23976E+01 -2.49913E+01 -2.70538E+01 -2.81368E+01
  -2.78872E+01 -2.68479E+01 -2.54038E+01 -2.36411E+01 -2.17098E+01 -1.99183E+01 -1.87253E+01 -1.83979E+01 -1.90232E+01 -2.04967E+01
  -2.24404E+01 -2.44280E+01 -2.61321E+01 -2.73803E+01 -2.82462E+01 -2.88699E+01 -2.91820E+01 -2.90895E+01 -2.87920E+01 -2.86056E+01
  -2.86947E+01 -2.90786E+01 -2.97083E+01 -3.04248E+01 -3.10270E+01 -3.13906E+01 -3.14876E+01 -3.13853E+01 -3.11542E+01 -3.08250E+01
  -3.04718E+01 -3.01756E+01 -3.00039E+01 -2.99945E+01 -3.01245E+01 -3.03466E+01 -3.05973E+01 -3.08098E+01 -3.09424E+01 -3.07899E+01
  -3.02628E+01 -2.95222E+01 -2.85646E+01 -2.73425E+01 -2.58917E+01 -2.44092E+01 -2.32018E+01 -2.25834E+01 -2.26874E+01 -2.34258E+01
  -2.45469E+01 -2.57401E+01 -2.67372E+01 -2.73615E+01 -2.71674E+01 -2.47549E+01 -1.98224E+01 -1.29095E+01 -3.88937E+00  7.36548E+00
   2.03324E+01  3.32512E+01  4.35206E+01  4.87018E+01  4.76630E+01  4.10801E+01  3.09182E+01  1.94890E+01  8.64179E+00 -8.31855E-01
  -9.04811E+00 -1.63081E+01 -2.21656E+01 -2.53670E+01 -2.64449E+01 -2.67949E+01 -2.68037E+01 -2.63121E+01 -2.40965E+01 -1.86360E+01
  -1.06638E+01 -7.24022E-01  1.16270E+01  2.64801E+01  4.25160E+01  5.70881E+01  6.70572E+01  7.00490E+01  6.57500E+01  5.58572E+01
   4.29773E+01  2.96550E+01  1.74026E+01  6.41481E+00 -3.66783E+00 -1.27131E+01 -1.91861E+01 -2.19811E+01 -2.26986E+01 -2.25727E+01
  -2.21156E+01 -2.16568E+01 -2.13754E+01 -2.12709E+01 -2.13161E+01 -2.15762E+01 -2.20455E+01 -2.26849E+01 -2.34464E+01 -2.42255E+01
  -2.49330E+01 -2.55168E+01 -2.59765E+01 -2.64325E+01 -2.69017E+01 -2.73434E+01 -2.77662E+01 -2.81903E+01 -2.86840E+01 -2.92292E+01
  -2.96852E+01 -2.99015E+01 -2.98351E+01 -2.95819E+01 -2.93300E+01 -2.92619E+01 -2.94509E+01 -2.98674E+01 -3.04515E+01 -3.11021E+01
  -3.16897E+01 -3.22940E+01 -3.29849E+01 -3.37662E+01 -3.45045E+01 -3.49512E+01 -3.50637E+01 -3.49620E+01 -3.48017E+01 -3.47376E+01
  -3.47425E+01 -3.46361E+01 -3.42992E+01 -3.36693E+01 -3.27220E+01 -3.14931E+01 -3.00314E+01 -2.82883E+01 -2.62458E+01 -2.41689E+01
  -2.25282E+01 -2.16330E+01 -2.14811E+01 -2.18281E+01 -2.23816E+01 -2.28780E+01 -2.30508E+01 -2.27916E+01 -2.20179E+01 -2.07155E+01
  -1.90870E+01 -1.74161E+01 -1.61591E+01 -1.56026E+01 -1.59221E+01 -1.72396E+01 -1.93705E+01 -2.18178E+01 -2.39565E+01 -2.52035E+01
  -2.53654E+01 -2.43429E+01 -2.22334E+01 -1.94060E+01 -1.65442E+01 -1.45203E+01 -1.38442E+01 -1.46145E+01 -1.67332E+01 -1.97518E+01
  -2.29518E+01 -2.53406E+01 -2.63045E+01 -2.58583E+01 -2.42607E+01 -2.18328E+01 -1.89703E+01 -1.62912E+01 -1.43444E+01 -1.29952E+01
  -1.19197E+01 -1.09572E+01 -1.00979E+01 -9.31335E+00 -8.45584E+00 -7.55737E+00 -6.85475E+00 -6.50174E+00 -6.54435E+00 -6.97119E+00
  -7.59567E+00 -8.15581E+00 -8.33913E+00 -7.87280E+00 -6.77581E+00 -5.28808E+00 -3.68127E+00 -2.03088E+00 -2.93525E-01  1.43353E+00
   3.20005E+00  5.53421E+00  1.06282E+01  2.01641E+01  3.23039E+01  4.64005E+01  6.30612E+01  8.21963E+01  1.01867E+02  1.18539E+02
   1.28210E+02  1.28235E+02  1.18745E+02  1.02375E+02  8.28211E+01  6.36114E+01  4.67988E+01  3.23550E+01  1.94272E+01  8.09185E+00
   5.38021E-01 -2.52013E+00 -3.94002E+00 -4.82118E+00 -5.42378E+00 -5.90022E+00 -6.38268E+00 -6.88315E+00 -7.39023E+00 -7.88476E+00
  -8.34064E+00 -8.73265E+00 -9.05519E+00 -9.29707E+00 -9.43752E+00 -9.47818E+00 -9.43886E+00 -9.33528E+00 -9.17348E+00 -8.95431E+00
  -8.68316E+00 -8.37427E+00 -8.03115E+00 -7.65671E+00 -7.25948E+00 -6.84713E+00 -6.42263E+00 -5.99054E+00 -5.55640E+00 -5.12527E+00
  -4.70220E+00 -4.29287E+00 -3.90029E+00 -3.52806E+00 -3.18015E+00 -2.85731E+00 -2.55708E+00 -2.27449E+00 -2.00338E+00 -1.73716E+00
  -1.46671E+00 -1.18267E+00 -8.76258E-01 -5.38549E-01 -1.61470E-01  2.61214E-01  7.34311E-01  1.26201E+00  1.85096E+00  2.51162E+00
   3.22094E+00  3.94479E+00  4.67121E+00  5.38305E+00  6.04361E+00  6.60331E+00  7.01850E+00  7.29398E+00  7.47439E+00  7.59640E+00
   7.70291E+00  7.83973E+00  8.03698E+00  8.29336E+00  8.58079E+00  8.86148E+00  9.11234E+00  9.33999E+00  9.57173E+00  9.92606E+00
   1.03929E+01  1.07810E+01  1.10818E+01  1.12871E+01  1.12475E+01  1.07136E+01  9.45452E+00  7.56795E+00  5.36917E+00  3.16643E+00
   1.36575E+00  3.77207E-01  4.41486E-01  1.49541E+00  3.20483E+00  5.11973E+00  6.87897E+00  8.32135E+00  9.24362E+00  9.49988E+00
   9.29775E+00  8.84003E+00  8.20686E+00  7.37914E+00  6.37176E+00  5.42700E+00  4.67139E+00  4.00731E+00  3.38727E+00  2.79553E+00
   2.22774E+00  1.68459E+00  1.16917E+00  6.85748E-01  2.39054E-01 -1.66137E-01 -5.25288E-01 -8.34272E-01 -1.08948E+00 -1.28778E+00
  -1.42659E+00 -1.50382E+00 -1.51800E+00 -1.46823E+00 -1.35424E+00 -1.17636E+00 -9.35585E-01 -6.33751E-01 -2.73631E-01  1.40969E-01
   6.05136E-01  1.11283E+00  1.65676E+00  2.22837E+00  2.81785E+00  3.41434E+00  4.00611E+00  4.58089E+00  5.12611E+00  5.62930E+00
   6.07845E+00  6.46260E+00  6.77218E+00  6.99949E+00  7.13884E+00  7.18687E+00  7.14262E+00  7.00767E+00  6.78598E+00  6.48368E+00
   6.10869E+00  5.67038E+00  5.17918E+00  4.64618E+00  4.08269E+00  3.49975E+00  2.90778E+00  2.31632E+00  1.73384E+00  1.16761E+00
   6.23633E-01  1.06562E-01 -3.80261E-01 -8.34625E-01 -1.25531E+00 -1.64195E+00 -1.99493E+00 -2.31523E+00 -2.60433E+00 -2.86396E+00
  -3.09602E+00 -3.30245E+00 -3.48531E+00 -3.64661E+00 -3.78833E+00 -3.91228E+00 -4.02012E+00 -4.11337E+00 -4.19348E+00 -4.26177E+00
  -4.31943E+00 -4.36749E+00 -4.40684E+00 -4.43829E+00 -4.46262E+00 -4.48054E+00 -4.49264E+00 -4.49942E+00 -4.50131E+00 -4.49872E+00
  -4.49210E+00 -4.48178E+00 -4.46807E+00 -4.45118E+00 -4.43133E+00 -4.40878E+00 -4.38377E+00 -4.35648E+00 -4.32705E+00 -4.29559E+00
  -4.26225E+00 -4.22717E+00 -4.19052E+00 -4.15238E+00 -4.11280E+00 -4.07185E+00 -4.02965E+00 -3.98628E+00 -3.94186E+00 -3.89641E+00
  -3.84994E+00 -3.80252E+00 -3.75421E+00 -3.70511E+00 -3.65526E+00 -3.60464E+00 -3.55328E+00 -3.50123E+00 -3.44857E+00 -3.39533E+00
  -3.34155E+00 -3.28719E+00 -3.23227E+00 -3.17686E+00 -3.12101E+00 -3.06474E+00 -3.00804E+00 -2.95090E+00 -2.89333E+00 -2.83541E+00
  -2.77717E+00 -2.71861E+00 -2.65969E+00 -2.60043E+00 -2.54085E+00 -2.48100E+00 -2.42091E+00 -2.36055E+00
 NY background values follow
    -4.015E+01   -4.008E+01   -4.001E+01   -3.993E+01   -3.986E+01   -3.978E+01   -3.971E+01   -3.964E+01   -3.956E+01   -3.949E+01
    -3.941E+01   -3.934E+01   -3.927E+01   -3.919E+01   -3.912E+01   -3.904E+01   -3.897E+01   -3.890E+01   -3.882E+01   -3.875E+01
    -3.867E+01   -3.860E+01   -3.853E+01   -3.845E+01   -3.838E+01   -3.830E+01   -3.823E+01   -3.816E+01   -3.808E+01   -3.801E+01
    -3.794E+01   -3.786E+01   -3.779E+01   -3.771E+01   -3.764E+01   -3.757E+01   -3.749E+01   -3.742E+01   -3.734E+01   -3.727E+01
    -3.720E+01   -3.712E+01   -3.705E+01   -3.697E+01   -3.690E+01   -3.683E+01   -3.675E+01   -3.668E+01   -3.660E+01   -3.653E+01
    -3.646E+01   -3.638E+01   -3.631E+01   -3.624E+01   -3.616E+01   -3.609E+01   -3.601E+01   -3.594E+01   -3.587E+01   -3.579E+01
    -3.572E+01   -3.564E+01   -3.557E+01   -3.550E+01   -3.542E+01   -3.535E+01   -3.527E+01   -3.520E+01   -3.513E+01   -3.505E+01
    -3.498E+01   -3.490E+01   -3.483E+01   -3.476E+01   -3.468E+01   -3.461E+01   -3.453E+01   -3.446E+01   -3.439E+01   -3.431E+01
    -3.424E+01   -3.417E+01   -3.409E+01   -3.402E+01   -3.394E+01   -3.387E+01   -3.380E+01   -3.372E+01   -3.365E+01   -3.357E+01
    -3.350E+01   -3.343E+01   -3.335E+01   -3.328E+01   -3.320E+01   -3.313E+01   -3.306E+01   -3.298E+01   -3.291E+01   -3.283E+01
    -3.276E+01   -3.269E+01   -3.261E+01   -3.254E+01   -3.247E+01   -3.239E+01   -3.232E+01   -3.224E+01   -3.217E+01   -3.210E+01
    -3.202E+01   -3.195E+01   -3.187E+01   -3.180E+01   -3.173E+01   -3.165E+01   -3.158E+01   -3.150E+01   -3.143E+01   -3.136E+01
    -3.128E+01   -3.121E+01   -3.113E+01   -3.106E+01   -3.099E+01   -3.091E+01   -3.084E+01   -3.077E+01   -3.069E+01   -3.062E+01
    -3.054E+01   -3.047E+01   -3.040E+01   -3.032E+01   -3.025E+01   -3.017E+01   -3.010E+01   -3.003E+01   -2.995E+01   -2.988E+01
    -2.980E+01   -2.973E+01   -2.966E+01   -2.958E+01   -2.951E+01   -2.943E+01   -2.936E+01   -2.929E+01   -2.921E+01   -2.914E+01
    -2.907E+01   -2.899E+01   -2.892E+01   -2.884E+01   -2.877E+01   -2.870E+01   -2.862E+01   -2.855E+01   -2.847E+01   -2.840E+01
    -2.833E+01   -2.825E+01   -2.818E+01   -2.810E+01   -2.803E+01   -2.796E+01   -2.788E+01   -2.781E+01   -2.773E+01   -2.766E+01
    -2.759E+01   -2.751E+01   -2.744E+01   -2.737E+01   -2.729E+01   -2.722E+01   -2.714E+01   -2.707E+01   -2.700E+01   -2.692E+01
    -2.685E+01   -2.677E+01   -2.670E+01   -2.663E+01   -2.655E+01   -2.648E+01   -2.640E+01   -2.633E+01   -2.626E+01   -2.618E+01
    -2.611E+01   -2.603E+01   -2.596E+01   -2.589E+01   -2.581E+01   -2.574E+01   -2.567E+01   -2.559E+01   -2.552E+01   -2.544E+01
    -2.537E+01   -2.530E+01   -2.522E+01   -2.515E+01   -2.507E+01   -2.500E+01   -2.493E+01   -2.485E+01   -2.478E+01   -2.470E+01
    -2.463E+01   -2.456E+01   -2.448E+01   -2.441E+01   -2.433E+01   -2.426E+01   -2.419E+01   -2.411E+01   -2.404E+01   -2.397E+01
    -2.389E+01   -2.382E+01   -2.374E+01   -2.367E+01   -2.360E+01   -2.352E+01   -2.345E+01   -2.337E+01   -2.330E+01   -2.323E+01
    -2.315E+01   -2.308E+01   -2.300E+01   -2.293E+01   -2.286E+01   -2.278E+01   -2.271E+01   -2.263E+01   -2.256E+01   -2.249E+01
    -2.241E+01   -2.234E+01   -2.226E+01   -2.219E+01   -2.212E+01   -2.204E+01   -2.197E+01   -2.190E+01   -2.182E+01   -2.175E+01
    -2.167E+01   -2.160E+01   -2.153E+01   -2.145E+01   -2.138E+01   -2.130E+01   -2.123E+01   -2.116E+01   -2.108E+01   -2.101E+01
    -2.093E+01   -2.086E+01   -2.079E+01   -2.071E+01   -2.064E+01   -2.056E+01   -2.049E+01   -2.042E+01   -2.034E+01   -2.027E+01
    -2.020E+01   -2.012E+01   -2.005E+01   -1.997E+01   -1.990E+01   -1.983E+01   -1.975E+01   -1.968E+01   -1.960E+01   -1.953E+01
    -1.946E+01   -1.938E+01   -1.931E+01   -1.923E+01   -1.916E+01   -1.909E+01   -1.901E+01   -1.894E+01   -1.886E+01   -1.879E+01
    -1.872E+01   -1.864E+01   -1.857E+01   -1.850E+01   -1.842E+01   -1.835E+01   -1.827E+01   -1.820E+01   -1.813E+01   -1.805E+01
    -1.798E+01   -1.790E+01   -1.783E+01   -1.776E+01   -1.768E+01   -1.761E+01   -1.753E+01   -1.746E+01   -1.739E+01   -1.731E+01
    -1.724E+01   -1.716E+01   -1.709E+01   -1.702E+01   -1.694E+01   -1.687E+01   -1.680E+01   -1.672E+01   -1.665E+01   -1.657E+01
    -1.650E+01   -1.643E+01   -1.635E+01   -1.628E+01   -1.620E+01   -1.613E+01   -1.606E+01   -1.598E+01   -1.591E+01   -1.583E+01
    -1.576E+01   -1.569E+01   -1.561E+01   -1.554E+01   -1.547E+01   -1.539E+01   -1.532E+01   -1.524E+01   -1.517E+01   -1.510E+01
    -1.502E+01   -1.495E+01   -1.487E+01   -1.480E+01   -1.473E+01   -1.465E+01   -1.458E+01   -1.450E+01   -1.443E+01   -1.436E+01
    -1.428E+01   -1.421E+01   -1.414E+01   -1.406E+01   -1.399E+01   -1.391E+01   -1.384E+01   -1.377E+01   -1.369E+01   -1.362E+01
    -1.354E+01   -1.347E+01   -1.340E+01   -1.332E+01   -1.325E+01   -1.317E+01   -1.310E+01   -1.303E+01   -1.295E+01   -1.288E+01
    -1.280E+01   -1.273E+01   -1.266E+01   -1.258E+01   -1.251E+01   -1.244E+01   -1.236E+01   -1.229E+01   -1.221E+01   -1.214E+01
    -1.207E+01   -1.199E+01   -1.192E+01   -1.184E+01   -1.177E+01   -1.170E+01   -1.162E+01   -1.155E+01   -1.147E+01   -1.140E+01
    -1.133E+01   -1.125E+01   -1.118E+01   -1.111E+01   -1.103E+01   -1.096E+01   -1.088E+01   -1.081E+01   -1.074E+01   -1.066E+01
    -1.059E+01   -1.051E+01   -1.044E+01   -1.037E+01   -1.029E+01   -1.022E+01   -1.014E+01   -1.007E+01   -9.997E+00   -9.923E+00
    -9.849E+00   -9.776E+00   -9.702E+00   -9.628E+00   -9.554E+00   -9.480E+00   -9.406E+00   -9.332E+00   -9.258E+00   -9.184E+00
    -9.111E+00   -9.037E+00   -8.963E+00   -8.889E+00   -8.815E+00   -8.741E+00   -8.667E+00   -8.593E+00   -8.519E+00   -8.446E+00
    -8.372E+00   -8.298E+00   -8.224E+00   -8.150E+00   -8.076E+00   -8.002E+00   -7.928E+00   -7.854E+00   -7.781E+00   -7.707E+00
    -7.633E+00   -7.559E+00   -7.485E+00   -7.411E+00   -7.337E+00   -7.263E+00   -7.189E+00   -7.116E+00   -7.042E+00   -6.968E+00
    -6.894E+00   -6.820E+00   -6.746E+00   -6.672E+00   -6.598E+00   -6.524E+00   -6.451E+00   -6.377E+00   -6.303E+00   -6.229E+00
    -6.155E+00   -6.081E+00   -6.007E+00   -5.933E+00   -5.859E+00   -5.786E+00   -5.712E+00   -5.638E+00   -5.564E+00   -5.490E+00
    -5.416E+00   -5.342E+00   -5.268E+00   -5.194E+00   -5.121E+00   -5.047E+00   -4.973E+00   -4.899E+00   -4.825E+00   -4.751E+00
    -4.677E+00   -4.603E+00   -4.529E+00   -4.456E+00   -4.382E+00   -4.308E+00   -4.234E+00   -4.160E+00   -4.086E+00   -4.012E+00
    -3.938E+00   -3.864E+00   -3.791E+00   -3.717E+00   -3.643E+00   -3.569E+00   -3.495E+00   -3.421E+00
 Ala      Conc. = 9.32E+01
