 LCModel (Version 6.3-1L) Copyright: S.W. Provencher.          Ref.: Magn. Reson. Med. 30:672-679 (1993).                
 Slice#2 Row#8 Col#7  PD_05_press_2_raw_act
 36 lines in following concentration table = NCONC+1
    Conc.  %SD /Cr+PCr  Metabolite                                         
    0.000 999%   0.000 Ala                                                 
  179.723 267% 4.9E-02 Asp                                                 
 1.80E+03  22%   0.494 Cr                                                  
 1.85E+03  22%   0.506 PCr                                                 
    0.000 999%   0.000 GABA                                                
    0.000 999%   0.000 Glc                                                 
 2.51E+03  18%   0.689 Gln                                                 
 3.90E+03  13%   1.069 Glu                                                 
  823.961   5%   0.226 GPC                                                 
    0.000 999%   0.000 PCh                                                 
 1.17E+03  13%   0.321 GSH                                                 
 2.86E+03  17%   0.784 Ins                                                 
  273.903  85% 7.5E-02 Lac                                                 
 5.46E+03   4%   1.496 NAA                                                 
  184.022 127% 5.0E-02 NAAG                                                
  136.249  39% 3.7E-02 Scyllo                                              
    0.000 999%   0.000 Tau                                                 
    0.000 999%   0.000 -CrCH2                                              
  823.961   5%   0.226 GPC+PCh                                             
 5.64E+03   3%   1.547 NAA+NAAG                                            
 3.65E+03   3%   1.000 Cr+PCr                                              
 6.42E+03  11%   1.759 Glu+Gln                                             
 3.95E+03  27%   1.084 Lip13a                                              
    0.000 999%   0.000 Lip13b                                              
    0.000 999%   0.000 Lip09                                               
 4.21E+03  12%   1.155 MM09                                                
  350.330 121% 9.6E-02 Lip20                                               
 8.61E+03  10%   2.361 MM20                                                
 1.76E+03  23%   0.483 MM12                                                
 8.08E+03  14%   2.216 MM14                                                
 4.08E+03  20%   1.118 MM17                                                
 3.95E+03  27%   1.084 Lip13a+Lip13b                                       
 1.38E+04   8%   3.783 MM14+Lip13a+Lip13b+MM12                             
 4.21E+03  12%   1.155 MM09+Lip09                                          
 8.96E+03  10%   2.458 MM20+Lip20                                          
   6 lines in following misc. output table
  FWHM = 0.046 ppm    S/N =  15                                            
  Data shift = 0.008 ppm                                                   
  Ph:  -8 deg      -1.0 deg/ppm                                            
  alphaB,S = 2.3E+00,   1.4E+02                                            
   14 spline knots.   Ns = 6(1)                                            
  ( 7) 2 infls.   ( 3) 1 extrs.                                            
  498 points on ppm-axis = NY
      4.000000     3.992357     3.984714     3.977070     3.969427     3.961784     3.954141     3.946497     3.938854     3.931211
      3.923568     3.915925     3.908281     3.900638     3.892995     3.885352     3.877708     3.870065     3.862422     3.854779
      3.847136     3.839492     3.831849     3.824206     3.816563     3.808919     3.801276     3.793633     3.785990     3.778347
      3.770703     3.763060     3.755417     3.747774     3.740130     3.732487     3.724844     3.717201     3.709558     3.701914
      3.694271     3.686628     3.678985     3.671341     3.663698     3.656055     3.648412     3.640769     3.633125     3.625482
      3.617839     3.610196     3.602552     3.594909     3.587266     3.579623     3.571980     3.564336     3.556693     3.549050
      3.541407     3.533763     3.526120     3.518477     3.510834     3.503191     3.495547     3.487904     3.480261     3.472618
      3.464974     3.457331     3.449688     3.442045     3.434402     3.426758     3.419115     3.411472     3.403829     3.396185
      3.388542     3.380899     3.373256     3.365613     3.357969     3.350326     3.342683     3.335040     3.327396     3.319753
      3.312110     3.304467     3.296824     3.289180     3.281537     3.273894     3.266251     3.258607     3.250964     3.243321
      3.235678     3.228034     3.220391     3.212748     3.205105     3.197462     3.189818     3.182175     3.174532     3.166889
      3.159245     3.151602     3.143959     3.136316     3.128673     3.121029     3.113386     3.105743     3.098100     3.090456
      3.082813     3.075170     3.067527     3.059884     3.052240     3.044597     3.036954     3.029311     3.021667     3.014024
      3.006381     2.998738     2.991095     2.983451     2.975808     2.968165     2.960522     2.952878     2.945235     2.937592
      2.929949     2.922306     2.914662     2.907019     2.899376     2.891733     2.884089     2.876446     2.868803     2.861160
      2.853517     2.845873     2.838230     2.830587     2.822944     2.815300     2.807657     2.800014     2.792371     2.784728
      2.777084     2.769441     2.761798     2.754155     2.746511     2.738868     2.731225     2.723582     2.715939     2.708295
      2.700652     2.693009     2.685366     2.677722     2.670079     2.662436     2.654793     2.647150     2.639506     2.631863
      2.624220     2.616577     2.608933     2.601290     2.593647     2.586004     2.578361     2.570717     2.563074     2.555431
      2.547788     2.540144     2.532501     2.524858     2.517215     2.509572     2.501928     2.494285     2.486642     2.478999
      2.471355     2.463712     2.456069     2.448426     2.440783     2.433139     2.425496     2.417853     2.410210     2.402566
      2.394923     2.387280     2.379637     2.371994     2.364350     2.356707     2.349064     2.341421     2.333777     2.326134
      2.318491     2.310848     2.303205     2.295561     2.287918     2.280275     2.272632     2.264988     2.257345     2.249702
      2.242059     2.234416     2.226772     2.219129     2.211486     2.203843     2.196199     2.188556     2.180913     2.173270
      2.165627     2.157983     2.150340     2.142697     2.135054     2.127410     2.119767     2.112124     2.104481     2.096838
      2.089194     2.081551     2.073908     2.066265     2.058621     2.050978     2.043335     2.035692     2.028049     2.020405
      2.012762     2.005119     1.997476     1.989833     1.982190     1.974546     1.966903     1.959260     1.951617     1.943974
      1.936331     1.928688     1.921045     1.913402     1.905759     1.898115     1.890472     1.882829     1.875186     1.867543
      1.859900     1.852257     1.844614     1.836971     1.829327     1.821684     1.814041     1.806398     1.798755     1.791112
      1.783469     1.775826     1.768183     1.760540     1.752896     1.745253     1.737610     1.729967     1.722324     1.714681
      1.707038     1.699395     1.691752     1.684108     1.676465     1.668822     1.661179     1.653536     1.645893     1.638250
      1.630607     1.622964     1.615321     1.607677     1.600034     1.592391     1.584748     1.577105     1.569462     1.561819
      1.554176     1.546533     1.538890     1.531246     1.523603     1.515960     1.508317     1.500674     1.493031     1.485388
      1.477745     1.470102     1.462458     1.454815     1.447172     1.439529     1.431886     1.424243     1.416600     1.408957
      1.401314     1.393671     1.386027     1.378384     1.370741     1.363098     1.355455     1.347812     1.340169     1.332526
      1.324883     1.317240     1.309596     1.301953     1.294310     1.286667     1.279024     1.271381     1.263738     1.256095
      1.248452     1.240808     1.233165     1.225522     1.217879     1.210236     1.202593     1.194950     1.187307     1.179664
      1.172021     1.164377     1.156734     1.149091     1.141448     1.133805     1.126162     1.118519     1.110876     1.103233
      1.095590     1.087946     1.080303     1.072660     1.065017     1.057374     1.049731     1.042088     1.034445     1.026802
      1.019158     1.011515     1.003872     0.996229     0.988586     0.980943     0.973300     0.965657     0.958014     0.950371
      0.942727     0.935084     0.927441     0.919798     0.912155     0.904512     0.896869     0.889226     0.881583     0.873940
      0.866296     0.858653     0.851010     0.843367     0.835724     0.828081     0.820438     0.812795     0.805152     0.797508
      0.789865     0.782222     0.774579     0.766936     0.759293     0.751650     0.744007     0.736364     0.728721     0.721077
      0.713434     0.705791     0.698148     0.690505     0.682862     0.675219     0.667576     0.659933     0.652290     0.644646
      0.637003     0.629360     0.621717     0.614074     0.606431     0.598788     0.591145     0.583502     0.575858     0.568215
      0.560572     0.552929     0.545286     0.537643     0.530000     0.522357     0.514714     0.507071     0.499427     0.491784
      0.484141     0.476498     0.468855     0.461212     0.453569     0.445925     0.438282     0.430639     0.422996     0.415353
      0.407710     0.400067     0.392424     0.384780     0.377137     0.369494     0.361851     0.354208     0.346565     0.338922
      0.331278     0.323635     0.315992     0.308349     0.300706     0.293063     0.285420     0.277777     0.270133     0.262490
      0.254847     0.247204     0.239561     0.231918     0.224275     0.216631     0.208988     0.201345
 NY phased data points follow
   6.60088E+01  4.28998E+01  4.65338E+01  5.44179E+01  7.40736E+01  8.29525E+01  8.24247E+01  1.12389E+02  1.18863E+02  1.28447E+02
   1.38945E+02  1.25656E+02  1.27828E+02  1.20651E+02  8.97284E+01  7.96919E+01  6.93925E+01  6.49537E+01  7.09847E+01  6.74277E+01
   7.25776E+01  6.80635E+01  7.01640E+01  5.76729E+01  6.47465E+01  5.37616E+01  6.03399E+01  6.70080E+01  6.65987E+01  8.05640E+01
   9.00009E+01  8.02263E+01  7.49174E+01  6.93118E+01  5.70758E+01  6.74075E+01  5.14614E+01  5.22039E+01  6.12355E+01  5.71895E+01
   5.75336E+01  5.73702E+01  4.91686E+01  5.40854E+01  6.55136E+01  7.05414E+01  7.28777E+01  7.79868E+01  7.27828E+01  6.25888E+01
   5.77094E+01  5.51370E+01  6.03714E+01  4.20643E+01  5.52972E+01  6.05613E+01  6.51108E+01  5.19103E+01  5.28101E+01  5.30546E+01
   3.98694E+01  4.63551E+01  3.70690E+01  3.95430E+01  3.98511E+01  3.36251E+01  3.44282E+01  2.05652E+01  2.41656E+01  2.56124E+01
   2.91865E+01  2.39408E+01  3.21635E+01  2.63529E+01  3.91186E+01  3.20961E+01  2.85621E+01  3.81951E+01  3.45318E+01  3.00298E+01
   3.61397E+01  2.17246E+01  3.12019E+01  2.99482E+01  3.64529E+01  2.82979E+01  4.45847E+01  3.84673E+01  2.96611E+01  3.12469E+01
   3.23345E+01  3.29755E+01  4.17053E+01  3.48559E+01  3.27773E+01  3.02312E+01  3.08255E+01  3.59930E+01  4.66549E+01  4.76450E+01
   7.48404E+01  9.43296E+01  1.07482E+02  1.10073E+02  1.03652E+02  7.68438E+01  7.52096E+01  6.37443E+01  5.18316E+01  4.74508E+01
   4.41586E+01  3.92100E+01  3.66956E+01  3.54491E+01  2.78821E+01  3.47295E+01  4.98579E+01  2.31860E+01  2.78802E+01  1.88651E+01
   2.68210E+01  4.23243E+01  5.00254E+01  6.84390E+01  9.76929E+01  1.32272E+02  1.56711E+02  1.61028E+02  1.52527E+02  1.29021E+02
   9.77811E+01  9.49806E+01  6.36462E+01  5.39687E+01  4.34442E+01  3.43222E+01  3.52865E+01  3.43186E+01  1.71180E+01  2.73996E+01
   2.24664E+01  1.61691E+01  2.78697E+01  2.18747E+01  2.72753E+01  2.36440E+01  3.53878E+01  2.23772E+01  2.71320E+01  1.44177E+01
   2.15102E+01  2.32357E+01  1.37740E+01  1.76556E+01  1.47059E+01  1.64316E+01  2.13350E+01  1.20364E+01  1.29691E+01  1.99723E+01
   1.68325E+01  1.30511E+01  5.76814E+00  5.63946E+00  1.32993E+01  2.08286E+01  2.37315E+01  7.67877E+00  9.79924E+00  1.06261E+01
  -2.24845E-01 -6.31337E+00 -9.25442E-01 -1.45340E+01 -5.70753E+00 -6.58258E+00  2.51799E+00  5.03057E-01 -1.52803E+01 -9.41202E+00
  -1.72705E+01 -1.04351E+01 -6.98398E+00 -3.38906E+00 -8.42523E-01  3.16505E+00  3.41359E+00  1.23102E+01  1.71616E+01  1.97936E+01
   2.60303E+01  2.07388E+01  2.16652E+01  1.70968E+01  1.62585E+01  1.29525E+01  1.24441E+01  1.69528E+01  1.06581E+01  1.54623E-01
   2.61232E+01  2.25956E+01  1.57350E+01  2.60549E+01  2.75733E+01  1.50517E+01  1.10969E+01 -7.39305E-02  8.28442E+00 -1.10720E+01
   3.92847E+00  8.49966E+00  9.47418E+00  3.82074E+01  3.98982E+01  4.45490E+01  4.12941E+01  5.00136E+01  2.31406E+01  2.26677E+01
   1.82856E+01 -9.39131E-01  1.24628E+01  5.80645E+00  1.95399E+01  2.20104E+01  3.01722E+01  3.25895E+01  3.15663E+01  4.65014E+01
   2.36422E+01  2.61875E+01  2.75849E+01  3.30848E+01  3.35540E+01  2.87145E+01  3.90195E+01  3.43146E+01  3.60471E+01  1.98070E+01
   3.07076E+01  1.46874E+01  2.34003E+01  2.20128E+01  4.07455E+01  3.50694E+01  4.06058E+01  3.11882E+01  5.76939E+01  5.79399E+01
   5.28847E+01  5.32580E+01  6.01280E+01  5.52164E+01  6.92424E+01  8.35034E+01  1.02274E+02  1.49978E+02  2.00991E+02  2.48048E+02
   2.53123E+02  2.23324E+02  1.80020E+02  1.40860E+02  9.89209E+01  8.22226E+01  6.65914E+01  4.97457E+01  4.77041E+01  3.28073E+01
   3.32466E+01  3.07579E+01  3.11322E+01  3.08132E+01  3.04647E+01  2.49623E+01  2.08300E+01  1.73908E+01  2.37464E+01  2.07304E+01
   2.73508E+01  1.76902E+01  2.74363E+01  2.58584E+01  2.16581E+01  1.26021E+01  1.67443E+01  1.01639E+01  2.72806E+01  1.59387E+01
   1.77588E+01  1.65935E+01  2.56101E+01  1.80002E+01  2.35821E+01  2.45107E+01  2.58402E+01  3.40900E+01  2.64387E+01  2.56242E+01
   2.14315E+01  2.78685E+01  2.58097E+01  2.01961E+01  3.30458E+01  3.02806E+01  2.97546E+01  4.08088E+01  3.90593E+01  3.80718E+01
   5.07868E+01  3.50154E+01  4.80585E+01  4.52987E+01  5.91458E+01  5.73194E+01  5.57974E+01  5.11016E+01  4.02644E+01  5.04434E+01
   5.02687E+01  4.95863E+01  5.18129E+01  5.66116E+01  5.50458E+01  5.05981E+01  6.12952E+01  5.57281E+01  6.86324E+01  6.51989E+01
   7.03928E+01  6.45715E+01  6.32699E+01  6.20488E+01  5.35125E+01  6.45077E+01  6.50044E+01  5.01593E+01  5.57917E+01  5.09220E+01
   4.71653E+01  3.62268E+01  4.62885E+01  4.25211E+01  3.57557E+01  4.20597E+01  4.56846E+01  3.61317E+01  4.15886E+01  3.23041E+01
   2.68723E+01  2.86953E+01  2.89822E+01  3.03400E+01  3.71877E+01  3.09771E+01  4.05420E+01  3.68579E+01  3.35045E+01  3.34523E+01
   3.02972E+01  2.69633E+01  3.04402E+01  3.79310E+01  3.84856E+01  3.12927E+01  4.74841E+01  3.07406E+01  3.60635E+01  2.79641E+01
   3.49368E+01  3.73703E+01  2.90561E+01  2.47807E+01  2.60397E+01  2.88416E+01  2.47112E+01  2.20956E+01  3.10505E+01  2.07338E+01
   1.71617E+01  1.51820E+01  1.05534E+01  2.13428E+01  1.51604E+01  1.46136E+01  2.33592E+01  2.38479E+01  1.86023E+01  2.02543E+01
   1.35898E+01  2.23240E+01  2.00682E+01  2.44474E+01  3.26188E+01  2.20478E+01  1.80520E+01  2.21251E+01  2.85749E+01  2.63657E+01
   3.29382E+01  2.01921E+01  3.28218E+01  3.00964E+01  3.77639E+01  2.93879E+01  2.65233E+01  3.02930E+01  2.25398E+01  2.21532E+01
   3.44071E+01  2.36556E+01  2.20893E+01  2.47052E+01  2.78526E+01  2.46306E+01  2.01338E+01  2.11625E+01  9.40448E+00  1.48499E+01
   1.48344E+01  2.27628E+01  1.42799E+01  6.63853E+00  1.31481E+01  6.88450E+00  6.40376E+00  1.91945E+00  1.46090E+01  1.71375E+01
   5.37504E+00  6.69092E+00  2.17928E+01  1.11039E+01  1.78738E+01 -3.44739E+00  1.77158E+01  3.82111E+00  1.24573E+01  5.94940E+00
   4.58564E+00  9.28074E+00  4.74543E+00  2.58932E+00  2.17124E+00  6.41756E+00 -2.36698E+00  8.37758E+00 -5.84602E-01  3.27455E+00
  -3.77515E+00 -3.40239E-01  4.27635E+00  4.77435E+00  1.58343E+01 -3.96640E+00  1.43286E+01 -4.08066E+00  1.56135E+00  4.06844E+00
  -9.99101E+00  1.39171E+00  6.47054E+00  3.08763E+00  5.49596E+00  2.20244E+00 -9.39583E+00  9.08114E+00  6.74435E-01  4.75891E+00
   1.23355E+01 -6.22472E-01  5.16210E+00  2.98749E+00 -2.53605E+00  1.21864E+00  5.54343E+00 -3.52029E+00  4.88916E+00  4.86701E+00
   7.07207E+00  5.70780E+00 -1.03052E+00  5.67813E+00  4.32208E+00  3.98797E+00  6.90543E+00 -3.43685E+00  9.66455E+00  3.68890E-01
   1.11044E+01  2.86754E+00 -3.06271E+00  1.14904E+01  1.58101E+01  3.98309E+00  9.66998E+00  2.36626E+00
 NY points of the fit to the data follow
   5.57970E+01  5.51798E+01  5.55328E+01  5.79846E+01  6.37044E+01  7.30735E+01  8.67575E+01  1.02965E+02  1.18256E+02  1.29171E+02
   1.33178E+02  1.29660E+02  1.20104E+02  1.07313E+02  9.42747E+01  8.28186E+01  7.34961E+01  6.69194E+01  6.24380E+01  5.89927E+01
   5.71822E+01  5.60878E+01  5.45296E+01  5.26500E+01  5.17981E+01  5.30468E+01  5.73356E+01  6.47160E+01  7.36723E+01  8.15048E+01
   8.55507E+01  8.47722E+01  7.99769E+01  7.27384E+01  6.47990E+01  5.76639E+01  5.17954E+01  4.78270E+01  4.64504E+01  4.66944E+01
   4.77762E+01  4.96332E+01  5.25945E+01  5.67537E+01  6.16075E+01  6.62702E+01  6.92524E+01  6.90177E+01  6.54460E+01  5.97990E+01
   5.38322E+01  4.89369E+01  4.55102E+01  4.32486E+01  4.19787E+01  4.19738E+01  4.32913E+01  4.52544E+01  4.70314E+01  4.79496E+01
   4.75405E+01  4.58433E+01  4.33847E+01  4.09557E+01  3.92139E+01  3.83759E+01  3.83417E+01  3.89094E+01  3.98388E+01  4.08422E+01
   4.16728E+01  4.20328E+01  4.17960E+01  4.10469E+01  4.00253E+01  3.90188E+01  3.81712E+01  3.74912E+01  3.68964E+01  3.63759E+01
   3.61534E+01  3.63417E+01  3.67766E+01  3.72404E+01  3.73927E+01  3.67865E+01  3.52355E+01  3.31056E+01  3.11575E+01  3.00394E+01
   2.99453E+01  3.05653E+01  3.13494E+01  3.18704E+01  3.20525E+01  3.20221E+01  3.21206E+01  3.46533E+01  4.23712E+01  5.58149E+01
   7.42801E+01  9.39364E+01  1.08346E+02  1.12138E+02  1.04626E+02  8.99873E+01  7.40500E+01  6.06467E+01  5.05223E+01  4.25022E+01
   3.55427E+01  3.10064E+01  2.96372E+01  2.92926E+01  2.91995E+01  2.91882E+01  2.92183E+01  2.93114E+01  2.95845E+01  3.03020E+01
   3.22960E+01  3.86237E+01  5.26098E+01  7.47219E+01  1.03606E+02  1.33731E+02  1.55859E+02  1.62310E+02  1.52006E+02  1.30881E+02
   1.07402E+02  8.69325E+01  7.01379E+01  5.52326E+01  4.12742E+01  3.11730E+01  2.70070E+01  2.62771E+01  2.72557E+01  2.88390E+01
   3.01346E+01  3.07674E+01  3.07168E+01  3.00466E+01  2.90278E+01  2.78870E+01  2.66705E+01  2.54520E+01  2.42529E+01  2.31288E+01
   2.21639E+01  2.13286E+01  2.06623E+01  2.02196E+01  1.99673E+01  1.96182E+01  1.89268E+01  1.77670E+01  1.62005E+01  1.47448E+01
   1.39491E+01  1.41242E+01  1.50606E+01  1.59874E+01  1.61444E+01  1.52957E+01  1.38141E+01  1.23460E+01  1.12509E+01  1.02986E+01
   9.17815E+00  7.72027E+00  6.10191E+00  4.69756E+00  3.76896E+00  3.49009E+00  3.88566E+00  4.56119E+00  4.92455E+00  4.73862E+00
   4.30127E+00  3.93583E+00  3.80864E+00  3.89314E+00  4.12959E+00  5.05155E+00  7.51213E+00  1.14300E+01  1.58496E+01  1.92976E+01
   2.07672E+01  2.02411E+01  1.81637E+01  1.54200E+01  1.29006E+01  1.11995E+01  1.09229E+01  1.25137E+01  1.60059E+01  2.07982E+01
   2.58841E+01  3.01030E+01  3.23957E+01  3.18218E+01  2.78051E+01  2.09801E+01  1.24922E+01  4.31638E+00 -1.25080E+00 -2.72908E+00
   1.41701E-01  6.58909E+00  1.54588E+01  2.52690E+01  3.39460E+01  3.91088E+01  3.89384E+01  3.31382E+01  2.34622E+01  1.31650E+01
   4.67757E+00 -3.04135E-01 -5.67248E-01  3.72196E+00  1.11702E+01  1.92086E+01  2.53816E+01  2.90315E+01  3.04748E+01  3.02839E+01
   2.90680E+01  2.76488E+01  2.70728E+01  2.81000E+01  3.07293E+01  3.43996E+01  3.78921E+01  3.98168E+01  3.93535E+01  3.65403E+01
   3.24839E+01  2.89855E+01  2.74978E+01  2.83008E+01  3.08932E+01  3.44639E+01  3.79536E+01  4.07446E+01  4.29258E+01  4.48438E+01
   4.67978E+01  4.90316E+01  5.16827E+01  5.54149E+01  6.48433E+01  8.51206E+01  1.16791E+02  1.59057E+02  2.03942E+02  2.36463E+02
   2.43606E+02  2.23590E+02  1.86538E+02  1.46749E+02  1.13485E+02  8.82085E+01  6.75871E+01  4.89082E+01  3.60613E+01  3.11698E+01
   2.87369E+01  2.71788E+01  2.62453E+01  2.56776E+01  2.50972E+01  2.43801E+01  2.35050E+01  2.25229E+01  2.15195E+01  2.05714E+01
   1.97089E+01  1.89746E+01  1.84138E+01  1.80111E+01  1.77153E+01  1.74961E+01  1.73579E+01  1.73207E+01  1.73952E+01  1.75762E+01
   1.78790E+01  1.83140E+01  1.88778E+01  1.95601E+01  2.03555E+01  2.12617E+01  2.22753E+01  2.33912E+01  2.46042E+01  2.59039E+01
   2.72767E+01  2.87034E+01  3.01620E+01  3.16284E+01  3.30803E+01  3.44997E+01  3.58735E+01  3.71925E+01  3.84540E+01  3.96585E+01
   4.08101E+01  4.19185E+01  4.29987E+01  4.40677E+01  4.51432E+01  4.62418E+01  4.73775E+01  4.85607E+01  4.97967E+01  5.10836E+01
   5.24114E+01  5.37615E+01  5.51079E+01  5.64190E+01  5.76580E+01  5.87853E+01  5.97594E+01  6.05404E+01  6.10929E+01  6.13880E+01
   6.14054E+01  6.11336E+01  6.05714E+01  5.97284E+01  5.86256E+01  5.72944E+01  5.57752E+01  5.41159E+01  5.23720E+01  5.06092E+01
   4.89146E+01  4.74200E+01  4.61649E+01  4.50397E+01  4.38959E+01  4.24816E+01  4.05765E+01  3.81929E+01  3.56235E+01  3.33929E+01
   3.19285E+01  3.13705E+01  3.16893E+01  3.26782E+01  3.39787E+01  3.52312E+01  3.60769E+01  3.63286E+01  3.61639E+01  3.57989E+01
   3.53421E+01  3.47768E+01  3.40490E+01  3.32712E+01  3.25232E+01  3.17501E+01  3.09289E+01  3.00566E+01  2.91396E+01  2.81885E+01
   2.72165E+01  2.62380E+01  2.52683E+01  2.43231E+01  2.34175E+01  2.25661E+01  2.17819E+01  2.10764E+01  2.04598E+01  1.99413E+01
   1.95282E+01  1.92264E+01  1.90399E+01  1.89713E+01  1.90220E+01  1.91920E+01  1.94796E+01  1.98814E+01  2.03919E+01  2.10036E+01
   2.17072E+01  2.24915E+01  2.33423E+01  2.42431E+01  2.51752E+01  2.61180E+01  2.70495E+01  2.79468E+01  2.87860E+01  2.95437E+01
   3.01974E+01  3.07270E+01  3.11154E+01  3.13485E+01  3.14163E+01  3.13132E+01  3.10385E+01  3.05963E+01  2.99953E+01  2.92480E+01
   2.83699E+01  2.73796E+01  2.62974E+01  2.51448E+01  2.39434E+01  2.27139E+01  2.14755E+01  2.02458E+01  1.90403E+01  1.78721E+01
   1.67517E+01  1.56866E+01  1.46823E+01  1.37420E+01  1.28673E+01  1.20581E+01  1.13128E+01  1.06287E+01  1.00026E+01  9.43075E+00
   8.90949E+00  8.43476E+00  8.00236E+00  7.60823E+00  7.24870E+00  6.92049E+00  6.62057E+00  6.34598E+00  6.09391E+00  5.86195E+00
   5.64809E+00  5.45068E+00  5.26808E+00  5.09871E+00  4.94108E+00  4.79404E+00  4.65672E+00  4.52837E+00  4.40813E+00  4.29512E+00
   4.18861E+00  4.08811E+00  3.99329E+00  3.90379E+00  3.81908E+00  3.73862E+00  3.66205E+00  3.58921E+00  3.51997E+00  3.45406E+00
   3.39111E+00  3.33081E+00  3.27303E+00  3.21775E+00  3.16492E+00  3.11428E+00  3.06554E+00  3.01851E+00  2.97323E+00  2.92973E+00
   2.88792E+00  2.84759E+00  2.80853E+00  2.77068E+00  2.73415E+00  2.69897E+00  2.66499E+00  2.63199E+00  2.59985E+00  2.56863E+00
   2.53844E+00  2.50925E+00  2.48091E+00  2.45322E+00  2.42618E+00  2.39990E+00  2.37447E+00  2.34979E+00  2.32569E+00  2.30205E+00
   2.27895E+00  2.25653E+00  2.23480E+00  2.21365E+00  2.19291E+00  2.17257E+00  2.15277E+00  2.13363E+00
 NY background values follow
     4.820E+01    4.798E+01    4.775E+01    4.752E+01    4.730E+01    4.707E+01    4.684E+01    4.662E+01    4.639E+01    4.616E+01
     4.594E+01    4.571E+01    4.548E+01    4.526E+01    4.503E+01    4.480E+01    4.458E+01    4.435E+01    4.412E+01    4.390E+01
     4.367E+01    4.344E+01    4.322E+01    4.299E+01    4.277E+01    4.254E+01    4.231E+01    4.209E+01    4.186E+01    4.164E+01
     4.141E+01    4.118E+01    4.096E+01    4.073E+01    4.051E+01    4.028E+01    4.006E+01    3.983E+01    3.961E+01    3.938E+01
     3.916E+01    3.893E+01    3.871E+01    3.849E+01    3.826E+01    3.804E+01    3.782E+01    3.759E+01    3.737E+01    3.715E+01
     3.692E+01    3.670E+01    3.648E+01    3.626E+01    3.604E+01    3.581E+01    3.559E+01    3.537E+01    3.515E+01    3.493E+01
     3.471E+01    3.449E+01    3.427E+01    3.406E+01    3.384E+01    3.362E+01    3.340E+01    3.318E+01    3.297E+01    3.275E+01
     3.254E+01    3.232E+01    3.211E+01    3.189E+01    3.168E+01    3.147E+01    3.125E+01    3.104E+01    3.083E+01    3.062E+01
     3.041E+01    3.020E+01    2.999E+01    2.978E+01    2.957E+01    2.936E+01    2.916E+01    2.895E+01    2.874E+01    2.854E+01
     2.833E+01    2.813E+01    2.793E+01    2.773E+01    2.752E+01    2.732E+01    2.712E+01    2.692E+01    2.672E+01    2.653E+01
     2.633E+01    2.613E+01    2.594E+01    2.574E+01    2.555E+01    2.536E+01    2.516E+01    2.497E+01    2.478E+01    2.459E+01
     2.440E+01    2.421E+01    2.402E+01    2.384E+01    2.365E+01    2.347E+01    2.328E+01    2.310E+01    2.292E+01    2.273E+01
     2.255E+01    2.237E+01    2.219E+01    2.202E+01    2.184E+01    2.166E+01    2.149E+01    2.131E+01    2.114E+01    2.097E+01
     2.079E+01    2.062E+01    2.045E+01    2.028E+01    2.012E+01    1.995E+01    1.978E+01    1.962E+01    1.945E+01    1.929E+01
     1.913E+01    1.897E+01    1.881E+01    1.865E+01    1.849E+01    1.833E+01    1.818E+01    1.802E+01    1.787E+01    1.772E+01
     1.756E+01    1.741E+01    1.726E+01    1.711E+01    1.697E+01    1.682E+01    1.667E+01    1.653E+01    1.639E+01    1.624E+01
     1.610E+01    1.596E+01    1.582E+01    1.568E+01    1.555E+01    1.541E+01    1.527E+01    1.514E+01    1.501E+01    1.488E+01
     1.475E+01    1.462E+01    1.449E+01    1.436E+01    1.423E+01    1.411E+01    1.398E+01    1.386E+01    1.374E+01    1.362E+01
     1.350E+01    1.338E+01    1.326E+01    1.315E+01    1.303E+01    1.292E+01    1.280E+01    1.269E+01    1.258E+01    1.247E+01
     1.236E+01    1.226E+01    1.215E+01    1.204E+01    1.194E+01    1.183E+01    1.173E+01    1.163E+01    1.153E+01    1.143E+01
     1.133E+01    1.123E+01    1.114E+01    1.104E+01    1.095E+01    1.085E+01    1.076E+01    1.067E+01    1.057E+01    1.048E+01
     1.039E+01    1.030E+01    1.022E+01    1.013E+01    1.004E+01    9.956E+00    9.871E+00    9.787E+00    9.703E+00    9.621E+00
     9.539E+00    9.457E+00    9.377E+00    9.297E+00    9.218E+00    9.140E+00    9.062E+00    8.985E+00    8.909E+00    8.833E+00
     8.758E+00    8.683E+00    8.610E+00    8.537E+00    8.464E+00    8.392E+00    8.321E+00    8.250E+00    8.180E+00    8.111E+00
     8.042E+00    7.974E+00    7.907E+00    7.840E+00    7.773E+00    7.707E+00    7.642E+00    7.578E+00    7.513E+00    7.450E+00
     7.387E+00    7.324E+00    7.262E+00    7.201E+00    7.140E+00    7.080E+00    7.020E+00    6.961E+00    6.902E+00    6.843E+00
     6.786E+00    6.728E+00    6.671E+00    6.615E+00    6.559E+00    6.504E+00    6.449E+00    6.394E+00    6.340E+00    6.287E+00
     6.233E+00    6.181E+00    6.128E+00    6.076E+00    6.025E+00    5.974E+00    5.923E+00    5.873E+00    5.823E+00    5.774E+00
     5.725E+00    5.676E+00    5.628E+00    5.580E+00    5.533E+00    5.486E+00    5.439E+00    5.393E+00    5.347E+00    5.301E+00
     5.256E+00    5.211E+00    5.167E+00    5.123E+00    5.079E+00    5.035E+00    4.992E+00    4.950E+00    4.907E+00    4.865E+00
     4.824E+00    4.782E+00    4.741E+00    4.701E+00    4.660E+00    4.620E+00    4.581E+00    4.541E+00    4.502E+00    4.463E+00
     4.425E+00    4.387E+00    4.349E+00    4.311E+00    4.274E+00    4.237E+00    4.200E+00    4.164E+00    4.128E+00    4.092E+00
     4.056E+00    4.021E+00    3.986E+00    3.951E+00    3.916E+00    3.882E+00    3.848E+00    3.815E+00    3.781E+00    3.748E+00
     3.715E+00    3.682E+00    3.650E+00    3.618E+00    3.586E+00    3.554E+00    3.523E+00    3.492E+00    3.461E+00    3.430E+00
     3.400E+00    3.370E+00    3.340E+00    3.310E+00    3.281E+00    3.252E+00    3.223E+00    3.194E+00    3.166E+00    3.137E+00
     3.109E+00    3.082E+00    3.054E+00    3.027E+00    3.000E+00    2.973E+00    2.946E+00    2.920E+00    2.894E+00    2.868E+00
     2.842E+00    2.817E+00    2.791E+00    2.766E+00    2.741E+00    2.717E+00    2.692E+00    2.668E+00    2.644E+00    2.620E+00
     2.597E+00    2.574E+00    2.550E+00    2.528E+00    2.505E+00    2.482E+00    2.460E+00    2.438E+00    2.416E+00    2.395E+00
     2.373E+00    2.352E+00    2.331E+00    2.311E+00    2.290E+00    2.270E+00    2.250E+00    2.230E+00    2.211E+00    2.191E+00
     2.172E+00    2.153E+00    2.134E+00    2.116E+00    2.098E+00    2.080E+00    2.062E+00    2.044E+00    2.027E+00    2.010E+00
     1.993E+00    1.976E+00    1.960E+00    1.944E+00    1.928E+00    1.912E+00    1.896E+00    1.881E+00    1.866E+00    1.851E+00
     1.836E+00    1.822E+00    1.808E+00    1.793E+00    1.780E+00    1.766E+00    1.753E+00    1.740E+00    1.727E+00    1.714E+00
     1.701E+00    1.689E+00    1.677E+00    1.665E+00    1.653E+00    1.641E+00    1.630E+00    1.618E+00    1.607E+00    1.596E+00
     1.586E+00    1.575E+00    1.565E+00    1.555E+00    1.545E+00    1.535E+00    1.525E+00    1.515E+00    1.506E+00    1.497E+00
     1.488E+00    1.479E+00    1.470E+00    1.461E+00    1.453E+00    1.444E+00    1.436E+00    1.428E+00    1.420E+00    1.412E+00
     1.404E+00    1.397E+00    1.389E+00    1.382E+00    1.375E+00    1.368E+00    1.361E+00    1.354E+00    1.347E+00    1.341E+00
     1.334E+00    1.328E+00    1.321E+00    1.315E+00    1.309E+00    1.303E+00    1.297E+00    1.291E+00    1.285E+00    1.279E+00
     1.273E+00    1.268E+00    1.262E+00    1.257E+00    1.251E+00    1.246E+00    1.240E+00    1.235E+00    1.230E+00    1.225E+00
     1.220E+00    1.215E+00    1.209E+00    1.204E+00    1.199E+00    1.194E+00    1.190E+00    1.185E+00    1.180E+00    1.175E+00
     1.170E+00    1.165E+00    1.160E+00    1.155E+00    1.151E+00    1.146E+00    1.141E+00    1.136E+00
 Asp      Conc. = 1.80E+02
