 LCModel (Version 6.3-1L) Copyright: S.W. Provencher.          Ref.: Magn. Reson. Med. 30:672-679 (1993).                
 Slice#2 Row#7 Col#8  PD_05_press_2_raw_act
 36 lines in following concentration table = NCONC+1
    Conc.  %SD /Cr+PCr  Metabolite                                         
    0.000 999%   0.000 Ala                                                 
    0.000 999%   0.000 Asp                                                 
  901.396  63%   0.292 Cr                                                  
 2.19E+03  27%   0.708 PCr                                                 
   61.856 563% 2.0E-02 GABA                                                
   65.645 536% 2.1E-02 Glc                                                 
 1.78E+03  28%   0.575 Gln                                                 
 3.45E+03  17%   1.116 Glu                                                 
 1.12E+03   5%   0.364 GPC                                                 
    0.000 999%   0.000 PCh                                                 
  588.030  29%   0.190 GSH                                                 
 1.93E+03  30%   0.625 Ins                                                 
  741.638  36%   0.240 Lac                                                 
 5.66E+03   5%   1.832 NAA                                                 
  951.853  27%   0.308 NAAG                                                
  193.981  33% 6.3E-02 Scyllo                                              
  294.452 165% 9.5E-02 Tau                                                 
 1.26E+03  23%   0.407 -CrCH2                                              
 1.12E+03   5%   0.364 GPC+PCh                                             
 6.61E+03   3%   2.140 NAA+NAAG                                            
 3.09E+03   5%   1.000 Cr+PCr                                              
 5.23E+03  15%   1.691 Glu+Gln                                             
  527.580 116%   0.171 Lip13a                                              
    0.000 999%   0.000 Lip13b                                              
    0.000 999%   0.000 Lip09                                               
 3.04E+03  16%   0.984 MM09                                                
  107.521 160% 3.5E-02 Lip20                                               
 6.72E+03  13%   2.174 MM20                                                
  924.992  33%   0.299 MM12                                                
 3.49E+03  21%   1.130 MM14                                                
 1.68E+03  31%   0.544 MM17                                                
  527.580 116%   0.171 Lip13a+Lip13b                                       
 4.95E+03  18%   1.600 MM14+Lip13a+Lip13b+MM12                             
 3.04E+03  16%   0.984 MM09+Lip09                                          
 6.83E+03  13%   2.209 MM20+Lip20                                          
   6 lines in following misc. output table
  FWHM = 0.046 ppm    S/N =  13                                            
  Data shift = 0.008 ppm                                                   
  Ph: -49 deg      -9.6 deg/ppm                                            
  alphaB,S = 1.8E+00,   9.2E+01                                            
   14 spline knots.   Ns = 6(1)                                            
  (12) 2 infls.   ( 3) 1 extrs.                                            
  498 points on ppm-axis = NY
      4.000000     3.992357     3.984714     3.977070     3.969427     3.961784     3.954141     3.946497     3.938854     3.931211
      3.923568     3.915925     3.908281     3.900638     3.892995     3.885352     3.877708     3.870065     3.862422     3.854779
      3.847136     3.839492     3.831849     3.824206     3.816563     3.808919     3.801276     3.793633     3.785990     3.778347
      3.770703     3.763060     3.755417     3.747774     3.740130     3.732487     3.724844     3.717201     3.709558     3.701914
      3.694271     3.686628     3.678985     3.671341     3.663698     3.656055     3.648412     3.640769     3.633125     3.625482
      3.617839     3.610196     3.602552     3.594909     3.587266     3.579623     3.571980     3.564336     3.556693     3.549050
      3.541407     3.533763     3.526120     3.518477     3.510834     3.503191     3.495547     3.487904     3.480261     3.472618
      3.464974     3.457331     3.449688     3.442045     3.434402     3.426758     3.419115     3.411472     3.403829     3.396185
      3.388542     3.380899     3.373256     3.365613     3.357969     3.350326     3.342683     3.335040     3.327396     3.319753
      3.312110     3.304467     3.296824     3.289180     3.281537     3.273894     3.266251     3.258607     3.250964     3.243321
      3.235678     3.228034     3.220391     3.212748     3.205105     3.197462     3.189818     3.182175     3.174532     3.166889
      3.159245     3.151602     3.143959     3.136316     3.128673     3.121029     3.113386     3.105743     3.098100     3.090456
      3.082813     3.075170     3.067527     3.059884     3.052240     3.044597     3.036954     3.029311     3.021667     3.014024
      3.006381     2.998738     2.991095     2.983451     2.975808     2.968165     2.960522     2.952878     2.945235     2.937592
      2.929949     2.922306     2.914662     2.907019     2.899376     2.891733     2.884089     2.876446     2.868803     2.861160
      2.853517     2.845873     2.838230     2.830587     2.822944     2.815300     2.807657     2.800014     2.792371     2.784728
      2.777084     2.769441     2.761798     2.754155     2.746511     2.738868     2.731225     2.723582     2.715939     2.708295
      2.700652     2.693009     2.685366     2.677722     2.670079     2.662436     2.654793     2.647150     2.639506     2.631863
      2.624220     2.616577     2.608933     2.601290     2.593647     2.586004     2.578361     2.570717     2.563074     2.555431
      2.547788     2.540144     2.532501     2.524858     2.517215     2.509572     2.501928     2.494285     2.486642     2.478999
      2.471355     2.463712     2.456069     2.448426     2.440783     2.433139     2.425496     2.417853     2.410210     2.402566
      2.394923     2.387280     2.379637     2.371994     2.364350     2.356707     2.349064     2.341421     2.333777     2.326134
      2.318491     2.310848     2.303205     2.295561     2.287918     2.280275     2.272632     2.264988     2.257345     2.249702
      2.242059     2.234416     2.226772     2.219129     2.211486     2.203843     2.196199     2.188556     2.180913     2.173270
      2.165627     2.157983     2.150340     2.142697     2.135054     2.127410     2.119767     2.112124     2.104481     2.096838
      2.089194     2.081551     2.073908     2.066265     2.058621     2.050978     2.043335     2.035692     2.028049     2.020405
      2.012762     2.005119     1.997476     1.989833     1.982190     1.974546     1.966903     1.959260     1.951617     1.943974
      1.936331     1.928688     1.921045     1.913402     1.905759     1.898115     1.890472     1.882829     1.875186     1.867543
      1.859900     1.852257     1.844614     1.836971     1.829327     1.821684     1.814041     1.806398     1.798755     1.791112
      1.783469     1.775826     1.768183     1.760540     1.752896     1.745253     1.737610     1.729967     1.722324     1.714681
      1.707038     1.699395     1.691752     1.684108     1.676465     1.668822     1.661179     1.653536     1.645893     1.638250
      1.630607     1.622964     1.615321     1.607677     1.600034     1.592391     1.584748     1.577105     1.569462     1.561819
      1.554176     1.546533     1.538890     1.531246     1.523603     1.515960     1.508317     1.500674     1.493031     1.485388
      1.477745     1.470102     1.462458     1.454815     1.447172     1.439529     1.431886     1.424243     1.416600     1.408957
      1.401314     1.393671     1.386027     1.378384     1.370741     1.363098     1.355455     1.347812     1.340169     1.332526
      1.324883     1.317240     1.309596     1.301953     1.294310     1.286667     1.279024     1.271381     1.263738     1.256095
      1.248452     1.240808     1.233165     1.225522     1.217879     1.210236     1.202593     1.194950     1.187307     1.179664
      1.172021     1.164377     1.156734     1.149091     1.141448     1.133805     1.126162     1.118519     1.110876     1.103233
      1.095590     1.087946     1.080303     1.072660     1.065017     1.057374     1.049731     1.042088     1.034445     1.026802
      1.019158     1.011515     1.003872     0.996229     0.988586     0.980943     0.973300     0.965657     0.958014     0.950371
      0.942727     0.935084     0.927441     0.919798     0.912155     0.904512     0.896869     0.889226     0.881583     0.873940
      0.866296     0.858653     0.851010     0.843367     0.835724     0.828081     0.820438     0.812795     0.805152     0.797508
      0.789865     0.782222     0.774579     0.766936     0.759293     0.751650     0.744007     0.736364     0.728721     0.721077
      0.713434     0.705791     0.698148     0.690505     0.682862     0.675219     0.667576     0.659933     0.652290     0.644646
      0.637003     0.629360     0.621717     0.614074     0.606431     0.598788     0.591145     0.583502     0.575858     0.568215
      0.560572     0.552929     0.545286     0.537643     0.530000     0.522357     0.514714     0.507071     0.499427     0.491784
      0.484141     0.476498     0.468855     0.461212     0.453569     0.445925     0.438282     0.430639     0.422996     0.415353
      0.407710     0.400067     0.392424     0.384780     0.377137     0.369494     0.361851     0.354208     0.346565     0.338922
      0.331278     0.323635     0.315992     0.308349     0.300706     0.293063     0.285420     0.277777     0.270133     0.262490
      0.254847     0.247204     0.239561     0.231918     0.224275     0.216631     0.208988     0.201345
 NY phased data points follow
  -7.85940E+01 -8.07797E+01 -7.06608E+01 -6.41702E+01 -6.78465E+01 -6.22505E+01 -4.76086E+01 -2.67486E+01 -2.01516E+01 -2.18120E+01
   5.20646E+00  5.03219E+00 -2.95034E+00 -1.36122E+01 -2.85252E+01 -3.85002E+01 -3.55002E+01 -3.26794E+01 -4.46702E+01 -5.14476E+01
  -4.76259E+01 -5.21184E+01 -3.18578E+01 -4.44630E+01 -4.08877E+01 -3.16967E+01 -3.96281E+01 -4.37398E+01 -3.97500E+01 -2.18394E+01
  -2.57643E+01 -3.00959E+01 -4.04390E+01 -3.10565E+01 -3.34784E+01 -3.34936E+01 -4.02338E+01 -4.11571E+01 -2.67152E+01 -3.09390E+01
  -3.88824E+01 -2.87363E+01 -2.39424E+01 -2.42015E+01 -1.77187E+01 -1.43503E+01 -1.76738E+01 -1.98290E+01 -1.29334E+01 -1.35884E+01
  -1.14801E+01 -2.62579E+01 -2.60537E+01 -1.41853E+01 -3.15984E+01 -1.88757E+01 -2.44624E+01 -2.08653E+01 -1.70319E+01 -2.88102E+01
  -3.72140E+01 -1.68186E+01 -4.96198E+01 -5.01863E+01 -3.31504E+01 -4.05763E+01 -3.99474E+01 -3.04815E+01 -3.65515E+01 -4.03150E+01
  -2.20605E+01 -2.67300E+01 -4.11851E+01 -3.99311E+01 -1.06098E+01 -4.66699E+01 -3.32696E+01 -2.87399E+01 -2.65014E+01 -2.85402E+01
  -1.74489E+01 -3.17424E+01 -2.05092E+01 -2.88843E+01 -1.60114E+01 -1.27517E+01 -2.16824E+01 -2.81045E+01 -1.62108E+01 -1.91228E+01
  -2.23462E+01 -9.88611E+00 -2.28843E+01 -1.74584E+01 -1.33811E+01 -6.66646E+00 -4.42266E+00 -3.21089E+00 -1.02720E+01  4.87594E-01
   4.75932E+01  5.34540E+01  8.03973E+01  1.04178E+02  8.44840E+01  5.94889E+01  4.96700E+01  3.39624E+01  1.93363E+01  5.27178E+00
   9.05558E-01 -1.20321E+01  6.48806E+00 -1.00692E+01 -4.24985E+00 -4.74938E+00 -7.35057E+00 -3.62384E+00 -2.21580E+01 -7.15512E+00
   7.14066E-01 -4.38861E+00  9.46801E+00  1.07244E+01  3.36290E+01  6.36852E+01  9.48859E+01  9.69399E+01  1.03580E+02  8.28862E+01
   5.99866E+01  3.68090E+01  3.05954E+01 -3.97552E-02 -1.39394E+01 -6.59627E+00 -5.55682E+00 -8.04183E+00 -1.43065E+01 -7.89946E+00
  -1.26630E+01 -1.96728E+01 -9.23766E-02 -3.61660E+00 -4.71564E+00  2.27442E+00 -4.63569E-01 -1.69140E+01  3.31112E+00 -1.53037E+01
  -8.40419E+00 -5.70068E+00 -1.69358E+01 -6.23870E-01 -1.34544E+01 -1.12873E+01 -1.78890E+01 -2.02882E+01 -9.27746E+00 -4.12632E+00
   2.44959E+00 -1.98803E+01 -1.73004E+01 -2.34073E+01 -1.29471E+01 -6.16955E+00 -1.87330E+01 -4.68721E+00 -1.74373E+01 -1.80984E+01
  -3.24342E+01 -1.06025E+01 -3.51506E+01 -2.63347E+01 -2.42428E+01 -3.28828E+01 -3.78458E+01 -1.88806E+01 -3.73846E+01 -3.10886E+01
  -2.62742E+01 -3.23564E+01 -3.36388E+01 -2.69065E+01 -2.72354E+01 -3.10737E+01 -2.40681E+01 -2.23827E+01 -2.37029E+01 -5.62150E+00
   1.37987E+01  3.98582E+00  2.66543E+00  9.45485E+00  9.02347E-01 -3.23802E+00 -2.42888E+00 -2.75641E+00 -1.02183E+01 -8.49837E+00
   8.03459E+00  7.17537E+00 -4.10498E+00  6.40970E+00  1.45446E+01 -1.39465E+01 -1.10191E+00 -1.71477E+01 -9.79575E+00 -9.57226E+00
  -3.99569E+00 -4.58123E+00 -4.23546E+00  5.12414E+00  1.93977E+01  3.37825E+01  3.69891E+01  2.23215E+01  1.14435E+01  9.26590E+00
   2.97831E+00 -6.52013E+00 -2.48094E+01  9.05975E+00  1.03231E+01 -2.59938E+00  1.16359E+01  1.07100E+01  2.26733E+01  1.65921E+01
   2.66564E+01  2.72722E+01  2.52156E+01  2.90747E+01  1.37848E+01  3.62184E+01  1.13360E+01  1.66989E+01  2.63101E+01  3.23868E+01
   1.59437E+01  2.45730E+01  1.40348E+01  1.14771E+01  7.69141E+00  1.49444E+01  3.44943E+01  2.36899E+01  3.80296E+01  2.75657E+01
   3.76550E+01  4.62908E+01  6.82069E+01  5.61276E+01  8.05477E+01  7.88447E+01  1.03806E+02  1.36013E+02  1.70255E+02  2.19334E+02
   2.41046E+02  2.55350E+02  2.03249E+02  1.69957E+02  1.25128E+02  1.04706E+02  7.56455E+01  5.44446E+01  3.33695E+01  2.52131E+01
   3.62786E+01  2.07615E+01  2.70904E+01  1.17126E+01  2.40144E+01  3.61586E+01  7.50905E+00  1.24530E+01  1.25527E+01  1.30688E+01
   1.66582E+01  1.89691E+01  1.11003E+01  1.81208E+01  1.94950E+01  1.15323E+01  1.07611E+01  2.57769E+01 -1.70886E-01  2.60827E+01
   1.43229E+01  2.37249E+01  3.95908E+00  2.15821E+01  1.46386E+01  2.17061E+01  1.80517E+01  2.49191E+01  1.15316E+01  1.79024E+01
   1.50559E+01  1.88510E+01  2.28500E+01  2.27402E+01  2.90154E+01  1.08901E+01  2.31858E+01  2.05896E+01  2.56951E+01  3.77620E+01
   1.86280E+01  2.00052E+01  2.95407E+01  5.37173E+00  3.05183E+01  1.37239E+01  1.26896E+01  2.08270E+01  1.85537E+01  2.25150E+01
   2.58994E+01  1.01616E+01  1.49384E+01  2.01578E+01  2.01144E+01  8.64498E+00  1.37208E+01  1.73388E+01  2.79210E+01  1.67246E+01
   2.11962E+01  3.72534E+01  1.69311E+01  2.96740E+01  3.16579E+01  3.45279E+01  2.81435E+01  3.88809E+01  4.11547E+01  3.39972E+01
   2.86301E+01  2.79934E+01  4.26883E+01  3.74684E+01  4.11240E+01  4.39053E+01  4.79375E+01  4.28827E+01  3.15074E+01  2.24294E+01
   2.34208E+01  2.77700E+01  2.65518E+01  2.73274E+01  1.02507E+01  1.67639E+01  1.85392E+01  3.67517E+01  3.74506E+01  7.92963E+00
   2.13228E+01  3.30710E+01  3.13496E+01  2.55763E+01  4.21124E+01  2.24319E+01  1.88922E+01  1.06301E+01  2.80993E+01  2.48017E+01
   2.73875E+01  1.55980E+01  2.03060E+01  1.42761E+01  3.25529E+01  1.91030E+01  1.79451E+01  1.61535E+01  3.61689E+00  2.38434E+01
   1.72623E+01  2.14065E+01  1.11437E+01  2.47986E+01  1.12217E+01  2.62430E+01  6.12026E+00  3.22062E+01  3.35359E+01  1.73912E+01
   1.64664E+01  2.24093E+01  1.67750E+01  1.74165E+01  2.53148E+01  1.61909E+01  2.31685E+01  2.09571E+01  2.83978E+01  2.82872E+01
   2.16248E+01  2.46775E+01  3.60257E+01  2.58035E+01  4.20143E+01  3.20313E+01  4.51002E+01  3.14321E+01  4.15898E+01  3.49641E+01
   3.54615E+01  3.72821E+01  5.35008E+01  3.08995E+01  2.95940E+01  2.03354E+01  2.22195E+01  2.92916E+01  2.21314E+01  2.45231E+01
   1.93423E+01  2.91424E+01  2.12782E+01  2.70433E+01  2.08582E+01  1.20118E+01  1.95966E+01  2.85317E+01  2.64021E+01  2.61942E+01
   2.12511E+01  1.99493E+01  2.13545E+01  1.73256E+01  1.94766E+01  1.46896E+01  1.98522E+01  1.11666E+01  2.72547E+01  2.47877E+01
   1.66290E+01  2.37536E+01  1.39480E+01  2.80368E+01  1.78900E+01  2.14203E+01  2.14762E+01  1.95956E+01  2.25811E+01  2.36310E+01
   1.55566E+01  2.39453E+01  9.70940E+00  2.41703E+01  1.47782E+01  2.09904E+01  1.93407E+01  1.27600E+01  1.99255E+01  2.11039E+01
   3.76541E+00  2.65875E+01  1.33271E+01  7.39934E+00  1.51590E+01  1.35272E+01  1.98340E+01  1.18685E+01  1.18931E+01  1.69702E+01
   1.63561E+01  2.05092E+01  3.26374E+01  1.81517E+01  2.17476E+01  2.52128E+01  2.11264E+01  2.57861E+01  1.84293E+01  2.51903E+01
   2.56115E+01  1.36924E+01  1.83002E+01  1.96588E+01  1.80794E+01  1.30135E+01  2.70116E+01  1.48825E+01  1.37302E+01  2.02299E+01
   1.76881E+01  1.91001E+01  1.65845E+01  1.99348E+01  2.21606E+01  1.83900E+01  1.51162E+01  2.10942E+01
 NY points of the fit to the data follow
  -5.77845E+01 -5.77240E+01 -5.76511E+01 -5.72248E+01 -5.54514E+01 -5.19195E+01 -4.54699E+01 -3.53563E+01 -2.23912E+01 -9.73970E+00
  -1.85513E+00 -1.29588E+00 -6.60517E+00 -1.40598E+01 -2.08774E+01 -2.67487E+01 -3.25948E+01 -3.76411E+01 -4.04628E+01 -4.17512E+01
  -4.21362E+01 -4.23336E+01 -4.28057E+01 -4.35824E+01 -4.42500E+01 -4.44210E+01 -4.33971E+01 -4.06545E+01 -3.61463E+01 -3.06731E+01
  -2.57841E+01 -2.28541E+01 -2.23663E+01 -2.41499E+01 -2.75269E+01 -3.17441E+01 -3.60057E+01 -3.90352E+01 -4.00919E+01 -3.96880E+01
  -3.82269E+01 -3.59592E+01 -3.29887E+01 -2.94511E+01 -2.55979E+01 -2.18563E+01 -1.91112E+01 -1.84173E+01 -1.99709E+01 -2.30372E+01
  -2.63496E+01 -2.90702E+01 -3.12107E+01 -3.29372E+01 -3.39032E+01 -3.37213E+01 -3.26548E+01 -3.12494E+01 -2.98335E+01 -2.87877E+01
  -2.85103E+01 -2.90840E+01 -3.01991E+01 -3.12926E+01 -3.19771E+01 -3.21603E+01 -3.18741E+01 -3.12022E+01 -3.02845E+01 -2.92228E+01
  -2.81333E+01 -2.71931E+01 -2.65185E+01 -2.61559E+01 -2.60520E+01 -2.61462E+01 -2.64455E+01 -2.68891E+01 -2.73286E+01 -2.74751E+01
  -2.69930E+01 -2.58274E+01 -2.41107E+01 -2.19001E+01 -1.95576E+01 -1.78363E+01 -1.74333E+01 -1.85147E+01 -2.04270E+01 -2.21416E+01
  -2.30918E+01 -2.34947E+01 -2.37577E+01 -2.38992E+01 -2.35756E+01 -2.26713E+01 -2.08670E+01 -1.57839E+01 -5.44132E+00  1.13192E+01
   3.48175E+01  6.15279E+01  8.39922E+01  9.40622E+01  8.82097E+01  7.07613E+01  5.01876E+01  3.20962E+01  1.69010E+01  3.20453E+00
  -8.13156E+00 -1.42005E+01 -1.59423E+01 -1.64197E+01 -1.65142E+01 -1.64403E+01 -1.62484E+01 -1.59648E+01 -1.55414E+01 -1.48228E+01
  -1.31944E+01 -8.30066E+00  1.81594E+00  1.80875E+01  4.09895E+01  6.73276E+01  8.99293E+01  1.00700E+02  9.57872E+01  7.91897E+01
   5.93441E+01  4.18058E+01  2.67833E+01  1.25342E+01 -1.95989E-01 -7.86387E+00 -1.05097E+01 -1.11617E+01 -1.07923E+01 -9.93497E+00
  -9.01951E+00 -8.30356E+00 -7.95900E+00 -8.02377E+00 -8.33590E+00 -8.75845E+00 -9.22876E+00 -9.68187E+00 -1.01204E+01 -1.05216E+01
  -1.08898E+01 -1.12536E+01 -1.15521E+01 -1.16815E+01 -1.15725E+01 -1.13179E+01 -1.11624E+01 -1.13696E+01 -1.21573E+01 -1.33662E+01
  -1.45038E+01 -1.50155E+01 -1.45547E+01 -1.34359E+01 -1.25099E+01 -1.25019E+01 -1.34657E+01 -1.48089E+01 -1.59045E+01 -1.66717E+01
  -1.73853E+01 -1.82873E+01 -1.93983E+01 -2.05493E+01 -2.15032E+01 -2.20073E+01 -2.17425E+01 -2.07521E+01 -1.96286E+01 -1.89976E+01
  -1.88839E+01 -1.87981E+01 -1.82585E+01 -1.72725E+01 -1.63409E+01 -1.54854E+01 -1.38769E+01 -1.09626E+01 -7.01787E+00 -3.15348E+00
  -5.81904E-01  4.06065E-01  1.11974E-01 -8.55882E-01 -1.86498E+00 -2.56898E+00 -2.69683E+00 -1.92064E+00 -1.42692E-01  2.51076E+00
   5.70791E+00  8.87958E+00  1.13361E+01  1.22917E+01  1.09511E+01  7.11895E+00  1.18195E+00 -5.53216E+00 -1.10775E+01 -1.38861E+01
  -1.33231E+01 -9.72629E+00 -3.73663E+00  3.91632E+00  1.19532E+01  1.83358E+01  2.06544E+01  1.77334E+01  1.07940E+01  2.54943E+00
  -5.05411E+00 -1.06183E+01 -1.27355E+01 -1.04352E+01 -4.28090E+00  3.24486E+00  9.64474E+00  1.41521E+01  1.69101E+01  1.81031E+01
   1.78603E+01  1.68228E+01  1.60887E+01  1.63896E+01  1.77180E+01  1.98737E+01  2.23848E+01  2.44435E+01  2.52022E+01  2.42560E+01
   2.21077E+01  1.98676E+01  1.86065E+01  1.88709E+01  2.06282E+01  2.32534E+01  2.58667E+01  2.81329E+01  3.02383E+01  3.26381E+01
   3.60989E+01  4.11292E+01  4.83787E+01  5.78845E+01  7.01552E+01  8.74951E+01  1.09928E+02  1.39987E+02  1.78106E+02  2.16858E+02
   2.41906E+02  2.40677E+02  2.12823E+02  1.72311E+02  1.34084E+02  1.02750E+02  7.54044E+01  5.05799E+01  3.24320E+01  2.48683E+01
   2.20916E+01  2.06566E+01  1.99509E+01  1.96128E+01  1.92725E+01  1.87856E+01  1.81210E+01  1.73692E+01  1.66401E+01  1.59877E+01
   1.54199E+01  1.49826E+01  1.47322E+01  1.46339E+01  1.45908E+01  1.45499E+01  1.45339E+01  1.45737E+01  1.46860E+01  1.48831E+01
   1.51964E+01  1.56293E+01  1.61349E+01  1.66548E+01  1.71664E+01  1.76615E+01  1.81380E+01  1.85923E+01  1.90253E+01  1.94480E+01
   1.98705E+01  2.02712E+01  2.06197E+01  2.08935E+01  2.10838E+01  2.11865E+01  2.11997E+01  2.11238E+01  2.09742E+01  2.07643E+01
   2.05090E+01  2.02250E+01  1.99308E+01  1.96427E+01  1.93779E+01  1.91516E+01  1.89798E+01  1.88761E+01  1.88528E+01  1.89182E+01
   1.90794E+01  1.93397E+01  1.97018E+01  2.01650E+01  2.07274E+01  2.13822E+01  2.21219E+01  2.29358E+01  2.38131E+01  2.47400E+01
   2.57020E+01  2.66818E+01  2.76629E+01  2.86286E+01  2.95651E+01  3.04589E+01  3.13008E+01  3.20856E+01  3.28186E+01  3.35202E+01
   3.42460E+01  3.51349E+01  3.63117E+01  3.75873E+01  3.87553E+01  3.93104E+01  3.85177E+01  3.58334E+01  3.13769E+01  2.62134E+01
   2.18877E+01  1.92331E+01  1.84792E+01  1.95126E+01  2.20572E+01  2.54726E+01  2.85502E+01  3.00479E+01  3.00839E+01  2.93945E+01
   2.84604E+01  2.72973E+01  2.58458E+01  2.44216E+01  2.34299E+01  2.27161E+01  2.21422E+01  2.16532E+01  2.12236E+01  2.08389E+01
   2.04914E+01  2.01760E+01  1.98910E+01  1.96359E+01  1.94121E+01  1.92208E+01  1.90644E+01  1.89450E+01  1.88659E+01  1.88299E+01
   1.88410E+01  1.89019E+01  1.90165E+01  1.91879E+01  1.94203E+01  1.97172E+01  2.00826E+01  2.05190E+01  2.10295E+01  2.16158E+01
   2.22793E+01  2.30194E+01  2.38340E+01  2.47182E+01  2.56656E+01  2.66663E+01  2.77085E+01  2.87766E+01  2.98529E+01  3.09163E+01
   3.19453E+01  3.29162E+01  3.38060E+01  3.45912E+01  3.52509E+01  3.57661E+01  3.61227E+01  3.63099E+01  3.63229E+01  3.61609E+01
   3.58292E+01  3.53377E+01  3.47014E+01  3.39384E+01  3.30701E+01  3.21187E+01  3.11080E+01  3.00610E+01  2.90002E+01  2.79456E+01
   2.69149E+01  2.59223E+01  2.49802E+01  2.40970E+01  2.32791E+01  2.25293E+01  2.18489E+01  2.12365E+01  2.06902E+01  2.02063E+01
   1.97810E+01  1.94091E+01  1.90861E+01  1.88066E+01  1.85665E+01  1.83611E+01  1.81866E+01  1.80389E+01  1.79149E+01  1.78112E+01
   1.77260E+01  1.76564E+01  1.76011E+01  1.75575E+01  1.75247E+01  1.75010E+01  1.74859E+01  1.74780E+01  1.74768E+01  1.74810E+01
   1.74905E+01  1.75044E+01  1.75228E+01  1.75448E+01  1.75702E+01  1.75983E+01  1.76294E+01  1.76629E+01  1.76990E+01  1.77370E+01
   1.77770E+01  1.78184E+01  1.78618E+01  1.79065E+01  1.79530E+01  1.80004E+01  1.80491E+01  1.80987E+01  1.81496E+01  1.82014E+01
   1.82543E+01  1.83077E+01  1.83620E+01  1.84169E+01  1.84728E+01  1.85294E+01  1.85866E+01  1.86442E+01  1.87025E+01  1.87611E+01
   1.88206E+01  1.88805E+01  1.89410E+01  1.90015E+01  1.90628E+01  1.91243E+01  1.91867E+01  1.92492E+01  1.93122E+01  1.93753E+01
   1.94391E+01  1.95033E+01  1.95681E+01  1.96331E+01  1.96986E+01  1.97644E+01  1.98309E+01  1.98978E+01
 NY background values follow
    -6.201E+01   -6.160E+01   -6.119E+01   -6.078E+01   -6.037E+01   -5.996E+01   -5.955E+01   -5.914E+01   -5.873E+01   -5.832E+01
    -5.791E+01   -5.751E+01   -5.710E+01   -5.669E+01   -5.628E+01   -5.587E+01   -5.547E+01   -5.506E+01   -5.465E+01   -5.425E+01
    -5.384E+01   -5.344E+01   -5.303E+01   -5.263E+01   -5.222E+01   -5.182E+01   -5.142E+01   -5.102E+01   -5.062E+01   -5.022E+01
    -4.982E+01   -4.943E+01   -4.903E+01   -4.863E+01   -4.824E+01   -4.785E+01   -4.745E+01   -4.706E+01   -4.667E+01   -4.628E+01
    -4.590E+01   -4.551E+01   -4.513E+01   -4.474E+01   -4.436E+01   -4.398E+01   -4.360E+01   -4.322E+01   -4.284E+01   -4.247E+01
    -4.209E+01   -4.172E+01   -4.135E+01   -4.098E+01   -4.061E+01   -4.025E+01   -3.988E+01   -3.952E+01   -3.916E+01   -3.880E+01
    -3.844E+01   -3.808E+01   -3.773E+01   -3.737E+01   -3.702E+01   -3.667E+01   -3.632E+01   -3.598E+01   -3.563E+01   -3.529E+01
    -3.495E+01   -3.461E+01   -3.427E+01   -3.394E+01   -3.360E+01   -3.327E+01   -3.294E+01   -3.261E+01   -3.229E+01   -3.196E+01
    -3.164E+01   -3.132E+01   -3.100E+01   -3.069E+01   -3.037E+01   -3.006E+01   -2.975E+01   -2.944E+01   -2.914E+01   -2.883E+01
    -2.853E+01   -2.823E+01   -2.794E+01   -2.764E+01   -2.735E+01   -2.706E+01   -2.677E+01   -2.648E+01   -2.620E+01   -2.592E+01
    -2.564E+01   -2.536E+01   -2.508E+01   -2.481E+01   -2.454E+01   -2.427E+01   -2.400E+01   -2.374E+01   -2.347E+01   -2.321E+01
    -2.295E+01   -2.269E+01   -2.244E+01   -2.218E+01   -2.193E+01   -2.168E+01   -2.143E+01   -2.119E+01   -2.094E+01   -2.070E+01
    -2.046E+01   -2.022E+01   -1.999E+01   -1.975E+01   -1.952E+01   -1.929E+01   -1.906E+01   -1.883E+01   -1.861E+01   -1.838E+01
    -1.816E+01   -1.794E+01   -1.772E+01   -1.751E+01   -1.729E+01   -1.708E+01   -1.687E+01   -1.666E+01   -1.645E+01   -1.624E+01
    -1.604E+01   -1.584E+01   -1.564E+01   -1.544E+01   -1.524E+01   -1.504E+01   -1.485E+01   -1.465E+01   -1.446E+01   -1.427E+01
    -1.408E+01   -1.389E+01   -1.370E+01   -1.351E+01   -1.332E+01   -1.314E+01   -1.295E+01   -1.277E+01   -1.259E+01   -1.241E+01
    -1.223E+01   -1.205E+01   -1.187E+01   -1.169E+01   -1.151E+01   -1.133E+01   -1.116E+01   -1.098E+01   -1.080E+01   -1.063E+01
    -1.045E+01   -1.028E+01   -1.010E+01   -9.930E+00   -9.756E+00   -9.582E+00   -9.409E+00   -9.235E+00   -9.062E+00   -8.889E+00
    -8.716E+00   -8.542E+00   -8.369E+00   -8.195E+00   -8.022E+00   -7.849E+00   -7.675E+00   -7.502E+00   -7.329E+00   -7.156E+00
    -6.983E+00   -6.810E+00   -6.637E+00   -6.465E+00   -6.293E+00   -6.121E+00   -5.950E+00   -5.778E+00   -5.608E+00   -5.437E+00
    -5.267E+00   -5.098E+00   -4.929E+00   -4.760E+00   -4.592E+00   -4.425E+00   -4.258E+00   -4.092E+00   -3.926E+00   -3.761E+00
    -3.597E+00   -3.433E+00   -3.270E+00   -3.108E+00   -2.947E+00   -2.787E+00   -2.627E+00   -2.469E+00   -2.311E+00   -2.154E+00
    -1.998E+00   -1.843E+00   -1.689E+00   -1.537E+00   -1.385E+00   -1.234E+00   -1.085E+00   -9.365E-01   -7.893E-01   -6.432E-01
    -4.983E-01   -3.546E-01   -2.119E-01   -7.041E-02    6.997E-02    2.092E-01    3.474E-01    4.844E-01    6.203E-01    7.551E-01
     8.888E-01    1.021E+00    1.153E+00    1.283E+00    1.412E+00    1.541E+00    1.668E+00    1.794E+00    1.919E+00    2.043E+00
     2.165E+00    2.287E+00    2.408E+00    2.527E+00    2.646E+00    2.763E+00    2.880E+00    2.995E+00    3.109E+00    3.223E+00
     3.335E+00    3.446E+00    3.556E+00    3.665E+00    3.773E+00    3.880E+00    3.987E+00    4.092E+00    4.196E+00    4.299E+00
     4.401E+00    4.502E+00    4.601E+00    4.700E+00    4.798E+00    4.896E+00    4.992E+00    5.087E+00    5.181E+00    5.274E+00
     5.367E+00    5.458E+00    5.548E+00    5.638E+00    5.727E+00    5.815E+00    5.902E+00    5.988E+00    6.074E+00    6.158E+00
     6.242E+00    6.325E+00    6.407E+00    6.488E+00    6.569E+00    6.649E+00    6.728E+00    6.806E+00    6.884E+00    6.961E+00
     7.037E+00    7.113E+00    7.188E+00    7.262E+00    7.335E+00    7.408E+00    7.481E+00    7.552E+00    7.623E+00    7.694E+00
     7.763E+00    7.833E+00    7.901E+00    7.969E+00    8.037E+00    8.104E+00    8.170E+00    8.236E+00    8.302E+00    8.367E+00
     8.431E+00    8.495E+00    8.558E+00    8.621E+00    8.684E+00    8.746E+00    8.808E+00    8.869E+00    8.930E+00    8.991E+00
     9.051E+00    9.111E+00    9.170E+00    9.229E+00    9.288E+00    9.346E+00    9.405E+00    9.462E+00    9.520E+00    9.577E+00
     9.634E+00    9.691E+00    9.747E+00    9.804E+00    9.860E+00    9.915E+00    9.971E+00    1.003E+01    1.008E+01    1.014E+01
     1.019E+01    1.025E+01    1.030E+01    1.036E+01    1.041E+01    1.046E+01    1.052E+01    1.057E+01    1.063E+01    1.068E+01
     1.073E+01    1.079E+01    1.084E+01    1.090E+01    1.095E+01    1.100E+01    1.106E+01    1.111E+01    1.117E+01    1.122E+01
     1.127E+01    1.133E+01    1.138E+01    1.144E+01    1.149E+01    1.155E+01    1.160E+01    1.166E+01    1.171E+01    1.177E+01
     1.182E+01    1.188E+01    1.193E+01    1.199E+01    1.204E+01    1.210E+01    1.216E+01    1.221E+01    1.227E+01    1.233E+01
     1.239E+01    1.244E+01    1.250E+01    1.256E+01    1.262E+01    1.268E+01    1.274E+01    1.280E+01    1.286E+01    1.292E+01
     1.298E+01    1.304E+01    1.310E+01    1.316E+01    1.323E+01    1.329E+01    1.335E+01    1.342E+01    1.348E+01    1.355E+01
     1.361E+01    1.368E+01    1.374E+01    1.381E+01    1.388E+01    1.394E+01    1.401E+01    1.408E+01    1.415E+01    1.422E+01
     1.428E+01    1.435E+01    1.442E+01    1.449E+01    1.456E+01    1.463E+01    1.470E+01    1.477E+01    1.484E+01    1.492E+01
     1.499E+01    1.506E+01    1.513E+01    1.520E+01    1.527E+01    1.535E+01    1.542E+01    1.549E+01    1.556E+01    1.564E+01
     1.571E+01    1.578E+01    1.585E+01    1.593E+01    1.600E+01    1.607E+01    1.615E+01    1.622E+01    1.629E+01    1.636E+01
     1.644E+01    1.651E+01    1.658E+01    1.665E+01    1.673E+01    1.680E+01    1.687E+01    1.694E+01    1.702E+01    1.709E+01
     1.716E+01    1.723E+01    1.730E+01    1.738E+01    1.745E+01    1.752E+01    1.759E+01    1.766E+01    1.773E+01    1.781E+01
     1.788E+01    1.795E+01    1.802E+01    1.809E+01    1.816E+01    1.823E+01    1.830E+01    1.838E+01    1.845E+01    1.852E+01
     1.859E+01    1.866E+01    1.873E+01    1.880E+01    1.887E+01    1.894E+01    1.902E+01    1.909E+01    1.916E+01    1.923E+01
     1.930E+01    1.937E+01    1.944E+01    1.951E+01    1.958E+01    1.965E+01    1.972E+01    1.979E+01
 Cr       Conc. = 9.01E+02
