 LCModel (Version 6.3-1L) Copyright: S.W. Provencher.          Ref.: Magn. Reson. Med. 30:672-679 (1993).                
 Slice#3 Row#5 Col#8  PD_05_press_2_raw_act
 36 lines in following concentration table = NCONC+1
    Conc.  %SD /Cr+PCr  Metabolite                                         
    0.000 999%   0.000 Ala                                                 
  250.300 125%   0.154 Asp                                                 
    0.000 999%   0.000 Cr                                                  
 1.63E+03   9%   1.000 PCr                                                 
  124.497 157% 7.6E-02 GABA                                                
  242.216  79%   0.149 Glc                                                 
  350.715 183%   0.215 Gln                                                 
 1.73E+03  42%   1.059 Glu                                                 
    0.000 999%   0.000 GPC                                                 
  817.763   7%   0.502 PCh                                                 
  487.960  39%   0.299 GSH                                                 
 1.22E+03  52%   0.746 Ins                                                 
  941.747  38%   0.578 Lac                                                 
 1.44E+03  13%   0.885 NAA                                                 
  400.505  49%   0.246 NAAG                                                
  142.530  35% 8.7E-02 Scyllo                                              
  470.649  64%   0.289 Tau                                                 
  948.845  24%   0.582 -CrCH2                                              
  817.763   7%   0.502 GPC+PCh                                             
 1.84E+03  10%   1.131 NAA+NAAG                                            
 1.63E+03   9%   1.000 Cr+PCr                                              
 2.08E+03  51%   1.274 Glu+Gln                                             
    0.000 999%   0.000 Lip13a                                              
  828.460  29%   0.508 Lip13b                                              
  187.111  97%   0.115 Lip09                                               
 1.74E+03  21%   1.070 MM09                                                
  137.001  91% 8.4E-02 Lip20                                               
 3.93E+03  19%   2.409 MM20                                                
  486.805  60%   0.299 MM12                                                
  765.979  68%   0.470 MM14                                                
 1.32E+03  23%   0.809 MM17                                                
  828.460  29%   0.508 Lip13a+Lip13b                                       
 2.08E+03  29%   1.277 MM14+Lip13a+Lip13b+MM12                             
 1.93E+03  17%   1.185 MM09+Lip09                                          
 4.06E+03  18%   2.493 MM20+Lip20                                          
   6 lines in following misc. output table
  FWHM = 0.061 ppm    S/N =   4                                            
  Data shift = 0.031 ppm                                                   
  Ph: -50 deg     -11.2 deg/ppm                                            
  alphaB,S = 3.3E+00,   8.2E+01                                            
   14 spline knots.   Ns = 8(1)                                            
  (12) 2 infls.   (11) 1 extrs.                                            
  498 points on ppm-axis = NY
      4.000000     3.992357     3.984714     3.977070     3.969427     3.961784     3.954141     3.946497     3.938854     3.931211
      3.923568     3.915925     3.908281     3.900638     3.892995     3.885352     3.877708     3.870065     3.862422     3.854779
      3.847136     3.839492     3.831849     3.824206     3.816563     3.808919     3.801276     3.793633     3.785990     3.778347
      3.770703     3.763060     3.755417     3.747774     3.740130     3.732487     3.724844     3.717201     3.709558     3.701914
      3.694271     3.686628     3.678985     3.671341     3.663698     3.656055     3.648412     3.640769     3.633125     3.625482
      3.617839     3.610196     3.602552     3.594909     3.587266     3.579623     3.571980     3.564336     3.556693     3.549050
      3.541407     3.533763     3.526120     3.518477     3.510834     3.503191     3.495547     3.487904     3.480261     3.472618
      3.464974     3.457331     3.449688     3.442045     3.434402     3.426758     3.419115     3.411472     3.403829     3.396185
      3.388542     3.380899     3.373256     3.365613     3.357969     3.350326     3.342683     3.335040     3.327396     3.319753
      3.312110     3.304467     3.296824     3.289180     3.281537     3.273894     3.266251     3.258607     3.250964     3.243321
      3.235678     3.228034     3.220391     3.212748     3.205105     3.197462     3.189818     3.182175     3.174532     3.166889
      3.159245     3.151602     3.143959     3.136316     3.128673     3.121029     3.113386     3.105743     3.098100     3.090456
      3.082813     3.075170     3.067527     3.059884     3.052240     3.044597     3.036954     3.029311     3.021667     3.014024
      3.006381     2.998738     2.991095     2.983451     2.975808     2.968165     2.960522     2.952878     2.945235     2.937592
      2.929949     2.922306     2.914662     2.907019     2.899376     2.891733     2.884089     2.876446     2.868803     2.861160
      2.853517     2.845873     2.838230     2.830587     2.822944     2.815300     2.807657     2.800014     2.792371     2.784728
      2.777084     2.769441     2.761798     2.754155     2.746511     2.738868     2.731225     2.723582     2.715939     2.708295
      2.700652     2.693009     2.685366     2.677722     2.670079     2.662436     2.654793     2.647150     2.639506     2.631863
      2.624220     2.616577     2.608933     2.601290     2.593647     2.586004     2.578361     2.570717     2.563074     2.555431
      2.547788     2.540144     2.532501     2.524858     2.517215     2.509572     2.501928     2.494285     2.486642     2.478999
      2.471355     2.463712     2.456069     2.448426     2.440783     2.433139     2.425496     2.417853     2.410210     2.402566
      2.394923     2.387280     2.379637     2.371994     2.364350     2.356707     2.349064     2.341421     2.333777     2.326134
      2.318491     2.310848     2.303205     2.295561     2.287918     2.280275     2.272632     2.264988     2.257345     2.249702
      2.242059     2.234416     2.226772     2.219129     2.211486     2.203843     2.196199     2.188556     2.180913     2.173270
      2.165627     2.157983     2.150340     2.142697     2.135054     2.127410     2.119767     2.112124     2.104481     2.096838
      2.089194     2.081551     2.073908     2.066265     2.058621     2.050978     2.043335     2.035692     2.028049     2.020405
      2.012762     2.005119     1.997476     1.989833     1.982190     1.974546     1.966903     1.959260     1.951617     1.943974
      1.936331     1.928688     1.921045     1.913402     1.905759     1.898115     1.890472     1.882829     1.875186     1.867543
      1.859900     1.852257     1.844614     1.836971     1.829327     1.821684     1.814041     1.806398     1.798755     1.791112
      1.783469     1.775826     1.768183     1.760540     1.752896     1.745253     1.737610     1.729967     1.722324     1.714681
      1.707038     1.699395     1.691752     1.684108     1.676465     1.668822     1.661179     1.653536     1.645893     1.638250
      1.630607     1.622964     1.615321     1.607677     1.600034     1.592391     1.584748     1.577105     1.569462     1.561819
      1.554176     1.546533     1.538890     1.531246     1.523603     1.515960     1.508317     1.500674     1.493031     1.485388
      1.477745     1.470102     1.462458     1.454815     1.447172     1.439529     1.431886     1.424243     1.416600     1.408957
      1.401314     1.393671     1.386027     1.378384     1.370741     1.363098     1.355455     1.347812     1.340169     1.332526
      1.324883     1.317240     1.309596     1.301953     1.294310     1.286667     1.279024     1.271381     1.263738     1.256095
      1.248452     1.240808     1.233165     1.225522     1.217879     1.210236     1.202593     1.194950     1.187307     1.179664
      1.172021     1.164377     1.156734     1.149091     1.141448     1.133805     1.126162     1.118519     1.110876     1.103233
      1.095590     1.087946     1.080303     1.072660     1.065017     1.057374     1.049731     1.042088     1.034445     1.026802
      1.019158     1.011515     1.003872     0.996229     0.988586     0.980943     0.973300     0.965657     0.958014     0.950371
      0.942727     0.935084     0.927441     0.919798     0.912155     0.904512     0.896869     0.889226     0.881583     0.873940
      0.866296     0.858653     0.851010     0.843367     0.835724     0.828081     0.820438     0.812795     0.805152     0.797508
      0.789865     0.782222     0.774579     0.766936     0.759293     0.751650     0.744007     0.736364     0.728721     0.721077
      0.713434     0.705791     0.698148     0.690505     0.682862     0.675219     0.667576     0.659933     0.652290     0.644646
      0.637003     0.629360     0.621717     0.614074     0.606431     0.598788     0.591145     0.583502     0.575858     0.568215
      0.560572     0.552929     0.545286     0.537643     0.530000     0.522357     0.514714     0.507071     0.499427     0.491784
      0.484141     0.476498     0.468855     0.461212     0.453569     0.445925     0.438282     0.430639     0.422996     0.415353
      0.407710     0.400067     0.392424     0.384780     0.377137     0.369494     0.361851     0.354208     0.346565     0.338922
      0.331278     0.323635     0.315992     0.308349     0.300706     0.293063     0.285420     0.277777     0.270133     0.262490
      0.254847     0.247204     0.239561     0.231918     0.224275     0.216631     0.208988     0.201345
 NY phased data points follow
  -8.63901E+01 -8.91174E+01 -9.55606E+01 -9.15577E+01 -7.71661E+01 -7.38583E+01 -7.14133E+01 -5.05688E+01 -5.55952E+01 -5.42040E+01
  -5.12927E+01 -4.35081E+01 -6.63957E+01 -5.52652E+01 -6.47711E+01 -6.12530E+01 -8.35828E+01 -7.85309E+01 -8.99645E+01 -6.47280E+01
  -6.08474E+01 -6.74045E+01 -6.77008E+01 -6.17513E+01 -6.40730E+01 -5.06252E+01 -5.82166E+01 -4.96617E+01 -4.88817E+01 -4.88905E+01
  -5.44791E+01 -4.67891E+01 -5.71284E+01 -6.89075E+01 -6.30701E+01 -5.64887E+01 -5.58523E+01 -6.10895E+01 -6.16160E+01 -6.42617E+01
  -4.88392E+01 -5.06133E+01 -5.28674E+01 -5.39095E+01 -4.49073E+01 -4.68941E+01 -4.79019E+01 -4.71753E+01 -3.79111E+01 -4.58630E+01
  -4.94899E+01 -3.94389E+01 -6.18022E+01 -3.84777E+01 -5.08494E+01 -4.14070E+01 -6.10384E+01 -5.30394E+01 -6.03292E+01 -5.29447E+01
  -5.22379E+01 -4.88175E+01 -5.38113E+01 -7.25531E+01 -6.08805E+01 -6.03696E+01 -6.87352E+01 -4.41740E+01 -5.42041E+01 -5.04680E+01
  -5.98625E+01 -3.17670E+01 -5.23268E+01 -3.58950E+01 -4.49961E+01 -4.57798E+01 -4.34116E+01 -4.59881E+01 -4.16708E+01 -3.53624E+01
  -3.90885E+01 -3.36212E+01 -4.10971E+01 -5.53428E+01 -5.47746E+01 -2.93775E+01 -3.22054E+01 -3.84697E+01 -4.57269E+01 -3.38430E+01
  -4.24605E+01 -3.99917E+01 -3.49865E+01 -4.22187E+01 -3.84152E+01 -3.30232E+01 -4.03730E+01 -2.32037E+01 -2.18959E+01 -1.60024E+01
   2.11885E+00  1.94704E+01  2.90767E+01  3.82969E+01  2.84634E+01  9.13620E+00 -8.06547E+00 -1.30144E+01 -1.93823E+01 -9.53705E+00
  -3.85858E+01 -2.30950E+01 -2.62432E+01 -2.12833E+01 -3.44618E+01 -3.24635E+01 -3.46015E+01 -1.23364E+01 -3.87925E+01 -2.68968E+01
  -3.16281E+01 -1.47189E+01 -1.27590E+01 -1.58863E+01 -2.00183E+00  7.49389E+00  6.58928E+00  1.53770E+01  1.00039E+01  7.24368E+00
   3.04507E+00 -1.19194E+01 -1.51494E+01 -2.73221E+01 -2.36313E+01 -1.66545E+01 -2.40813E+01 -3.26000E+01 -3.57605E+01 -1.50398E+01
  -3.34245E+01 -3.72548E+01 -2.88116E+01 -3.91425E+01 -3.38909E+01 -2.66690E+01 -3.57870E+01 -3.96854E+01 -4.35877E+01 -4.07085E+01
  -3.28742E+01 -3.08883E+01 -3.02662E+01 -3.66300E+01 -3.29130E+01 -3.51170E+01 -3.44188E+01 -3.53881E+01 -3.36152E+01 -2.96049E+01
  -1.80964E+01 -2.83182E+01 -3.26172E+01 -3.95857E+01 -3.89355E+01 -3.04100E+01 -4.09846E+01 -2.89350E+01 -2.14480E+01 -1.76643E+01
  -3.11610E+01 -3.73358E+01 -3.77158E+01 -2.86554E+01 -3.14816E+01 -3.48575E+01 -3.28538E+01 -4.30535E+01 -4.02839E+01 -2.00528E+01
  -3.07083E+01 -3.97509E+01 -4.07019E+01 -2.49933E+01 -3.60068E+01 -3.10615E+01 -3.68810E+01 -2.18967E+01 -1.01935E+01 -2.38438E+01
  -1.58414E+01 -1.89875E+01 -1.25113E+01 -3.17660E+01 -3.31853E+01 -1.23115E+01 -3.18035E+01 -2.70479E+01 -1.87502E+01 -1.98578E+01
  -6.41806E+00 -9.52538E+00 -1.59741E+01 -9.58288E+00 -1.01920E+01 -2.10814E+01 -1.83669E+01 -1.63670E+01 -2.67449E+01 -2.27301E+01
  -2.08956E+01 -1.25674E+01 -2.05581E+01 -2.38776E+01 -1.09043E+01 -1.19621E+01  1.14434E+00 -1.63655E+01 -1.65712E+01 -1.93627E+01
  -2.10476E+01 -2.39868E+01 -2.66815E+01 -2.55212E+01 -2.46707E+01 -3.58343E+00 -2.04832E+00 -4.07250E+00 -1.59105E+01 -8.53922E+00
  -1.15927E+01 -1.25313E+01 -1.26151E+01 -1.40203E+01 -9.58277E+00 -1.19745E+01 -2.15865E+00 -5.27260E+00 -1.67492E+01 -1.25082E+01
  -6.90388E+00 -5.82077E+00 -1.39952E+01 -1.88377E+01 -9.61524E+00 -5.15172E+00  6.73114E+00 -8.80036E-01  1.20071E+01  1.59605E+00
  -3.45610E-01  2.11324E+01  6.95676E+00  1.59177E+01  2.02860E+01  2.33431E+01  3.22623E+01  3.53400E+01  3.72326E+01  3.07199E+01
   3.22010E+01  4.48783E+01  5.07579E+01  3.61536E+01  3.71825E+01  2.23348E+01  7.80150E+00  3.65998E-01  5.02843E+00 -5.45339E+00
  -1.56293E+01 -1.13747E+01 -4.89399E+00 -1.07624E+01  6.38119E+00  5.54752E+00 -3.05867E+00 -6.21518E+00 -1.35117E+01 -1.59235E+01
  -1.06538E+01 -8.06959E+00 -3.97370E+00 -1.63020E+01 -9.85279E+00 -8.15956E+00 -1.18916E+01 -9.65328E+00 -5.60971E+00 -1.62361E+01
  -1.25168E+01 -2.17901E+01 -1.78435E+01 -1.22835E+01 -5.24580E+00 -3.22869E+01 -1.38154E+01 -1.14023E+01 -2.53778E+01 -3.64837E+00
  -1.95975E+01 -2.22825E+01 -1.74899E+01 -4.50313E+00 -1.02718E+01 -4.95869E+00 -3.93903E+00 -3.64650E+00  6.39090E-01  6.09426E+00
   1.43326E+01  3.19716E-01  9.13011E+00  6.92561E+00  1.92920E+01 -4.65701E-01  5.74755E+00  1.42668E+01  7.73604E+00  7.71670E+00
   1.10838E+01  2.43886E+00 -8.98144E+00 -1.92161E-01 -2.99837E+00  6.53608E+00  3.16417E+00  1.29026E-01  5.88403E+00 -3.46868E+00
  -4.27331E+00  2.55191E+00  2.78780E+00  9.02805E-01 -8.63333E+00  4.53816E+00  8.73337E+00  3.69359E-01  1.11629E+01  3.13685E+00
  -4.06695E-01  5.10877E+00 -4.74323E+00  1.08657E+01  3.64106E+00  1.18388E+00  4.29201E+00  8.42867E-01  1.27705E+01 -6.35541E+00
  -9.41430E-01  3.74482E-01 -5.57771E+00  1.08300E+01  3.02772E+00  4.86783E+00  1.43447E+01  2.17735E+01  1.13803E+01  2.71885E+01
   1.07805E+01  1.56617E+01  1.94620E+01  1.74759E+01  2.58148E+00  1.00132E+01 -2.37395E+00  4.98647E+00 -6.70027E+00  8.46616E+00
  -5.61032E-01 -1.21254E+01  8.48675E-01 -1.18304E+01  3.78795E+00  2.67432E+00 -1.93299E+00  9.05804E+00 -5.89069E-01  1.89382E+01
   9.63026E+00 -1.43399E+00  6.71920E+00  2.52577E+01 -5.56169E+00  8.29594E+00  1.21513E+01  2.17507E+00  1.26213E+01  8.49290E+00
   1.44880E+01  6.05111E+00  1.59540E+01  6.89823E+00  1.24856E+00  2.67089E+00  1.95671E+01  1.57823E+01  1.41768E+01  8.13842E+00
   9.55066E+00  1.84759E+01  1.12359E+01  2.79859E+00  6.88033E+00  1.58037E+01  1.33410E+01  2.78650E+01 -1.50923E+00  1.86332E+01
   2.33340E+01 -2.58048E+00  1.58569E+01  1.49329E+01  2.08501E+01 -2.63881E+00  5.84258E+00  2.46226E+01  6.70508E+00  1.90564E+01
   2.40963E+01  6.45443E+00  4.27661E+00  1.67039E+01 -5.43352E+00 -3.87384E+00  7.63326E+00  8.67454E+00  5.91671E+00  7.95442E-01
   1.63822E+01  1.50330E+01  1.22422E+01 -2.06763E-01  1.13388E+01  1.33619E+01  4.37188E+00  5.87283E+00  2.24798E+00  9.73269E+00
   1.72984E+01  4.80114E+00  4.68864E+00  2.01738E+01  8.67731E+00  1.17903E+00  9.21556E+00  1.48862E+01  1.04812E+01  1.07552E+01
   1.70354E+01  2.23991E+01  9.78221E+00 -4.53645E+00 -7.49577E+00  1.40900E+01  1.51062E+01  2.07568E+01  1.39882E+01  1.19754E+01
   1.48917E+00  1.37958E+01  5.29792E+00 -2.11063E+00  1.48540E+01  1.21339E+01  1.02000E+01  7.64002E+00 -1.39979E+00  8.95621E+00
   2.96825E+00  7.64415E+00  2.93840E+00  2.72835E+00  9.00963E+00  7.56535E+00  1.32810E+01  6.43245E+00  8.55057E+00  1.41324E+01
  -1.85481E+00  2.82672E+01  1.02751E+01  5.10017E+00  8.42101E+00  1.97047E+00 -7.94177E+00  6.51256E+00  7.00010E+00  1.32582E+01
   3.41194E-01 -2.58704E+00  1.47744E+01  7.67010E+00  1.11485E+01  5.05770E+00  1.51199E-01  6.71205E+00
 NY points of the fit to the data follow
  -7.04222E+01 -7.07897E+01 -7.02839E+01 -6.91459E+01 -6.76882E+01 -6.61140E+01 -6.41250E+01 -6.14987E+01 -5.85117E+01 -5.57128E+01
  -5.40186E+01 -5.42466E+01 -5.61763E+01 -5.87383E+01 -6.09661E+01 -6.24688E+01 -6.34004E+01 -6.39902E+01 -6.46292E+01 -6.49417E+01
  -6.46478E+01 -6.40629E+01 -6.31009E+01 -6.19276E+01 -6.06006E+01 -5.91218E+01 -5.73657E+01 -5.53104E+01 -5.31678E+01 -5.12010E+01
  -4.97891E+01 -4.93540E+01 -4.98917E+01 -5.11125E+01 -5.27298E+01 -5.45086E+01 -5.62184E+01 -5.76297E+01 -5.86095E+01 -5.89141E+01
  -5.83966E+01 -5.74784E+01 -5.64759E+01 -5.54365E+01 -5.42125E+01 -5.27906E+01 -5.14267E+01 -5.05095E+01 -5.04137E+01 -5.12470E+01
  -5.26067E+01 -5.38579E+01 -5.45814E+01 -5.47209E+01 -5.44609E+01 -5.40628E+01 -5.36063E+01 -5.30167E+01 -5.22800E+01 -5.15181E+01
  -5.09540E+01 -5.07174E+01 -5.07774E+01 -5.09950E+01 -5.11474E+01 -5.10928E+01 -5.08002E+01 -5.03283E+01 -4.97492E+01 -4.91098E+01
  -4.84475E+01 -4.78021E+01 -4.71832E+01 -4.66423E+01 -4.62315E+01 -4.60037E+01 -4.60043E+01 -4.62098E+01 -4.63950E+01 -4.62944E+01
  -4.58747E+01 -4.51788E+01 -4.42404E+01 -4.31324E+01 -4.20335E+01 -4.11917E+01 -4.08344E+01 -4.11760E+01 -4.21374E+01 -4.33089E+01
  -4.42444E+01 -4.47294E+01 -4.48289E+01 -4.46273E+01 -4.35974E+01 -4.00835E+01 -3.39575E+01 -2.60409E+01 -1.70837E+01 -7.07382E+00
   4.27153E+00  1.58159E+01  2.51193E+01  2.92814E+01  2.61257E+01  1.63581E+01  3.64702E+00 -8.21730E+00 -1.73564E+01 -2.38764E+01
  -2.87870E+01 -3.29563E+01 -3.64260E+01 -3.80204E+01 -3.83987E+01 -3.84567E+01 -3.83585E+01 -3.81051E+01 -3.73439E+01 -3.49652E+01
  -3.08327E+01 -2.55156E+01 -1.94020E+01 -1.24715E+01 -4.46731E+00  3.96394E+00  1.11080E+01  1.48547E+01  1.35462E+01  7.39255E+00
  -1.22787E+00 -9.59187E+00 -1.62967E+01 -2.13590E+01 -2.54268E+01 -2.89919E+01 -3.19519E+01 -3.32962E+01 -3.32604E+01 -3.27095E+01
  -3.20545E+01 -3.15498E+01 -3.13044E+01 -3.12615E+01 -3.13278E+01 -3.14670E+01 -3.16486E+01 -3.18815E+01 -3.21642E+01 -3.24369E+01
  -3.26668E+01 -3.28193E+01 -3.29116E+01 -3.29793E+01 -3.30317E+01 -3.30483E+01 -3.30223E+01 -3.29834E+01 -3.29846E+01 -3.30580E+01
  -3.31680E+01 -3.32313E+01 -3.31602E+01 -3.29247E+01 -3.25967E+01 -3.22975E+01 -3.21128E+01 -3.20734E+01 -3.21311E+01 -3.22094E+01
  -3.22361E+01 -3.22065E+01 -3.21797E+01 -3.22194E+01 -3.23558E+01 -3.24914E+01 -3.25005E+01 -3.23426E+01 -3.20565E+01 -3.17708E+01
  -3.15729E+01 -3.13804E+01 -3.10496E+01 -3.04813E+01 -2.96991E+01 -2.88247E+01 -2.79260E+01 -2.69962E+01 -2.59998E+01 -2.50236E+01
  -2.42695E+01 -2.39138E+01 -2.39992E+01 -2.43775E+01 -2.47967E+01 -2.50320E+01 -2.49168E+01 -2.44072E+01 -2.35603E+01 -2.24945E+01
  -2.13978E+01 -2.04435E+01 -1.98003E+01 -1.95336E+01 -1.96507E+01 -2.01514E+01 -2.09865E+01 -2.19717E+01 -2.26679E+01 -2.27827E+01
  -2.22340E+01 -2.10248E+01 -1.92719E+01 -1.72823E+01 -1.55855E+01 -1.46981E+01 -1.48852E+01 -1.61848E+01 -1.83260E+01 -2.07026E+01
  -2.27215E+01 -2.38081E+01 -2.36402E+01 -2.22834E+01 -2.00461E+01 -1.74624E+01 -1.50475E+01 -1.32465E+01 -1.21749E+01 -1.15604E+01
  -1.10810E+01 -1.05277E+01 -9.85486E+00 -9.08232E+00 -8.24296E+00 -7.52808E+00 -7.11884E+00 -7.00949E+00 -7.12011E+00 -7.33345E+00
  -7.45207E+00 -7.29636E+00 -6.72479E+00 -5.70831E+00 -4.35686E+00 -2.87074E+00 -1.51981E+00 -3.53157E-01  8.70921E-01  2.22431E+00
   3.73852E+00  5.58286E+00  8.37841E+00  1.29805E+01  1.87992E+01  2.48330E+01  3.03069E+01  3.50931E+01  3.95646E+01  4.35496E+01
   4.60409E+01  4.54990E+01  4.07587E+01  3.25169E+01  2.30825E+01  1.46553E+01  8.34373E+00  3.80293E+00  2.58858E-01 -2.78118E+00
  -5.17169E+00 -6.24951E+00 -6.63151E+00 -6.81180E+00 -6.92466E+00 -7.07323E+00 -7.31976E+00 -7.63777E+00 -7.98359E+00 -8.31443E+00
  -8.60377E+00 -8.83747E+00 -9.01674E+00 -9.14383E+00 -9.21970E+00 -9.25804E+00 -9.27213E+00 -9.26991E+00 -9.24959E+00 -9.20187E+00
  -9.11932E+00 -9.00506E+00 -8.85764E+00 -8.67764E+00 -8.46633E+00 -8.22021E+00 -7.92629E+00 -7.57252E+00 -7.14866E+00 -6.64597E+00
  -6.05776E+00 -5.38427E+00 -4.62822E+00 -3.79918E+00 -2.91070E+00 -1.97804E+00 -1.01739E+00 -4.84679E-02  9.06015E-01  1.81878E+00
   2.66486E+00  3.41945E+00  4.06052E+00  4.56985E+00  4.93511E+00  5.14922E+00  5.21268E+00  5.13217E+00  4.92146E+00  4.59899E+00
   4.18791E+00  3.71311E+00  3.20121E+00  2.67766E+00  2.16663E+00  1.68847E+00  1.26014E+00  8.93562E-01  5.97135E-01  3.74823E-01
   2.28094E-01  1.55233E-01  1.53706E-01  2.20190E-01  3.53723E-01  5.56608E-01  8.39232E-01  1.22610E+00  1.77939E+00  2.64412E+00
   3.79439E+00  4.87896E+00  5.74352E+00  6.35127E+00  6.71077E+00  6.61761E+00  5.66855E+00  3.85459E+00  1.55408E+00 -6.82997E-01
  -1.99992E+00 -1.73132E+00  3.18759E-01  3.85083E+00  8.17623E+00  1.24710E+01  1.58587E+01  1.77396E+01  1.79920E+01  1.68241E+01
   1.49180E+01  1.28128E+01  1.07474E+01  8.77486E+00  6.87030E+00  5.24369E+00  4.10716E+00  3.32962E+00  2.81171E+00  2.48752E+00
   2.30555E+00  2.22475E+00  2.21503E+00  2.25495E+00  2.33124E+00  2.43590E+00  2.56580E+00  2.72001E+00  2.89989E+00  3.10707E+00
   3.34415E+00  3.61340E+00  3.91778E+00  4.25957E+00  4.64130E+00  5.06438E+00  5.53021E+00  6.03886E+00  6.59013E+00  7.18207E+00
   7.81190E+00  8.47472E+00  9.16456E+00  9.87330E+00  1.05918E+01  1.13087E+01  1.20120E+01  1.26881E+01  1.33234E+01  1.39039E+01
   1.44167E+01  1.48495E+01  1.51922E+01  1.54363E+01  1.55768E+01  1.56111E+01  1.55400E+01  1.53672E+01  1.50995E+01  1.47459E+01
   1.43181E+01  1.38287E+01  1.32919E+01  1.27216E+01  1.21321E+01  1.15361E+01  1.09461E+01  1.03723E+01  9.82374E+00  9.30710E+00
   8.82776E+00  8.38890E+00  7.99270E+00  7.63941E+00  7.32865E+00  7.05862E+00  6.82738E+00  6.63206E+00  6.47005E+00  6.33805E+00
   6.23327E+00  6.15252E+00  6.09331E+00  6.05287E+00  6.02914E+00  6.01977E+00  6.02313E+00  6.03734E+00  6.06125E+00  6.09338E+00
   6.13292E+00  6.17867E+00  6.23006E+00  6.28616E+00  6.34664E+00  6.41075E+00  6.47830E+00  6.54863E+00  6.62163E+00  6.69679E+00
   6.77413E+00  6.85318E+00  6.93397E+00  7.01608E+00  7.09960E+00  7.18418E+00  7.26996E+00  7.35660E+00  7.44422E+00  7.53248E+00
   7.62157E+00  7.71120E+00  7.80157E+00  7.89237E+00  7.98377E+00  8.07549E+00  8.16776E+00  8.26031E+00  8.35336E+00  8.44662E+00
   8.54029E+00  8.63413E+00  8.72838E+00  8.82279E+00  8.91758E+00  9.01246E+00  9.10768E+00  9.20300E+00  9.29866E+00  9.39441E+00
   9.49048E+00  9.58662E+00  9.68306E+00  9.77959E+00  9.87645E+00  9.97341E+00  1.00707E+01  1.01680E+01  1.02657E+01  1.03635E+01
   1.04617E+01  1.05601E+01  1.06588E+01  1.07577E+01  1.08570E+01  1.09566E+01  1.10567E+01  1.11571E+01
 NY background values follow
    -7.224E+01   -7.197E+01   -7.170E+01   -7.143E+01   -7.116E+01   -7.089E+01   -7.062E+01   -7.035E+01   -7.008E+01   -6.981E+01
    -6.953E+01   -6.926E+01   -6.899E+01   -6.872E+01   -6.845E+01   -6.818E+01   -6.791E+01   -6.764E+01   -6.737E+01   -6.710E+01
    -6.683E+01   -6.656E+01   -6.629E+01   -6.602E+01   -6.575E+01   -6.548E+01   -6.521E+01   -6.494E+01   -6.467E+01   -6.440E+01
    -6.413E+01   -6.386E+01   -6.359E+01   -6.332E+01   -6.305E+01   -6.278E+01   -6.251E+01   -6.225E+01   -6.198E+01   -6.171E+01
    -6.144E+01   -6.117E+01   -6.091E+01   -6.064E+01   -6.037E+01   -6.011E+01   -5.984E+01   -5.957E+01   -5.931E+01   -5.904E+01
    -5.878E+01   -5.851E+01   -5.825E+01   -5.798E+01   -5.772E+01   -5.745E+01   -5.719E+01   -5.693E+01   -5.667E+01   -5.640E+01
    -5.614E+01   -5.588E+01   -5.562E+01   -5.536E+01   -5.510E+01   -5.484E+01   -5.458E+01   -5.432E+01   -5.406E+01   -5.380E+01
    -5.354E+01   -5.328E+01   -5.303E+01   -5.277E+01   -5.251E+01   -5.226E+01   -5.200E+01   -5.175E+01   -5.149E+01   -5.124E+01
    -5.098E+01   -5.073E+01   -5.048E+01   -5.023E+01   -4.998E+01   -4.973E+01   -4.948E+01   -4.923E+01   -4.898E+01   -4.873E+01
    -4.848E+01   -4.823E+01   -4.799E+01   -4.774E+01   -4.749E+01   -4.725E+01   -4.700E+01   -4.676E+01   -4.652E+01   -4.627E+01
    -4.603E+01   -4.579E+01   -4.555E+01   -4.531E+01   -4.507E+01   -4.483E+01   -4.459E+01   -4.436E+01   -4.412E+01   -4.388E+01
    -4.365E+01   -4.341E+01   -4.318E+01   -4.294E+01   -4.271E+01   -4.248E+01   -4.225E+01   -4.201E+01   -4.178E+01   -4.155E+01
    -4.132E+01   -4.110E+01   -4.087E+01   -4.064E+01   -4.041E+01   -4.019E+01   -3.996E+01   -3.974E+01   -3.951E+01   -3.929E+01
    -3.907E+01   -3.885E+01   -3.863E+01   -3.840E+01   -3.818E+01   -3.797E+01   -3.775E+01   -3.753E+01   -3.731E+01   -3.710E+01
    -3.688E+01   -3.667E+01   -3.645E+01   -3.624E+01   -3.602E+01   -3.581E+01   -3.560E+01   -3.539E+01   -3.518E+01   -3.497E+01
    -3.476E+01   -3.455E+01   -3.435E+01   -3.414E+01   -3.393E+01   -3.373E+01   -3.353E+01   -3.332E+01   -3.312E+01   -3.292E+01
    -3.271E+01   -3.251E+01   -3.231E+01   -3.211E+01   -3.191E+01   -3.172E+01   -3.152E+01   -3.132E+01   -3.113E+01   -3.093E+01
    -3.074E+01   -3.054E+01   -3.035E+01   -3.015E+01   -2.996E+01   -2.977E+01   -2.958E+01   -2.939E+01   -2.920E+01   -2.901E+01
    -2.882E+01   -2.864E+01   -2.845E+01   -2.827E+01   -2.808E+01   -2.790E+01   -2.771E+01   -2.753E+01   -2.735E+01   -2.716E+01
    -2.698E+01   -2.680E+01   -2.662E+01   -2.644E+01   -2.627E+01   -2.609E+01   -2.591E+01   -2.573E+01   -2.556E+01   -2.538E+01
    -2.521E+01   -2.503E+01   -2.486E+01   -2.469E+01   -2.452E+01   -2.435E+01   -2.417E+01   -2.400E+01   -2.384E+01   -2.367E+01
    -2.350E+01   -2.333E+01   -2.316E+01   -2.300E+01   -2.283E+01   -2.267E+01   -2.250E+01   -2.234E+01   -2.218E+01   -2.201E+01
    -2.185E+01   -2.169E+01   -2.153E+01   -2.137E+01   -2.121E+01   -2.105E+01   -2.089E+01   -2.073E+01   -2.058E+01   -2.042E+01
    -2.026E+01   -2.011E+01   -1.995E+01   -1.980E+01   -1.965E+01   -1.949E+01   -1.934E+01   -1.919E+01   -1.903E+01   -1.888E+01
    -1.873E+01   -1.858E+01   -1.843E+01   -1.828E+01   -1.813E+01   -1.799E+01   -1.784E+01   -1.769E+01   -1.754E+01   -1.740E+01
    -1.725E+01   -1.711E+01   -1.696E+01   -1.682E+01   -1.667E+01   -1.653E+01   -1.639E+01   -1.624E+01   -1.610E+01   -1.596E+01
    -1.582E+01   -1.567E+01   -1.553E+01   -1.539E+01   -1.525E+01   -1.511E+01   -1.497E+01   -1.483E+01   -1.469E+01   -1.455E+01
    -1.442E+01   -1.428E+01   -1.414E+01   -1.400E+01   -1.386E+01   -1.373E+01   -1.359E+01   -1.345E+01   -1.332E+01   -1.318E+01
    -1.305E+01   -1.291E+01   -1.278E+01   -1.264E+01   -1.251E+01   -1.237E+01   -1.224E+01   -1.211E+01   -1.197E+01   -1.184E+01
    -1.171E+01   -1.157E+01   -1.144E+01   -1.131E+01   -1.118E+01   -1.105E+01   -1.091E+01   -1.078E+01   -1.065E+01   -1.052E+01
    -1.039E+01   -1.026E+01   -1.013E+01   -1.000E+01   -9.872E+00   -9.742E+00   -9.613E+00   -9.484E+00   -9.355E+00   -9.227E+00
    -9.098E+00   -8.970E+00   -8.842E+00   -8.714E+00   -8.587E+00   -8.459E+00   -8.332E+00   -8.205E+00   -8.078E+00   -7.951E+00
    -7.825E+00   -7.699E+00   -7.572E+00   -7.446E+00   -7.321E+00   -7.195E+00   -7.070E+00   -6.944E+00   -6.819E+00   -6.694E+00
    -6.570E+00   -6.445E+00   -6.321E+00   -6.197E+00   -6.073E+00   -5.949E+00   -5.825E+00   -5.702E+00   -5.579E+00   -5.456E+00
    -5.333E+00   -5.210E+00   -5.088E+00   -4.965E+00   -4.843E+00   -4.721E+00   -4.600E+00   -4.478E+00   -4.357E+00   -4.236E+00
    -4.115E+00   -3.994E+00   -3.874E+00   -3.753E+00   -3.633E+00   -3.513E+00   -3.393E+00   -3.274E+00   -3.154E+00   -3.035E+00
    -2.916E+00   -2.798E+00   -2.679E+00   -2.561E+00   -2.442E+00   -2.324E+00   -2.207E+00   -2.089E+00   -1.972E+00   -1.854E+00
    -1.737E+00   -1.621E+00   -1.504E+00   -1.388E+00   -1.271E+00   -1.155E+00   -1.040E+00   -9.240E-01   -8.086E-01   -6.934E-01
    -5.783E-01   -4.635E-01   -3.489E-01   -2.344E-01   -1.202E-01   -6.161E-03    1.077E-01    2.213E-01    3.348E-01    4.480E-01
     5.611E-01    6.739E-01    7.866E-01    8.991E-01    1.011E+00    1.123E+00    1.235E+00    1.347E+00    1.458E+00    1.570E+00
     1.681E+00    1.792E+00    1.902E+00    2.013E+00    2.123E+00    2.233E+00    2.343E+00    2.453E+00    2.563E+00    2.672E+00
     2.781E+00    2.890E+00    2.999E+00    3.107E+00    3.216E+00    3.324E+00    3.432E+00    3.540E+00    3.647E+00    3.754E+00
     3.862E+00    3.969E+00    4.076E+00    4.182E+00    4.289E+00    4.395E+00    4.501E+00    4.607E+00    4.713E+00    4.818E+00
     4.923E+00    5.029E+00    5.133E+00    5.238E+00    5.343E+00    5.447E+00    5.551E+00    5.655E+00    5.759E+00    5.863E+00
     5.966E+00    6.070E+00    6.173E+00    6.276E+00    6.379E+00    6.481E+00    6.583E+00    6.686E+00    6.788E+00    6.890E+00
     6.991E+00    7.093E+00    7.194E+00    7.295E+00    7.396E+00    7.497E+00    7.598E+00    7.698E+00    7.798E+00    7.899E+00
     7.999E+00    8.098E+00    8.198E+00    8.298E+00    8.397E+00    8.497E+00    8.596E+00    8.695E+00    8.794E+00    8.893E+00
     8.991E+00    9.090E+00    9.189E+00    9.287E+00    9.386E+00    9.484E+00    9.582E+00    9.680E+00    9.778E+00    9.876E+00
     9.974E+00    1.007E+01    1.017E+01    1.027E+01    1.037E+01    1.046E+01    1.056E+01    1.066E+01    1.076E+01    1.085E+01
     1.095E+01    1.105E+01    1.115E+01    1.124E+01    1.134E+01    1.144E+01    1.154E+01    1.163E+01
 Asp      Conc. = 2.50E+02
