 LCModel (Version 6.3-1L) Copyright: S.W. Provencher.          Ref.: Magn. Reson. Med. 30:672-679 (1993).                
 Slice#1 Row#1 Col#12  PD_05_press_2_raw_act
 36 lines in following concentration table = NCONC+1
    Conc.  %SD /Cr+PCr  Metabolite                                         
    0.000 999%   0.000 Ala                                                 
   11.343  92%   0.143 Asp                                                 
   79.320  65%   1.000 Cr                                                  
    0.000 999%   0.000 PCr                                                 
    6.684  94% 8.4E-02 GABA                                                
    6.833  92% 8.6E-02 Glc                                                 
   77.436 219%   0.976 Gln                                                 
  306.442  69%   3.863 Glu                                                 
   13.393 708%   0.169 GPC                                                 
    0.000 999%   0.000 PCh                                                 
   18.079 361%   0.228 GSH                                                 
    0.704 999% 8.9E-03 Ins                                                 
  150.501  70%   1.897 Lac                                                 
  105.540  55%   1.331 NAA                                                 
    0.000 999%   0.000 NAAG                                                
    2.337  89% 2.9E-02 Scyllo                                              
   11.237  93%   0.142 Tau                                                 
    6.072 205% 7.7E-02 -CrCH2                                              
   13.393 143%   0.169 GPC+PCh                                             
  105.540  55%   1.331 NAA+NAAG                                            
   79.320  65%   1.000 Cr+PCr                                              
  383.878  68%   4.840 Glu+Gln                                             
    0.000 999%   0.000 Lip13a                                              
    0.000 999%   0.000 Lip13b                                              
   10.794 477%   0.136 Lip09                                               
  491.973  34%   6.202 MM09                                                
    0.000 999%   0.000 Lip20                                               
    0.000 999%   0.000 MM20                                                
  125.079 111%   1.577 MM12                                                
  796.869  34%  10.046 MM14                                                
    0.000 999%   0.000 MM17                                                
    0.000 999%   0.000 Lip13a+Lip13b                                       
  921.948  33%  11.623 MM14+Lip13a+Lip13b+MM12                             
  502.767  33%   6.339 MM09+Lip09                                          
    0.000 999%   0.000 MM20+Lip20                                          
   6 lines in following misc. output table
  FWHM = 0.038 ppm    S/N =   1                                            
  Data shift = 0.008 ppm                                                   
  Ph: -68 deg     -41.7 deg/ppm                                            
  alphaB,S = 8.5E+01,   1.3E+01                                            
   14 spline knots.   Ns = 5(1)                                            
   2 inflections.     2 extrema                                            
  498 points on ppm-axis = NY
      4.000000     3.992357     3.984714     3.977070     3.969427     3.961784     3.954141     3.946497     3.938854     3.931211
      3.923568     3.915925     3.908281     3.900638     3.892995     3.885352     3.877708     3.870065     3.862422     3.854779
      3.847136     3.839492     3.831849     3.824206     3.816563     3.808919     3.801276     3.793633     3.785990     3.778347
      3.770703     3.763060     3.755417     3.747774     3.740130     3.732487     3.724844     3.717201     3.709558     3.701914
      3.694271     3.686628     3.678985     3.671341     3.663698     3.656055     3.648412     3.640769     3.633125     3.625482
      3.617839     3.610196     3.602552     3.594909     3.587266     3.579623     3.571980     3.564336     3.556693     3.549050
      3.541407     3.533763     3.526120     3.518477     3.510834     3.503191     3.495547     3.487904     3.480261     3.472618
      3.464974     3.457331     3.449688     3.442045     3.434402     3.426758     3.419115     3.411472     3.403829     3.396185
      3.388542     3.380899     3.373256     3.365613     3.357969     3.350326     3.342683     3.335040     3.327396     3.319753
      3.312110     3.304467     3.296824     3.289180     3.281537     3.273894     3.266251     3.258607     3.250964     3.243321
      3.235678     3.228034     3.220391     3.212748     3.205105     3.197462     3.189818     3.182175     3.174532     3.166889
      3.159245     3.151602     3.143959     3.136316     3.128673     3.121029     3.113386     3.105743     3.098100     3.090456
      3.082813     3.075170     3.067527     3.059884     3.052240     3.044597     3.036954     3.029311     3.021667     3.014024
      3.006381     2.998738     2.991095     2.983451     2.975808     2.968165     2.960522     2.952878     2.945235     2.937592
      2.929949     2.922306     2.914662     2.907019     2.899376     2.891733     2.884089     2.876446     2.868803     2.861160
      2.853517     2.845873     2.838230     2.830587     2.822944     2.815300     2.807657     2.800014     2.792371     2.784728
      2.777084     2.769441     2.761798     2.754155     2.746511     2.738868     2.731225     2.723582     2.715939     2.708295
      2.700652     2.693009     2.685366     2.677722     2.670079     2.662436     2.654793     2.647150     2.639506     2.631863
      2.624220     2.616577     2.608933     2.601290     2.593647     2.586004     2.578361     2.570717     2.563074     2.555431
      2.547788     2.540144     2.532501     2.524858     2.517215     2.509572     2.501928     2.494285     2.486642     2.478999
      2.471355     2.463712     2.456069     2.448426     2.440783     2.433139     2.425496     2.417853     2.410210     2.402566
      2.394923     2.387280     2.379637     2.371994     2.364350     2.356707     2.349064     2.341421     2.333777     2.326134
      2.318491     2.310848     2.303205     2.295561     2.287918     2.280275     2.272632     2.264988     2.257345     2.249702
      2.242059     2.234416     2.226772     2.219129     2.211486     2.203843     2.196199     2.188556     2.180913     2.173270
      2.165627     2.157983     2.150340     2.142697     2.135054     2.127410     2.119767     2.112124     2.104481     2.096838
      2.089194     2.081551     2.073908     2.066265     2.058621     2.050978     2.043335     2.035692     2.028049     2.020405
      2.012762     2.005119     1.997476     1.989833     1.982190     1.974546     1.966903     1.959260     1.951617     1.943974
      1.936331     1.928688     1.921045     1.913402     1.905759     1.898115     1.890472     1.882829     1.875186     1.867543
      1.859900     1.852257     1.844614     1.836971     1.829327     1.821684     1.814041     1.806398     1.798755     1.791112
      1.783469     1.775826     1.768183     1.760540     1.752896     1.745253     1.737610     1.729967     1.722324     1.714681
      1.707038     1.699395     1.691752     1.684108     1.676465     1.668822     1.661179     1.653536     1.645893     1.638250
      1.630607     1.622964     1.615321     1.607677     1.600034     1.592391     1.584748     1.577105     1.569462     1.561819
      1.554176     1.546533     1.538890     1.531246     1.523603     1.515960     1.508317     1.500674     1.493031     1.485388
      1.477745     1.470102     1.462458     1.454815     1.447172     1.439529     1.431886     1.424243     1.416600     1.408957
      1.401314     1.393671     1.386027     1.378384     1.370741     1.363098     1.355455     1.347812     1.340169     1.332526
      1.324883     1.317240     1.309596     1.301953     1.294310     1.286667     1.279024     1.271381     1.263738     1.256095
      1.248452     1.240808     1.233165     1.225522     1.217879     1.210236     1.202593     1.194950     1.187307     1.179664
      1.172021     1.164377     1.156734     1.149091     1.141448     1.133805     1.126162     1.118519     1.110876     1.103233
      1.095590     1.087946     1.080303     1.072660     1.065017     1.057374     1.049731     1.042088     1.034445     1.026802
      1.019158     1.011515     1.003872     0.996229     0.988586     0.980943     0.973300     0.965657     0.958014     0.950371
      0.942727     0.935084     0.927441     0.919798     0.912155     0.904512     0.896869     0.889226     0.881583     0.873940
      0.866296     0.858653     0.851010     0.843367     0.835724     0.828081     0.820438     0.812795     0.805152     0.797508
      0.789865     0.782222     0.774579     0.766936     0.759293     0.751650     0.744007     0.736364     0.728721     0.721077
      0.713434     0.705791     0.698148     0.690505     0.682862     0.675219     0.667576     0.659933     0.652290     0.644646
      0.637003     0.629360     0.621717     0.614074     0.606431     0.598788     0.591145     0.583502     0.575858     0.568215
      0.560572     0.552929     0.545286     0.537643     0.530000     0.522357     0.514714     0.507071     0.499427     0.491784
      0.484141     0.476498     0.468855     0.461212     0.453569     0.445925     0.438282     0.430639     0.422996     0.415353
      0.407710     0.400067     0.392424     0.384780     0.377137     0.369494     0.361851     0.354208     0.346565     0.338922
      0.331278     0.323635     0.315992     0.308349     0.300706     0.293063     0.285420     0.277777     0.270133     0.262490
      0.254847     0.247204     0.239561     0.231918     0.224275     0.216631     0.208988     0.201345
 NY phased data points follow
   8.02840E+00  1.65883E+01 -2.09837E+00 -2.74299E+00 -8.69806E+00  5.17914E+00  4.68172E+00  3.69545E+00  3.78185E+00  3.24754E-01
   4.49131E-01  1.43447E+01  8.68503E+00  2.23190E+00  3.97931E-01 -1.52657E+01  2.72657E+00 -8.71699E-01  1.14442E+01  6.29028E+00
   3.05227E+00  2.85509E-01 -3.46087E+00 -5.14149E+00  8.36925E-02  2.98573E+00  1.23486E+00 -3.59986E+00  1.55695E+00 -3.61330E+00
   5.48801E+00 -1.54685E+00  6.00046E+00  4.48175E-01 -1.95940E+00 -5.54325E+00 -3.68113E+00 -1.15404E+00 -4.48374E-01 -8.08891E-01
   4.79332E+00  1.24697E+00 -1.82719E+00  9.66788E-01 -1.02973E+00 -3.61833E+00 -7.51774E+00  1.10030E+00 -1.30612E+00  3.72579E+00
   4.96877E+00 -6.17207E+00 -3.19269E+00 -8.27300E+00 -2.86734E+00  1.21092E+00 -1.23589E+00 -6.21230E+00 -1.58189E+00  7.33973E-01
   1.20704E+01  2.74958E+00  1.85433E+00  6.95047E+00  3.01810E+00  1.54216E-01  5.42187E+00 -4.46957E+00  1.47911E-01 -5.87839E+00
  -1.54172E+00  8.63416E+00  1.79277E+00 -1.94536E+00  7.13172E+00 -2.24136E+00  4.06908E-01  2.20563E+00 -1.59728E-01  6.13392E+00
   3.86450E+00  7.24864E-01 -7.61437E+00  2.17737E+00 -5.37945E+00  8.56490E+00  6.21151E+00 -2.77307E+00  6.53278E+00  2.34826E+00
  -1.13692E+00 -4.26553E+00 -1.43081E+00  3.35579E+00  5.61966E+00 -1.02157E+01 -8.46817E+00 -6.61472E-01 -3.67950E-01  2.09416E+00
  -1.02333E+01  7.78130E+00  5.46582E+00  1.76819E+00  4.60750E+00 -6.02845E+00  8.36431E+00 -6.17396E+00  7.45857E+00 -3.26685E+00
  -3.49809E-01  1.00295E+01  2.10647E+00  6.37324E+00  7.91490E-01  1.16502E+00  1.95124E+00 -3.43223E+00  3.62076E+00  9.59755E+00
   1.12255E+00 -6.19479E+00 -2.48254E+00 -6.21618E-01  4.47736E+00  2.20551E+00  2.12148E-01  2.84639E+00 -8.27370E-01  3.08491E+00
  -8.18177E-01  5.07820E+00  2.71935E+00 -3.23673E+00  2.57345E+00 -4.60325E+00  5.76461E+00  2.64747E+00  3.54906E+00  2.04356E+00
   2.99189E+00  4.27590E+00 -9.42561E+00  1.01785E+01 -4.16073E+00  4.14581E+00  7.73908E+00  1.30832E+00  8.62859E+00  7.80731E+00
   2.24079E+00  4.33257E+00  4.85475E+00 -5.03984E-01  3.06418E+00  1.17556E+00  4.75753E+00 -2.89076E+00  1.04743E+01 -6.96680E+00
  -3.89201E+00  5.11459E+00 -1.13195E+01  7.05160E-01  4.47797E-01 -2.84612E+00  1.05786E+01  5.24411E+00  2.18881E+00  1.12290E+01
  -5.57308E+00  1.81042E+00  3.74217E+00 -1.90788E+00  2.67270E+00 -4.08678E+00  6.05049E+00 -8.87444E+00  1.18512E+01  2.63674E+00
   6.16123E-01  5.48297E+00  2.04425E+00  7.02244E+00  6.41169E+00  6.67858E+00 -4.76341E+00 -3.74902E+00  7.88147E+00 -4.36328E+00
  -1.00987E+01  6.32994E+00  8.94261E-01  7.87091E+00 -4.79904E-01  6.17178E+00  5.90757E-01  6.19081E+00 -5.20532E-01  1.12379E+01
   4.29037E+00  2.43259E+00  3.89954E+00  5.66017E+00  3.21390E+00 -3.76629E+00 -2.57853E+00  2.14038E+00 -4.31527E+00  7.31695E-01
  -1.24291E+00  5.58004E+00  5.01159E+00  7.29269E+00  8.67461E+00 -3.83777E+00  4.85314E+00 -3.88644E+00  1.73662E+00  2.77330E+00
   3.59367E+00  8.12214E-01 -6.71777E-01 -1.21886E+01  1.00759E+01  4.41822E+00  4.46908E+00  3.35075E+00 -7.94892E-01  5.42265E-01
   3.10739E+00  1.03546E+01 -1.16056E+00 -4.28899E+00  8.15896E+00  3.53644E+00 -2.36972E+00 -2.53798E-01  5.62901E-01 -1.39882E+00
   3.49371E+00  1.00731E+00  6.14134E+00 -6.80458E+00  1.06359E+01  1.96778E+00  1.02581E+01  7.47226E+00 -4.71551E+00 -2.36655E+00
  -5.42259E-01  7.82440E-01 -7.89076E+00  8.92263E-02  2.27500E+00  6.61289E+00  5.73529E+00  3.07508E+00  2.77263E+00  1.12100E+01
   1.27443E+01  1.24546E+01 -5.49498E+00  5.66106E+00  3.91577E-01 -2.14650E-01  3.58561E+00 -2.44945E+00  8.70269E-01  2.15087E-01
  -1.58674E+00 -1.12197E+00  3.25777E+00  2.38462E-01  4.95000E+00 -1.84716E-01  5.40371E+00 -2.48712E+00  4.63242E+00  3.76092E+00
   6.53736E+00 -3.26532E+00  6.82367E+00  5.87950E+00  1.05472E+01  3.25575E+00 -6.11145E-02  9.03635E+00  6.44771E+00  2.15170E+00
   2.07093E+00  2.62965E+00  8.99962E+00  7.78749E-01  7.00616E+00 -1.54648E-01  8.92074E+00  6.59435E+00 -3.46596E+00  3.55200E+00
   2.56805E+00  3.44682E+00  2.19554E+00  2.10069E-01  8.89537E+00 -4.14741E+00  8.48130E+00 -1.30224E+00  2.47997E+00  3.45093E+00
   1.42080E+01  4.42594E+00  3.86331E-01  9.21171E+00  5.62915E+00  3.78119E+00  5.77992E-01  6.75174E+00 -2.43340E+00  8.21367E+00
   1.07614E+01  7.11477E-01  2.21555E+00  7.62973E+00  1.57188E+01 -2.13393E+00  7.84893E+00  1.37316E+01  2.23556E+01  2.44475E+01
   1.96836E+01  3.21307E+00  1.57869E+01  1.79635E+01  1.61294E+01  3.94575E+00  1.13985E+01  3.79427E+00  1.66851E+01 -4.70778E+00
   8.20982E-01  9.89548E+00  4.41398E+00  6.20335E-01 -1.69789E+00  5.01929E+00  3.95482E+00  5.73669E+00 -4.82685E-01 -1.43769E+00
   2.76026E+00 -7.65782E+00 -8.27968E+00  9.25482E+00  5.81083E+00  5.04642E+00  7.21503E+00  8.89900E+00  6.91853E+00 -1.76281E+00
   1.35735E+01  1.12689E+01  7.21831E-01  7.11854E+00  7.01199E+00  8.86453E+00 -1.94451E+00 -7.26646E-01  3.45081E-01  1.50391E+01
   1.24642E+01  7.21936E+00  2.58137E+00  4.62903E+00  7.37511E+00  4.75730E+00  1.43046E+01  1.10160E+01  1.21038E+01  7.91031E+00
   1.08409E+01  4.13763E+00  2.56351E+00  2.93138E+00  2.96715E+00  1.17854E+01  1.03518E+01  8.08884E+00  1.02633E+01  1.32878E+01
   1.36198E+01  2.59173E+00  8.93960E+00  9.32958E+00  8.81355E+00  1.29371E+01  1.46935E+01  8.92536E+00  3.05388E+00  1.24900E+00
   3.12739E+00  1.51277E+01  2.30738E+00  1.59551E+01  1.78004E+01  5.10118E+00 -2.41035E-01  1.64117E+00  1.14305E+01  1.41411E+01
   8.36765E+00  1.32762E+01  1.06879E+01  9.60482E+00  5.04907E+00  1.01201E+01  5.88395E+00  9.93858E+00  5.06458E+00  6.31807E+00
   3.67583E+00  1.08727E+01  4.19809E+00  6.46909E+00  1.70709E+01 -1.42287E+00  8.34973E+00  9.67200E+00  1.20460E+01  6.54788E+00
   2.02512E+01  4.55552E+00  4.28531E+00  1.07229E+01  1.62859E+01  9.65281E+00  5.27500E+00  3.29801E+00  1.03273E+01  9.00747E+00
   4.47434E+00  6.32558E+00  4.27641E+00  1.32996E+01 -1.82887E+00  6.67527E+00  7.46623E+00  1.20324E+01  6.46522E+00  1.68198E+01
   1.07269E+01  6.26297E+00  1.17051E+01  7.52775E+00  8.86999E+00  1.12484E+01  1.04405E+01  1.87174E+00  6.45714E+00  1.01163E+01
   5.27526E+00  3.00311E+00 -3.51863E+00  6.32291E+00  7.23331E+00  2.53098E+00  4.57824E+00  5.89902E+00  9.18479E+00  4.04437E+00
   6.20756E+00  7.47650E+00  4.10561E+00  5.99207E+00  6.81305E+00  5.40512E+00  1.30249E+01  7.33741E+00  4.69651E+00  5.43802E+00
   8.57160E+00  1.12756E+01 -2.20692E-02  4.93694E+00  1.19029E+01  8.44012E+00  5.33318E-01  1.29064E+01  1.02344E+01  9.25143E+00
   5.77082E+00  6.00818E+00  7.93918E+00  1.22851E+01  7.69371E+00  9.12217E-01 -2.48740E+00  3.45681E+00
 NY points of the fit to the data follow
  -1.14746E+00 -1.01258E+00 -9.23092E-01 -8.80274E-01 -8.62620E-01 -8.14407E-01 -5.80819E-01 -8.44266E-02  5.82111E-01  1.29229E+00
   1.80132E+00  1.82736E+00  1.27466E+00  3.79002E-01 -4.37931E-01 -8.72067E-01 -8.89213E-01 -7.06681E-01 -5.60387E-01 -4.74621E-01
  -3.66369E-01 -2.27218E-01 -1.27647E-01 -1.72668E-01 -3.76306E-01 -6.71697E-01 -9.47900E-01 -9.88240E-01 -6.20004E-01  1.30991E-01
   9.84558E-01  1.55248E+00  1.54659E+00  9.07162E-01 -9.69710E-02 -1.02501E+00 -1.55475E+00 -1.53175E+00 -1.03139E+00 -3.52419E-01
   1.74688E-01  3.77959E-01  2.97285E-01  8.21525E-02 -1.09819E-01 -1.97245E-01 -2.13447E-01 -2.11063E-01 -1.98567E-01 -1.81950E-01
  -1.69973E-01 -1.66829E-01 -1.72945E-01 -1.84724E-01 -1.92476E-01 -1.91429E-01 -1.85754E-01 -1.79373E-01 -1.70246E-01 -1.56293E-01
  -1.38266E-01 -1.18278E-01 -9.78294E-02 -7.88093E-02 -5.96314E-02 -4.36418E-02 -3.49220E-02 -3.26590E-02 -3.25485E-02 -2.86484E-02
  -1.07685E-02  2.77537E-02  7.91122E-02  1.30930E-01  1.69428E-01  1.80411E-01  1.59026E-01  1.21077E-01  9.13233E-02  8.89933E-02
   1.22708E-01  1.93568E-01  2.82545E-01  3.66072E-01  4.32940E-01  4.69266E-01  4.63217E-01  4.18213E-01  3.55700E-01  3.03330E-01
   2.78934E-01  2.80151E-01  2.89205E-01  2.98726E-01  3.25055E-01  3.79713E-01  4.65339E-01  6.13846E-01  9.31780E-01  1.39270E+00
   1.91003E+00  2.36863E+00  2.57901E+00  2.38695E+00  1.81559E+00  1.11376E+00  5.77131E-01  3.62229E-01  4.16679E-01  5.45735E-01
   6.09620E-01  6.29297E-01  6.44265E-01  6.61507E-01  6.80232E-01  6.96918E-01  7.12159E-01  7.27450E-01  7.44345E-01  7.70278E-01
   8.23748E-01  9.75422E-01  1.46797E+00  2.34761E+00  3.42338E+00  4.45190E+00  5.04632E+00  4.84572E+00  3.82004E+00  2.41394E+00
   1.23682E+00  6.58109E-01  6.42606E-01  8.26631E-01  8.87082E-01  8.41879E-01  8.22862E-01  8.71395E-01  9.74993E-01  1.09447E+00
   1.18478E+00  1.22511E+00  1.22316E+00  1.19875E+00  1.17583E+00  1.16551E+00  1.16436E+00  1.16609E+00  1.16815E+00  1.17148E+00
   1.17850E+00  1.18949E+00  1.20372E+00  1.22080E+00  1.24123E+00  1.26001E+00  1.26274E+00  1.24496E+00  1.21312E+00  1.18266E+00
   1.18211E+00  1.22481E+00  1.30400E+00  1.39040E+00  1.44463E+00  1.44503E+00  1.40237E+00  1.35415E+00  1.33149E+00  1.33693E+00
   1.35392E+00  1.35772E+00  1.34014E+00  1.32216E+00  1.31781E+00  1.33716E+00  1.37898E+00  1.43272E+00  1.47783E+00  1.49542E+00
   1.49073E+00  1.48547E+00  1.49591E+00  1.52598E+00  1.56416E+00  1.60467E+00  1.67056E+00  1.78306E+00  1.92616E+00  2.04286E+00
   2.08547E+00  2.03901E+00  1.93215E+00  1.81223E+00  1.72727E+00  1.70033E+00  1.74453E+00  1.87080E+00  2.07412E+00  2.33631E+00
   2.62459E+00  2.87949E+00  3.00711E+00  2.96663E+00  2.72754E+00  2.24893E+00  1.62599E+00  1.02745E+00  6.26888E-01  6.15472E-01
   1.12947E+00  2.19395E+00  3.46968E+00  4.56597E+00  5.14750E+00  4.96049E+00  3.97911E+00  2.40121E+00  6.79938E-01 -6.35799E-01
  -1.19671E+00 -9.42096E-01  9.97522E-03  1.38440E+00  2.79548E+00  3.79073E+00  4.11750E+00  3.87345E+00  3.38738E+00  2.95789E+00
   2.67771E+00  2.51937E+00  2.49818E+00  2.60145E+00  2.75245E+00  2.88199E+00  2.96998E+00  2.99714E+00  2.90321E+00  2.71068E+00
   2.48530E+00  2.31600E+00  2.29187E+00  2.45379E+00  2.71201E+00  2.90803E+00  2.95036E+00  2.84217E+00  2.66643E+00  2.55191E+00
   2.60096E+00  2.80543E+00  3.08874E+00  3.32131E+00  3.46193E+00  3.79208E+00  4.62309E+00  5.87469E+00  7.34651E+00  8.55124E+00
   8.82524E+00  7.85177E+00  6.01719E+00  4.16775E+00  2.99864E+00  2.69801E+00  2.90033E+00  3.08626E+00  3.11805E+00  3.13465E+00
   3.17719E+00  3.26052E+00  3.39073E+00  3.52992E+00  3.62557E+00  3.65294E+00  3.62031E+00  3.56020E+00  3.50630E+00  3.47633E+00
   3.47057E+00  3.48609E+00  3.51861E+00  3.55747E+00  3.59240E+00  3.61874E+00  3.63751E+00  3.65336E+00  3.66965E+00  3.68712E+00
   3.70653E+00  3.72798E+00  3.75101E+00  3.77534E+00  3.80145E+00  3.82984E+00  3.86015E+00  3.89222E+00  3.92673E+00  3.96415E+00
   4.00477E+00  4.04913E+00  4.09756E+00  4.15019E+00  4.20731E+00  4.26965E+00  4.33831E+00  4.41458E+00  4.49963E+00  4.59425E+00
   4.69902E+00  4.81461E+00  4.94174E+00  5.08099E+00  5.23279E+00  5.39723E+00  5.57407E+00  5.76267E+00  5.96208E+00  6.17097E+00
   6.38755E+00  6.60951E+00  6.83413E+00  7.05833E+00  7.27883E+00  7.49215E+00  7.69470E+00  7.88290E+00  8.05334E+00  8.20306E+00
   8.32964E+00  8.43134E+00  8.50708E+00  8.55670E+00  8.58111E+00  8.58256E+00  8.56482E+00  8.53352E+00  8.49703E+00  8.46862E+00
   8.47241E+00  8.56365E+00  8.85946E+00  9.26691E+00  9.46887E+00  9.24734E+00  8.38960E+00  6.85070E+00  4.92836E+00  3.20890E+00
   2.40507E+00  2.77686E+00  4.02778E+00  5.66472E+00  7.19198E+00  8.25061E+00  8.56281E+00  8.09025E+00  7.19578E+00  6.37332E+00
   5.94695E+00  5.87664E+00  5.89568E+00  5.88209E+00  5.85939E+00  5.83817E+00  5.82035E+00  5.80590E+00  5.79436E+00  5.78531E+00
   5.77856E+00  5.77421E+00  5.77257E+00  5.77403E+00  5.77906E+00  5.78824E+00  5.80231E+00  5.82214E+00  5.84866E+00  5.88280E+00
   5.92550E+00  5.97774E+00  6.04056E+00  6.11498E+00  6.20192E+00  6.30215E+00  6.41628E+00  6.54469E+00  6.68750E+00  6.84442E+00
   7.01468E+00  7.19698E+00  7.38943E+00  7.58960E+00  7.79447E+00  8.00047E+00  8.20352E+00  8.39920E+00  8.58292E+00  8.75011E+00
   8.89641E+00  9.01784E+00  9.11102E+00  9.17336E+00  9.20325E+00  9.20007E+00  9.16427E+00  9.09728E+00  9.00149E+00  8.88009E+00
   8.73693E+00  8.57629E+00  8.40266E+00  8.22052E+00  8.03420E+00  7.84770E+00  7.66458E+00  7.48784E+00  7.31990E+00  7.16254E+00
   7.01702E+00  6.88404E+00  6.76389E+00  6.65643E+00  6.56123E+00  6.47763E+00  6.40481E+00  6.34190E+00  6.28796E+00  6.24205E+00
   6.20328E+00  6.17080E+00  6.14383E+00  6.12169E+00  6.10375E+00  6.08946E+00  6.07833E+00  6.06995E+00  6.06396E+00  6.06007E+00
   6.05802E+00  6.05756E+00  6.05851E+00  6.06070E+00  6.06399E+00  6.06827E+00  6.07341E+00  6.07934E+00  6.08595E+00  6.09320E+00
   6.10103E+00  6.10938E+00  6.11820E+00  6.12744E+00  6.13707E+00  6.14707E+00  6.15740E+00  6.16803E+00  6.17894E+00  6.19009E+00
   6.20149E+00  6.21311E+00  6.22494E+00  6.23696E+00  6.24916E+00  6.26151E+00  6.27403E+00  6.28669E+00  6.29949E+00  6.31241E+00
   6.32544E+00  6.33859E+00  6.35185E+00  6.36522E+00  6.37867E+00  6.39221E+00  6.40584E+00  6.41954E+00  6.43332E+00  6.44718E+00
   6.46109E+00  6.47507E+00  6.48911E+00  6.50321E+00  6.51738E+00  6.53159E+00  6.54585E+00  6.56015E+00  6.57451E+00  6.58891E+00
   6.60336E+00  6.61784E+00  6.63236E+00  6.64692E+00  6.66153E+00  6.67617E+00  6.69085E+00  6.70556E+00
 NY background values follow
    -1.141E+00   -1.126E+00   -1.110E+00   -1.094E+00   -1.078E+00   -1.063E+00   -1.047E+00   -1.031E+00   -1.016E+00   -1.000E+00
    -9.845E-01   -9.688E-01   -9.531E-01   -9.374E-01   -9.218E-01   -9.061E-01   -8.904E-01   -8.747E-01   -8.591E-01   -8.434E-01
    -8.277E-01   -8.120E-01   -7.964E-01   -7.807E-01   -7.650E-01   -7.494E-01   -7.337E-01   -7.180E-01   -7.023E-01   -6.867E-01
    -6.710E-01   -6.553E-01   -6.396E-01   -6.240E-01   -6.083E-01   -5.926E-01   -5.769E-01   -5.613E-01   -5.456E-01   -5.299E-01
    -5.143E-01   -4.986E-01   -4.829E-01   -4.672E-01   -4.516E-01   -4.359E-01   -4.202E-01   -4.045E-01   -3.889E-01   -3.732E-01
    -3.575E-01   -3.418E-01   -3.262E-01   -3.105E-01   -2.948E-01   -2.791E-01   -2.635E-01   -2.478E-01   -2.321E-01   -2.165E-01
    -2.008E-01   -1.851E-01   -1.694E-01   -1.538E-01   -1.381E-01   -1.224E-01   -1.067E-01   -9.107E-02   -7.539E-02   -5.972E-02
    -4.405E-02   -2.837E-02   -1.270E-02    2.974E-03    1.865E-02    3.432E-02    5.000E-02    6.567E-02    8.134E-02    9.702E-02
     1.127E-01    1.284E-01    1.440E-01    1.597E-01    1.754E-01    1.911E-01    2.067E-01    2.224E-01    2.381E-01    2.538E-01
     2.694E-01    2.851E-01    3.008E-01    3.164E-01    3.321E-01    3.478E-01    3.635E-01    3.791E-01    3.948E-01    4.105E-01
     4.262E-01    4.418E-01    4.575E-01    4.732E-01    4.889E-01    5.045E-01    5.202E-01    5.359E-01    5.516E-01    5.672E-01
     5.829E-01    5.986E-01    6.142E-01    6.299E-01    6.456E-01    6.613E-01    6.769E-01    6.926E-01    7.083E-01    7.240E-01
     7.396E-01    7.553E-01    7.710E-01    7.867E-01    8.023E-01    8.180E-01    8.337E-01    8.494E-01    8.650E-01    8.807E-01
     8.964E-01    9.120E-01    9.277E-01    9.434E-01    9.591E-01    9.747E-01    9.904E-01    1.006E+00    1.022E+00    1.037E+00
     1.053E+00    1.069E+00    1.084E+00    1.100E+00    1.116E+00    1.131E+00    1.147E+00    1.163E+00    1.179E+00    1.194E+00
     1.210E+00    1.226E+00    1.241E+00    1.257E+00    1.273E+00    1.288E+00    1.304E+00    1.320E+00    1.335E+00    1.351E+00
     1.367E+00    1.382E+00    1.398E+00    1.414E+00    1.429E+00    1.445E+00    1.461E+00    1.476E+00    1.492E+00    1.508E+00
     1.523E+00    1.539E+00    1.555E+00    1.570E+00    1.586E+00    1.602E+00    1.617E+00    1.633E+00    1.649E+00    1.664E+00
     1.680E+00    1.696E+00    1.711E+00    1.727E+00    1.743E+00    1.758E+00    1.774E+00    1.790E+00    1.805E+00    1.821E+00
     1.837E+00    1.852E+00    1.868E+00    1.884E+00    1.900E+00    1.915E+00    1.931E+00    1.947E+00    1.962E+00    1.978E+00
     1.994E+00    2.009E+00    2.025E+00    2.041E+00    2.056E+00    2.072E+00    2.088E+00    2.103E+00    2.119E+00    2.135E+00
     2.150E+00    2.166E+00    2.182E+00    2.197E+00    2.213E+00    2.229E+00    2.244E+00    2.260E+00    2.276E+00    2.291E+00
     2.307E+00    2.323E+00    2.338E+00    2.354E+00    2.370E+00    2.385E+00    2.401E+00    2.417E+00    2.432E+00    2.448E+00
     2.464E+00    2.479E+00    2.495E+00    2.511E+00    2.527E+00    2.542E+00    2.558E+00    2.574E+00    2.589E+00    2.605E+00
     2.621E+00    2.636E+00    2.652E+00    2.668E+00    2.683E+00    2.699E+00    2.715E+00    2.730E+00    2.746E+00    2.762E+00
     2.777E+00    2.793E+00    2.809E+00    2.824E+00    2.840E+00    2.856E+00    2.871E+00    2.887E+00    2.903E+00    2.918E+00
     2.934E+00    2.950E+00    2.965E+00    2.981E+00    2.997E+00    3.012E+00    3.028E+00    3.044E+00    3.059E+00    3.075E+00
     3.091E+00    3.106E+00    3.122E+00    3.138E+00    3.154E+00    3.169E+00    3.185E+00    3.201E+00    3.216E+00    3.232E+00
     3.248E+00    3.263E+00    3.279E+00    3.295E+00    3.310E+00    3.326E+00    3.342E+00    3.357E+00    3.373E+00    3.389E+00
     3.404E+00    3.420E+00    3.436E+00    3.451E+00    3.467E+00    3.483E+00    3.498E+00    3.514E+00    3.530E+00    3.545E+00
     3.561E+00    3.577E+00    3.592E+00    3.608E+00    3.624E+00    3.639E+00    3.655E+00    3.671E+00    3.686E+00    3.702E+00
     3.718E+00    3.734E+00    3.749E+00    3.765E+00    3.781E+00    3.796E+00    3.812E+00    3.828E+00    3.843E+00    3.859E+00
     3.875E+00    3.890E+00    3.906E+00    3.922E+00    3.937E+00    3.953E+00    3.969E+00    3.984E+00    4.000E+00    4.016E+00
     4.031E+00    4.047E+00    4.063E+00    4.078E+00    4.094E+00    4.110E+00    4.125E+00    4.141E+00    4.157E+00    4.172E+00
     4.188E+00    4.204E+00    4.219E+00    4.235E+00    4.251E+00    4.266E+00    4.282E+00    4.298E+00    4.314E+00    4.329E+00
     4.345E+00    4.361E+00    4.376E+00    4.392E+00    4.408E+00    4.423E+00    4.439E+00    4.455E+00    4.470E+00    4.486E+00
     4.502E+00    4.517E+00    4.533E+00    4.549E+00    4.564E+00    4.580E+00    4.596E+00    4.611E+00    4.627E+00    4.643E+00
     4.658E+00    4.674E+00    4.690E+00    4.705E+00    4.721E+00    4.737E+00    4.752E+00    4.768E+00    4.784E+00    4.799E+00
     4.815E+00    4.831E+00    4.846E+00    4.862E+00    4.878E+00    4.894E+00    4.909E+00    4.925E+00    4.941E+00    4.956E+00
     4.972E+00    4.988E+00    5.003E+00    5.019E+00    5.035E+00    5.050E+00    5.066E+00    5.082E+00    5.097E+00    5.113E+00
     5.129E+00    5.144E+00    5.160E+00    5.176E+00    5.191E+00    5.207E+00    5.223E+00    5.238E+00    5.254E+00    5.270E+00
     5.285E+00    5.301E+00    5.317E+00    5.332E+00    5.348E+00    5.364E+00    5.379E+00    5.395E+00    5.411E+00    5.427E+00
     5.442E+00    5.458E+00    5.474E+00    5.489E+00    5.505E+00    5.521E+00    5.536E+00    5.552E+00    5.568E+00    5.583E+00
     5.599E+00    5.615E+00    5.630E+00    5.646E+00    5.662E+00    5.677E+00    5.693E+00    5.709E+00    5.724E+00    5.740E+00
     5.756E+00    5.771E+00    5.787E+00    5.803E+00    5.818E+00    5.834E+00    5.850E+00    5.865E+00    5.881E+00    5.897E+00
     5.912E+00    5.928E+00    5.944E+00    5.959E+00    5.975E+00    5.991E+00    6.007E+00    6.022E+00    6.038E+00    6.054E+00
     6.069E+00    6.085E+00    6.101E+00    6.116E+00    6.132E+00    6.148E+00    6.163E+00    6.179E+00    6.195E+00    6.210E+00
     6.226E+00    6.242E+00    6.257E+00    6.273E+00    6.289E+00    6.304E+00    6.320E+00    6.336E+00    6.351E+00    6.367E+00
     6.383E+00    6.398E+00    6.414E+00    6.430E+00    6.445E+00    6.461E+00    6.477E+00    6.492E+00    6.508E+00    6.524E+00
     6.540E+00    6.555E+00    6.571E+00    6.587E+00    6.602E+00    6.618E+00    6.634E+00    6.649E+00
 Asp      Conc. = 1.13E+01
