 LCModel (Version 6.3-1L) Copyright: S.W. Provencher.          Ref.: Magn. Reson. Med. 30:672-679 (1993).                
 Slice#2 Row#2 Col#3  PD_05_press_2_raw_act
 36 lines in following concentration table = NCONC+1
    Conc.  %SD /Cr+PCr  Metabolite                                         
   24.199 917%   0.000 Ala                                                 
   36.600 128%   0.000 Asp                                                 
    0.000 999%   0.000 Cr                                                  
    0.000 999%   0.000 PCr                                                 
   24.067 117%   0.000 GABA                                                
   21.678 129%   0.000 Glc                                                 
    0.000 999%   0.000 Gln                                                 
    0.000 999%   0.000 Glu                                                 
    0.000 999%   0.000 GPC                                                 
  142.616  28%   0.000 PCh                                                 
    0.000 999%   0.000 GSH                                                 
 1.77E+03  29%   0.000 Ins                                                 
    0.000 999%   0.000 Lac                                                 
  245.675  55%   0.000 NAA                                                 
  104.549 131%   0.000 NAAG                                                
   10.095  92%   0.000 Scyllo                                              
   50.861  91%   0.000 Tau                                                 
  317.088  29%   0.000 -CrCH2                                              
  142.616  28%   0.000 GPC+PCh                                             
  350.224  37%   0.000 NAA+NAAG                                            
    0.000 999%   0.000 Cr+PCr                                              
    0.000 999%   0.000 Glu+Gln                                             
 4.03E+03  12%   0.000 Lip13a                                              
    0.000 999%   0.000 Lip13b                                              
  603.648  48%   0.000 Lip09                                               
    0.000 999%   0.000 MM09                                                
  684.809  49%   0.000 Lip20                                               
    1.112 999%   0.000 MM20                                                
    0.896 999%   0.000 MM12                                                
    0.000 999%   0.000 MM14                                                
    0.000 999%   0.000 MM17                                                
 4.03E+03  12%   0.000 Lip13a+Lip13b                                       
 4.03E+03  12%   0.000 MM14+Lip13a+Lip13b+MM12                             
  603.648  48%   0.000 MM09+Lip09                                          
  685.922  56%   0.000 MM20+Lip20                                          
   6 lines in following misc. output table
  FWHM = 0.061 ppm    S/N =   1                                            
  Data shift =-0.023 ppm                                                   
  Ph:  44 deg      53.7 deg/ppm                                            
  alphaB,S = 4.3E-01,   4.3E+01                                            
   14 spline knots.   Ns = 7(1)                                            
  ( 9) 2 infls.   ( 6) 2 extrs.                                            
  498 points on ppm-axis = NY
      4.000000     3.992357     3.984714     3.977070     3.969427     3.961784     3.954141     3.946497     3.938854     3.931211
      3.923568     3.915925     3.908281     3.900638     3.892995     3.885352     3.877708     3.870065     3.862422     3.854779
      3.847136     3.839492     3.831849     3.824206     3.816563     3.808919     3.801276     3.793633     3.785990     3.778347
      3.770703     3.763060     3.755417     3.747774     3.740130     3.732487     3.724844     3.717201     3.709558     3.701914
      3.694271     3.686628     3.678985     3.671341     3.663698     3.656055     3.648412     3.640769     3.633125     3.625482
      3.617839     3.610196     3.602552     3.594909     3.587266     3.579623     3.571980     3.564336     3.556693     3.549050
      3.541407     3.533763     3.526120     3.518477     3.510834     3.503191     3.495547     3.487904     3.480261     3.472618
      3.464974     3.457331     3.449688     3.442045     3.434402     3.426758     3.419115     3.411472     3.403829     3.396185
      3.388542     3.380899     3.373256     3.365613     3.357969     3.350326     3.342683     3.335040     3.327396     3.319753
      3.312110     3.304467     3.296824     3.289180     3.281537     3.273894     3.266251     3.258607     3.250964     3.243321
      3.235678     3.228034     3.220391     3.212748     3.205105     3.197462     3.189818     3.182175     3.174532     3.166889
      3.159245     3.151602     3.143959     3.136316     3.128673     3.121029     3.113386     3.105743     3.098100     3.090456
      3.082813     3.075170     3.067527     3.059884     3.052240     3.044597     3.036954     3.029311     3.021667     3.014024
      3.006381     2.998738     2.991095     2.983451     2.975808     2.968165     2.960522     2.952878     2.945235     2.937592
      2.929949     2.922306     2.914662     2.907019     2.899376     2.891733     2.884089     2.876446     2.868803     2.861160
      2.853517     2.845873     2.838230     2.830587     2.822944     2.815300     2.807657     2.800014     2.792371     2.784728
      2.777084     2.769441     2.761798     2.754155     2.746511     2.738868     2.731225     2.723582     2.715939     2.708295
      2.700652     2.693009     2.685366     2.677722     2.670079     2.662436     2.654793     2.647150     2.639506     2.631863
      2.624220     2.616577     2.608933     2.601290     2.593647     2.586004     2.578361     2.570717     2.563074     2.555431
      2.547788     2.540144     2.532501     2.524858     2.517215     2.509572     2.501928     2.494285     2.486642     2.478999
      2.471355     2.463712     2.456069     2.448426     2.440783     2.433139     2.425496     2.417853     2.410210     2.402566
      2.394923     2.387280     2.379637     2.371994     2.364350     2.356707     2.349064     2.341421     2.333777     2.326134
      2.318491     2.310848     2.303205     2.295561     2.287918     2.280275     2.272632     2.264988     2.257345     2.249702
      2.242059     2.234416     2.226772     2.219129     2.211486     2.203843     2.196199     2.188556     2.180913     2.173270
      2.165627     2.157983     2.150340     2.142697     2.135054     2.127410     2.119767     2.112124     2.104481     2.096838
      2.089194     2.081551     2.073908     2.066265     2.058621     2.050978     2.043335     2.035692     2.028049     2.020405
      2.012762     2.005119     1.997476     1.989833     1.982190     1.974546     1.966903     1.959260     1.951617     1.943974
      1.936331     1.928688     1.921045     1.913402     1.905759     1.898115     1.890472     1.882829     1.875186     1.867543
      1.859900     1.852257     1.844614     1.836971     1.829327     1.821684     1.814041     1.806398     1.798755     1.791112
      1.783469     1.775826     1.768183     1.760540     1.752896     1.745253     1.737610     1.729967     1.722324     1.714681
      1.707038     1.699395     1.691752     1.684108     1.676465     1.668822     1.661179     1.653536     1.645893     1.638250
      1.630607     1.622964     1.615321     1.607677     1.600034     1.592391     1.584748     1.577105     1.569462     1.561819
      1.554176     1.546533     1.538890     1.531246     1.523603     1.515960     1.508317     1.500674     1.493031     1.485388
      1.477745     1.470102     1.462458     1.454815     1.447172     1.439529     1.431886     1.424243     1.416600     1.408957
      1.401314     1.393671     1.386027     1.378384     1.370741     1.363098     1.355455     1.347812     1.340169     1.332526
      1.324883     1.317240     1.309596     1.301953     1.294310     1.286667     1.279024     1.271381     1.263738     1.256095
      1.248452     1.240808     1.233165     1.225522     1.217879     1.210236     1.202593     1.194950     1.187307     1.179664
      1.172021     1.164377     1.156734     1.149091     1.141448     1.133805     1.126162     1.118519     1.110876     1.103233
      1.095590     1.087946     1.080303     1.072660     1.065017     1.057374     1.049731     1.042088     1.034445     1.026802
      1.019158     1.011515     1.003872     0.996229     0.988586     0.980943     0.973300     0.965657     0.958014     0.950371
      0.942727     0.935084     0.927441     0.919798     0.912155     0.904512     0.896869     0.889226     0.881583     0.873940
      0.866296     0.858653     0.851010     0.843367     0.835724     0.828081     0.820438     0.812795     0.805152     0.797508
      0.789865     0.782222     0.774579     0.766936     0.759293     0.751650     0.744007     0.736364     0.728721     0.721077
      0.713434     0.705791     0.698148     0.690505     0.682862     0.675219     0.667576     0.659933     0.652290     0.644646
      0.637003     0.629360     0.621717     0.614074     0.606431     0.598788     0.591145     0.583502     0.575858     0.568215
      0.560572     0.552929     0.545286     0.537643     0.530000     0.522357     0.514714     0.507071     0.499427     0.491784
      0.484141     0.476498     0.468855     0.461212     0.453569     0.445925     0.438282     0.430639     0.422996     0.415353
      0.407710     0.400067     0.392424     0.384780     0.377137     0.369494     0.361851     0.354208     0.346565     0.338922
      0.331278     0.323635     0.315992     0.308349     0.300706     0.293063     0.285420     0.277777     0.270133     0.262490
      0.254847     0.247204     0.239561     0.231918     0.224275     0.216631     0.208988     0.201345
 NY phased data points follow
  -2.74009E+01 -3.98214E+01 -4.77749E+01 -4.49293E+01 -3.46117E+01 -2.86914E+01 -2.50207E+01 -4.13734E+01 -4.32582E+01 -3.58536E+01
  -2.32600E+01 -1.98992E+01 -3.17605E+01 -1.64773E+01 -3.86504E+01 -6.75916E+00 -1.40578E+01 -1.28857E+01 -2.28111E+00 -1.26048E+01
  -3.06001E+01 -2.15534E+01 -1.40060E+01 -1.48219E+01 -1.44486E+01 -1.25694E+01 -1.90322E+01 -5.45917E+00 -2.05003E+01 -2.81821E+01
  -7.87230E+00 -7.23621E+00 -5.46763E+00  2.87023E+00 -1.00443E+01 -1.44320E+01 -6.88369E+00 -1.97284E+01  5.07110E+00 -1.10532E+01
  -7.90144E+00 -1.17404E+01 -8.69629E+00  4.29639E+00 -1.03458E+01  1.37198E+01 -5.85314E-01  3.66072E+00 -7.84031E+00  2.61001E+00
  -7.27495E+00  5.32154E+00 -1.46663E+01 -9.99363E+00 -5.69713E+00  8.79844E+00  1.46687E+00  7.29253E+00 -3.72385E+00  8.90449E+00
   7.78657E+00  1.28560E+01 -9.55707E-01  1.05635E+01 -6.10639E+00  9.37886E+00 -6.78773E+00 -8.68987E+00  4.97008E+00 -5.89412E+00
   3.91748E+00  9.25405E-01 -1.17085E+01  2.62412E-01 -1.39198E+00  3.13476E+00  5.17424E-01  4.89075E+00 -6.41617E+00  9.38894E+00
  -4.43146E-01  1.01730E+01 -9.12462E+00  1.33154E+00 -6.46093E+00  1.49867E+01 -6.55394E+00  2.73127E+00 -4.23577E+00 -2.47451E+00
  -1.94285E+00  9.60183E+00  1.95402E+00  1.08595E+01  9.19322E+00 -4.58555E+00  3.07328E+00  3.29650E+00 -2.10163E+00  1.00218E+01
   1.62250E+01  1.65446E+01 -4.47267E+00  1.69677E+01  1.58175E+00  1.25017E+01 -1.90216E+00  1.69500E+01  1.80170E+01  1.26830E+01
   1.16958E+01 -6.01256E+00 -1.40429E-01  1.07850E+01  7.42537E+00  5.90693E+00 -9.75114E+00  1.04767E+01 -9.41914E-01  8.24607E+00
   8.28677E+00 -7.73825E+00 -7.88161E-01  1.09898E+01  9.61102E+00  7.58723E+00  4.61614E+00  2.61191E+00  1.69069E+01  7.49076E+00
  -3.56083E+00  3.54266E+00  1.79591E+01  1.63692E+01  3.04065E+00  9.12340E+00 -1.96527E+00 -1.04387E+00  9.00124E+00 -5.90475E-01
   9.66161E+00  1.72202E-01  9.41093E+00  1.03390E+01  4.24011E+00  9.28838E+00 -1.40757E+00  9.65863E+00  1.22769E+01  4.28361E+00
   6.71639E+00  7.27060E+00  8.25359E+00  1.26124E+01  8.16622E+00  1.54727E+01  6.77173E+00  1.41663E+00  6.32550E+00  6.00478E+00
   4.39442E+00  7.66156E-02  4.03128E+00  1.01271E+01  6.66279E+00  8.90416E+00 -6.97111E+00  1.23079E+01  2.05585E+00  4.39039E+00
   5.78081E+00  5.48844E+00  1.17380E+01  2.19981E+00  3.78623E+00  1.38304E+01  8.20768E-01  2.25698E+01  1.62456E+01  4.29359E+00
   2.39256E+01  4.92731E+00 -6.80145E+00  5.85584E+00  8.05442E+00  7.91280E+00  1.46664E+01  3.27591E+00 -7.36350E+00  4.41774E+00
   9.85279E+00  8.47976E+00  7.35049E+00  1.60349E+01  3.49489E+00  3.84037E+00  1.25076E+01  1.39809E+01  1.48352E+01 -3.94345E+00
  -4.29393E+00  5.01467E+00  8.22333E+00  3.37295E-01  4.48064E+00  3.35342E+00  8.05749E+00  5.93579E+00  1.01038E+01  7.08818E+00
   6.32233E+00  7.25272E+00 -4.52608E+00 -1.71198E+00  1.41459E+00  2.15610E+01  6.75471E+00  6.99773E+00  5.66416E+00  1.91595E+01
   9.03956E+00 -3.94490E+00  5.15262E+00  7.09255E+00  1.21786E+01  6.08206E+00  1.15946E+01  8.49584E+00  7.68071E+00  5.08738E+00
   8.89504E+00  7.45290E+00  4.42250E+00  1.05247E+01  6.71124E+00  1.14623E+00  5.34078E-01  8.61340E+00  1.92026E+01  2.69650E+00
  -1.38651E+01 -3.91107E+00  1.32911E+01  3.44552E+00 -5.99147E+00  9.14880E+00  4.61735E+00  7.89006E+00  1.36946E+01  1.94522E+01
   1.53796E+01  9.29912E+00  1.09884E+01  9.10484E+00  6.30286E+00  1.51485E+01  1.45057E+01  1.24021E+01  1.33621E+01  2.11114E+01
   1.90821E+01  9.43724E+00  8.64931E+00  1.05759E+01  1.15242E+01 -8.04529E-01 -4.21003E+00 -7.77519E+00 -8.03260E-01 -5.99986E+00
   6.70098E+00 -7.43285E+00 -1.06003E+01  3.34269E+00 -2.55086E+00  1.85321E+00  2.33639E+00 -1.02009E+00  9.03339E+00  6.08630E+00
   1.14991E-01  6.23216E+00 -8.89438E+00  4.52551E+00 -7.60878E+00 -2.36676E+00  5.93010E+00  6.74853E+00 -3.33335E+00  7.58845E+00
   7.42852E+00  9.27039E+00 -4.95520E+00  1.35152E+01 -6.59843E+00 -7.93058E+00  9.81540E+00 -7.07822E+00 -3.45975E+00 -8.10492E+00
   2.12268E+00 -2.52076E-01  4.55539E+00  3.41619E+00  1.31238E+01 -1.37344E+01 -1.32730E-01  6.89757E+00 -1.06769E+01  3.90615E+00
   3.06273E+00 -9.39128E+00 -8.73092E+00 -1.00569E+01  3.77120E+00  1.24333E+01  1.28606E+01  1.24061E+01 -1.25284E+00 -6.45886E+00
  -1.07882E+01 -7.33368E+00 -1.14786E+01  6.25558E-01  3.54788E+00 -6.82434E+00 -1.17330E+01 -8.45093E+00 -2.27045E+00 -5.40957E+00
  -2.40112E+00 -5.81663E+00 -3.86149E+00 -9.69416E+00  8.04234E+00 -4.51908E+00 -1.59859E+00 -2.04908E+00  1.41165E+00  1.01492E+00
   8.35127E+00  6.39787E+00  1.04411E+01  1.57306E+01  1.09368E+01  1.21407E+01  1.32303E+01  2.63077E+01  1.38612E+01  2.34268E+01
   2.91804E+01  2.63173E+01  2.28191E+01  1.79237E+01  1.52126E+01  1.78331E+01  1.54595E+01  1.82661E+01  1.33264E+01  2.48660E+01
   1.22857E+01  2.58376E+01  1.99976E+01  1.97238E+01  2.45273E+01  3.21144E+01  1.32983E+01  9.92263E+00  1.43157E+01  1.67569E+01
   7.57996E+00  1.53102E+01  1.81328E+00 -3.14860E+00  1.23299E+01 -4.84226E+00  8.64186E+00  9.69850E+00  1.42195E+01  3.58602E+00
   6.14607E+00  5.14673E+00  1.17560E+01 -8.11603E-01  4.22609E+00 -1.16110E+01 -5.16562E+00  8.12615E+00 -1.56353E+01  1.30954E+00
  -6.76694E+00  9.90066E+00 -1.04618E+01  3.24033E+00  1.77763E+00  7.02158E-01  5.00985E+00  8.21464E-01  6.45939E+00  1.63534E+00
  -1.24586E+01  5.97242E-02 -6.48031E-01  3.49437E+00 -5.87392E+00  1.24433E+01 -3.14804E+00  1.31517E+01  7.12770E+00  3.86303E+00
   9.34397E+00  9.90908E+00 -6.83706E-01 -5.52180E+00  8.59617E-01  5.62201E+00  8.66834E+00  3.58903E+00 -1.66234E+01 -4.11073E+00
  -4.77704E+00 -5.78769E+00 -1.58624E+01  2.21759E+00  8.04656E+00  2.31268E+00  1.79412E+00  3.25072E+00 -4.22894E+00 -3.91623E+00
  -2.40519E+00  1.50907E+00 -6.05942E-01 -6.86758E+00 -9.32763E-01  4.36866E+00 -3.44902E+00 -1.00081E+01 -6.42308E+00 -8.18702E+00
  -7.40631E+00 -2.85121E+00 -4.98126E+00 -6.77600E+00  5.35041E+00 -4.17533E+00  2.76553E+00 -8.48517E+00 -1.09776E+01 -3.81493E+00
  -2.24054E+01  2.77279E-01  2.02667E+00  3.80474E+00 -1.12126E+01 -3.42287E+00 -4.45573E+00  1.26204E+01  5.03768E+00  2.25945E+00
  -1.20342E+01  5.11589E+00 -5.39862E+00 -1.02187E+01  7.00170E+00  6.78763E+00  1.33329E+01 -9.54385E+00 -9.16019E+00 -2.29632E+00
  -1.08664E+01 -8.23344E+00 -4.26835E+00  3.63422E-01  3.57609E-01 -4.51013E+00 -1.09711E+01 -1.27161E+01 -3.74864E+00  1.40785E+00
   8.35677E+00  1.33309E+00 -4.07919E+00  2.45835E+00  1.25059E+01 -3.89352E+00  5.11710E+00  2.41715E-02  1.51217E+00 -3.03565E+00
   1.32658E+00  8.09233E+00 -5.14170E+00  2.49434E+00 -6.61599E-01 -9.48865E-01 -2.86398E-01  6.18215E+00
 NY points of the fit to the data follow
  -1.76697E+01 -1.84184E+01 -1.97885E+01 -2.13084E+01 -2.25489E+01 -2.34130E+01 -2.38163E+01 -2.37333E+01 -2.32064E+01 -2.22857E+01
  -2.10961E+01 -1.97383E+01 -1.82787E+01 -1.67998E+01 -1.55600E+01 -1.48233E+01 -1.46629E+01 -1.47023E+01 -1.45383E+01 -1.42614E+01
  -1.39633E+01 -1.36684E+01 -1.33737E+01 -1.30802E+01 -1.27880E+01 -1.25051E+01 -1.22192E+01 -1.19061E+01 -1.15403E+01 -1.10930E+01
  -1.05065E+01 -9.73470E+00 -8.98436E+00 -8.52464E+00 -8.42079E+00 -8.59628E+00 -8.95658E+00 -9.40804E+00 -9.84217E+00 -9.99836E+00
  -9.20783E+00 -6.99919E+00 -3.87934E+00 -8.40928E-01  1.43029E+00  2.65639E+00  2.76408E+00  1.79204E+00  5.70128E-02 -2.01124E+00
  -4.16587E+00 -6.29885E+00 -8.00380E+00 -8.61800E+00 -7.69401E+00 -5.43853E+00 -2.97806E+00 -1.33037E+00 -6.56121E-01 -6.84128E-01
  -1.12390E+00 -1.74928E+00 -2.36975E+00 -2.89532E+00 -3.27091E+00 -3.29865E+00 -2.86229E+00 -1.98122E+00 -9.11579E-01  6.28984E-02
   7.64097E-01  1.07222E+00  1.04077E+00  7.74987E-01  4.13982E-01  6.86357E-02 -2.49554E-01 -5.11652E-01 -6.64245E-01 -6.73432E-01
  -7.59585E-01 -1.21404E+00 -2.04092E+00 -3.02062E+00 -3.92784E+00 -4.60497E+00 -4.94973E+00 -4.88838E+00 -4.44550E+00 -3.65179E+00
  -2.62043E+00 -1.55836E+00 -6.28566E-01  1.92009E-02  2.65087E-01  1.55851E-01  3.23810E-01  1.80175E+00  4.28103E+00  6.92459E+00
   9.11417E+00  1.06050E+01  1.13711E+01  1.14135E+01  1.07441E+01  9.44222E+00  7.65916E+00  5.55417E+00  3.29971E+00  1.36267E+00
   3.24543E-01  3.96642E-01  1.02099E+00  1.32897E+00  1.41682E+00  1.45492E+00  1.48507E+00  1.51415E+00  1.55641E+00  1.62290E+00
   1.72039E+00  1.84626E+00  1.99189E+00  2.14983E+00  2.31423E+00  2.47531E+00  2.62074E+00  2.74602E+00  2.85234E+00  2.94865E+00
   3.03595E+00  3.11404E+00  3.19311E+00  3.28166E+00  3.38215E+00  3.48891E+00  3.59713E+00  3.71000E+00  3.83218E+00  3.96408E+00
   4.09858E+00  4.22773E+00  4.34930E+00  4.46441E+00  4.57408E+00  4.67747E+00  4.77758E+00  4.87110E+00  4.95012E+00  5.01719E+00
   5.07987E+00  5.15122E+00  5.23905E+00  5.32712E+00  5.38581E+00  5.40575E+00  5.40367E+00  5.40286E+00  5.42551E+00  5.46536E+00
   5.50452E+00  5.53142E+00  5.53947E+00  5.52955E+00  5.51670E+00  5.51544E+00  5.52342E+00  5.52096E+00  5.48261E+00  5.39954E+00
   5.29999E+00  5.22895E+00  5.20167E+00  5.20505E+00  5.20040E+00  5.17358E+00  5.13394E+00  5.10604E+00  5.11146E+00  5.15133E+00
   5.19987E+00  5.24433E+00  5.29169E+00  5.34340E+00  5.41037E+00  5.51093E+00  5.62963E+00  5.72622E+00  5.78080E+00  5.80001E+00
   5.81859E+00  5.84416E+00  5.85981E+00  5.84857E+00  5.80469E+00  5.74414E+00  5.69795E+00  5.68794E+00  5.70287E+00  5.72692E+00
   5.74203E+00  5.73544E+00  5.70830E+00  5.67224E+00  5.63205E+00  5.58087E+00  5.49765E+00  5.39347E+00  5.29228E+00  5.20945E+00
   5.16207E+00  5.15813E+00  5.19010E+00  5.23992E+00  5.30152E+00  5.37009E+00  5.44670E+00  5.53886E+00  5.64570E+00  5.74635E+00
   5.82247E+00  5.87039E+00  5.90244E+00  5.91507E+00  5.89350E+00  5.84566E+00  5.78969E+00  5.73883E+00  5.70572E+00  5.69761E+00
   5.71086E+00  5.73477E+00  5.76015E+00  5.77873E+00  5.78394E+00  5.76563E+00  5.72077E+00  5.66097E+00  5.59702E+00  5.53997E+00
   5.50344E+00  5.48919E+00  5.49296E+00  5.50919E+00  5.52587E+00  5.54050E+00  5.56210E+00  5.60294E+00  5.73352E+00  6.17541E+00
   6.89964E+00  7.70131E+00  8.47670E+00  9.54296E+00  1.12002E+01  1.30009E+01  1.44454E+01  1.52656E+01  1.54124E+01  1.49267E+01
   1.38682E+01  1.24018E+01  1.08051E+01  9.26905E+00  7.76399E+00  6.20240E+00  4.88837E+00  4.20131E+00  4.16005E+00  4.29287E+00
   4.22022E+00  4.07895E+00  3.92821E+00  3.77681E+00  3.62596E+00  3.47358E+00  3.32053E+00  3.17063E+00  3.02805E+00  2.89895E+00
   2.78371E+00  2.68022E+00  2.58724E+00  2.50002E+00  2.41224E+00  2.32427E+00  2.24016E+00  2.16066E+00  2.08423E+00  2.00975E+00
   1.93796E+00  1.86876E+00  1.79864E+00  1.72669E+00  1.65475E+00  1.58250E+00  1.50999E+00  1.43772E+00  1.36692E+00  1.30022E+00
   1.23922E+00  1.18174E+00  1.12632E+00  1.07302E+00  1.02125E+00  9.69771E-01  9.17636E-01  8.65175E-01  8.14115E-01  7.64931E-01
   7.17579E-01  6.72332E-01  6.29380E-01  5.89056E-01  5.51812E-01  5.18314E-01  4.89519E-01  4.66978E-01  4.53534E-01  4.56005E-01
   4.86989E-01  5.30626E-01  5.53827E-01  5.44816E-01  5.07638E-01  4.52813E-01  3.89377E-01  3.23806E-01  2.86671E-01  3.22146E-01
   4.41382E-01  6.40032E-01  9.16685E-01  1.27495E+00  1.71098E+00  2.20595E+00  2.73898E+00  3.32111E+00  3.97430E+00  4.70334E+00
   5.51140E+00  6.41162E+00  7.42552E+00  8.56733E+00  9.81923E+00  1.11477E+01  1.25331E+01  1.39524E+01  1.53773E+01  1.67761E+01
   1.81144E+01  1.93570E+01  2.04693E+01  2.14190E+01  2.21779E+01  2.27231E+01  2.30385E+01  2.31153E+01  2.29530E+01  2.25589E+01
   2.19476E+01  2.11407E+01  2.01645E+01  1.90498E+01  1.78291E+01  1.65361E+01  1.52031E+01  1.38606E+01  1.25358E+01  1.12521E+01
   1.00283E+01  8.87875E+00  7.81362E+00  6.83885E+00  5.95689E+00  5.16724E+00  4.46705E+00  3.85181E+00  3.31583E+00  2.85285E+00
   2.45639E+00  2.12014E+00  1.83816E+00  1.60507E+00  1.41613E+00  1.26724E+00  1.15494E+00  1.07633E+00  1.02899E+00  1.01083E+00
   1.02001E+00  1.05473E+00  1.11318E+00  1.19336E+00  1.29301E+00  1.40947E+00  1.53968E+00  1.68012E+00  1.82684E+00  1.97552E+00
   2.12153E+00  2.26009E+00  2.38644E+00  2.49595E+00  2.58441E+00  2.64812E+00  2.68410E+00  2.69020E+00  2.66522E+00  2.60893E+00
   2.52206E+00  2.40629E+00  2.26409E+00  2.09860E+00  1.91347E+00  1.71268E+00  1.50035E+00  1.28055E+00  1.05718E+00  8.33806E-01
   6.13578E-01  3.99177E-01  1.92769E-01 -3.99227E-03 -1.89944E-01 -3.64368E-01 -5.26935E-01 -6.77644E-01 -8.16760E-01 -9.44750E-01
  -1.06222E+00 -1.16988E+00 -1.26846E+00 -1.35873E+00 -1.44144E+00 -1.51731E+00 -1.58701E+00 -1.65116E+00 -1.71033E+00 -1.76503E+00
  -1.81571E+00 -1.86278E+00 -1.90660E+00 -1.94749E+00 -1.98572E+00 -2.02153E+00 -2.05515E+00 -2.08676E+00 -2.11652E+00 -2.14460E+00
  -2.17111E+00 -2.19617E+00 -2.21989E+00 -2.24237E+00 -2.26368E+00 -2.28391E+00 -2.30312E+00 -2.32139E+00 -2.33876E+00 -2.35530E+00
  -2.37105E+00 -2.38606E+00 -2.40037E+00 -2.41402E+00 -2.42705E+00 -2.43949E+00 -2.45137E+00 -2.46272E+00 -2.47357E+00 -2.48394E+00
  -2.49388E+00 -2.50338E+00 -2.51248E+00 -2.52120E+00 -2.52956E+00 -2.53758E+00 -2.54528E+00 -2.55268E+00 -2.55978E+00 -2.56662E+00
  -2.57320E+00 -2.57955E+00 -2.58567E+00 -2.59159E+00 -2.59731E+00 -2.60286E+00 -2.60824E+00 -2.61348E+00 -2.61858E+00 -2.62356E+00
  -2.62843E+00 -2.63321E+00 -2.63791E+00 -2.64256E+00 -2.64715E+00 -2.65170E+00 -2.65623E+00 -2.66077E+00
 NY background values follow
    -1.925E+01   -1.904E+01   -1.883E+01   -1.862E+01   -1.840E+01   -1.819E+01   -1.798E+01   -1.777E+01   -1.755E+01   -1.734E+01
    -1.713E+01   -1.691E+01   -1.670E+01   -1.649E+01   -1.628E+01   -1.607E+01   -1.585E+01   -1.564E+01   -1.543E+01   -1.522E+01
    -1.501E+01   -1.480E+01   -1.459E+01   -1.438E+01   -1.417E+01   -1.396E+01   -1.375E+01   -1.354E+01   -1.333E+01   -1.313E+01
    -1.292E+01   -1.271E+01   -1.250E+01   -1.230E+01   -1.209E+01   -1.189E+01   -1.168E+01   -1.148E+01   -1.128E+01   -1.108E+01
    -1.087E+01   -1.067E+01   -1.047E+01   -1.027E+01   -1.007E+01   -9.874E+00   -9.677E+00   -9.480E+00   -9.284E+00   -9.088E+00
    -8.894E+00   -8.700E+00   -8.507E+00   -8.315E+00   -8.124E+00   -7.934E+00   -7.744E+00   -7.556E+00   -7.368E+00   -7.182E+00
    -6.996E+00   -6.811E+00   -6.628E+00   -6.445E+00   -6.264E+00   -6.083E+00   -5.903E+00   -5.725E+00   -5.548E+00   -5.372E+00
    -5.196E+00   -5.022E+00   -4.850E+00   -4.678E+00   -4.508E+00   -4.338E+00   -4.170E+00   -4.003E+00   -3.838E+00   -3.674E+00
    -3.511E+00   -3.349E+00   -3.189E+00   -3.029E+00   -2.872E+00   -2.715E+00   -2.560E+00   -2.407E+00   -2.255E+00   -2.104E+00
    -1.954E+00   -1.807E+00   -1.660E+00   -1.515E+00   -1.372E+00   -1.230E+00   -1.089E+00   -9.500E-01   -8.124E-01   -6.764E-01
    -5.417E-01   -4.086E-01   -2.770E-01   -1.469E-01   -1.827E-02    1.088E-01    2.344E-01    3.585E-01    4.811E-01    6.022E-01
     7.217E-01    8.397E-01    9.562E-01    1.071E+00    1.185E+00    1.296E+00    1.407E+00    1.515E+00    1.623E+00    1.728E+00
     1.832E+00    1.935E+00    2.036E+00    2.135E+00    2.233E+00    2.330E+00    2.424E+00    2.517E+00    2.609E+00    2.699E+00
     2.787E+00    2.874E+00    2.959E+00    3.043E+00    3.125E+00    3.205E+00    3.284E+00    3.361E+00    3.436E+00    3.510E+00
     3.582E+00    3.653E+00    3.722E+00    3.790E+00    3.856E+00    3.920E+00    3.983E+00    4.045E+00    4.105E+00    4.163E+00
     4.220E+00    4.275E+00    4.329E+00    4.381E+00    4.432E+00    4.481E+00    4.529E+00    4.575E+00    4.620E+00    4.663E+00
     4.705E+00    4.746E+00    4.785E+00    4.822E+00    4.858E+00    4.893E+00    4.926E+00    4.958E+00    4.989E+00    5.018E+00
     5.046E+00    5.072E+00    5.097E+00    5.120E+00    5.143E+00    5.164E+00    5.183E+00    5.201E+00    5.218E+00    5.234E+00
     5.248E+00    5.261E+00    5.272E+00    5.282E+00    5.291E+00    5.299E+00    5.305E+00    5.311E+00    5.315E+00    5.317E+00
     5.319E+00    5.319E+00    5.318E+00    5.316E+00    5.313E+00    5.309E+00    5.303E+00    5.297E+00    5.289E+00    5.280E+00
     5.270E+00    5.259E+00    5.247E+00    5.234E+00    5.220E+00    5.204E+00    5.188E+00    5.171E+00    5.153E+00    5.134E+00
     5.113E+00    5.092E+00    5.070E+00    5.047E+00    5.023E+00    4.998E+00    4.973E+00    4.946E+00    4.919E+00    4.890E+00
     4.861E+00    4.831E+00    4.800E+00    4.769E+00    4.736E+00    4.703E+00    4.669E+00    4.634E+00    4.598E+00    4.562E+00
     4.525E+00    4.488E+00    4.449E+00    4.410E+00    4.370E+00    4.330E+00    4.289E+00    4.247E+00    4.205E+00    4.163E+00
     4.119E+00    4.075E+00    4.031E+00    3.986E+00    3.941E+00    3.895E+00    3.848E+00    3.801E+00    3.754E+00    3.706E+00
     3.658E+00    3.610E+00    3.561E+00    3.511E+00    3.462E+00    3.412E+00    3.361E+00    3.311E+00    3.260E+00    3.209E+00
     3.157E+00    3.105E+00    3.053E+00    3.001E+00    2.949E+00    2.896E+00    2.844E+00    2.791E+00    2.738E+00    2.684E+00
     2.631E+00    2.578E+00    2.524E+00    2.471E+00    2.417E+00    2.364E+00    2.310E+00    2.256E+00    2.203E+00    2.149E+00
     2.095E+00    2.041E+00    1.987E+00    1.934E+00    1.880E+00    1.826E+00    1.773E+00    1.719E+00    1.665E+00    1.612E+00
     1.559E+00    1.505E+00    1.452E+00    1.399E+00    1.346E+00    1.293E+00    1.240E+00    1.188E+00    1.135E+00    1.083E+00
     1.031E+00    9.792E-01    9.275E-01    8.759E-01    8.246E-01    7.735E-01    7.226E-01    6.719E-01    6.215E-01    5.713E-01
     5.214E-01    4.718E-01    4.224E-01    3.733E-01    3.245E-01    2.760E-01    2.278E-01    1.799E-01    1.324E-01    8.518E-02
     3.828E-02   -8.292E-03   -5.454E-02   -1.005E-01   -1.461E-01   -1.913E-01   -2.363E-01   -2.809E-01   -3.252E-01   -3.692E-01
    -4.128E-01   -4.561E-01   -4.991E-01   -5.418E-01   -5.841E-01   -6.261E-01   -6.678E-01   -7.091E-01   -7.501E-01   -7.908E-01
    -8.312E-01   -8.712E-01   -9.109E-01   -9.502E-01   -9.892E-01   -1.028E+00   -1.066E+00   -1.104E+00   -1.142E+00   -1.179E+00
    -1.216E+00   -1.253E+00   -1.289E+00   -1.325E+00   -1.361E+00   -1.396E+00   -1.431E+00   -1.466E+00   -1.500E+00   -1.534E+00
    -1.568E+00   -1.601E+00   -1.634E+00   -1.667E+00   -1.699E+00   -1.731E+00   -1.763E+00   -1.794E+00   -1.825E+00   -1.856E+00
    -1.886E+00   -1.916E+00   -1.946E+00   -1.975E+00   -2.004E+00   -2.032E+00   -2.060E+00   -2.088E+00   -2.116E+00   -2.143E+00
    -2.170E+00   -2.196E+00   -2.222E+00   -2.248E+00   -2.273E+00   -2.298E+00   -2.323E+00   -2.347E+00   -2.371E+00   -2.395E+00
    -2.418E+00   -2.441E+00   -2.463E+00   -2.485E+00   -2.507E+00   -2.529E+00   -2.550E+00   -2.571E+00   -2.591E+00   -2.611E+00
    -2.631E+00   -2.650E+00   -2.669E+00   -2.687E+00   -2.705E+00   -2.723E+00   -2.741E+00   -2.758E+00   -2.774E+00   -2.791E+00
    -2.807E+00   -2.822E+00   -2.838E+00   -2.853E+00   -2.867E+00   -2.881E+00   -2.895E+00   -2.909E+00   -2.922E+00   -2.935E+00
    -2.947E+00   -2.960E+00   -2.971E+00   -2.983E+00   -2.994E+00   -3.005E+00   -3.016E+00   -3.026E+00   -3.036E+00   -3.046E+00
    -3.055E+00   -3.064E+00   -3.073E+00   -3.081E+00   -3.089E+00   -3.097E+00   -3.105E+00   -3.112E+00   -3.119E+00   -3.126E+00
    -3.133E+00   -3.139E+00   -3.145E+00   -3.150E+00   -3.156E+00   -3.161E+00   -3.166E+00   -3.170E+00   -3.175E+00   -3.179E+00
    -3.183E+00   -3.186E+00   -3.190E+00   -3.193E+00   -3.196E+00   -3.198E+00   -3.201E+00   -3.203E+00   -3.205E+00   -3.207E+00
    -3.209E+00   -3.210E+00   -3.212E+00   -3.213E+00   -3.214E+00   -3.214E+00   -3.215E+00   -3.215E+00   -3.216E+00   -3.216E+00
    -3.216E+00   -3.216E+00   -3.216E+00   -3.215E+00   -3.215E+00   -3.214E+00   -3.214E+00   -3.213E+00   -3.212E+00   -3.211E+00
    -3.210E+00   -3.209E+00   -3.208E+00   -3.207E+00   -3.206E+00   -3.205E+00   -3.203E+00   -3.202E+00   -3.201E+00   -3.199E+00
    -3.198E+00   -3.197E+00   -3.195E+00   -3.194E+00   -3.193E+00   -3.191E+00   -3.190E+00   -3.189E+00
 Ala      Conc. = 2.42E+01
