 LCModel (Version 6.3-1L) Copyright: S.W. Provencher.          Ref.: Magn. Reson. Med. 30:672-679 (1993).                
 Slice#3 Row#2 Col#7  PD_05_press_2_raw_act
 36 lines in following concentration table = NCONC+1
    Conc.  %SD /Cr+PCr  Metabolite                                         
  372.658  78%   0.000 Ala                                                 
   14.991 104%   0.000 Asp                                                 
    0.000 999%   0.000 Cr                                                  
    0.000 999%   0.000 PCr                                                 
    9.119 102%   0.000 GABA                                                
    8.894 105%   0.000 Glc                                                 
  151.751 386%   0.000 Gln                                                 
    0.000 999%   0.000 Glu                                                 
   80.846  63%   0.000 GPC                                                 
    0.000 999%   0.000 PCh                                                 
  376.202  54%   0.000 GSH                                                 
 2.12E+03  27%   0.000 Ins                                                 
    0.000 999%   0.000 Lac                                                 
    0.000 999%   0.000 NAA                                                 
   57.025 267%   0.000 NAAG                                                
    3.053 102%   0.000 Scyllo                                              
   14.754 105%   0.000 Tau                                                 
    0.000 999%   0.000 -CrCH2                                              
   80.846  63%   0.000 GPC+PCh                                             
   57.025 267%   0.000 NAA+NAAG                                            
    0.000 999%   0.000 Cr+PCr                                              
  151.751 386%   0.000 Glu+Gln                                             
    0.000 999%   0.000 Lip13a                                              
    0.000 999%   0.000 Lip13b                                              
    0.000 999%   0.000 Lip09                                               
  440.573  74%   0.000 MM09                                                
 2.90E-02 999%   0.000 Lip20                                               
  760.620  66%   0.000 MM20                                                
  130.935  82%   0.000 MM12                                                
  145.932 203%   0.000 MM14                                                
  133.794 131%   0.000 MM17                                                
    0.000 999%   0.000 Lip13a+Lip13b                                       
  276.867 137%   0.000 MM14+Lip13a+Lip13b+MM12                             
  440.573  74%   0.000 MM09+Lip09                                          
  760.649  66%   0.000 MM20+Lip20                                          
   6 lines in following misc. output table
  FWHM = 0.054 ppm    S/N =   1                                            
  Data shift = 0.008 ppm                                                   
  Ph: -73 deg      -4.8 deg/ppm                                            
  alphaB,S = 8.5E+01,   5.1E+01                                            
   14 spline knots.   Ns = 5(1)                                            
   2 inflections.     1 extrema                                            
  498 points on ppm-axis = NY
      4.000000     3.992357     3.984714     3.977070     3.969427     3.961784     3.954141     3.946497     3.938854     3.931211
      3.923568     3.915925     3.908281     3.900638     3.892995     3.885352     3.877708     3.870065     3.862422     3.854779
      3.847136     3.839492     3.831849     3.824206     3.816563     3.808919     3.801276     3.793633     3.785990     3.778347
      3.770703     3.763060     3.755417     3.747774     3.740130     3.732487     3.724844     3.717201     3.709558     3.701914
      3.694271     3.686628     3.678985     3.671341     3.663698     3.656055     3.648412     3.640769     3.633125     3.625482
      3.617839     3.610196     3.602552     3.594909     3.587266     3.579623     3.571980     3.564336     3.556693     3.549050
      3.541407     3.533763     3.526120     3.518477     3.510834     3.503191     3.495547     3.487904     3.480261     3.472618
      3.464974     3.457331     3.449688     3.442045     3.434402     3.426758     3.419115     3.411472     3.403829     3.396185
      3.388542     3.380899     3.373256     3.365613     3.357969     3.350326     3.342683     3.335040     3.327396     3.319753
      3.312110     3.304467     3.296824     3.289180     3.281537     3.273894     3.266251     3.258607     3.250964     3.243321
      3.235678     3.228034     3.220391     3.212748     3.205105     3.197462     3.189818     3.182175     3.174532     3.166889
      3.159245     3.151602     3.143959     3.136316     3.128673     3.121029     3.113386     3.105743     3.098100     3.090456
      3.082813     3.075170     3.067527     3.059884     3.052240     3.044597     3.036954     3.029311     3.021667     3.014024
      3.006381     2.998738     2.991095     2.983451     2.975808     2.968165     2.960522     2.952878     2.945235     2.937592
      2.929949     2.922306     2.914662     2.907019     2.899376     2.891733     2.884089     2.876446     2.868803     2.861160
      2.853517     2.845873     2.838230     2.830587     2.822944     2.815300     2.807657     2.800014     2.792371     2.784728
      2.777084     2.769441     2.761798     2.754155     2.746511     2.738868     2.731225     2.723582     2.715939     2.708295
      2.700652     2.693009     2.685366     2.677722     2.670079     2.662436     2.654793     2.647150     2.639506     2.631863
      2.624220     2.616577     2.608933     2.601290     2.593647     2.586004     2.578361     2.570717     2.563074     2.555431
      2.547788     2.540144     2.532501     2.524858     2.517215     2.509572     2.501928     2.494285     2.486642     2.478999
      2.471355     2.463712     2.456069     2.448426     2.440783     2.433139     2.425496     2.417853     2.410210     2.402566
      2.394923     2.387280     2.379637     2.371994     2.364350     2.356707     2.349064     2.341421     2.333777     2.326134
      2.318491     2.310848     2.303205     2.295561     2.287918     2.280275     2.272632     2.264988     2.257345     2.249702
      2.242059     2.234416     2.226772     2.219129     2.211486     2.203843     2.196199     2.188556     2.180913     2.173270
      2.165627     2.157983     2.150340     2.142697     2.135054     2.127410     2.119767     2.112124     2.104481     2.096838
      2.089194     2.081551     2.073908     2.066265     2.058621     2.050978     2.043335     2.035692     2.028049     2.020405
      2.012762     2.005119     1.997476     1.989833     1.982190     1.974546     1.966903     1.959260     1.951617     1.943974
      1.936331     1.928688     1.921045     1.913402     1.905759     1.898115     1.890472     1.882829     1.875186     1.867543
      1.859900     1.852257     1.844614     1.836971     1.829327     1.821684     1.814041     1.806398     1.798755     1.791112
      1.783469     1.775826     1.768183     1.760540     1.752896     1.745253     1.737610     1.729967     1.722324     1.714681
      1.707038     1.699395     1.691752     1.684108     1.676465     1.668822     1.661179     1.653536     1.645893     1.638250
      1.630607     1.622964     1.615321     1.607677     1.600034     1.592391     1.584748     1.577105     1.569462     1.561819
      1.554176     1.546533     1.538890     1.531246     1.523603     1.515960     1.508317     1.500674     1.493031     1.485388
      1.477745     1.470102     1.462458     1.454815     1.447172     1.439529     1.431886     1.424243     1.416600     1.408957
      1.401314     1.393671     1.386027     1.378384     1.370741     1.363098     1.355455     1.347812     1.340169     1.332526
      1.324883     1.317240     1.309596     1.301953     1.294310     1.286667     1.279024     1.271381     1.263738     1.256095
      1.248452     1.240808     1.233165     1.225522     1.217879     1.210236     1.202593     1.194950     1.187307     1.179664
      1.172021     1.164377     1.156734     1.149091     1.141448     1.133805     1.126162     1.118519     1.110876     1.103233
      1.095590     1.087946     1.080303     1.072660     1.065017     1.057374     1.049731     1.042088     1.034445     1.026802
      1.019158     1.011515     1.003872     0.996229     0.988586     0.980943     0.973300     0.965657     0.958014     0.950371
      0.942727     0.935084     0.927441     0.919798     0.912155     0.904512     0.896869     0.889226     0.881583     0.873940
      0.866296     0.858653     0.851010     0.843367     0.835724     0.828081     0.820438     0.812795     0.805152     0.797508
      0.789865     0.782222     0.774579     0.766936     0.759293     0.751650     0.744007     0.736364     0.728721     0.721077
      0.713434     0.705791     0.698148     0.690505     0.682862     0.675219     0.667576     0.659933     0.652290     0.644646
      0.637003     0.629360     0.621717     0.614074     0.606431     0.598788     0.591145     0.583502     0.575858     0.568215
      0.560572     0.552929     0.545286     0.537643     0.530000     0.522357     0.514714     0.507071     0.499427     0.491784
      0.484141     0.476498     0.468855     0.461212     0.453569     0.445925     0.438282     0.430639     0.422996     0.415353
      0.407710     0.400067     0.392424     0.384780     0.377137     0.369494     0.361851     0.354208     0.346565     0.338922
      0.331278     0.323635     0.315992     0.308349     0.300706     0.293063     0.285420     0.277777     0.270133     0.262490
      0.254847     0.247204     0.239561     0.231918     0.224275     0.216631     0.208988     0.201345
 NY phased data points follow
   6.17411E+01  5.15194E+01  3.29146E+01  1.75650E+01  1.29017E+01  2.58763E+01  3.83211E+01  2.11838E+01  2.72936E+01  1.34118E+01
   1.87302E+01  3.05151E+01  2.11159E+01  1.46826E+01  1.95050E+01  2.59356E+01  7.39949E+00  7.05228E+00  2.58366E+01  2.53776E+01
   2.87566E+01  3.47606E+01  2.99061E+01  1.06932E+01  3.23023E+01  2.53170E+00  2.72831E+00  3.44833E+01  4.61981E+01  1.75369E+01
   1.32487E+01  1.70390E+01  2.72507E+01  2.08015E+01  1.93802E+01  3.03656E+01  1.16217E+01  2.49632E+01  2.07251E+01  1.42582E+01
   1.58748E+01  2.21614E+01  4.28565E+00  1.14691E+01  9.68027E+00  1.81606E+01  1.32016E+01  1.47966E+01  3.70193E+01  2.20434E+01
   4.26375E+01  2.87346E+01  1.06935E+01  7.71597E+00  2.26706E+00  1.07971E+00  9.40402E+00  1.85645E+01  8.55857E+00 -7.85261E+00
   7.06860E+00  2.75569E+01  1.94899E+01  2.36775E+01  2.27485E+01  2.54379E+01  2.21553E+01  2.05249E+01  1.67089E+01 -3.97158E+00
   3.73301E+00  2.59720E+01 -1.90561E+00  7.38052E+00  4.08285E+00 -1.05719E+01  2.43209E+01  2.87584E+00  1.79185E+01  1.13832E+00
   8.77263E+00  1.60886E+01  1.05807E+01  2.34710E+01  1.99366E+01  6.49906E+00  3.54317E+00  2.83411E+00  1.34281E+01  1.62174E+01
   2.12962E+01  1.39390E+01  1.39418E+01  1.62347E+01  1.87550E+01  2.59454E+01  1.42884E+01  1.36500E+01  1.48052E+01  1.70961E+01
   1.01798E+01  2.13361E+01  1.68989E+01 -1.31871E+00 -3.25494E+00  2.05539E+01  1.88830E+01  3.27683E+01  5.24337E+00 -3.71736E+00
   1.67786E+01  2.36889E+00 -1.20536E+00  7.99063E+00  3.14203E+00  9.19349E+00  1.46892E+01  3.58288E+00  2.72256E+01  1.08059E+01
   1.63963E+01  1.45101E+01  1.22637E+01  2.94898E+01  1.40552E+01  3.10538E+00 -6.98864E-01 -4.30257E+00 -1.37110E+01  4.04561E+00
   1.65767E+01  2.01885E+01  2.52347E+00 -1.65423E+01  6.75048E-01  2.58757E+00 -1.71929E+00  1.06907E+01  1.56856E+01  1.70450E+00
  -8.70778E-01  3.31810E+00  1.36725E+01  1.80510E+01  1.58721E+01  6.03963E+00  1.54624E+01  2.44712E+01  1.86177E+01  1.14051E+01
  -6.09110E-01 -8.83681E+00  1.60985E+01  2.61177E+00  2.94936E+00  6.47367E+00  1.07748E+01  1.63269E+00  6.11741E+00  2.54024E+01
   1.28278E+00  1.18157E+01  1.02707E+01  1.17943E+01  1.73462E-01  8.81098E-01 -6.79432E+00 -1.58656E+00  3.03949E+01  5.24632E+00
   1.89995E+00 -7.35928E+00  1.50769E+01  2.36773E+01  2.71108E+00  1.25540E+00  2.27379E+00  8.95364E+00  7.14239E+00 -4.48030E+00
   2.73779E+00  1.55396E+00  4.53730E-01 -6.14258E+00 -2.36430E-01  2.70784E+01 -5.50676E+00  7.06305E+00  6.61186E+00  1.36754E+00
  -7.84589E+00  7.66777E+00 -7.08583E+00  1.58471E+01  6.75606E+00  6.55029E+00  9.30713E+00  1.37573E+01  2.08304E+01  3.94856E+00
   3.26148E+01  7.30570E+00  2.32503E+01  1.78384E+01  1.78632E+01  2.85317E+01  3.10904E+00  2.73323E+01 -1.33742E+01  2.87225E+01
   1.01572E+01 -8.24119E+00  1.82480E+00 -1.17615E+00  9.67366E-01  1.63005E+01  1.18502E+00  7.68279E+00  2.26298E+00  1.17010E+01
   1.49208E+00  1.74966E-01 -1.04405E+01  1.53172E+01  2.21113E+01  1.62750E+01  1.55193E+00  1.89713E+01 -8.63010E+00 -5.62920E+00
  -1.30936E+01 -8.56274E+00  1.30124E+00  1.22795E+01  1.10726E+01 -3.09009E+00 -3.22816E+00  1.03810E+01  2.65848E+01  5.91551E+00
   2.82263E+01  3.51235E+00  1.68793E+01  1.64745E+01  1.24356E+01  1.53806E+01  2.51237E+01  1.21059E+01  2.86553E+01  2.63417E+01
   3.29461E+01  6.46960E+00  1.81845E+01  2.10454E+01  6.76188E+00  3.10494E+01  7.31592E-02 -5.35339E+00  1.09828E+01  1.28966E+01
  -1.35623E+01 -4.65521E+00  2.03826E+01 -3.66150E+00  1.49119E+01  8.37899E+00  2.30135E+00  8.17997E+00  2.30055E+01  1.08564E+01
   1.83945E+00  1.78029E+01  2.33992E+01  2.59091E+00  9.64636E+00 -2.53213E+00 -9.41919E+00  1.54660E+01  8.63819E+00 -3.82518E+00
   1.41647E+01  4.15793E+00  1.00953E+01  1.32904E+01 -1.83656E+00  6.94212E+00 -1.48481E+01  2.67361E+00 -6.08475E-01  1.03032E+01
  -7.39417E+00  7.79025E+00  3.16616E-02  1.56772E+01  2.24693E+01 -8.69739E-02  2.42011E+00  1.67310E+01  9.96388E+00 -1.73761E-01
   3.49505E+00 -3.42153E+00 -9.54671E+00 -1.21680E+01  2.03049E+01  8.23568E+00  1.44654E+01  7.37044E+00  9.79300E-01  8.24717E+00
   7.53157E+00 -1.18646E+01 -1.25700E+01 -1.47923E+01 -1.13145E-01  9.21356E+00 -2.38130E+01 -1.93707E-01  1.55886E+00  4.92359E+00
   1.19255E+01  8.31635E+00  5.03840E-01 -1.27698E+00 -8.90415E+00 -2.04180E+00  1.44022E+01 -1.21793E+01  1.24903E+01 -1.43802E+00
  -1.75733E+00 -8.29290E+00 -2.26538E+01 -1.91436E+01  2.14395E-01  6.08548E-01 -6.49206E+00 -3.69389E+00 -8.50399E+00  3.25195E+00
  -4.24044E-02  3.89605E+00  1.79286E+00 -3.81215E+00 -1.86865E+01  7.26737E+00  5.21866E+00  6.51694E+00 -1.21308E+01  3.87005E+00
   1.85205E+01 -1.10403E+01  2.10159E+01  1.58055E+01 -9.08479E+00 -1.52471E-01  8.85810E+00  4.24646E+00 -4.95759E+00  3.05514E+00
  -9.66971E+00  1.15857E+00  7.17226E+00 -1.08833E+01  6.73855E+00 -5.61531E+00 -1.24514E+01  4.84118E+00 -7.49119E+00 -4.88060E+00
   1.09542E+00  2.85636E+00  1.21089E+01  1.52462E+01 -3.84334E+00  1.68301E+01  1.89706E+01  6.86581E+00 -5.47860E+00  2.17224E+01
   9.46803E+00 -1.95487E+00 -4.47367E+00 -1.41573E+01 -1.49615E+01  7.82363E+00 -7.39293E+00 -2.04610E+00  8.58625E+00  1.22715E+01
   4.44326E+00 -2.45141E+01  5.17010E+00  4.11494E+00  7.72497E+00  1.25200E+01  5.83676E+00 -2.86462E+00 -2.66926E+00  1.09423E+01
   1.43617E+01 -1.65137E+01  1.64473E+01 -4.51879E+00  2.14665E+01  1.39693E+01 -3.43347E+00 -1.14265E+01 -2.56079E+01 -4.65907E+00
  -1.72718E+01  4.86868E+00 -2.94101E+00  1.07780E+01  1.58569E+01  5.98218E+00 -2.67218E+00 -1.08983E+01 -1.72671E+00 -1.39154E+00
   8.61544E+00  1.80660E+00 -6.41435E+00  1.25649E+00 -3.18497E+00  6.80070E+00  1.05538E+01  8.34558E+00 -7.92056E+00  4.43524E+00
   1.34155E+01 -1.30551E+01 -1.14381E+00 -2.16107E+00  4.87352E+00 -8.07976E+00  2.76123E+00  1.03612E+01  1.02037E+00  1.68678E+01
  -1.28197E+01  1.23400E+01 -1.91209E+01  6.58122E+00  4.24523E+00  1.47600E+00  2.06807E+00  4.04322E+00 -1.00748E+01 -2.04572E+00
   1.31707E+01 -7.06191E+00 -6.07347E+00  5.31472E+00  6.42898E+00  1.34926E+01  8.56612E+00 -9.58229E+00  4.44088E+00 -1.78980E+01
  -2.70071E-01  1.00490E-01 -1.71466E+00  9.84144E+00 -6.48735E+00  8.40058E+00  3.45658E+00 -2.41231E+00 -5.19221E+00  1.03655E+01
   9.35401E+00  8.03320E+00 -1.03184E+01 -5.36729E+00 -3.80356E+00 -1.11657E+00  5.19035E+00  2.75777E+00 -8.28449E-01 -1.39311E+01
  -5.22820E+00  3.38868E+00 -1.89558E-01 -8.17339E-01 -5.53496E+00  2.07026E+01 -1.64405E+01 -9.71859E+00 -2.22761E+00  1.08992E+01
   2.16855E-01 -1.32843E+01 -3.22625E+00  7.11621E+00 -4.11769E+00 -2.16040E+00  1.57294E+00  7.44506E+00
 NY points of the fit to the data follow
   1.95737E+01  1.79907E+01  1.65779E+01  1.56229E+01  1.51694E+01  1.49456E+01  1.48225E+01  1.47542E+01  1.47145E+01  1.46828E+01
   1.46469E+01  1.46025E+01  1.45521E+01  1.44881E+01  1.44101E+01  1.43342E+01  1.42810E+01  1.42716E+01  1.43254E+01  1.44246E+01
   1.45678E+01  1.47138E+01  1.47927E+01  1.47767E+01  1.47701E+01  1.51897E+01  1.62025E+01  1.76157E+01  1.91852E+01  2.07421E+01
   2.21382E+01  2.31547E+01  2.35532E+01  2.30627E+01  2.16967E+01  1.98251E+01  1.81306E+01  1.72262E+01  1.66330E+01  1.59044E+01
   1.50518E+01  1.41479E+01  1.34680E+01  1.37678E+01  1.56786E+01  1.90013E+01  2.27677E+01  2.58641E+01  2.77641E+01  2.83223E+01
   2.73280E+01  2.45875E+01  2.03554E+01  1.55791E+01  1.18199E+01  1.04483E+01  1.12730E+01  1.31513E+01  1.52116E+01  1.70489E+01
   1.84126E+01  1.91354E+01  1.91483E+01  1.84989E+01  1.72856E+01  1.56912E+01  1.41607E+01  1.33239E+01  1.34147E+01  1.42889E+01
   1.55256E+01  1.66637E+01  1.74394E+01  1.77545E+01  1.76616E+01  1.72807E+01  1.66647E+01  1.59128E+01  1.51317E+01  1.45634E+01
   1.42665E+01  1.40757E+01  1.38194E+01  1.33145E+01  1.24488E+01  1.12422E+01  9.84106E+00  8.43670E+00  7.20645E+00  6.33447E+00
   6.01307E+00  6.38963E+00  7.52413E+00  9.16459E+00  1.07506E+01  1.17971E+01  1.21598E+01  1.20663E+01  1.20305E+01  1.22415E+01
   1.26262E+01  1.31453E+01  1.37823E+01  1.44932E+01  1.51425E+01  1.52901E+01  1.46256E+01  1.32011E+01  1.14674E+01  1.01292E+01
   9.68133E+00  9.65947E+00  9.67639E+00  9.72063E+00  9.77015E+00  9.78462E+00  9.74678E+00  9.65930E+00  9.53995E+00  9.41656E+00
   9.32102E+00  9.27018E+00  9.27132E+00  9.32485E+00  9.43085E+00  9.57777E+00  9.73999E+00  9.90403E+00  1.01219E+01  1.04409E+01
   1.07799E+01  1.10164E+01  1.10606E+01  1.08472E+01  1.04017E+01  9.80527E+00  9.14224E+00  8.55004E+00  8.17189E+00  8.17060E+00
   8.65119E+00  9.46851E+00  1.02399E+01  1.07183E+01  1.08193E+01  1.05522E+01  1.00750E+01  9.57401E+00  9.16478E+00  8.90126E+00
   8.69064E+00  8.49521E+00  8.31304E+00  8.15125E+00  8.02016E+00  7.93093E+00  7.89108E+00  7.88429E+00  7.89353E+00  7.90187E+00
   7.88627E+00  7.82606E+00  7.72669E+00  7.62564E+00  7.54343E+00  7.47901E+00  7.42998E+00  7.39372E+00  7.37562E+00  7.37717E+00
   7.38550E+00  7.38276E+00  7.35891E+00  7.31185E+00  7.24605E+00  7.16002E+00  7.04785E+00  6.91306E+00  6.77508E+00  6.66269E+00
   6.56883E+00  6.46965E+00  6.34903E+00  6.21550E+00  6.10831E+00  6.08771E+00  6.21193E+00  6.50791E+00  6.94137E+00  7.42545E+00
   7.86598E+00  8.15903E+00  8.14481E+00  7.73158E+00  6.99523E+00  6.10203E+00  5.28070E+00  4.76619E+00  4.68685E+00  5.03606E+00
   5.70894E+00  6.54935E+00  7.37688E+00  7.96170E+00  8.11323E+00  7.83254E+00  7.37619E+00  6.92454E+00  6.55233E+00  6.29371E+00
   6.14623E+00  6.10972E+00  6.20547E+00  6.41749E+00  6.69021E+00  6.94788E+00  7.10707E+00  7.13275E+00  7.11387E+00  7.12801E+00
   7.16369E+00  7.19448E+00  7.21324E+00  7.22876E+00  7.24217E+00  7.24258E+00  7.18256E+00  7.01097E+00  6.75165E+00  6.47443E+00
   6.24860E+00  6.11882E+00  6.15227E+00  6.42159E+00  6.89153E+00  7.45845E+00  7.99577E+00  8.34122E+00  8.31818E+00  7.89405E+00
   7.23078E+00  6.51650E+00  5.91256E+00  5.58240E+00  5.67585E+00  6.14608E+00  6.75025E+00  7.35100E+00  7.87577E+00  8.21419E+00
   8.31331E+00  8.30980E+00  8.36447E+00  8.52891E+00  8.72371E+00  8.87587E+00  8.95271E+00  8.93693E+00  8.78357E+00  8.43221E+00
   7.89366E+00  7.27564E+00  6.76322E+00  6.48415E+00  6.33012E+00  6.19739E+00  6.05943E+00  5.91851E+00  5.77983E+00  5.64697E+00
   5.52147E+00  5.40414E+00  5.29426E+00  5.19018E+00  5.08895E+00  4.98757E+00  4.88356E+00  4.77664E+00  4.67137E+00  4.57272E+00
   4.48326E+00  4.40562E+00  4.34044E+00  4.28498E+00  4.23529E+00  4.18987E+00  4.14843E+00  4.11143E+00  4.07891E+00  4.05188E+00
   4.03212E+00  4.01955E+00  4.01293E+00  4.01179E+00  4.01358E+00  4.01558E+00  4.01579E+00  4.01268E+00  4.00653E+00  3.99955E+00
   3.99221E+00  3.98402E+00  3.97451E+00  3.96306E+00  3.94877E+00  3.93028E+00  3.90656E+00  3.87863E+00  3.84792E+00  3.81568E+00
   3.78337E+00  3.75257E+00  3.72506E+00  3.70299E+00  3.68890E+00  3.68602E+00  3.69844E+00  3.73171E+00  3.79416E+00  3.89952E+00
   4.07389E+00  4.37864E+00  4.93358E+00  5.63896E+00  6.17454E+00  6.31594E+00  5.96438E+00  5.11728E+00  3.78292E+00  1.94566E+00
  -1.52368E-01 -1.92139E+00 -2.82345E+00 -2.50417E+00 -1.01195E+00  9.75379E-01  2.89031E+00  4.61310E+00  5.92506E+00  6.53793E+00
   6.28580E+00  5.34376E+00  4.34868E+00  3.75798E+00  3.39782E+00  3.14475E+00  2.95192E+00  2.79743E+00  2.66943E+00  2.56086E+00
   2.46718E+00  2.38530E+00  2.31305E+00  2.24882E+00  2.19133E+00  2.13947E+00  2.09222E+00  2.04865E+00  2.00790E+00  1.96920E+00
   1.93183E+00  1.89510E+00  1.85841E+00  1.82125E+00  1.78321E+00  1.74405E+00  1.70361E+00  1.66188E+00  1.61895E+00  1.57505E+00
   1.53056E+00  1.48595E+00  1.44180E+00  1.39878E+00  1.35760E+00  1.31908E+00  1.28407E+00  1.25349E+00  1.22828E+00  1.20942E+00
   1.19788E+00  1.19467E+00  1.20079E+00  1.21719E+00  1.24478E+00  1.28434E+00  1.33649E+00  1.40166E+00  1.48001E+00  1.57132E+00
   1.67498E+00  1.78986E+00  1.91435E+00  2.04628E+00  2.18291E+00  2.32101E+00  2.45690E+00  2.58655E+00  2.70576E+00  2.81030E+00
   2.89613E+00  2.95955E+00  2.99742E+00  3.00733E+00  2.98773E+00  2.93799E+00  2.85847E+00  2.75047E+00  2.61616E+00  2.45846E+00
   2.28090E+00  2.08741E+00  1.88211E+00  1.66914E+00  1.45249E+00  1.23584E+00  1.02243E+00  8.15015E-01  6.15783E-01  4.26370E-01
   2.47884E-01  8.09519E-02 -7.42231E-02 -2.17792E-01 -3.50183E-01 -4.72032E-01 -5.84101E-01 -6.87229E-01 -7.82287E-01 -8.70140E-01
  -9.51620E-01 -1.02750E+00 -1.09849E+00 -1.16522E+00 -1.22825E+00 -1.28808E+00 -1.34514E+00 -1.39980E+00 -1.45238E+00 -1.50315E+00
  -1.55233E+00 -1.60013E+00 -1.64672E+00 -1.69225E+00 -1.73683E+00 -1.78057E+00 -1.82357E+00 -1.86590E+00 -1.90763E+00 -1.94883E+00
  -1.98953E+00 -2.02980E+00 -2.06966E+00 -2.10916E+00 -2.14834E+00 -2.18720E+00 -2.22578E+00 -2.26410E+00 -2.30218E+00 -2.34004E+00
  -2.37771E+00 -2.41518E+00 -2.45247E+00 -2.48961E+00 -2.52660E+00 -2.56344E+00 -2.60016E+00 -2.63675E+00 -2.67322E+00 -2.70958E+00
  -2.74585E+00 -2.78202E+00 -2.81810E+00 -2.85410E+00 -2.89001E+00 -2.92585E+00 -2.96162E+00 -2.99732E+00 -3.03295E+00 -3.06852E+00
  -3.10403E+00 -3.13949E+00 -3.17489E+00 -3.21024E+00 -3.24554E+00 -3.28079E+00 -3.31600E+00 -3.35117E+00 -3.38629E+00 -3.42136E+00
  -3.45640E+00 -3.49139E+00 -3.52634E+00 -3.56126E+00 -3.59613E+00 -3.63096E+00 -3.66574E+00 -3.70049E+00
 NY background values follow
     1.316E+01    1.312E+01    1.309E+01    1.306E+01    1.302E+01    1.299E+01    1.295E+01    1.292E+01    1.289E+01    1.285E+01
     1.282E+01    1.278E+01    1.275E+01    1.272E+01    1.268E+01    1.265E+01    1.261E+01    1.258E+01    1.255E+01    1.251E+01
     1.248E+01    1.244E+01    1.241E+01    1.238E+01    1.234E+01    1.231E+01    1.227E+01    1.224E+01    1.221E+01    1.217E+01
     1.214E+01    1.210E+01    1.207E+01    1.204E+01    1.200E+01    1.197E+01    1.193E+01    1.190E+01    1.187E+01    1.183E+01
     1.180E+01    1.176E+01    1.173E+01    1.169E+01    1.166E+01    1.163E+01    1.159E+01    1.156E+01    1.152E+01    1.149E+01
     1.146E+01    1.142E+01    1.139E+01    1.135E+01    1.132E+01    1.129E+01    1.125E+01    1.122E+01    1.118E+01    1.115E+01
     1.112E+01    1.108E+01    1.105E+01    1.101E+01    1.098E+01    1.095E+01    1.091E+01    1.088E+01    1.084E+01    1.081E+01
     1.078E+01    1.074E+01    1.071E+01    1.067E+01    1.064E+01    1.061E+01    1.057E+01    1.054E+01    1.050E+01    1.047E+01
     1.044E+01    1.040E+01    1.037E+01    1.033E+01    1.030E+01    1.027E+01    1.023E+01    1.020E+01    1.016E+01    1.013E+01
     1.010E+01    1.006E+01    1.003E+01    9.993E+00    9.959E+00    9.925E+00    9.891E+00    9.857E+00    9.823E+00    9.789E+00
     9.755E+00    9.721E+00    9.687E+00    9.653E+00    9.619E+00    9.585E+00    9.550E+00    9.516E+00    9.482E+00    9.448E+00
     9.414E+00    9.380E+00    9.346E+00    9.312E+00    9.278E+00    9.244E+00    9.210E+00    9.176E+00    9.142E+00    9.108E+00
     9.074E+00    9.040E+00    9.006E+00    8.972E+00    8.938E+00    8.904E+00    8.870E+00    8.836E+00    8.802E+00    8.768E+00
     8.734E+00    8.700E+00    8.665E+00    8.631E+00    8.597E+00    8.563E+00    8.529E+00    8.495E+00    8.461E+00    8.427E+00
     8.393E+00    8.359E+00    8.325E+00    8.291E+00    8.257E+00    8.223E+00    8.189E+00    8.155E+00    8.121E+00    8.087E+00
     8.053E+00    8.019E+00    7.985E+00    7.951E+00    7.917E+00    7.883E+00    7.849E+00    7.815E+00    7.781E+00    7.747E+00
     7.712E+00    7.678E+00    7.644E+00    7.610E+00    7.576E+00    7.542E+00    7.508E+00    7.474E+00    7.440E+00    7.406E+00
     7.372E+00    7.338E+00    7.304E+00    7.270E+00    7.236E+00    7.202E+00    7.168E+00    7.134E+00    7.100E+00    7.066E+00
     7.032E+00    6.998E+00    6.964E+00    6.930E+00    6.896E+00    6.862E+00    6.828E+00    6.793E+00    6.759E+00    6.725E+00
     6.691E+00    6.657E+00    6.623E+00    6.589E+00    6.555E+00    6.521E+00    6.487E+00    6.453E+00    6.419E+00    6.385E+00
     6.351E+00    6.317E+00    6.283E+00    6.249E+00    6.215E+00    6.181E+00    6.147E+00    6.113E+00    6.079E+00    6.045E+00
     6.011E+00    5.977E+00    5.943E+00    5.909E+00    5.875E+00    5.840E+00    5.806E+00    5.772E+00    5.738E+00    5.704E+00
     5.670E+00    5.636E+00    5.602E+00    5.568E+00    5.534E+00    5.500E+00    5.466E+00    5.432E+00    5.398E+00    5.364E+00
     5.330E+00    5.296E+00    5.262E+00    5.228E+00    5.194E+00    5.160E+00    5.126E+00    5.092E+00    5.058E+00    5.024E+00
     4.990E+00    4.956E+00    4.922E+00    4.888E+00    4.853E+00    4.819E+00    4.785E+00    4.751E+00    4.717E+00    4.683E+00
     4.649E+00    4.615E+00    4.581E+00    4.547E+00    4.513E+00    4.479E+00    4.445E+00    4.411E+00    4.377E+00    4.343E+00
     4.309E+00    4.275E+00    4.241E+00    4.207E+00    4.173E+00    4.139E+00    4.105E+00    4.071E+00    4.037E+00    4.003E+00
     3.969E+00    3.935E+00    3.901E+00    3.866E+00    3.832E+00    3.798E+00    3.764E+00    3.730E+00    3.696E+00    3.662E+00
     3.628E+00    3.594E+00    3.560E+00    3.526E+00    3.492E+00    3.458E+00    3.424E+00    3.390E+00    3.356E+00    3.322E+00
     3.288E+00    3.254E+00    3.220E+00    3.186E+00    3.152E+00    3.118E+00    3.084E+00    3.050E+00    3.016E+00    2.982E+00
     2.948E+00    2.914E+00    2.880E+00    2.845E+00    2.811E+00    2.777E+00    2.743E+00    2.709E+00    2.675E+00    2.641E+00
     2.607E+00    2.573E+00    2.539E+00    2.505E+00    2.471E+00    2.437E+00    2.403E+00    2.369E+00    2.335E+00    2.301E+00
     2.267E+00    2.233E+00    2.199E+00    2.165E+00    2.131E+00    2.097E+00    2.063E+00    2.029E+00    1.995E+00    1.961E+00
     1.927E+00    1.893E+00    1.859E+00    1.824E+00    1.790E+00    1.756E+00    1.722E+00    1.688E+00    1.654E+00    1.620E+00
     1.586E+00    1.552E+00    1.518E+00    1.484E+00    1.450E+00    1.416E+00    1.382E+00    1.348E+00    1.314E+00    1.280E+00
     1.246E+00    1.212E+00    1.178E+00    1.144E+00    1.110E+00    1.076E+00    1.042E+00    1.008E+00    9.737E-01    9.396E-01
     9.056E-01    8.716E-01    8.375E-01    8.035E-01    7.695E-01    7.355E-01    7.014E-01    6.674E-01    6.334E-01    5.993E-01
     5.653E-01    5.313E-01    4.972E-01    4.632E-01    4.292E-01    3.951E-01    3.611E-01    3.271E-01    2.930E-01    2.590E-01
     2.250E-01    1.909E-01    1.569E-01    1.229E-01    8.885E-02    5.482E-02    2.079E-02   -1.324E-02   -4.727E-02   -8.130E-02
    -1.153E-01   -1.494E-01   -1.834E-01   -2.174E-01   -2.515E-01   -2.855E-01   -3.195E-01   -3.536E-01   -3.876E-01   -4.216E-01
    -4.556E-01   -4.897E-01   -5.237E-01   -5.577E-01   -5.918E-01   -6.258E-01   -6.598E-01   -6.939E-01   -7.279E-01   -7.619E-01
    -7.960E-01   -8.300E-01   -8.640E-01   -8.980E-01   -9.321E-01   -9.661E-01   -1.000E+00   -1.034E+00   -1.068E+00   -1.102E+00
    -1.136E+00   -1.170E+00   -1.204E+00   -1.238E+00   -1.272E+00   -1.306E+00   -1.340E+00   -1.374E+00   -1.409E+00   -1.443E+00
    -1.477E+00   -1.511E+00   -1.545E+00   -1.579E+00   -1.613E+00   -1.647E+00   -1.681E+00   -1.715E+00   -1.749E+00   -1.783E+00
    -1.817E+00   -1.851E+00   -1.885E+00   -1.919E+00   -1.953E+00   -1.987E+00   -2.021E+00   -2.055E+00   -2.089E+00   -2.123E+00
    -2.157E+00   -2.191E+00   -2.225E+00   -2.259E+00   -2.293E+00   -2.327E+00   -2.361E+00   -2.395E+00   -2.429E+00   -2.463E+00
    -2.497E+00   -2.532E+00   -2.566E+00   -2.600E+00   -2.634E+00   -2.668E+00   -2.702E+00   -2.736E+00   -2.770E+00   -2.804E+00
    -2.838E+00   -2.872E+00   -2.906E+00   -2.940E+00   -2.974E+00   -3.008E+00   -3.042E+00   -3.076E+00   -3.110E+00   -3.144E+00
    -3.178E+00   -3.212E+00   -3.246E+00   -3.280E+00   -3.314E+00   -3.348E+00   -3.382E+00   -3.416E+00   -3.450E+00   -3.484E+00
    -3.518E+00   -3.552E+00   -3.586E+00   -3.620E+00   -3.655E+00   -3.689E+00   -3.723E+00   -3.757E+00
 Ala      Conc. = 3.73E+02
