 LCModel (Version 6.3-1L) Copyright: S.W. Provencher.          Ref.: Magn. Reson. Med. 30:672-679 (1993).                
 Slice#2 Row#3 Col#1  PD_05_press_2_raw_act
 36 lines in following concentration table = NCONC+1
    Conc.  %SD /Cr+PCr  Metabolite                                         
    0.000 999%   0.000 Ala                                                 
   35.945  76%   0.125 Asp                                                 
    0.000 999%   0.000 Cr                                                  
  287.337  23%   1.000 PCr                                                 
   21.747  76% 7.6E-02 GABA                                                
   21.239  78% 7.4E-02 Glc                                                 
  464.688  63%   1.617 Gln                                                 
  388.679  82%   1.353 Glu                                                 
   68.384  37%   0.238 GPC                                                 
    0.000 999%   0.000 PCh                                                 
  222.749  44%   0.775 GSH                                                 
  343.993  92%   1.197 Ins                                                 
    0.000 999%   0.000 Lac                                                 
  140.557  64%   0.489 NAA                                                 
   83.183 113%   0.289 NAAG                                                
    6.835  80% 2.4E-02 Scyllo                                              
   29.824  92%   0.104 Tau                                                 
    0.000 999%   0.000 -CrCH2                                              
   68.384  37%   0.238 GPC+PCh                                             
  223.740  43%   0.779 NAA+NAAG                                            
  287.337  23%   1.000 Cr+PCr                                              
  853.367  51%   2.970 Glu+Gln                                             
  180.435 226%   0.628 Lip13a                                              
    0.000 999%   0.000 Lip13b                                              
    0.000 999%   0.000 Lip09                                               
 1.65E+03  16%   5.748 MM09                                                
    0.000 999%   0.000 Lip20                                               
 2.51E+03  17%   8.735 MM20                                                
  515.737  20%   1.795 MM12                                                
 1.25E+03  25%   4.354 MM14                                                
  971.865  21%   3.382 MM17                                                
  180.435 226%   0.628 Lip13a+Lip13b                                       
 1.95E+03  25%   6.776 MM14+Lip13a+Lip13b+MM12                             
 1.65E+03  16%   5.748 MM09+Lip09                                          
 2.51E+03  17%   8.735 MM20+Lip20                                          
   6 lines in following misc. output table
  FWHM = 0.054 ppm    S/N =   1                                            
  Data shift = 0.046 ppm                                                   
  Ph: 106 deg      21.9 deg/ppm                                            
  alphaB,S = 9.5E-01,   4.8E+01                                            
   14 spline knots.   Ns = 5(1)                                            
  ( 5) 2 infls.   ( 3) 1 extrs.                                            
  498 points on ppm-axis = NY
      4.000000     3.992357     3.984714     3.977070     3.969427     3.961784     3.954141     3.946497     3.938854     3.931211
      3.923568     3.915925     3.908281     3.900638     3.892995     3.885352     3.877708     3.870065     3.862422     3.854779
      3.847136     3.839492     3.831849     3.824206     3.816563     3.808919     3.801276     3.793633     3.785990     3.778347
      3.770703     3.763060     3.755417     3.747774     3.740130     3.732487     3.724844     3.717201     3.709558     3.701914
      3.694271     3.686628     3.678985     3.671341     3.663698     3.656055     3.648412     3.640769     3.633125     3.625482
      3.617839     3.610196     3.602552     3.594909     3.587266     3.579623     3.571980     3.564336     3.556693     3.549050
      3.541407     3.533763     3.526120     3.518477     3.510834     3.503191     3.495547     3.487904     3.480261     3.472618
      3.464974     3.457331     3.449688     3.442045     3.434402     3.426758     3.419115     3.411472     3.403829     3.396185
      3.388542     3.380899     3.373256     3.365613     3.357969     3.350326     3.342683     3.335040     3.327396     3.319753
      3.312110     3.304467     3.296824     3.289180     3.281537     3.273894     3.266251     3.258607     3.250964     3.243321
      3.235678     3.228034     3.220391     3.212748     3.205105     3.197462     3.189818     3.182175     3.174532     3.166889
      3.159245     3.151602     3.143959     3.136316     3.128673     3.121029     3.113386     3.105743     3.098100     3.090456
      3.082813     3.075170     3.067527     3.059884     3.052240     3.044597     3.036954     3.029311     3.021667     3.014024
      3.006381     2.998738     2.991095     2.983451     2.975808     2.968165     2.960522     2.952878     2.945235     2.937592
      2.929949     2.922306     2.914662     2.907019     2.899376     2.891733     2.884089     2.876446     2.868803     2.861160
      2.853517     2.845873     2.838230     2.830587     2.822944     2.815300     2.807657     2.800014     2.792371     2.784728
      2.777084     2.769441     2.761798     2.754155     2.746511     2.738868     2.731225     2.723582     2.715939     2.708295
      2.700652     2.693009     2.685366     2.677722     2.670079     2.662436     2.654793     2.647150     2.639506     2.631863
      2.624220     2.616577     2.608933     2.601290     2.593647     2.586004     2.578361     2.570717     2.563074     2.555431
      2.547788     2.540144     2.532501     2.524858     2.517215     2.509572     2.501928     2.494285     2.486642     2.478999
      2.471355     2.463712     2.456069     2.448426     2.440783     2.433139     2.425496     2.417853     2.410210     2.402566
      2.394923     2.387280     2.379637     2.371994     2.364350     2.356707     2.349064     2.341421     2.333777     2.326134
      2.318491     2.310848     2.303205     2.295561     2.287918     2.280275     2.272632     2.264988     2.257345     2.249702
      2.242059     2.234416     2.226772     2.219129     2.211486     2.203843     2.196199     2.188556     2.180913     2.173270
      2.165627     2.157983     2.150340     2.142697     2.135054     2.127410     2.119767     2.112124     2.104481     2.096838
      2.089194     2.081551     2.073908     2.066265     2.058621     2.050978     2.043335     2.035692     2.028049     2.020405
      2.012762     2.005119     1.997476     1.989833     1.982190     1.974546     1.966903     1.959260     1.951617     1.943974
      1.936331     1.928688     1.921045     1.913402     1.905759     1.898115     1.890472     1.882829     1.875186     1.867543
      1.859900     1.852257     1.844614     1.836971     1.829327     1.821684     1.814041     1.806398     1.798755     1.791112
      1.783469     1.775826     1.768183     1.760540     1.752896     1.745253     1.737610     1.729967     1.722324     1.714681
      1.707038     1.699395     1.691752     1.684108     1.676465     1.668822     1.661179     1.653536     1.645893     1.638250
      1.630607     1.622964     1.615321     1.607677     1.600034     1.592391     1.584748     1.577105     1.569462     1.561819
      1.554176     1.546533     1.538890     1.531246     1.523603     1.515960     1.508317     1.500674     1.493031     1.485388
      1.477745     1.470102     1.462458     1.454815     1.447172     1.439529     1.431886     1.424243     1.416600     1.408957
      1.401314     1.393671     1.386027     1.378384     1.370741     1.363098     1.355455     1.347812     1.340169     1.332526
      1.324883     1.317240     1.309596     1.301953     1.294310     1.286667     1.279024     1.271381     1.263738     1.256095
      1.248452     1.240808     1.233165     1.225522     1.217879     1.210236     1.202593     1.194950     1.187307     1.179664
      1.172021     1.164377     1.156734     1.149091     1.141448     1.133805     1.126162     1.118519     1.110876     1.103233
      1.095590     1.087946     1.080303     1.072660     1.065017     1.057374     1.049731     1.042088     1.034445     1.026802
      1.019158     1.011515     1.003872     0.996229     0.988586     0.980943     0.973300     0.965657     0.958014     0.950371
      0.942727     0.935084     0.927441     0.919798     0.912155     0.904512     0.896869     0.889226     0.881583     0.873940
      0.866296     0.858653     0.851010     0.843367     0.835724     0.828081     0.820438     0.812795     0.805152     0.797508
      0.789865     0.782222     0.774579     0.766936     0.759293     0.751650     0.744007     0.736364     0.728721     0.721077
      0.713434     0.705791     0.698148     0.690505     0.682862     0.675219     0.667576     0.659933     0.652290     0.644646
      0.637003     0.629360     0.621717     0.614074     0.606431     0.598788     0.591145     0.583502     0.575858     0.568215
      0.560572     0.552929     0.545286     0.537643     0.530000     0.522357     0.514714     0.507071     0.499427     0.491784
      0.484141     0.476498     0.468855     0.461212     0.453569     0.445925     0.438282     0.430639     0.422996     0.415353
      0.407710     0.400067     0.392424     0.384780     0.377137     0.369494     0.361851     0.354208     0.346565     0.338922
      0.331278     0.323635     0.315992     0.308349     0.300706     0.293063     0.285420     0.277777     0.270133     0.262490
      0.254847     0.247204     0.239561     0.231918     0.224275     0.216631     0.208988     0.201345
 NY phased data points follow
   7.42721E+01  7.50163E+01  6.70566E+01  6.67267E+01  8.03110E+01  7.60211E+01  7.16850E+01  6.62572E+01  7.12188E+01  7.36114E+01
   7.68481E+01  6.47501E+01  6.06932E+01  7.77866E+01  5.52239E+01  6.13435E+01  6.69216E+01  5.70811E+01  6.46687E+01  6.38105E+01
   6.57803E+01  6.32183E+01  6.28009E+01  6.32728E+01  5.82059E+01  5.81166E+01  5.68670E+01  5.80552E+01  5.79163E+01  5.90788E+01
   6.18576E+01  5.94055E+01  6.16991E+01  5.79304E+01  5.21505E+01  5.49487E+01  4.91833E+01  5.29650E+01  5.11805E+01  4.75294E+01
   5.45075E+01  5.18054E+01  4.87127E+01  5.10114E+01  5.02471E+01  4.95648E+01  4.99702E+01  5.25890E+01  4.52131E+01  5.32394E+01
   5.24767E+01  5.99379E+01  4.78034E+01  3.96437E+01  5.09932E+01  4.13354E+01  4.95233E+01  4.70979E+01  4.87365E+01  4.43814E+01
   4.02998E+01  4.37970E+01  4.54588E+01  3.65337E+01  3.44831E+01  3.98580E+01  3.73994E+01  4.37939E+01  3.93181E+01  4.82055E+01
   4.06165E+01  4.51900E+01  3.73424E+01  3.26354E+01  3.49376E+01  4.02948E+01  4.46355E+01  2.74433E+01  4.68695E+01  3.82102E+01
   3.89006E+01  2.76293E+01  3.57224E+01  4.30057E+01  3.11017E+01  3.52497E+01  3.49260E+01  3.92027E+01  3.83277E+01  3.18941E+01
   3.96436E+01  2.71655E+01  3.40318E+01  3.58409E+01  3.23880E+01  3.96103E+01  3.66790E+01  3.07598E+01  3.30494E+01  3.60829E+01
   4.90229E+01  4.05394E+01  3.57161E+01  3.54901E+01  3.30947E+01  3.28623E+01  3.35158E+01  2.93389E+01  2.32692E+01  2.52862E+01
   3.63010E+01  3.08268E+01  3.00033E+01  3.02433E+01  2.87597E+01  2.77638E+01  1.36683E+01  2.90362E+01  3.41482E+01  2.49858E+01
   3.41267E+01  3.26152E+01  2.82315E+01  3.20519E+01  3.73707E+01  3.86255E+01  2.59642E+01  3.04819E+01  3.75605E+01  3.56732E+01
   2.62696E+01  2.96775E+01  2.85560E+01  2.58208E+01  2.20192E+01  2.32002E+01  2.81084E+01  2.56472E+01  2.58843E+01  2.69965E+01
   2.19637E+01  2.68298E+01  2.75397E+01  2.09825E+01  2.95080E+01  2.36948E+01  3.03138E+01  2.30749E+01  2.19231E+01  1.73296E+01
   2.18471E+01  2.24710E+01  1.59359E+01  2.02376E+01  2.33466E+01  2.81496E+01  1.40815E+01  1.37615E+01  1.88042E+01  1.82488E+01
   1.39238E+01  1.98357E+01  1.89026E+01  1.55213E+01  1.96687E+01  1.70979E+01  1.26314E+01  2.65426E+01  2.15293E+01  2.33145E+01
   1.66431E+01  1.69968E+01  1.38332E+01  1.78619E+01  2.07091E+01  7.47292E+00  1.34292E+01  1.23853E+01  2.06392E+01  1.51731E+01
   1.31241E+01  1.08974E+01  6.58023E+00  9.90540E+00  1.48372E+01  1.64685E+01  1.28693E+01  7.01068E+00  1.01198E+01  1.41730E+01
   1.96368E+01  1.92666E+01  7.70228E+00  1.87874E+01  9.58128E+00  1.63512E+01  7.62489E+00  3.38618E+00  5.43834E+00  9.83833E+00
   1.60255E+01  1.37354E+01  1.02448E+01  8.72776E+00  2.44026E+00  1.32651E+01  2.59213E+00  8.06773E+00  5.56968E+00  2.16106E+01
   1.33396E+01  1.36502E+01  1.46137E+01  1.22955E+01  1.40306E+01  1.68047E+01  1.89812E+01  9.81669E+00  1.88278E+01  1.58660E+01
   1.23585E+01  9.56212E+00  8.54373E+00  1.35883E+01  2.27940E+01  1.18583E+01  1.86223E+01  1.64680E+01  1.13872E+01  7.47236E+00
   1.31884E+01  4.21117E+00  7.24040E+00  1.25525E+01  1.65816E+01  9.79922E+00  1.17691E+01  1.87386E+01  1.61124E+01  2.07282E+01
   1.07344E+01  1.03770E+01  1.54557E+01  1.29780E+01  1.71515E+01  2.13477E+01  1.12611E+01  2.66974E+01  1.74495E+01  2.54679E+01
   2.51047E+01  2.17530E+01  2.32469E+01  2.04381E+01  1.79008E+01  2.29790E+01  2.28310E+01  2.69215E+01  2.25436E+01  2.83644E+01
   2.16046E+01  2.43217E+01  1.86264E+01  1.97177E+01  1.15578E+01  1.75115E+01  1.44322E+01  1.94642E+01  1.48479E+01  1.90275E+01
   1.75825E+01  2.07365E+01  1.95260E+01  2.07138E+01  1.93552E+01  1.80606E+01  1.02940E+01  2.14897E+01  1.56496E+01  1.60133E+01
   1.72202E+01  1.13331E+01  1.88837E+01  1.31018E+01  2.19969E+01  1.21592E+01  1.57654E+01  8.34896E+00  1.77580E+01  2.11251E+01
   1.80499E+01  1.46998E+01  9.92799E+00  1.15832E+01  2.06937E+01  1.12563E+01  1.62796E+01  1.29199E+01  1.73006E+01  2.16356E+01
   2.47690E+01  1.40981E+01  9.98830E+00  1.38477E+01  1.64710E+01  5.05431E+00  2.27577E+01  1.02279E+01  1.67645E+01  1.91558E+01
   1.70357E+01  4.60689E+00  1.42029E+01  6.85083E+00  5.29456E+00  6.51668E+00  1.14766E+01  5.47891E+00  1.56634E+00  6.19960E+00
  -1.22423E+00  1.02191E+01  3.48360E+00  1.31518E+01  1.10004E+01  8.53403E+00  1.75495E+01  1.59467E+01  1.97440E+01  2.59041E+01
   1.88502E+01  1.45127E+01  2.59327E+01  1.97432E+01  1.47161E+01  1.59751E+01  1.57521E+01  8.48759E+00 -3.82551E-01  1.11533E+01
   1.37944E+01  1.05745E+01  9.33094E+00  7.82486E+00  9.02780E+00  1.33118E+01  7.56179E+00  1.24862E+01  3.70348E+00  5.61010E+00
   1.69135E+01  1.24648E+01  1.86997E+00  9.24416E+00  1.79239E+01  4.06096E+00  7.73883E+00  1.60497E+01  9.62287E+00  1.49142E+01
   7.48272E+00  1.86788E+01  7.80496E+00  1.52814E+01  1.28253E+01  1.27409E+01  5.94968E+00  1.00962E+01  1.20468E+01  1.76901E+01
   2.41236E+00  1.65686E+01  6.78095E+00  1.24209E+01  1.39295E+01  2.57529E+01  1.69493E+01  2.03907E+01  1.67631E+01  1.61162E+01
   1.66895E+01  2.03744E+01  1.82171E+01  1.08992E+01  1.14229E+01  2.01951E+01  7.59344E+00  2.01910E+01  9.22310E+00  1.13345E+01
   1.22343E+01  1.55717E+01  2.10544E+01  1.41341E+01  1.36682E+01  1.08240E+01  7.67478E+00  1.16133E+01  2.73656E+01  1.49138E+01
   1.92651E+01  6.73891E+00  7.30932E+00  1.56809E+01  3.67391E+00  1.43619E+01  1.81480E+01  1.22678E+01  1.07079E+01  1.03663E+01
   9.99829E+00  8.50876E+00  5.64439E+00  1.85069E+01 -3.41338E+00  1.61579E+01  9.90025E+00  9.83071E+00  6.91209E+00  1.03257E+01
   8.50298E+00  8.91212E+00  1.43319E+01  3.08657E+00  7.50006E+00  8.34362E-01  9.71393E+00  9.79940E+00  7.65052E+00  5.45126E+00
   1.22535E+01  4.84858E+00  9.76242E+00  1.20926E+01  1.18266E+01  3.13715E+00  3.22580E+00  5.99934E+00  1.66686E+00  1.42796E+01
   9.87433E+00  6.85166E+00  1.10749E+01  6.69653E+00  1.55404E+01  6.40725E+00  8.53602E+00  9.26811E+00  8.77769E+00  9.29571E+00
   3.61039E+00  4.50532E+00  3.22655E+00  2.66605E+00  6.70148E+00  1.10989E+01  1.37879E+00 -4.66664E+00  5.86914E+00  8.14174E-01
   4.27682E+00  1.21967E+01  5.47628E+00  2.16854E+00  1.11320E+01  1.23650E+01  8.30312E+00  9.92459E+00  1.41108E+01  6.54689E+00
   8.05976E+00  6.92158E+00 -5.71653E-01  3.30110E+00  7.98956E+00  1.03997E+01  7.09623E+00  2.95480E+00  8.82760E+00 -8.89302E-01
   1.18182E+01  1.05154E+01  1.34244E+01  3.14703E+00  4.45348E+00  2.02599E+00 -5.18538E+00 -6.74727E-01  2.26209E-01  4.76580E+00
   7.77419E+00  2.11110E+00  6.91454E+00  2.32711E+00  3.00603E+00  4.83021E+00  7.39112E+00  6.90373E+00
 NY points of the fit to the data follow
   6.37206E+01  6.33658E+01  6.31712E+01  6.34775E+01  6.46828E+01  6.62155E+01  6.73936E+01  6.78858E+01  6.76724E+01  6.69020E+01
   6.57380E+01  6.43284E+01  6.28348E+01  6.14139E+01  6.02136E+01  5.93725E+01  5.88878E+01  5.85677E+01  5.83344E+01  5.81225E+01
   5.78798E+01  5.75057E+01  5.69510E+01  5.62238E+01  5.55727E+01  5.56740E+01  5.67268E+01  5.83206E+01  5.98499E+01  6.08545E+01
   6.11047E+01  6.05164E+01  5.91798E+01  5.73512E+01  5.53995E+01  5.36302E+01  5.22663E+01  5.14454E+01  5.10742E+01  5.09422E+01
   5.08898E+01  5.08709E+01  5.09557E+01  5.12292E+01  5.15906E+01  5.18092E+01  5.17176E+01  5.12935E+01  5.06062E+01  4.97582E+01
   4.88385E+01  4.79268E+01  4.71062E+01  4.64359E+01  4.59940E+01  4.58171E+01  4.58102E+01  4.58489E+01  4.58097E+01  4.56247E+01
   4.52846E+01  4.48228E+01  4.43051E+01  4.37907E+01  4.33238E+01  4.29225E+01  4.25972E+01  4.23844E+01  4.22564E+01  4.21454E+01
   4.20031E+01  4.18155E+01  4.15713E+01  4.12663E+01  4.09093E+01  4.05133E+01  4.00994E+01  3.96922E+01  3.93100E+01  3.89645E+01
   3.86530E+01  3.83911E+01  3.81283E+01  3.77834E+01  3.73247E+01  3.68019E+01  3.62917E+01  3.58500E+01  3.54956E+01  3.52290E+01
   3.50372E+01  3.49107E+01  3.48316E+01  3.47475E+01  3.46140E+01  3.44196E+01  3.42523E+01  3.45461E+01  3.57860E+01  3.73793E+01
   3.86184E+01  3.91626E+01  3.90041E+01  3.83137E+01  3.72387E+01  3.58951E+01  3.44398E+01  3.30566E+01  3.19266E+01  3.12053E+01
   3.08566E+01  3.06343E+01  3.04461E+01  3.02784E+01  3.01219E+01  2.99567E+01  2.97793E+01  2.96068E+01  2.94594E+01  2.93781E+01
   2.95107E+01  3.04907E+01  3.27894E+01  3.54452E+01  3.74774E+01  3.84389E+01  3.83665E+01  3.75229E+01  3.61908E+01  3.46029E+01
   3.28346E+01  3.09606E+01  2.91886E+01  2.77717E+01  2.67580E+01  2.60038E+01  2.54875E+01  2.52559E+01  2.52327E+01  2.53104E+01
   2.54081E+01  2.54542E+01  2.53674E+01  2.51192E+01  2.47438E+01  2.42853E+01  2.37970E+01  2.33250E+01  2.28872E+01  2.24838E+01
   2.20872E+01  2.17077E+01  2.13718E+01  2.10891E+01  2.08519E+01  2.06297E+01  2.03934E+01  2.01389E+01  1.98808E+01  1.96337E+01
   1.94085E+01  1.91913E+01  1.89747E+01  1.87666E+01  1.85677E+01  1.83691E+01  1.81729E+01  1.79887E+01  1.78223E+01  1.76725E+01
   1.75162E+01  1.73234E+01  1.70994E+01  1.68768E+01  1.66744E+01  1.64886E+01  1.62949E+01  1.60856E+01  1.58774E+01  1.57104E+01
   1.55704E+01  1.54163E+01  1.52376E+01  1.50613E+01  1.49451E+01  1.49556E+01  1.51277E+01  1.54315E+01  1.57385E+01  1.58776E+01
   1.57889E+01  1.54299E+01  1.48106E+01  1.39759E+01  1.31515E+01  1.26105E+01  1.25433E+01  1.29721E+01  1.37354E+01  1.46246E+01
   1.55016E+01  1.61926E+01  1.65005E+01  1.62981E+01  1.54654E+01  1.39576E+01  1.23290E+01  1.11343E+01  1.05787E+01  1.06658E+01
   1.13219E+01  1.25368E+01  1.40073E+01  1.53144E+01  1.61725E+01  1.64653E+01  1.61504E+01  1.52502E+01  1.40494E+01  1.29664E+01
   1.23070E+01  1.21486E+01  1.24506E+01  1.30790E+01  1.38397E+01  1.45750E+01  1.50983E+01  1.52708E+01  1.51673E+01  1.49464E+01
   1.46900E+01  1.44232E+01  1.43657E+01  1.46990E+01  1.53463E+01  1.60993E+01  1.68279E+01  1.73052E+01  1.73309E+01  1.69997E+01
   1.65350E+01  1.61465E+01  1.59305E+01  1.59435E+01  1.62016E+01  1.66626E+01  1.72560E+01  1.79094E+01  1.85712E+01  1.91551E+01
   1.97075E+01  2.04673E+01  2.13296E+01  2.19705E+01  2.22783E+01  2.26458E+01  2.33705E+01  2.40619E+01  2.43295E+01  2.40439E+01
   2.32777E+01  2.21877E+01  2.09421E+01  1.96448E+01  1.83211E+01  1.70338E+01  1.59206E+01  1.51097E+01  1.45668E+01  1.41595E+01
   1.38459E+01  1.36014E+01  1.33913E+01  1.31962E+01  1.30121E+01  1.28312E+01  1.26491E+01  1.24733E+01  1.23203E+01  1.22063E+01
   1.21434E+01  1.21387E+01  1.21895E+01  1.22881E+01  1.24269E+01  1.25992E+01  1.27976E+01  1.30185E+01  1.32574E+01  1.35074E+01
   1.37588E+01  1.40002E+01  1.42206E+01  1.44097E+01  1.45556E+01  1.46504E+01  1.46906E+01  1.46747E+01  1.46030E+01  1.44783E+01
   1.43035E+01  1.40830E+01  1.38232E+01  1.35318E+01  1.32175E+01  1.28898E+01  1.25582E+01  1.22330E+01  1.19234E+01  1.16375E+01
   1.13821E+01  1.11625E+01  1.09825E+01  1.08448E+01  1.07504E+01  1.06995E+01  1.06912E+01  1.07236E+01  1.07940E+01  1.08991E+01
   1.10349E+01  1.11970E+01  1.13807E+01  1.15807E+01  1.17917E+01  1.20082E+01  1.22245E+01  1.24351E+01  1.26346E+01  1.28181E+01
   1.29808E+01  1.31188E+01  1.32287E+01  1.33081E+01  1.33553E+01  1.33696E+01  1.33514E+01  1.33019E+01  1.32232E+01  1.31183E+01
   1.29908E+01  1.28447E+01  1.26846E+01  1.25150E+01  1.23407E+01  1.21661E+01  1.19954E+01  1.18324E+01  1.16801E+01  1.15411E+01
   1.14173E+01  1.13099E+01  1.12191E+01  1.11450E+01  1.10866E+01  1.10426E+01  1.10115E+01  1.09911E+01  1.09792E+01  1.09736E+01
   1.09721E+01  1.09728E+01  1.09738E+01  1.09739E+01  1.09722E+01  1.09683E+01  1.09625E+01  1.09556E+01  1.09490E+01  1.09445E+01
   1.09446E+01  1.09521E+01  1.09701E+01  1.10021E+01  1.10514E+01  1.11216E+01  1.12157E+01  1.13369E+01  1.14874E+01  1.16693E+01
   1.18835E+01  1.21303E+01  1.24088E+01  1.27171E+01  1.30521E+01  1.34095E+01  1.37837E+01  1.41681E+01  1.45550E+01  1.49361E+01
   1.53022E+01  1.56440E+01  1.59523E+01  1.62182E+01  1.64335E+01  1.65915E+01  1.66864E+01  1.67145E+01  1.66735E+01  1.65636E+01
   1.63863E+01  1.61454E+01  1.58459E+01  1.54946E+01  1.50990E+01  1.46674E+01  1.42086E+01  1.37312E+01  1.32436E+01  1.27536E+01
   1.22683E+01  1.17937E+01  1.13350E+01  1.08961E+01  1.04801E+01  1.00890E+01  9.72394E+00  9.38544E+00  9.07321E+00  8.78655E+00
   8.52433E+00  8.28519E+00  8.06758E+00  7.86985E+00  7.69033E+00  7.52737E+00  7.37939E+00  7.24491E+00  7.12256E+00  7.01107E+00
   6.90928E+00  6.81615E+00  6.73077E+00  6.65231E+00  6.58005E+00  6.51333E+00  6.45157E+00  6.39427E+00  6.34099E+00  6.29133E+00
   6.24495E+00  6.20153E+00  6.16078E+00  6.12246E+00  6.08638E+00  6.05232E+00  6.02011E+00  5.98959E+00  5.96061E+00  5.93305E+00
   5.90680E+00  5.88175E+00  5.85782E+00  5.83490E+00  5.81292E+00  5.79183E+00  5.77156E+00  5.75205E+00  5.73324E+00  5.71509E+00
   5.69755E+00  5.68060E+00  5.66419E+00  5.64830E+00  5.63287E+00  5.61788E+00  5.60332E+00  5.58916E+00  5.57537E+00  5.56193E+00
   5.54882E+00  5.53602E+00  5.52352E+00  5.51131E+00  5.49937E+00  5.48768E+00  5.47623E+00  5.46501E+00  5.45401E+00  5.44322E+00
   5.43263E+00  5.42222E+00  5.41199E+00  5.40194E+00  5.39206E+00  5.38235E+00  5.37278E+00  5.36336E+00  5.35408E+00  5.34495E+00
   5.33595E+00  5.32708E+00  5.31834E+00  5.30971E+00  5.30121E+00  5.29283E+00  5.28458E+00  5.27643E+00
 NY background values follow
     6.269E+01    6.237E+01    6.205E+01    6.172E+01    6.140E+01    6.108E+01    6.076E+01    6.043E+01    6.011E+01    5.979E+01
     5.947E+01    5.914E+01    5.882E+01    5.850E+01    5.818E+01    5.785E+01    5.753E+01    5.721E+01    5.689E+01    5.657E+01
     5.625E+01    5.592E+01    5.560E+01    5.528E+01    5.496E+01    5.464E+01    5.432E+01    5.400E+01    5.368E+01    5.336E+01
     5.304E+01    5.273E+01    5.241E+01    5.209E+01    5.177E+01    5.146E+01    5.114E+01    5.082E+01    5.051E+01    5.019E+01
     4.988E+01    4.956E+01    4.925E+01    4.893E+01    4.862E+01    4.831E+01    4.800E+01    4.768E+01    4.737E+01    4.706E+01
     4.675E+01    4.644E+01    4.614E+01    4.583E+01    4.552E+01    4.521E+01    4.491E+01    4.460E+01    4.430E+01    4.400E+01
     4.369E+01    4.339E+01    4.309E+01    4.279E+01    4.249E+01    4.219E+01    4.189E+01    4.159E+01    4.130E+01    4.100E+01
     4.071E+01    4.041E+01    4.012E+01    3.983E+01    3.953E+01    3.924E+01    3.896E+01    3.867E+01    3.838E+01    3.809E+01
     3.781E+01    3.752E+01    3.724E+01    3.696E+01    3.668E+01    3.640E+01    3.612E+01    3.584E+01    3.556E+01    3.529E+01
     3.501E+01    3.474E+01    3.447E+01    3.420E+01    3.393E+01    3.366E+01    3.339E+01    3.313E+01    3.286E+01    3.260E+01
     3.234E+01    3.208E+01    3.182E+01    3.156E+01    3.130E+01    3.105E+01    3.079E+01    3.054E+01    3.029E+01    3.004E+01
     2.979E+01    2.954E+01    2.929E+01    2.905E+01    2.880E+01    2.856E+01    2.832E+01    2.808E+01    2.784E+01    2.761E+01
     2.737E+01    2.714E+01    2.690E+01    2.667E+01    2.644E+01    2.621E+01    2.598E+01    2.576E+01    2.553E+01    2.531E+01
     2.509E+01    2.487E+01    2.465E+01    2.443E+01    2.422E+01    2.400E+01    2.379E+01    2.358E+01    2.337E+01    2.316E+01
     2.295E+01    2.275E+01    2.254E+01    2.234E+01    2.214E+01    2.194E+01    2.174E+01    2.155E+01    2.135E+01    2.116E+01
     2.097E+01    2.078E+01    2.059E+01    2.040E+01    2.021E+01    2.003E+01    1.985E+01    1.966E+01    1.948E+01    1.931E+01
     1.913E+01    1.895E+01    1.878E+01    1.861E+01    1.844E+01    1.827E+01    1.810E+01    1.793E+01    1.777E+01    1.760E+01
     1.744E+01    1.728E+01    1.712E+01    1.697E+01    1.681E+01    1.666E+01    1.651E+01    1.635E+01    1.620E+01    1.606E+01
     1.591E+01    1.577E+01    1.562E+01    1.548E+01    1.534E+01    1.520E+01    1.506E+01    1.493E+01    1.479E+01    1.466E+01
     1.453E+01    1.440E+01    1.427E+01    1.415E+01    1.402E+01    1.390E+01    1.377E+01    1.365E+01    1.353E+01    1.342E+01
     1.330E+01    1.318E+01    1.307E+01    1.296E+01    1.285E+01    1.274E+01    1.263E+01    1.252E+01    1.242E+01    1.231E+01
     1.221E+01    1.211E+01    1.201E+01    1.191E+01    1.181E+01    1.171E+01    1.162E+01    1.152E+01    1.143E+01    1.134E+01
     1.125E+01    1.116E+01    1.107E+01    1.099E+01    1.090E+01    1.082E+01    1.074E+01    1.065E+01    1.057E+01    1.050E+01
     1.042E+01    1.034E+01    1.027E+01    1.019E+01    1.012E+01    1.005E+01    9.976E+00    9.906E+00    9.837E+00    9.769E+00
     9.702E+00    9.636E+00    9.571E+00    9.507E+00    9.444E+00    9.382E+00    9.321E+00    9.261E+00    9.202E+00    9.143E+00
     9.086E+00    9.029E+00    8.973E+00    8.918E+00    8.864E+00    8.811E+00    8.758E+00    8.706E+00    8.655E+00    8.604E+00
     8.555E+00    8.506E+00    8.457E+00    8.410E+00    8.363E+00    8.316E+00    8.270E+00    8.225E+00    8.180E+00    8.136E+00
     8.093E+00    8.050E+00    8.007E+00    7.966E+00    7.924E+00    7.883E+00    7.843E+00    7.803E+00    7.764E+00    7.725E+00
     7.686E+00    7.648E+00    7.611E+00    7.574E+00    7.537E+00    7.501E+00    7.466E+00    7.431E+00    7.396E+00    7.362E+00
     7.328E+00    7.295E+00    7.262E+00    7.230E+00    7.198E+00    7.166E+00    7.135E+00    7.104E+00    7.074E+00    7.044E+00
     7.014E+00    6.985E+00    6.957E+00    6.928E+00    6.900E+00    6.873E+00    6.846E+00    6.819E+00    6.792E+00    6.766E+00
     6.741E+00    6.715E+00    6.690E+00    6.666E+00    6.641E+00    6.617E+00    6.594E+00    6.570E+00    6.548E+00    6.525E+00
     6.503E+00    6.481E+00    6.459E+00    6.438E+00    6.417E+00    6.396E+00    6.375E+00    6.355E+00    6.335E+00    6.316E+00
     6.296E+00    6.278E+00    6.259E+00    6.240E+00    6.222E+00    6.204E+00    6.187E+00    6.169E+00    6.152E+00    6.135E+00
     6.119E+00    6.102E+00    6.086E+00    6.070E+00    6.055E+00    6.039E+00    6.024E+00    6.009E+00    5.995E+00    5.980E+00
     5.966E+00    5.952E+00    5.938E+00    5.924E+00    5.911E+00    5.898E+00    5.885E+00    5.872E+00    5.859E+00    5.847E+00
     5.835E+00    5.822E+00    5.810E+00    5.799E+00    5.787E+00    5.776E+00    5.765E+00    5.753E+00    5.743E+00    5.732E+00
     5.721E+00    5.711E+00    5.701E+00    5.690E+00    5.681E+00    5.671E+00    5.661E+00    5.652E+00    5.642E+00    5.633E+00
     5.624E+00    5.615E+00    5.607E+00    5.598E+00    5.590E+00    5.581E+00    5.573E+00    5.565E+00    5.557E+00    5.550E+00
     5.542E+00    5.535E+00    5.527E+00    5.520E+00    5.513E+00    5.506E+00    5.499E+00    5.493E+00    5.486E+00    5.480E+00
     5.473E+00    5.467E+00    5.461E+00    5.455E+00    5.449E+00    5.444E+00    5.438E+00    5.433E+00    5.427E+00    5.422E+00
     5.417E+00    5.412E+00    5.407E+00    5.402E+00    5.397E+00    5.393E+00    5.388E+00    5.384E+00    5.379E+00    5.375E+00
     5.371E+00    5.367E+00    5.362E+00    5.358E+00    5.354E+00    5.350E+00    5.346E+00    5.343E+00    5.339E+00    5.335E+00
     5.331E+00    5.328E+00    5.324E+00    5.320E+00    5.317E+00    5.313E+00    5.310E+00    5.306E+00    5.302E+00    5.299E+00
     5.295E+00    5.292E+00    5.288E+00    5.285E+00    5.281E+00    5.278E+00    5.274E+00    5.271E+00    5.267E+00    5.263E+00
     5.260E+00    5.256E+00    5.252E+00    5.248E+00    5.245E+00    5.241E+00    5.237E+00    5.233E+00    5.229E+00    5.225E+00
     5.221E+00    5.217E+00    5.213E+00    5.209E+00    5.205E+00    5.201E+00    5.196E+00    5.192E+00    5.188E+00    5.184E+00
     5.179E+00    5.175E+00    5.171E+00    5.166E+00    5.162E+00    5.158E+00    5.153E+00    5.149E+00    5.144E+00    5.140E+00
     5.136E+00    5.131E+00    5.127E+00    5.122E+00    5.118E+00    5.113E+00    5.108E+00    5.104E+00    5.099E+00    5.095E+00
     5.090E+00    5.086E+00    5.081E+00    5.076E+00    5.072E+00    5.067E+00    5.063E+00    5.058E+00
 Asp      Conc. = 3.59E+01
