 LCModel (Version 6.3-1L) Copyright: S.W. Provencher.          Ref.: Magn. Reson. Med. 30:672-679 (1993).                
 Slice#3 Row#3 Col#5  PD_05_press_2_raw_act
 36 lines in following concentration table = NCONC+1
    Conc.  %SD /Cr+PCr  Metabolite                                         
    0.000 999%   0.000 Ala                                                 
  440.558  78%   0.246 Asp                                                 
  576.165  54%   0.322 Cr                                                  
 1.21E+03  27%   0.678 PCr                                                 
  188.718 113%   0.105 GABA                                                
  294.199  73%   0.164 Glc                                                 
  859.000  58%   0.480 Gln                                                 
 2.45E+03  24%   1.367 Glu                                                 
  734.233  23%   0.410 GPC                                                 
   62.815 270% 3.5E-02 PCh                                                 
  850.817  20%   0.475 GSH                                                 
 1.34E+03  44%   0.749 Ins                                                 
    0.000 999%   0.000 Lac                                                 
 2.90E+03   8%   1.619 NAA                                                 
  598.568  37%   0.334 NAAG                                                
  142.800  37% 8.0E-02 Scyllo                                              
  938.241  35%   0.524 Tau                                                 
  580.254  40%   0.324 -CrCH2                                              
  797.048   7%   0.445 GPC+PCh                                             
 3.50E+03   5%   1.953 NAA+NAAG                                            
 1.79E+03   8%   1.000 Cr+PCr                                              
 3.31E+03  24%   1.847 Glu+Gln                                             
  544.017 168%   0.304 Lip13a                                              
  302.946 126%   0.169 Lip13b                                              
    0.000 999%   0.000 Lip09                                               
 1.23E+03  32%   0.690 MM09                                                
  166.055 142% 9.3E-02 Lip20                                               
 1.91E+03  31%   1.069 MM20                                                
  373.945  33%   0.209 MM12                                                
  874.152  38%   0.488 MM14                                                
  482.115  38%   0.269 MM17                                                
  846.963  78%   0.473 Lip13a+Lip13b                                       
 2.10E+03  39%   1.171 MM14+Lip13a+Lip13b+MM12                             
 1.23E+03  32%   0.690 MM09+Lip09                                          
 2.08E+03  31%   1.162 MM20+Lip20                                          
   6 lines in following misc. output table
  FWHM = 0.038 ppm    S/N =   7                                            
  Data shift = 0.038 ppm                                                   
  Ph: -48 deg     -16.7 deg/ppm                                            
  alphaB,S = 8.3E-01,   1.3E+01                                            
   14 spline knots.   Ns = 6(1)                                            
  (11) 5 infls.   ( 9) 3 extrs.                                            
  498 points on ppm-axis = NY
      4.000000     3.992357     3.984714     3.977070     3.969427     3.961784     3.954141     3.946497     3.938854     3.931211
      3.923568     3.915925     3.908281     3.900638     3.892995     3.885352     3.877708     3.870065     3.862422     3.854779
      3.847136     3.839492     3.831849     3.824206     3.816563     3.808919     3.801276     3.793633     3.785990     3.778347
      3.770703     3.763060     3.755417     3.747774     3.740130     3.732487     3.724844     3.717201     3.709558     3.701914
      3.694271     3.686628     3.678985     3.671341     3.663698     3.656055     3.648412     3.640769     3.633125     3.625482
      3.617839     3.610196     3.602552     3.594909     3.587266     3.579623     3.571980     3.564336     3.556693     3.549050
      3.541407     3.533763     3.526120     3.518477     3.510834     3.503191     3.495547     3.487904     3.480261     3.472618
      3.464974     3.457331     3.449688     3.442045     3.434402     3.426758     3.419115     3.411472     3.403829     3.396185
      3.388542     3.380899     3.373256     3.365613     3.357969     3.350326     3.342683     3.335040     3.327396     3.319753
      3.312110     3.304467     3.296824     3.289180     3.281537     3.273894     3.266251     3.258607     3.250964     3.243321
      3.235678     3.228034     3.220391     3.212748     3.205105     3.197462     3.189818     3.182175     3.174532     3.166889
      3.159245     3.151602     3.143959     3.136316     3.128673     3.121029     3.113386     3.105743     3.098100     3.090456
      3.082813     3.075170     3.067527     3.059884     3.052240     3.044597     3.036954     3.029311     3.021667     3.014024
      3.006381     2.998738     2.991095     2.983451     2.975808     2.968165     2.960522     2.952878     2.945235     2.937592
      2.929949     2.922306     2.914662     2.907019     2.899376     2.891733     2.884089     2.876446     2.868803     2.861160
      2.853517     2.845873     2.838230     2.830587     2.822944     2.815300     2.807657     2.800014     2.792371     2.784728
      2.777084     2.769441     2.761798     2.754155     2.746511     2.738868     2.731225     2.723582     2.715939     2.708295
      2.700652     2.693009     2.685366     2.677722     2.670079     2.662436     2.654793     2.647150     2.639506     2.631863
      2.624220     2.616577     2.608933     2.601290     2.593647     2.586004     2.578361     2.570717     2.563074     2.555431
      2.547788     2.540144     2.532501     2.524858     2.517215     2.509572     2.501928     2.494285     2.486642     2.478999
      2.471355     2.463712     2.456069     2.448426     2.440783     2.433139     2.425496     2.417853     2.410210     2.402566
      2.394923     2.387280     2.379637     2.371994     2.364350     2.356707     2.349064     2.341421     2.333777     2.326134
      2.318491     2.310848     2.303205     2.295561     2.287918     2.280275     2.272632     2.264988     2.257345     2.249702
      2.242059     2.234416     2.226772     2.219129     2.211486     2.203843     2.196199     2.188556     2.180913     2.173270
      2.165627     2.157983     2.150340     2.142697     2.135054     2.127410     2.119767     2.112124     2.104481     2.096838
      2.089194     2.081551     2.073908     2.066265     2.058621     2.050978     2.043335     2.035692     2.028049     2.020405
      2.012762     2.005119     1.997476     1.989833     1.982190     1.974546     1.966903     1.959260     1.951617     1.943974
      1.936331     1.928688     1.921045     1.913402     1.905759     1.898115     1.890472     1.882829     1.875186     1.867543
      1.859900     1.852257     1.844614     1.836971     1.829327     1.821684     1.814041     1.806398     1.798755     1.791112
      1.783469     1.775826     1.768183     1.760540     1.752896     1.745253     1.737610     1.729967     1.722324     1.714681
      1.707038     1.699395     1.691752     1.684108     1.676465     1.668822     1.661179     1.653536     1.645893     1.638250
      1.630607     1.622964     1.615321     1.607677     1.600034     1.592391     1.584748     1.577105     1.569462     1.561819
      1.554176     1.546533     1.538890     1.531246     1.523603     1.515960     1.508317     1.500674     1.493031     1.485388
      1.477745     1.470102     1.462458     1.454815     1.447172     1.439529     1.431886     1.424243     1.416600     1.408957
      1.401314     1.393671     1.386027     1.378384     1.370741     1.363098     1.355455     1.347812     1.340169     1.332526
      1.324883     1.317240     1.309596     1.301953     1.294310     1.286667     1.279024     1.271381     1.263738     1.256095
      1.248452     1.240808     1.233165     1.225522     1.217879     1.210236     1.202593     1.194950     1.187307     1.179664
      1.172021     1.164377     1.156734     1.149091     1.141448     1.133805     1.126162     1.118519     1.110876     1.103233
      1.095590     1.087946     1.080303     1.072660     1.065017     1.057374     1.049731     1.042088     1.034445     1.026802
      1.019158     1.011515     1.003872     0.996229     0.988586     0.980943     0.973300     0.965657     0.958014     0.950371
      0.942727     0.935084     0.927441     0.919798     0.912155     0.904512     0.896869     0.889226     0.881583     0.873940
      0.866296     0.858653     0.851010     0.843367     0.835724     0.828081     0.820438     0.812795     0.805152     0.797508
      0.789865     0.782222     0.774579     0.766936     0.759293     0.751650     0.744007     0.736364     0.728721     0.721077
      0.713434     0.705791     0.698148     0.690505     0.682862     0.675219     0.667576     0.659933     0.652290     0.644646
      0.637003     0.629360     0.621717     0.614074     0.606431     0.598788     0.591145     0.583502     0.575858     0.568215
      0.560572     0.552929     0.545286     0.537643     0.530000     0.522357     0.514714     0.507071     0.499427     0.491784
      0.484141     0.476498     0.468855     0.461212     0.453569     0.445925     0.438282     0.430639     0.422996     0.415353
      0.407710     0.400067     0.392424     0.384780     0.377137     0.369494     0.361851     0.354208     0.346565     0.338922
      0.331278     0.323635     0.315992     0.308349     0.300706     0.293063     0.285420     0.277777     0.270133     0.262490
      0.254847     0.247204     0.239561     0.231918     0.224275     0.216631     0.208988     0.201345
 NY phased data points follow
  -1.27010E+02 -1.30527E+02 -1.17407E+02 -1.21812E+02 -1.18069E+02 -1.30003E+02 -9.53760E+01 -8.32200E+01 -8.00467E+01 -8.92384E+01
  -8.09155E+01 -7.85197E+01 -7.34944E+01 -7.97547E+01 -9.63849E+01 -9.15426E+01 -9.85078E+01 -1.02592E+02 -1.14864E+02 -1.08065E+02
  -1.03899E+02 -9.90996E+01 -7.95117E+01 -1.02186E+02 -8.15437E+01 -7.88301E+01 -9.70284E+01 -9.48052E+01 -9.27488E+01 -6.90674E+01
  -6.36184E+01 -7.78457E+01 -5.97329E+01 -6.84118E+01 -6.97783E+01 -8.39631E+01 -6.56739E+01 -7.81204E+01 -9.46513E+01 -8.08842E+01
  -8.64009E+01 -6.82758E+01 -5.95638E+01 -6.08668E+01 -7.11810E+01 -7.33872E+01 -6.14903E+01 -7.42847E+01 -6.50586E+01 -7.15676E+01
  -6.92531E+01 -9.24557E+01 -7.03285E+01 -7.02607E+01 -8.29509E+01 -7.35722E+01 -6.16287E+01 -6.16053E+01 -6.32092E+01 -6.04393E+01
  -6.33821E+01 -7.14243E+01 -6.71700E+01 -7.50490E+01 -7.40962E+01 -6.88814E+01 -7.20085E+01 -7.27560E+01 -7.18011E+01 -7.34322E+01
  -6.47834E+01 -5.39877E+01 -4.37688E+01 -4.62899E+01 -5.34291E+01 -5.11497E+01 -4.21968E+01 -4.57820E+01 -6.86508E+01 -6.12857E+01
  -5.38391E+01 -4.63018E+01 -4.92048E+01 -4.46839E+01 -4.63509E+01 -5.47765E+01 -4.80479E+01 -5.46699E+01 -4.45204E+01 -4.44865E+01
  -3.92396E+01 -3.64622E+01 -4.85124E+01 -4.93836E+01 -3.73773E+01 -3.06578E+01 -2.56136E+01 -2.69994E+01 -2.61608E+01 -2.22586E+01
   2.27336E+00  1.72298E+01  3.44299E+01  3.92791E+01  2.66558E+01  7.77509E+00 -5.12080E+00 -9.72888E+00 -2.43239E+01 -3.77327E+01
  -3.86200E+01 -4.20807E+01 -2.49069E+01 -2.40419E+01 -3.00072E+01 -4.70616E+01 -3.15838E+01 -4.15146E+01 -3.96835E+01 -1.81723E+01
  -1.57806E+01 -2.16168E+01 -4.71864E+01 -2.61638E+01  1.31501E+00 -2.79866E+00  2.86496E+01  3.36162E+01  1.09434E+01  1.92383E+01
   1.10137E+00  1.01219E+00 -2.34418E+01 -1.76131E+01 -1.84447E+01 -2.96514E+01 -3.43618E+01 -4.01531E+01 -3.16198E+01 -3.38545E+01
  -2.12876E+01 -3.48815E+01 -3.56062E+01 -3.18503E+01 -1.70408E+01 -4.16742E+01 -2.96883E+01 -3.11567E+01 -3.27446E+01 -2.56108E+01
  -2.84533E+01 -2.63159E+01 -2.85227E+01 -3.95763E+01 -4.04184E+01 -5.19751E+01 -3.10052E+01 -3.34037E+01 -3.57240E+01 -3.64110E+01
  -2.72941E+01 -5.64201E+01 -3.80126E+01 -3.77737E+01 -4.25742E+01 -3.90345E+01 -1.79991E+01 -4.49528E+01 -2.32310E+01 -3.20898E+01
  -3.27536E+01 -4.07932E+01 -4.05868E+01 -3.31744E+01 -4.12457E+01 -3.68174E+01 -1.68581E+01 -4.15163E+01 -4.97594E+01 -2.46171E+01
  -3.96519E+01 -3.72901E+01 -4.97427E+01 -3.97313E+01 -3.77423E+01 -2.52438E+01 -3.48479E+01 -3.44327E+01 -4.35111E+01 -2.01674E+01
  -3.05591E+01 -1.96189E+01 -2.26209E+01 -5.76150E+00 -1.61849E+01 -1.23519E+01 -1.48910E+01 -2.77014E+01 -1.78268E+01 -2.76045E+01
  -1.82372E+01 -1.12439E+01 -1.28702E+01 -2.41887E+01 -5.37787E+00 -2.58756E+01 -1.18884E+01 -3.18357E+01 -2.04696E+01 -2.79316E+01
  -1.29542E+01 -3.15375E+01 -2.69444E+01 -2.10915E+01 -3.01748E+01 -1.65568E+01  2.16337E+00  1.65859E+01  3.21675E+00 -9.81861E+00
  -1.37439E+01 -2.16312E+01 -1.81395E+01 -2.14178E+01 -2.20209E+01 -1.27605E+01 -3.58399E+00  3.15179E+00  7.16711E+00  1.05784E+00
  -2.20291E+00  3.13546E+00  4.59525E+00 -5.34416E+00 -7.33807E+00  2.67977E+00 -1.24445E+00  8.93835E+00  7.75024E-01 -2.85098E+00
   5.15293E+00 -1.20360E+01 -1.62915E+00 -8.43988E+00  2.65782E+00 -4.48858E+00  9.50096E+00  1.65040E+01  7.05207E+00  1.37707E+01
   2.42062E+01  1.64571E+01  2.24134E+01  3.61698E+01  2.45449E+01  3.59658E+01  4.72310E+01  7.30422E+01  6.91871E+01  1.08192E+02
   1.20796E+02  1.22427E+02  1.01633E+02  6.75018E+01  5.64532E+01  2.91141E+01  2.84958E+01  1.40601E+01  9.94051E+00  1.16788E+01
   1.54493E+01 -2.54381E+00 -2.12230E+00  1.16758E+01  1.58954E+01  1.50245E+01  1.54921E+01 -4.49216E+00  1.22603E+01 -1.42809E+00
   1.85268E+01  8.86713E+00  1.36385E+01  2.52545E+00  1.64913E+01  7.21836E+00  1.44654E+01  2.32530E-01  1.88255E+00  7.52859E+00
   2.22692E+00  2.43643E+00  2.13108E+00  1.63230E+01  1.14170E+01  5.17773E+00  1.37496E+01  1.26547E+01 -5.79693E+00  7.83061E-01
   6.21052E+00  8.94073E+00  3.12854E+00  8.73428E+00  1.13244E+01  1.80653E+01  1.84244E+01  7.57883E+00 -2.82657E+00  8.50532E+00
   1.31501E+00  2.70201E+01 -1.56236E+00  1.21802E+01  9.52565E+00  6.25938E+00  5.52290E+00  3.00192E+00  1.24731E-01  1.02904E+01
   8.73975E+00  6.57555E+00  4.00548E+00  2.15787E+01  1.49312E+01  1.15521E+01  5.11811E+00  1.35610E+00  2.06072E+01  1.37603E+01
   5.75586E+00  7.93836E+00  2.65335E+00  1.64796E+01  5.77680E+00  1.83622E+01  1.14580E+01  3.87533E+00  1.95302E+00  2.33927E+00
   8.19633E+00  4.44752E+00 -3.45387E+00  1.09475E+01  9.69577E+00  9.26861E+00 -4.08549E+00  1.84795E+01  1.90316E+01  2.96666E+01
   1.75484E+01  7.58446E+00  1.55430E+01  1.14605E+01  1.36175E+01  2.28264E+01  2.48658E+01  2.67376E+01  1.04491E+01  1.81786E+01
   7.58705E+00 -5.50869E+00  1.97254E+01  1.39417E+00  1.00170E+01  1.03020E+01  1.30949E+01  1.28289E+01  3.05121E+01  1.61510E+01
   9.28258E+00  2.07518E+01  3.40439E+01  1.76369E+01  2.53944E+01  2.23476E+01  8.29018E+00  1.83172E+01  8.32367E+00  2.55016E+01
   1.53166E+01  1.05804E+01  4.63422E+00  8.49343E+00  1.70960E+01  2.19926E+01  1.20603E+00  5.95902E+00  1.84639E+01  1.40367E+01
   1.33279E+01  6.92259E+00  1.50335E+01  1.39420E+01  1.45923E+00  9.24349E+00  4.30961E+00  2.55271E+01  7.57856E+00  8.89974E+00
  -1.91190E+00  2.70643E+01  1.91154E+01  1.45643E+01  5.60703E+00  6.37937E+00  1.88395E+01  1.64401E+01  1.62163E+01  2.69367E+00
   2.07808E+01  1.41371E+01  7.94500E+00  1.57010E+01  8.89611E+00  1.70445E+01 -2.46950E+00  1.39112E+00 -3.86824E-01  8.83192E+00
   3.12996E+00  2.23536E+01  3.49647E+00  1.86342E+00  1.43267E+01  6.51117E+00  2.35930E+00  1.48422E+01  9.96566E+00  1.68489E+00
   7.46662E+00  9.11679E+00  6.62755E+00  5.90041E+00  2.04131E+01  8.37896E+00  8.53454E-01  4.65069E+00  3.66896E+00 -2.20773E+00
   1.23924E+01  5.70983E+00  1.63754E+01  5.85294E+00  8.28737E+00  9.13366E-01 -2.41151E+00  1.49369E+00  4.70195E-01 -4.50760E+00
   1.31110E+01  1.15944E+01 -5.88746E-01  2.03013E+01  1.44905E+01  1.22036E+01  3.45353E+00  9.26905E+00  2.39149E+01  1.82698E+01
   4.85393E+00  1.12617E+01 -2.10943E+00  1.07275E+01  8.90735E+00  6.16090E+00  1.36101E+01  2.31451E+01  1.75192E+01  1.71172E+01
   1.78167E+01  1.06933E+01  1.32410E+01  1.07031E+01  1.16060E+01  3.19015E+00  2.32627E+01  2.45787E+01  1.27891E+01  1.71729E+01
   1.73936E+01  1.69596E+01  1.36788E+01  1.96605E+01  1.03343E+01  1.10920E+01  2.24140E+01  9.64238E+00  2.97307E+01  1.62785E+01
   6.48425E+00  4.89257E+00  1.80096E+01  1.94894E+01  2.02321E+01  1.05984E+01  1.77354E+01  3.80127E+00
 NY points of the fit to the data follow
  -1.13992E+02 -1.13014E+02 -1.10803E+02 -1.08342E+02 -1.06974E+02 -1.01990E+02 -9.68328E+01 -9.22779E+01 -8.60184E+01 -8.16860E+01
  -7.95868E+01 -7.92567E+01 -8.10376E+01 -8.48592E+01 -8.89267E+01 -9.15510E+01 -9.37995E+01 -9.53437E+01 -9.70541E+01 -9.79294E+01
  -9.73988E+01 -9.62054E+01 -9.55176E+01 -9.46388E+01 -9.17036E+01 -9.05234E+01 -9.05289E+01 -8.76973E+01 -8.34807E+01 -7.66795E+01
  -6.93061E+01 -6.45848E+01 -6.42589E+01 -6.69008E+01 -6.99440E+01 -7.36364E+01 -7.78488E+01 -8.19918E+01 -8.49045E+01 -8.51368E+01
  -8.35827E+01 -8.10362E+01 -7.87650E+01 -7.67855E+01 -7.45693E+01 -7.15961E+01 -6.81943E+01 -6.60120E+01 -6.60117E+01 -6.76564E+01
  -6.98206E+01 -7.16822E+01 -7.29029E+01 -7.33463E+01 -7.35621E+01 -7.32232E+01 -7.24945E+01 -7.14188E+01 -6.97846E+01 -6.80524E+01
  -6.66566E+01 -6.61661E+01 -6.64622E+01 -6.64617E+01 -6.66198E+01 -6.59420E+01 -6.48186E+01 -6.42022E+01 -6.34954E+01 -6.21799E+01
  -6.12163E+01 -6.06624E+01 -5.92695E+01 -5.77272E+01 -5.62199E+01 -5.44793E+01 -5.39753E+01 -5.51931E+01 -5.68849E+01 -5.77759E+01
  -5.71586E+01 -5.60435E+01 -5.52775E+01 -5.33900E+01 -5.10330E+01 -4.85805E+01 -4.66244E+01 -4.68361E+01 -4.85553E+01 -4.99811E+01
  -5.03355E+01 -5.04588E+01 -5.03333E+01 -5.06659E+01 -5.12307E+01 -4.83727E+01 -3.89591E+01 -3.27530E+01 -3.07589E+01 -1.96414E+01
  -2.91371E+00  1.79936E+01  3.70641E+01  4.06806E+01  2.83359E+01  1.05191E+01 -4.03835E+00 -1.54449E+01 -2.47507E+01 -3.32498E+01
  -3.97800E+01 -4.19024E+01 -4.24468E+01 -4.25375E+01 -4.25107E+01 -4.23230E+01 -4.19529E+01 -4.15699E+01 -4.09592E+01 -3.96023E+01
  -3.48079E+01 -2.86783E+01 -2.87110E+01 -2.30201E+01 -1.00746E+01  6.30931E+00  2.36268E+01  3.15966E+01  2.57626E+01  1.17638E+01
  -4.11913E-01 -9.07389E+00 -1.64415E+01 -2.26917E+01 -2.91623E+01 -3.38663E+01 -3.67093E+01 -3.84610E+01 -3.85575E+01 -3.71081E+01
  -3.49768E+01 -3.30193E+01 -3.15725E+01 -3.05919E+01 -3.03033E+01 -3.03259E+01 -3.05160E+01 -3.10910E+01 -3.16759E+01 -3.21811E+01
  -3.23878E+01 -3.25850E+01 -3.28226E+01 -3.30314E+01 -3.33463E+01 -3.34560E+01 -3.28938E+01 -3.23946E+01 -3.23581E+01 -3.27255E+01
  -3.38673E+01 -3.43445E+01 -3.37602E+01 -3.27130E+01 -3.16788E+01 -3.11228E+01 -3.11631E+01 -3.15037E+01 -3.16468E+01 -3.18949E+01
  -3.22645E+01 -3.19748E+01 -3.15852E+01 -3.18776E+01 -3.25158E+01 -3.33514E+01 -3.33478E+01 -3.23975E+01 -3.12059E+01 -3.08363E+01
  -3.13721E+01 -3.15938E+01 -3.06759E+01 -2.92688E+01 -2.82074E+01 -2.75936E+01 -2.70139E+01 -2.57248E+01 -2.31533E+01 -1.99084E+01
  -1.73012E+01 -1.58291E+01 -1.59914E+01 -1.64802E+01 -1.73930E+01 -1.90048E+01 -2.03685E+01 -2.12999E+01 -2.10877E+01 -1.93057E+01
  -1.62383E+01 -1.31532E+01 -1.08910E+01 -8.95535E+00 -8.72762E+00 -8.85929E+00 -1.05911E+01 -1.45281E+01 -1.79641E+01 -2.08421E+01
  -2.18954E+01 -2.09598E+01 -1.94932E+01 -1.52482E+01 -9.59275E+00 -3.82334E+00 -2.36742E-01 -5.69296E-01 -3.56024E+00 -8.25503E+00
  -1.39705E+01 -1.93756E+01 -2.31538E+01 -2.37362E+01 -2.02161E+01 -1.43279E+01 -9.17724E+00 -5.14480E+00 -2.64070E+00 -1.78724E+00
  -2.18716E+00 -2.86530E+00 -3.42900E+00 -3.29749E+00 -1.98966E+00 -3.20819E-01  1.40787E+00  2.79593E+00  3.75643E+00  3.13670E+00
   9.40358E-01 -1.85351E+00 -3.98769E+00 -4.59708E+00 -3.57254E+00 -9.92252E-01  2.00514E+00  4.56887E+00  6.36798E+00  8.08188E+00
   1.08618E+01  1.11490E+01  1.29315E+01  2.02314E+01  3.69004E+01  4.75810E+01  5.10746E+01  6.38254E+01  8.07129E+01  1.02789E+02
   1.21494E+02  1.20298E+02  9.96467E+01  7.39387E+01  5.47060E+01  3.94198E+01  2.67872E+01  1.52551E+01  7.10505E+00  4.44357E+00
   3.30806E+00  2.82469E+00  2.80118E+00  3.27448E+00  3.88633E+00  4.31448E+00  4.49776E+00  4.47188E+00  4.27323E+00  4.03670E+00
   3.81342E+00  3.57851E+00  3.47022E+00  3.55372E+00  3.72308E+00  3.91395E+00  4.14269E+00  4.33152E+00  4.48874E+00  4.66231E+00
   4.85280E+00  5.08949E+00  5.36692E+00  5.62176E+00  5.86472E+00  6.08666E+00  6.28363E+00  6.46210E+00  6.61944E+00  6.76593E+00
   6.93286E+00  7.12273E+00  7.30676E+00  7.47416E+00  7.62102E+00  7.74203E+00  7.84099E+00  7.91464E+00  7.96618E+00  8.00598E+00
   8.03670E+00  8.06257E+00  8.08745E+00  8.11512E+00  8.14819E+00  8.19128E+00  8.24651E+00  8.31657E+00  8.40151E+00  8.50331E+00
   8.62129E+00  8.75613E+00  8.90561E+00  9.06883E+00  9.24282E+00  9.42654E+00  9.61659E+00  9.81104E+00  1.00059E+01  1.01991E+01
   1.03873E+01  1.05690E+01  1.07414E+01  1.09037E+01  1.10531E+01  1.11900E+01  1.13133E+01  1.14248E+01  1.15251E+01  1.16177E+01
   1.17056E+01  1.17959E+01  1.18959E+01  1.20174E+01  1.21720E+01  1.23741E+01  1.26361E+01  1.29689E+01  1.33748E+01  1.38479E+01
   1.43677E+01  1.49023E+01  1.54074E+01  1.58352E+01  1.61375E+01  1.62779E+01  1.62346E+01  1.60088E+01  1.56206E+01  1.51092E+01
   1.45211E+01  1.39063E+01  1.33070E+01  1.27564E+01  1.22729E+01  1.18647E+01  1.15280E+01  1.12547E+01  1.10322E+01  1.08502E+01
   1.06982E+01  1.05703E+01  1.04611E+01  1.03695E+01  1.02941E+01  1.02370E+01  1.01990E+01  1.01832E+01  1.01907E+01  1.02248E+01
   1.02866E+01  1.03792E+01  1.05036E+01  1.06621E+01  1.08544E+01  1.10821E+01  1.13439E+01  1.16398E+01  1.19667E+01  1.23225E+01
   1.27016E+01  1.30996E+01  1.35089E+01  1.39225E+01  1.43307E+01  1.47247E+01  1.50936E+01  1.54283E+01  1.57184E+01  1.59561E+01
   1.61327E+01  1.62433E+01  1.62829E+01  1.62508E+01  1.61465E+01  1.59737E+01  1.57362E+01  1.54417E+01  1.50973E+01  1.47133E+01
   1.42987E+01  1.38646E+01  1.34196E+01  1.29741E+01  1.25354E+01  1.21118E+01  1.17083E+01  1.13305E+01  1.09804E+01  1.06614E+01
   1.03734E+01  1.01175E+01  9.89204E+00  9.69654E+00  9.52827E+00  9.38631E+00  9.26755E+00  9.17081E+00  9.09285E+00  9.03259E+00
   8.98712E+00  8.95579E+00  8.93606E+00  8.92752E+00  8.92785E+00  8.93699E+00  8.95302E+00  8.97624E+00  9.00494E+00  9.03950E+00
   9.07834E+00  9.12206E+00  9.16931E+00  9.22085E+00  9.27536E+00  9.33356E+00  9.39417E+00  9.45809E+00  9.52417E+00  9.59333E+00
   9.66436E+00  9.73816E+00  9.81357E+00  9.89158E+00  9.97112E+00  1.00531E+01  1.01364E+01  1.02218E+01  1.03083E+01  1.03969E+01
   1.04864E+01  1.05779E+01  1.06701E+01  1.07641E+01  1.08587E+01  1.09551E+01  1.10520E+01  1.11504E+01  1.12493E+01  1.13495E+01
   1.14501E+01  1.15521E+01  1.16543E+01  1.17578E+01  1.18613E+01  1.19660E+01  1.20708E+01  1.21767E+01  1.22826E+01  1.23894E+01
   1.24960E+01  1.26035E+01  1.27109E+01  1.28192E+01  1.29271E+01  1.30358E+01  1.31441E+01  1.32532E+01  1.33618E+01  1.34711E+01
   1.35800E+01  1.36893E+01  1.37981E+01  1.39075E+01  1.40164E+01  1.41258E+01  1.42346E+01  1.43438E+01
 NY background values follow
    -1.191E+02   -1.183E+02   -1.176E+02   -1.168E+02   -1.160E+02   -1.153E+02   -1.145E+02   -1.138E+02   -1.130E+02   -1.122E+02
    -1.115E+02   -1.107E+02   -1.100E+02   -1.092E+02   -1.084E+02   -1.077E+02   -1.069E+02   -1.062E+02   -1.054E+02   -1.046E+02
    -1.039E+02   -1.031E+02   -1.024E+02   -1.016E+02   -1.009E+02   -1.001E+02   -9.939E+01   -9.864E+01   -9.790E+01   -9.716E+01
    -9.642E+01   -9.568E+01   -9.494E+01   -9.420E+01   -9.347E+01   -9.274E+01   -9.201E+01   -9.128E+01   -9.055E+01   -8.983E+01
    -8.911E+01   -8.839E+01   -8.767E+01   -8.696E+01   -8.625E+01   -8.554E+01   -8.483E+01   -8.413E+01   -8.343E+01   -8.273E+01
    -8.203E+01   -8.134E+01   -8.065E+01   -7.997E+01   -7.928E+01   -7.860E+01   -7.793E+01   -7.725E+01   -7.658E+01   -7.592E+01
    -7.526E+01   -7.460E+01   -7.394E+01   -7.329E+01   -7.264E+01   -7.200E+01   -7.135E+01   -7.072E+01   -7.008E+01   -6.946E+01
    -6.883E+01   -6.821E+01   -6.759E+01   -6.698E+01   -6.637E+01   -6.577E+01   -6.517E+01   -6.458E+01   -6.399E+01   -6.340E+01
    -6.282E+01   -6.225E+01   -6.167E+01   -6.111E+01   -6.055E+01   -5.999E+01   -5.944E+01   -5.889E+01   -5.835E+01   -5.782E+01
    -5.729E+01   -5.676E+01   -5.624E+01   -5.573E+01   -5.522E+01   -5.471E+01   -5.422E+01   -5.372E+01   -5.323E+01   -5.275E+01
    -5.227E+01   -5.180E+01   -5.133E+01   -5.086E+01   -5.040E+01   -4.995E+01   -4.950E+01   -4.906E+01   -4.862E+01   -4.818E+01
    -4.775E+01   -4.732E+01   -4.690E+01   -4.648E+01   -4.607E+01   -4.566E+01   -4.525E+01   -4.485E+01   -4.445E+01   -4.406E+01
    -4.367E+01   -4.329E+01   -4.291E+01   -4.253E+01   -4.216E+01   -4.179E+01   -4.142E+01   -4.106E+01   -4.071E+01   -4.035E+01
    -4.000E+01   -3.965E+01   -3.931E+01   -3.897E+01   -3.864E+01   -3.830E+01   -3.797E+01   -3.765E+01   -3.732E+01   -3.700E+01
    -3.669E+01   -3.637E+01   -3.606E+01   -3.575E+01   -3.545E+01   -3.514E+01   -3.484E+01   -3.454E+01   -3.425E+01   -3.395E+01
    -3.366E+01   -3.337E+01   -3.308E+01   -3.279E+01   -3.251E+01   -3.222E+01   -3.194E+01   -3.166E+01   -3.138E+01   -3.110E+01
    -3.082E+01   -3.055E+01   -3.027E+01   -2.999E+01   -2.972E+01   -2.944E+01   -2.917E+01   -2.890E+01   -2.862E+01   -2.835E+01
    -2.808E+01   -2.780E+01   -2.753E+01   -2.725E+01   -2.698E+01   -2.671E+01   -2.643E+01   -2.615E+01   -2.588E+01   -2.560E+01
    -2.532E+01   -2.504E+01   -2.476E+01   -2.448E+01   -2.420E+01   -2.391E+01   -2.363E+01   -2.334E+01   -2.305E+01   -2.277E+01
    -2.248E+01   -2.219E+01   -2.190E+01   -2.161E+01   -2.132E+01   -2.103E+01   -2.074E+01   -2.044E+01   -2.015E+01   -1.986E+01
    -1.956E+01   -1.927E+01   -1.898E+01   -1.868E+01   -1.839E+01   -1.810E+01   -1.780E+01   -1.751E+01   -1.721E+01   -1.692E+01
    -1.663E+01   -1.633E+01   -1.604E+01   -1.575E+01   -1.546E+01   -1.516E+01   -1.487E+01   -1.458E+01   -1.429E+01   -1.400E+01
    -1.371E+01   -1.343E+01   -1.314E+01   -1.285E+01   -1.257E+01   -1.228E+01   -1.200E+01   -1.171E+01   -1.143E+01   -1.115E+01
    -1.087E+01   -1.059E+01   -1.032E+01   -1.004E+01   -9.767E+00   -9.494E+00   -9.222E+00   -8.952E+00   -8.684E+00   -8.417E+00
    -8.151E+00   -7.888E+00   -7.626E+00   -7.366E+00   -7.108E+00   -6.852E+00   -6.598E+00   -6.345E+00   -6.095E+00   -5.847E+00
    -5.602E+00   -5.358E+00   -5.117E+00   -4.878E+00   -4.641E+00   -4.407E+00   -4.175E+00   -3.946E+00   -3.719E+00   -3.495E+00
    -3.274E+00   -3.055E+00   -2.840E+00   -2.627E+00   -2.417E+00   -2.210E+00   -2.005E+00   -1.804E+00   -1.606E+00   -1.411E+00
    -1.220E+00   -1.031E+00   -8.461E-01   -6.642E-01   -4.856E-01   -3.101E-01   -1.378E-01    3.143E-02    1.975E-01    3.606E-01
     5.207E-01    6.777E-01    8.319E-01    9.831E-01    1.131E+00    1.277E+00    1.420E+00    1.560E+00    1.697E+00    1.831E+00
     1.963E+00    2.093E+00    2.219E+00    2.343E+00    2.465E+00    2.584E+00    2.701E+00    2.815E+00    2.927E+00    3.037E+00
     3.144E+00    3.249E+00    3.352E+00    3.453E+00    3.551E+00    3.648E+00    3.742E+00    3.834E+00    3.924E+00    4.013E+00
     4.099E+00    4.184E+00    4.266E+00    4.347E+00    4.426E+00    4.503E+00    4.578E+00    4.652E+00    4.724E+00    4.795E+00
     4.864E+00    4.931E+00    4.997E+00    5.061E+00    5.123E+00    5.184E+00    5.244E+00    5.302E+00    5.358E+00    5.413E+00
     5.467E+00    5.519E+00    5.570E+00    5.619E+00    5.667E+00    5.714E+00    5.759E+00    5.803E+00    5.846E+00    5.887E+00
     5.927E+00    5.966E+00    6.004E+00    6.040E+00    6.075E+00    6.109E+00    6.142E+00    6.174E+00    6.205E+00    6.234E+00
     6.262E+00    6.290E+00    6.316E+00    6.341E+00    6.366E+00    6.389E+00    6.411E+00    6.433E+00    6.453E+00    6.472E+00
     6.491E+00    6.509E+00    6.525E+00    6.541E+00    6.556E+00    6.571E+00    6.585E+00    6.598E+00    6.610E+00    6.622E+00
     6.634E+00    6.645E+00    6.655E+00    6.666E+00    6.676E+00    6.686E+00    6.695E+00    6.705E+00    6.714E+00    6.724E+00
     6.733E+00    6.742E+00    6.752E+00    6.762E+00    6.772E+00    6.782E+00    6.792E+00    6.803E+00    6.814E+00    6.826E+00
     6.838E+00    6.851E+00    6.865E+00    6.879E+00    6.893E+00    6.909E+00    6.925E+00    6.942E+00    6.961E+00    6.980E+00
     7.000E+00    7.021E+00    7.043E+00    7.067E+00    7.091E+00    7.117E+00    7.144E+00    7.173E+00    7.203E+00    7.234E+00
     7.267E+00    7.301E+00    7.336E+00    7.373E+00    7.411E+00    7.451E+00    7.492E+00    7.534E+00    7.578E+00    7.622E+00
     7.669E+00    7.717E+00    7.766E+00    7.816E+00    7.868E+00    7.921E+00    7.975E+00    8.031E+00    8.088E+00    8.146E+00
     8.206E+00    8.267E+00    8.329E+00    8.393E+00    8.458E+00    8.524E+00    8.591E+00    8.660E+00    8.730E+00    8.802E+00
     8.875E+00    8.949E+00    9.024E+00    9.101E+00    9.178E+00    9.258E+00    9.338E+00    9.420E+00    9.503E+00    9.587E+00
     9.672E+00    9.759E+00    9.847E+00    9.936E+00    1.003E+01    1.012E+01    1.021E+01    1.030E+01    1.040E+01    1.050E+01
     1.059E+01    1.069E+01    1.079E+01    1.089E+01    1.099E+01    1.109E+01    1.119E+01    1.130E+01    1.140E+01    1.150E+01
     1.161E+01    1.171E+01    1.182E+01    1.192E+01    1.203E+01    1.214E+01    1.225E+01    1.235E+01    1.246E+01    1.257E+01
     1.268E+01    1.279E+01    1.290E+01    1.301E+01    1.311E+01    1.322E+01    1.333E+01    1.344E+01    1.355E+01    1.366E+01
     1.377E+01    1.388E+01    1.399E+01    1.409E+01    1.420E+01    1.431E+01    1.442E+01    1.452E+01
 Asp      Conc. = 4.41E+02
