 LCModel (Version 6.3-1L) Copyright: S.W. Provencher.          Ref.: Magn. Reson. Med. 30:672-679 (1993).                
 Slice#2 Row#9 Col#3  PD_05_press_2_raw_act
 36 lines in following concentration table = NCONC+1
    Conc.  %SD /Cr+PCr  Metabolite                                         
    0.000 999%   0.000 Ala                                                 
  184.035 210% 7.9E-02 Asp                                                 
 1.01E+03  40%   0.433 Cr                                                  
 1.32E+03  32%   0.567 PCr                                                 
    0.000 999%   0.000 GABA                                                
    0.000 999%   0.000 Glc                                                 
  493.292  77%   0.212 Gln                                                 
 2.56E+03  17%   1.101 Glu                                                 
  802.216   5%   0.345 GPC                                                 
    0.000 999%   0.000 PCh                                                 
  926.838  14%   0.399 GSH                                                 
 2.50E+03  18%   1.075 Ins                                                 
  252.756  80%   0.109 Lac                                                 
 4.36E+03   5%   1.878 NAA                                                 
  585.189  39%   0.252 NAAG                                                
  184.598  26% 7.9E-02 Scyllo                                              
  248.111 148%   0.107 Tau                                                 
  549.556  37%   0.237 -CrCH2                                              
  802.216   5%   0.345 GPC+PCh                                             
 4.95E+03   3%   2.130 NAA+NAAG                                            
 2.32E+03   4%   1.000 Cr+PCr                                              
 3.05E+03  20%   1.313 Glu+Gln                                             
 2.76E+03  29%   1.187 Lip13a                                              
    0.000 999%   0.000 Lip13b                                              
    0.000 999%   0.000 Lip09                                               
 2.94E+03  14%   1.267 MM09                                                
  461.463  69%   0.199 Lip20                                               
 6.70E+03  11%   2.883 MM20                                                
  983.673  28%   0.423 MM12                                                
 1.73E+03  36%   0.743 MM14                                                
 1.66E+03  26%   0.716 MM17                                                
 2.76E+03  29%   1.187 Lip13a+Lip13b                                       
 5.47E+03  15%   2.353 MM14+Lip13a+Lip13b+MM12                             
 2.94E+03  14%   1.267 MM09+Lip09                                          
 7.16E+03  10%   3.082 MM20+Lip20                                          
   6 lines in following misc. output table
  FWHM = 0.054 ppm    S/N =  14                                            
  Data shift = 0.015 ppm                                                   
  Ph: -14 deg      -4.7 deg/ppm                                            
  alphaB,S = 8.9E-01,   1.5E+02                                            
   14 spline knots.   Ns = 7(1)                                            
  (13) 2 infls.   ( 9) 1 extrs.                                            
  498 points on ppm-axis = NY
      4.000000     3.992357     3.984714     3.977070     3.969427     3.961784     3.954141     3.946497     3.938854     3.931211
      3.923568     3.915925     3.908281     3.900638     3.892995     3.885352     3.877708     3.870065     3.862422     3.854779
      3.847136     3.839492     3.831849     3.824206     3.816563     3.808919     3.801276     3.793633     3.785990     3.778347
      3.770703     3.763060     3.755417     3.747774     3.740130     3.732487     3.724844     3.717201     3.709558     3.701914
      3.694271     3.686628     3.678985     3.671341     3.663698     3.656055     3.648412     3.640769     3.633125     3.625482
      3.617839     3.610196     3.602552     3.594909     3.587266     3.579623     3.571980     3.564336     3.556693     3.549050
      3.541407     3.533763     3.526120     3.518477     3.510834     3.503191     3.495547     3.487904     3.480261     3.472618
      3.464974     3.457331     3.449688     3.442045     3.434402     3.426758     3.419115     3.411472     3.403829     3.396185
      3.388542     3.380899     3.373256     3.365613     3.357969     3.350326     3.342683     3.335040     3.327396     3.319753
      3.312110     3.304467     3.296824     3.289180     3.281537     3.273894     3.266251     3.258607     3.250964     3.243321
      3.235678     3.228034     3.220391     3.212748     3.205105     3.197462     3.189818     3.182175     3.174532     3.166889
      3.159245     3.151602     3.143959     3.136316     3.128673     3.121029     3.113386     3.105743     3.098100     3.090456
      3.082813     3.075170     3.067527     3.059884     3.052240     3.044597     3.036954     3.029311     3.021667     3.014024
      3.006381     2.998738     2.991095     2.983451     2.975808     2.968165     2.960522     2.952878     2.945235     2.937592
      2.929949     2.922306     2.914662     2.907019     2.899376     2.891733     2.884089     2.876446     2.868803     2.861160
      2.853517     2.845873     2.838230     2.830587     2.822944     2.815300     2.807657     2.800014     2.792371     2.784728
      2.777084     2.769441     2.761798     2.754155     2.746511     2.738868     2.731225     2.723582     2.715939     2.708295
      2.700652     2.693009     2.685366     2.677722     2.670079     2.662436     2.654793     2.647150     2.639506     2.631863
      2.624220     2.616577     2.608933     2.601290     2.593647     2.586004     2.578361     2.570717     2.563074     2.555431
      2.547788     2.540144     2.532501     2.524858     2.517215     2.509572     2.501928     2.494285     2.486642     2.478999
      2.471355     2.463712     2.456069     2.448426     2.440783     2.433139     2.425496     2.417853     2.410210     2.402566
      2.394923     2.387280     2.379637     2.371994     2.364350     2.356707     2.349064     2.341421     2.333777     2.326134
      2.318491     2.310848     2.303205     2.295561     2.287918     2.280275     2.272632     2.264988     2.257345     2.249702
      2.242059     2.234416     2.226772     2.219129     2.211486     2.203843     2.196199     2.188556     2.180913     2.173270
      2.165627     2.157983     2.150340     2.142697     2.135054     2.127410     2.119767     2.112124     2.104481     2.096838
      2.089194     2.081551     2.073908     2.066265     2.058621     2.050978     2.043335     2.035692     2.028049     2.020405
      2.012762     2.005119     1.997476     1.989833     1.982190     1.974546     1.966903     1.959260     1.951617     1.943974
      1.936331     1.928688     1.921045     1.913402     1.905759     1.898115     1.890472     1.882829     1.875186     1.867543
      1.859900     1.852257     1.844614     1.836971     1.829327     1.821684     1.814041     1.806398     1.798755     1.791112
      1.783469     1.775826     1.768183     1.760540     1.752896     1.745253     1.737610     1.729967     1.722324     1.714681
      1.707038     1.699395     1.691752     1.684108     1.676465     1.668822     1.661179     1.653536     1.645893     1.638250
      1.630607     1.622964     1.615321     1.607677     1.600034     1.592391     1.584748     1.577105     1.569462     1.561819
      1.554176     1.546533     1.538890     1.531246     1.523603     1.515960     1.508317     1.500674     1.493031     1.485388
      1.477745     1.470102     1.462458     1.454815     1.447172     1.439529     1.431886     1.424243     1.416600     1.408957
      1.401314     1.393671     1.386027     1.378384     1.370741     1.363098     1.355455     1.347812     1.340169     1.332526
      1.324883     1.317240     1.309596     1.301953     1.294310     1.286667     1.279024     1.271381     1.263738     1.256095
      1.248452     1.240808     1.233165     1.225522     1.217879     1.210236     1.202593     1.194950     1.187307     1.179664
      1.172021     1.164377     1.156734     1.149091     1.141448     1.133805     1.126162     1.118519     1.110876     1.103233
      1.095590     1.087946     1.080303     1.072660     1.065017     1.057374     1.049731     1.042088     1.034445     1.026802
      1.019158     1.011515     1.003872     0.996229     0.988586     0.980943     0.973300     0.965657     0.958014     0.950371
      0.942727     0.935084     0.927441     0.919798     0.912155     0.904512     0.896869     0.889226     0.881583     0.873940
      0.866296     0.858653     0.851010     0.843367     0.835724     0.828081     0.820438     0.812795     0.805152     0.797508
      0.789865     0.782222     0.774579     0.766936     0.759293     0.751650     0.744007     0.736364     0.728721     0.721077
      0.713434     0.705791     0.698148     0.690505     0.682862     0.675219     0.667576     0.659933     0.652290     0.644646
      0.637003     0.629360     0.621717     0.614074     0.606431     0.598788     0.591145     0.583502     0.575858     0.568215
      0.560572     0.552929     0.545286     0.537643     0.530000     0.522357     0.514714     0.507071     0.499427     0.491784
      0.484141     0.476498     0.468855     0.461212     0.453569     0.445925     0.438282     0.430639     0.422996     0.415353
      0.407710     0.400067     0.392424     0.384780     0.377137     0.369494     0.361851     0.354208     0.346565     0.338922
      0.331278     0.323635     0.315992     0.308349     0.300706     0.293063     0.285420     0.277777     0.270133     0.262490
      0.254847     0.247204     0.239561     0.231918     0.224275     0.216631     0.208988     0.201345
 NY phased data points follow
  -1.24154E+02 -1.17898E+02 -1.14241E+02 -1.02773E+02 -1.03168E+02 -8.84988E+01 -8.38411E+01 -7.39884E+01 -6.03476E+01 -5.65149E+01
  -5.69900E+01 -5.26463E+01 -5.53594E+01 -6.29598E+01 -7.95573E+01 -7.86713E+01 -8.05022E+01 -8.68504E+01 -9.23796E+01 -9.10733E+01
  -8.78985E+01 -8.68176E+01 -8.94485E+01 -8.25771E+01 -8.62741E+01 -7.79301E+01 -7.75421E+01 -7.36267E+01 -7.26302E+01 -6.34207E+01
  -6.13815E+01 -5.97186E+01 -6.33559E+01 -5.92274E+01 -6.67306E+01 -5.88731E+01 -7.24091E+01 -6.48145E+01 -6.73880E+01 -6.38685E+01
  -7.03898E+01 -6.75715E+01 -6.92637E+01 -5.56140E+01 -6.49976E+01 -5.16521E+01 -5.46839E+01 -4.48668E+01 -5.14378E+01 -5.41226E+01
  -5.70395E+01 -6.47136E+01 -6.71152E+01 -6.36145E+01 -5.99046E+01 -6.45453E+01 -5.64914E+01 -6.17018E+01 -5.99048E+01 -6.00622E+01
  -5.55815E+01 -6.07921E+01 -6.50760E+01 -6.70823E+01 -7.84317E+01 -6.34203E+01 -6.60353E+01 -6.26888E+01 -6.93848E+01 -6.57740E+01
  -6.61799E+01 -6.23387E+01 -6.62898E+01 -6.27168E+01 -5.60180E+01 -5.13854E+01 -6.04408E+01 -5.70436E+01 -6.49331E+01 -5.52399E+01
  -6.30686E+01 -5.62800E+01 -5.26499E+01 -5.28009E+01 -4.66538E+01 -4.56402E+01 -5.39971E+01 -4.71190E+01 -5.37021E+01 -5.42920E+01
  -4.28057E+01 -5.14515E+01 -4.22387E+01 -4.69655E+01 -3.83859E+01 -3.58967E+01 -3.54547E+01 -3.01524E+01 -3.09592E+01 -1.63610E+01
   1.60715E+00  1.34053E+01  1.69016E+01  2.42935E+01  6.77389E+00  1.09096E+01 -2.82828E-02 -1.97110E+01 -2.81923E+01 -2.95265E+01
  -3.64536E+01 -3.16099E+01 -3.21624E+01 -3.19678E+01 -3.53095E+01 -3.31912E+01 -3.73133E+01 -2.85503E+01 -3.23216E+01 -2.66225E+01
  -3.27894E+01 -2.70024E+01 -2.46580E+01 -8.08324E+00  1.82450E+01  2.55320E+01  3.42638E+01  4.25191E+01  3.57064E+01  2.54691E+01
   1.22592E+01 -1.21407E+00 -1.10413E+01 -2.66088E+01 -2.58176E+01 -2.83789E+01 -3.75364E+01 -4.19439E+01 -2.85025E+01 -2.95238E+01
  -3.47865E+01 -3.05278E+01 -2.84575E+01 -3.62523E+01 -3.93279E+01 -3.84645E+01 -3.44811E+01 -3.84691E+01 -3.42111E+01 -2.91759E+01
  -3.41558E+01 -4.40420E+01 -3.88510E+01 -2.96627E+01 -3.30802E+01 -3.79928E+01 -4.19279E+01 -2.70902E+01 -3.83743E+01 -3.50519E+01
  -4.16359E+01 -4.41713E+01 -3.03808E+01 -3.77768E+01 -3.82513E+01 -2.85491E+01 -3.93798E+01 -4.16266E+01 -3.42623E+01 -3.34770E+01
  -3.94495E+01 -3.40292E+01 -3.62864E+01 -4.85418E+01 -5.10176E+01 -4.98236E+01 -4.66845E+01 -4.66132E+01 -4.13957E+01 -3.86959E+01
  -5.12164E+01 -4.35529E+01 -4.10489E+01 -3.86790E+01 -3.82514E+01 -4.23496E+01 -3.80175E+01 -3.06886E+01 -2.86668E+01 -2.57950E+01
  -1.52909E+01 -2.47188E+01 -2.68550E+01 -1.89947E+01 -1.64550E+01 -1.83774E+01 -2.01018E+01 -2.81745E+01 -2.88006E+01 -3.08414E+01
  -2.98906E+01 -2.29322E+01 -2.57010E+01 -1.73681E+01 -2.28473E+01 -1.61140E+01 -2.67976E+01 -1.92020E+01 -2.40087E+01 -3.19812E+01
  -3.75101E+01 -2.20847E+01 -2.68648E+01 -1.26621E+01 -1.18188E+01 -7.24028E+00  2.53888E+00 -3.29172E+00 -3.95417E+00 -2.36533E+01
  -1.79227E+01 -1.81932E+01 -2.25920E+01 -2.19574E+01 -2.50057E+01 -1.26818E+01 -1.51633E+01 -1.29125E+01  2.43502E+00 -5.64712E+00
  -1.28549E+01 -2.10262E+00 -7.17280E+00 -1.93906E+00 -1.09468E-01 -7.64202E+00 -6.07094E+00 -2.01898E+00 -8.49768E+00 -7.45685E+00
  -9.87808E+00 -1.66860E+01 -4.22357E+00 -5.53786E+00 -3.82143E+00  7.29232E+00  1.03174E+01  1.24130E+01  1.26377E+01  2.10665E+01
   1.56853E+01  3.08488E+01  2.49753E+01  3.20758E+01  4.37217E+01  5.14198E+01  7.38406E+01  1.00545E+02  1.32870E+02  1.57482E+02
   1.59490E+02  1.43904E+02  1.30631E+02  9.62352E+01  7.78249E+01  4.54831E+01  3.82873E+01  2.40830E+01  1.48971E+01  1.12412E+01
   2.24841E+00  5.05353E+00 -3.42948E-01  1.72048E+00 -8.82843E+00 -7.54354E+00 -1.03313E+01 -1.39521E+01 -1.46845E+00 -5.85220E+00
  -8.35050E+00 -1.04485E+00 -4.47257E+00 -6.47714E+00 -9.83936E+00 -1.31084E+01 -1.08889E+01 -8.48563E+00 -5.70746E+00 -1.35677E+01
  -8.86288E+00 -7.00958E+00 -9.23289E+00 -7.30736E+00 -1.10288E+01  2.33856E-01 -1.08140E+01 -6.60860E+00 -3.25726E+00 -6.64794E+00
  -5.00270E+00 -2.81072E+00 -1.22877E+01 -1.91222E+00 -4.15738E+00 -4.91910E+00  3.42896E-01 -2.66374E+00  1.42814E+00 -1.32370E+00
  -2.41805E+00  1.40638E-03  3.24448E+00  2.73775E+00 -1.67364E+00 -5.97952E+00 -9.84664E+00 -9.64425E+00 -1.09627E+01 -1.85025E+01
  -1.44806E+01 -1.93176E+01 -1.42824E+01 -1.62030E+01 -2.07384E+01 -2.01085E+01 -1.36497E+01 -1.04689E+01 -1.28894E+01 -4.50867E+00
  -1.35075E+01 -2.98981E+00 -8.99242E+00 -1.80513E+00 -8.39613E+00  7.57549E+00 -7.59349E+00  6.46524E+00  4.86274E-01  1.34541E+00
  -1.32680E+00  2.50556E+00  5.08139E+00  7.04383E+00  8.30289E+00  7.74785E+00  9.19485E+00  7.37959E+00  4.49864E+00  7.93089E+00
   3.05974E+00  2.48036E+00  3.90642E+00  3.15672E+00  2.50880E+00  1.45406E+01  8.21292E+00  8.62587E-01 -2.82026E+00  7.13402E+00
  -2.24766E+00  6.23502E+00  2.76465E+00  4.38838E+00  1.10274E+01  3.47416E+00  5.31209E+00  8.35099E-01  4.37854E+00  9.44894E+00
   1.12362E+01  8.26367E+00  1.89034E+00 -1.94975E+00 -8.43729E+00 -6.58453E-01 -4.82969E+00  1.01453E+00 -1.55348E+01 -4.64038E+00
  -5.44021E+00 -1.11916E+01 -1.24062E+01 -8.32887E+00 -6.20058E+00 -1.55420E+01 -8.92144E+00 -5.46880E+00 -5.12219E+00 -4.74889E+00
   4.43943E+00  7.73253E+00 -1.74183E+00 -2.58133E-01 -1.22645E+00 -1.56522E+00  1.04793E+00  9.79717E+00  9.92395E+00  9.42731E+00
   9.53590E+00  1.25063E+01  7.50384E+00  1.08722E+01  5.06758E+00  3.76033E+00  5.06036E+00 -5.26927E+00  8.93974E+00  1.18632E+01
   5.36748E+00  4.02357E+00 -6.39572E-01  4.02715E+00  1.15711E-01 -3.45455E+00 -7.38753E-01 -5.78118E+00 -1.05703E+00 -4.58171E+00
  -2.39241E+00 -3.93866E-01 -8.92419E+00 -5.33208E+00 -4.60110E+00 -9.56492E+00 -7.63625E+00 -1.45253E+00 -1.07396E+01 -1.25977E+01
  -9.03498E+00 -8.05940E+00 -1.06160E+01 -1.31160E+01 -1.20833E+00 -1.09202E+01 -6.17600E+00 -1.11109E+01 -8.57393E+00 -2.67875E+00
  -5.77261E+00 -1.44033E+01 -1.40378E+01 -9.37075E+00 -4.29167E+00 -8.67451E+00 -1.06721E+01 -8.94165E+00 -1.05263E+01 -9.03802E+00
  -6.48324E+00 -8.09824E+00 -1.06386E+01 -7.63952E+00 -1.25219E+01 -9.10236E+00 -1.24251E+00 -7.97089E+00 -1.24514E+01 -5.83073E+00
  -1.27915E+01 -4.07332E+00 -5.14482E+00 -3.41371E+00  1.22456E+00 -1.04210E+01 -4.65349E-01 -2.26655E+00 -6.04713E+00 -7.17079E+00
  -5.83168E-02 -2.67551E-01 -6.29196E+00 -1.50776E+01 -6.83069E+00 -1.17308E+01 -7.95164E+00 -8.80415E+00 -1.13171E+01 -8.17989E+00
  -5.93770E+00 -1.07659E+01 -1.29045E+01 -1.22382E+01 -7.08842E+00 -9.58341E+00 -8.82752E+00 -6.66831E+00 -6.91708E+00  3.75770E-01
  -1.46382E+01 -6.90386E+00 -2.95162E+00 -5.12792E+00 -8.00770E+00 -7.87838E+00 -8.56605E-01 -9.38424E+00
 NY points of the fit to the data follow
  -1.01571E+02 -1.01567E+02 -1.00726E+02 -9.87539E+01 -9.53240E+01 -8.99864E+01 -8.24891E+01 -7.34041E+01 -6.44726E+01 -5.78447E+01
  -5.49405E+01 -5.59176E+01 -5.98634E+01 -6.54158E+01 -7.11699E+01 -7.60716E+01 -7.98037E+01 -8.28133E+01 -8.51118E+01 -8.63667E+01
  -8.67244E+01 -8.66625E+01 -8.64771E+01 -8.57543E+01 -8.43335E+01 -8.20419E+01 -7.84370E+01 -7.36000E+01 -6.83315E+01 -6.37653E+01
  -6.06729E+01 -5.93160E+01 -5.97162E+01 -6.16491E+01 -6.46147E+01 -6.79654E+01 -7.11365E+01 -7.39299E+01 -7.60596E+01 -7.66397E+01
  -7.55172E+01 -7.31651E+01 -6.97691E+01 -6.54258E+01 -6.06676E+01 -5.66067E+01 -5.42184E+01 -5.39391E+01 -5.56604E+01 -5.87271E+01
  -6.22575E+01 -6.53933E+01 -6.74644E+01 -6.84055E+01 -6.84616E+01 -6.77007E+01 -6.61041E+01 -6.40454E+01 -6.22114E+01 -6.10849E+01
  -6.08104E+01 -6.12724E+01 -6.21269E+01 -6.29766E+01 -6.34131E+01 -6.32278E+01 -6.25391E+01 -6.15140E+01 -6.02374E+01 -5.88876E+01
  -5.76676E+01 -5.67114E+01 -5.60715E+01 -5.57378E+01 -5.56834E+01 -5.58352E+01 -5.60698E+01 -5.62717E+01 -5.63099E+01 -5.60713E+01
  -5.53765E+01 -5.42774E+01 -5.28208E+01 -5.11749E+01 -4.97367E+01 -4.89204E+01 -4.89093E+01 -4.95193E+01 -5.03707E+01 -5.10886E+01
  -5.14806E+01 -5.14590E+01 -5.10745E+01 -5.05602E+01 -4.99875E+01 -4.85971E+01 -4.48007E+01 -3.83422E+01 -2.84898E+01 -1.48281E+01
   6.77547E-01  1.41540E+01  2.19491E+01  2.24631E+01  1.64737E+01  6.24035E+00 -5.64884E+00 -1.68377E+01 -2.57541E+01 -3.23661E+01
  -3.75634E+01 -4.13975E+01 -4.29382E+01 -4.31364E+01 -4.29545E+01 -4.26258E+01 -4.22167E+01 -4.16969E+01 -4.09394E+01 -3.93696E+01
  -3.54480E+01 -2.86085E+01 -1.82934E+01 -3.90393E+00  1.28369E+01  2.79288E+01  3.73686E+01  3.92387E+01  3.41090E+01  2.42124E+01
   1.22411E+01  4.47808E-01 -9.69463E+00 -1.80202E+01 -2.53030E+01 -3.13928E+01 -3.47087E+01 -3.55719E+01 -3.51729E+01 -3.40505E+01
  -3.27414E+01 -3.16941E+01 -3.10610E+01 -3.07979E+01 -3.08973E+01 -3.12681E+01 -3.17686E+01 -3.23387E+01 -3.29409E+01 -3.35155E+01
  -3.40456E+01 -3.44493E+01 -3.47114E+01 -3.48212E+01 -3.48415E+01 -3.48534E+01 -3.49853E+01 -3.53800E+01 -3.59738E+01 -3.65840E+01
  -3.69476E+01 -3.68454E+01 -3.63555E+01 -3.58039E+01 -3.55019E+01 -3.55936E+01 -3.60529E+01 -3.67060E+01 -3.73380E+01 -3.78785E+01
  -3.84326E+01 -3.90434E+01 -3.97727E+01 -4.05268E+01 -4.10190E+01 -4.10932E+01 -4.07936E+01 -4.03150E+01 -3.98962E+01 -3.96107E+01
  -3.94034E+01 -3.91833E+01 -3.88673E+01 -3.83845E+01 -3.75632E+01 -3.62097E+01 -3.41966E+01 -3.14731E+01 -2.83256E+01 -2.52948E+01
  -2.29995E+01 -2.18725E+01 -2.18276E+01 -2.25302E+01 -2.36403E+01 -2.47923E+01 -2.56404E+01 -2.58090E+01 -2.51274E+01 -2.36912E+01
  -2.16736E+01 -1.94261E+01 -1.74302E+01 -1.62393E+01 -1.61629E+01 -1.71846E+01 -1.91806E+01 -2.18598E+01 -2.45476E+01 -2.65220E+01
  -2.71255E+01 -2.61281E+01 -2.34074E+01 -1.92338E+01 -1.46622E+01 -1.10898E+01 -9.65631E+00 -1.07622E+01 -1.40323E+01 -1.87330E+01
  -2.36474E+01 -2.72426E+01 -2.85434E+01 -2.73796E+01 -2.42919E+01 -2.01612E+01 -1.57397E+01 -1.20471E+01 -9.64518E+00 -8.40303E+00
  -7.66991E+00 -6.86754E+00 -5.89177E+00 -4.63603E+00 -3.02334E+00 -1.39059E+00 -3.29957E-01 -2.01665E-01 -9.26944E-01 -2.09442E+00
  -3.22842E+00 -3.80176E+00 -3.26005E+00 -1.45475E+00  1.20998E+00  4.09614E+00  6.73859E+00  8.87917E+00  1.04997E+01  1.21171E+01
   1.41924E+01  1.73840E+01  2.22449E+01  3.01697E+01  4.24916E+01  5.85419E+01  7.96950E+01  1.05699E+02  1.31660E+02  1.50184E+02
   1.55842E+02  1.47711E+02  1.28646E+02  1.03300E+02  7.68038E+01  5.37119E+01  3.58917E+01  2.21544E+01  1.06720E+01  2.57987E+00
  -8.56197E-01 -2.49948E+00 -3.57842E+00 -4.37709E+00 -5.02829E+00 -5.66953E+00 -6.34502E+00 -7.03565E+00 -7.72682E+00 -8.37336E+00
  -8.92569E+00 -9.37517E+00 -9.74552E+00 -1.00364E+01 -1.02378E+01 -1.03623E+01 -1.04262E+01 -1.04180E+01 -1.03100E+01 -1.00835E+01
  -9.74595E+00 -9.31268E+00 -8.79618E+00 -8.21650E+00 -7.59967E+00 -6.96511E+00 -6.32513E+00 -5.68579E+00 -5.05775E+00 -4.45919E+00
  -3.90976E+00 -3.42676E+00 -3.03327E+00 -2.75029E+00 -2.59360E+00 -2.56981E+00 -2.67755E+00 -2.91078E+00 -3.26058E+00 -3.70892E+00
  -4.23572E+00 -4.81949E+00 -5.43759E+00 -6.06631E+00 -6.68360E+00 -7.26903E+00 -7.80491E+00 -8.27581E+00 -8.66969E+00 -8.97735E+00
  -9.19311E+00 -9.31362E+00 -9.33835E+00 -9.26841E+00 -9.10684E+00 -8.85774E+00 -8.52671E+00 -8.11981E+00 -7.64396E+00 -7.10596E+00
  -6.51320E+00 -5.87282E+00 -5.19228E+00 -4.47830E+00 -3.73716E+00 -2.97370E+00 -2.19149E+00 -1.39107E+00 -5.68050E-01  2.95346E-01
   1.24269E+00  2.26455E+00  3.30445E+00  4.32479E+00  5.17973E+00  5.65743E+00  5.62477E+00  5.11703E+00  4.37266E+00  3.66013E+00
   3.19623E+00  3.19526E+00  3.75395E+00  4.74198E+00  5.85724E+00  6.82702E+00  7.52870E+00  7.87039E+00  7.78999E+00  7.38106E+00
   6.77993E+00  6.09031E+00  5.32900E+00  4.47993E+00  3.62456E+00  2.81653E+00  2.02566E+00  1.24271E+00  4.70173E-01 -2.85132E-01
  -1.01526E+00 -1.71163E+00 -2.36611E+00 -2.97074E+00 -3.51845E+00 -4.00263E+00 -4.41768E+00 -4.75841E+00 -5.02047E+00 -5.19973E+00
  -5.29282E+00 -5.29658E+00 -5.20865E+00 -5.02695E+00 -4.75028E+00 -4.37799E+00 -3.91085E+00 -3.35074E+00 -2.70154E+00 -1.96884E+00
  -1.16075E+00 -2.87605E-01  6.37293E-01  1.59822E+00  2.57669E+00  3.55229E+00  4.50275E+00  5.40503E+00  6.23560E+00  6.97188E+00
   7.59280E+00  8.08024E+00  8.41937E+00  8.59986E+00  8.61590E+00  8.46695E+00  8.15735E+00  7.69653E+00  7.09791E+00  6.37871E+00
   5.55852E+00  4.65894E+00  3.70204E+00  2.70999E+00  1.70358E+00  7.02038E-01 -2.77987E-01 -1.22224E+00 -2.11951E+00 -2.96120E+00
  -3.74167E+00 -4.45757E+00 -5.10791E+00 -5.69323E+00 -6.21572E+00 -6.67841E+00 -7.08531E+00 -7.44070E+00 -7.74923E+00 -8.01532E+00
  -8.24344E+00 -8.43767E+00 -8.60199E+00 -8.73986E+00 -8.85455E+00 -8.94875E+00 -9.02505E+00 -9.08553E+00 -9.13225E+00 -9.16677E+00
  -9.19064E+00 -9.20496E+00 -9.21092E+00 -9.20940E+00 -9.20135E+00 -9.18738E+00 -9.16822E+00 -9.14430E+00 -9.11621E+00 -9.08432E+00
  -9.04913E+00 -9.01088E+00 -8.96995E+00 -8.92648E+00 -8.88081E+00 -8.83307E+00 -8.78353E+00 -8.73223E+00 -8.67940E+00 -8.62505E+00
  -8.56944E+00 -8.51258E+00 -8.45466E+00 -8.39563E+00 -8.33566E+00 -8.27472E+00 -8.21303E+00 -8.15053E+00 -8.08736E+00 -8.02345E+00
  -7.95894E+00 -7.89379E+00 -7.82815E+00 -7.76195E+00 -7.69530E+00 -7.62810E+00 -7.56049E+00 -7.49244E+00 -7.42406E+00 -7.35526E+00
  -7.28614E+00 -7.21661E+00 -7.14679E+00 -7.07663E+00 -7.00623E+00 -6.93548E+00 -6.86447E+00 -6.79311E+00 -6.72153E+00 -6.64966E+00
  -6.57757E+00 -6.50515E+00 -6.43249E+00 -6.35950E+00 -6.28629E+00 -6.21277E+00 -6.13899E+00 -6.06484E+00
 NY background values follow
    -1.081E+02   -1.074E+02   -1.068E+02   -1.061E+02   -1.055E+02   -1.048E+02   -1.042E+02   -1.035E+02   -1.029E+02   -1.022E+02
    -1.016E+02   -1.009E+02   -1.003E+02   -9.963E+01   -9.898E+01   -9.834E+01   -9.769E+01   -9.705E+01   -9.641E+01   -9.577E+01
    -9.513E+01   -9.449E+01   -9.386E+01   -9.322E+01   -9.259E+01   -9.196E+01   -9.133E+01   -9.070E+01   -9.008E+01   -8.945E+01
    -8.883E+01   -8.821E+01   -8.759E+01   -8.698E+01   -8.636E+01   -8.575E+01   -8.514E+01   -8.454E+01   -8.393E+01   -8.333E+01
    -8.273E+01   -8.213E+01   -8.154E+01   -8.095E+01   -8.036E+01   -7.978E+01   -7.919E+01   -7.862E+01   -7.804E+01   -7.747E+01
    -7.690E+01   -7.633E+01   -7.577E+01   -7.521E+01   -7.465E+01   -7.410E+01   -7.354E+01   -7.300E+01   -7.245E+01   -7.191E+01
    -7.138E+01   -7.084E+01   -7.031E+01   -6.978E+01   -6.926E+01   -6.874E+01   -6.822E+01   -6.771E+01   -6.720E+01   -6.670E+01
    -6.619E+01   -6.570E+01   -6.520E+01   -6.471E+01   -6.422E+01   -6.374E+01   -6.326E+01   -6.278E+01   -6.231E+01   -6.184E+01
    -6.138E+01   -6.092E+01   -6.046E+01   -6.001E+01   -5.956E+01   -5.911E+01   -5.867E+01   -5.824E+01   -5.780E+01   -5.738E+01
    -5.695E+01   -5.653E+01   -5.612E+01   -5.570E+01   -5.530E+01   -5.489E+01   -5.449E+01   -5.410E+01   -5.371E+01   -5.332E+01
    -5.293E+01   -5.255E+01   -5.218E+01   -5.181E+01   -5.144E+01   -5.107E+01   -5.071E+01   -5.036E+01   -5.000E+01   -4.965E+01
    -4.931E+01   -4.896E+01   -4.863E+01   -4.829E+01   -4.796E+01   -4.763E+01   -4.731E+01   -4.698E+01   -4.667E+01   -4.635E+01
    -4.604E+01   -4.573E+01   -4.543E+01   -4.513E+01   -4.483E+01   -4.453E+01   -4.424E+01   -4.395E+01   -4.367E+01   -4.338E+01
    -4.310E+01   -4.283E+01   -4.255E+01   -4.228E+01   -4.201E+01   -4.175E+01   -4.149E+01   -4.123E+01   -4.097E+01   -4.072E+01
    -4.047E+01   -4.022E+01   -3.997E+01   -3.973E+01   -3.949E+01   -3.925E+01   -3.901E+01   -3.878E+01   -3.855E+01   -3.832E+01
    -3.809E+01   -3.787E+01   -3.764E+01   -3.742E+01   -3.720E+01   -3.698E+01   -3.676E+01   -3.655E+01   -3.634E+01   -3.612E+01
    -3.591E+01   -3.570E+01   -3.550E+01   -3.529E+01   -3.509E+01   -3.488E+01   -3.468E+01   -3.448E+01   -3.428E+01   -3.408E+01
    -3.388E+01   -3.368E+01   -3.348E+01   -3.328E+01   -3.309E+01   -3.289E+01   -3.270E+01   -3.250E+01   -3.231E+01   -3.211E+01
    -3.192E+01   -3.173E+01   -3.153E+01   -3.134E+01   -3.115E+01   -3.095E+01   -3.076E+01   -3.057E+01   -3.038E+01   -3.019E+01
    -3.000E+01   -2.981E+01   -2.962E+01   -2.943E+01   -2.924E+01   -2.905E+01   -2.887E+01   -2.868E+01   -2.850E+01   -2.831E+01
    -2.813E+01   -2.794E+01   -2.776E+01   -2.758E+01   -2.740E+01   -2.722E+01   -2.704E+01   -2.687E+01   -2.669E+01   -2.652E+01
    -2.635E+01   -2.617E+01   -2.600E+01   -2.583E+01   -2.567E+01   -2.550E+01   -2.533E+01   -2.517E+01   -2.501E+01   -2.485E+01
    -2.469E+01   -2.453E+01   -2.438E+01   -2.422E+01   -2.407E+01   -2.392E+01   -2.377E+01   -2.362E+01   -2.348E+01   -2.334E+01
    -2.320E+01   -2.306E+01   -2.292E+01   -2.278E+01   -2.265E+01   -2.252E+01   -2.239E+01   -2.226E+01   -2.213E+01   -2.201E+01
    -2.189E+01   -2.177E+01   -2.165E+01   -2.153E+01   -2.142E+01   -2.130E+01   -2.119E+01   -2.108E+01   -2.097E+01   -2.087E+01
    -2.076E+01   -2.066E+01   -2.056E+01   -2.046E+01   -2.037E+01   -2.027E+01   -2.018E+01   -2.009E+01   -2.000E+01   -1.991E+01
    -1.983E+01   -1.974E+01   -1.966E+01   -1.958E+01   -1.950E+01   -1.943E+01   -1.935E+01   -1.928E+01   -1.921E+01   -1.914E+01
    -1.908E+01   -1.901E+01   -1.895E+01   -1.889E+01   -1.883E+01   -1.877E+01   -1.872E+01   -1.866E+01   -1.861E+01   -1.856E+01
    -1.851E+01   -1.846E+01   -1.841E+01   -1.837E+01   -1.832E+01   -1.828E+01   -1.824E+01   -1.820E+01   -1.816E+01   -1.812E+01
    -1.809E+01   -1.805E+01   -1.802E+01   -1.798E+01   -1.795E+01   -1.792E+01   -1.789E+01   -1.786E+01   -1.783E+01   -1.780E+01
    -1.777E+01   -1.775E+01   -1.772E+01   -1.769E+01   -1.767E+01   -1.764E+01   -1.762E+01   -1.760E+01   -1.757E+01   -1.755E+01
    -1.753E+01   -1.750E+01   -1.748E+01   -1.746E+01   -1.743E+01   -1.741E+01   -1.739E+01   -1.737E+01   -1.734E+01   -1.732E+01
    -1.730E+01   -1.728E+01   -1.725E+01   -1.723E+01   -1.721E+01   -1.718E+01   -1.716E+01   -1.714E+01   -1.711E+01   -1.709E+01
    -1.707E+01   -1.704E+01   -1.702E+01   -1.699E+01   -1.697E+01   -1.694E+01   -1.692E+01   -1.689E+01   -1.687E+01   -1.684E+01
    -1.682E+01   -1.679E+01   -1.676E+01   -1.674E+01   -1.671E+01   -1.668E+01   -1.666E+01   -1.663E+01   -1.660E+01   -1.657E+01
    -1.654E+01   -1.651E+01   -1.648E+01   -1.645E+01   -1.642E+01   -1.639E+01   -1.636E+01   -1.633E+01   -1.630E+01   -1.626E+01
    -1.623E+01   -1.620E+01   -1.616E+01   -1.613E+01   -1.610E+01   -1.606E+01   -1.602E+01   -1.599E+01   -1.595E+01   -1.591E+01
    -1.588E+01   -1.584E+01   -1.580E+01   -1.576E+01   -1.572E+01   -1.568E+01   -1.564E+01   -1.559E+01   -1.555E+01   -1.551E+01
    -1.546E+01   -1.542E+01   -1.537E+01   -1.533E+01   -1.528E+01   -1.523E+01   -1.518E+01   -1.514E+01   -1.508E+01   -1.503E+01
    -1.498E+01   -1.493E+01   -1.488E+01   -1.482E+01   -1.477E+01   -1.471E+01   -1.465E+01   -1.460E+01   -1.454E+01   -1.448E+01
    -1.442E+01   -1.435E+01   -1.429E+01   -1.423E+01   -1.416E+01   -1.410E+01   -1.403E+01   -1.396E+01   -1.389E+01   -1.382E+01
    -1.375E+01   -1.368E+01   -1.361E+01   -1.353E+01   -1.346E+01   -1.338E+01   -1.331E+01   -1.323E+01   -1.315E+01   -1.308E+01
    -1.300E+01   -1.292E+01   -1.284E+01   -1.275E+01   -1.267E+01   -1.259E+01   -1.251E+01   -1.242E+01   -1.234E+01   -1.226E+01
    -1.217E+01   -1.209E+01   -1.200E+01   -1.191E+01   -1.183E+01   -1.174E+01   -1.166E+01   -1.157E+01   -1.148E+01   -1.139E+01
    -1.131E+01   -1.122E+01   -1.113E+01   -1.104E+01   -1.096E+01   -1.087E+01   -1.078E+01   -1.069E+01   -1.061E+01   -1.052E+01
    -1.043E+01   -1.035E+01   -1.026E+01   -1.017E+01   -1.009E+01   -1.000E+01   -9.915E+00   -9.830E+00   -9.744E+00   -9.659E+00
    -9.574E+00   -9.490E+00   -9.405E+00   -9.321E+00   -9.237E+00   -9.153E+00   -9.069E+00   -8.985E+00   -8.902E+00   -8.818E+00
    -8.735E+00   -8.652E+00   -8.569E+00   -8.486E+00   -8.404E+00   -8.321E+00   -8.239E+00   -8.157E+00   -8.075E+00   -7.993E+00
    -7.911E+00   -7.829E+00   -7.747E+00   -7.666E+00   -7.584E+00   -7.503E+00   -7.421E+00   -7.340E+00   -7.259E+00   -7.177E+00
    -7.096E+00   -7.015E+00   -6.934E+00   -6.853E+00   -6.772E+00   -6.691E+00   -6.611E+00   -6.530E+00
 Asp      Conc. = 1.84E+02
