 LCModel (Version 6.3-1L) Copyright: S.W. Provencher.          Ref.: Magn. Reson. Med. 30:672-679 (1993).                
 Slice#2 Row#1 Col#1  PD_05_press_2_raw_act
 36 lines in following concentration table = NCONC+1
    Conc.  %SD /Cr+PCr  Metabolite                                         
 3.56E+03  24%   0.000 Ala                                                 
    8.242 106%   0.000 Asp                                                 
    0.000 999%   0.000 Cr                                                  
    0.000 999%   0.000 PCr                                                 
    4.863 108%   0.000 GABA                                                
    4.916 107%   0.000 Glc                                                 
    0.000 999%   0.000 Gln                                                 
 1.35E+03 117%   0.000 Glu                                                 
    0.000 999%   0.000 GPC                                                 
    0.000 999%   0.000 PCh                                                 
  534.924  41%   0.000 GSH                                                 
 1.58E+03  34%   0.000 Ins                                                 
 2.23E+03  45%   0.000 Lac                                                 
  163.709  89%   0.000 NAA                                                 
    0.000 999%   0.000 NAAG                                                
    1.637 107%   0.000 Scyllo                                              
    8.193 107%   0.000 Tau                                                 
    0.000 999%   0.000 -CrCH2                                              
    0.000 999%   0.000 GPC+PCh                                             
  163.709  89%   0.000 NAA+NAAG                                            
    0.000 999%   0.000 Cr+PCr                                              
 1.35E+03 117%   0.000 Glu+Gln                                             
 1.59E+03  45%   0.000 Lip13a                                              
    0.000 999%   0.000 Lip13b                                              
  738.357  53%   0.000 Lip09                                               
  525.254  57%   0.000 MM09                                                
    0.000 999%   0.000 Lip20                                               
    0.000 999%   0.000 MM20                                                
  189.152 101%   0.000 MM12                                                
    0.000 999%   0.000 MM14                                                
 1.87E+03  13%   0.000 MM17                                                
 1.59E+03  45%   0.000 Lip13a+Lip13b                                       
 1.78E+03  39%   0.000 MM14+Lip13a+Lip13b+MM12                             
 1.26E+03  27%   0.000 MM09+Lip09                                          
    0.000 999%   0.000 MM20+Lip20                                          
   6 lines in following misc. output table
  FWHM = 0.122 ppm    S/N =   1                                            
  Data shift = 0.054 ppm                                                   
  Ph: -19 deg      90.2 deg/ppm                                            
  alphaB,S = 8.5E+01,   1.9E+02                                            
   14 spline knots.   Ns = 7(2)                                            
  ( 9) 5 infls.   (11) 3 extrs.                                            
  498 points on ppm-axis = NY
      4.000000     3.992357     3.984714     3.977070     3.969427     3.961784     3.954141     3.946497     3.938854     3.931211
      3.923568     3.915925     3.908281     3.900638     3.892995     3.885352     3.877708     3.870065     3.862422     3.854779
      3.847136     3.839492     3.831849     3.824206     3.816563     3.808919     3.801276     3.793633     3.785990     3.778347
      3.770703     3.763060     3.755417     3.747774     3.740130     3.732487     3.724844     3.717201     3.709558     3.701914
      3.694271     3.686628     3.678985     3.671341     3.663698     3.656055     3.648412     3.640769     3.633125     3.625482
      3.617839     3.610196     3.602552     3.594909     3.587266     3.579623     3.571980     3.564336     3.556693     3.549050
      3.541407     3.533763     3.526120     3.518477     3.510834     3.503191     3.495547     3.487904     3.480261     3.472618
      3.464974     3.457331     3.449688     3.442045     3.434402     3.426758     3.419115     3.411472     3.403829     3.396185
      3.388542     3.380899     3.373256     3.365613     3.357969     3.350326     3.342683     3.335040     3.327396     3.319753
      3.312110     3.304467     3.296824     3.289180     3.281537     3.273894     3.266251     3.258607     3.250964     3.243321
      3.235678     3.228034     3.220391     3.212748     3.205105     3.197462     3.189818     3.182175     3.174532     3.166889
      3.159245     3.151602     3.143959     3.136316     3.128673     3.121029     3.113386     3.105743     3.098100     3.090456
      3.082813     3.075170     3.067527     3.059884     3.052240     3.044597     3.036954     3.029311     3.021667     3.014024
      3.006381     2.998738     2.991095     2.983451     2.975808     2.968165     2.960522     2.952878     2.945235     2.937592
      2.929949     2.922306     2.914662     2.907019     2.899376     2.891733     2.884089     2.876446     2.868803     2.861160
      2.853517     2.845873     2.838230     2.830587     2.822944     2.815300     2.807657     2.800014     2.792371     2.784728
      2.777084     2.769441     2.761798     2.754155     2.746511     2.738868     2.731225     2.723582     2.715939     2.708295
      2.700652     2.693009     2.685366     2.677722     2.670079     2.662436     2.654793     2.647150     2.639506     2.631863
      2.624220     2.616577     2.608933     2.601290     2.593647     2.586004     2.578361     2.570717     2.563074     2.555431
      2.547788     2.540144     2.532501     2.524858     2.517215     2.509572     2.501928     2.494285     2.486642     2.478999
      2.471355     2.463712     2.456069     2.448426     2.440783     2.433139     2.425496     2.417853     2.410210     2.402566
      2.394923     2.387280     2.379637     2.371994     2.364350     2.356707     2.349064     2.341421     2.333777     2.326134
      2.318491     2.310848     2.303205     2.295561     2.287918     2.280275     2.272632     2.264988     2.257345     2.249702
      2.242059     2.234416     2.226772     2.219129     2.211486     2.203843     2.196199     2.188556     2.180913     2.173270
      2.165627     2.157983     2.150340     2.142697     2.135054     2.127410     2.119767     2.112124     2.104481     2.096838
      2.089194     2.081551     2.073908     2.066265     2.058621     2.050978     2.043335     2.035692     2.028049     2.020405
      2.012762     2.005119     1.997476     1.989833     1.982190     1.974546     1.966903     1.959260     1.951617     1.943974
      1.936331     1.928688     1.921045     1.913402     1.905759     1.898115     1.890472     1.882829     1.875186     1.867543
      1.859900     1.852257     1.844614     1.836971     1.829327     1.821684     1.814041     1.806398     1.798755     1.791112
      1.783469     1.775826     1.768183     1.760540     1.752896     1.745253     1.737610     1.729967     1.722324     1.714681
      1.707038     1.699395     1.691752     1.684108     1.676465     1.668822     1.661179     1.653536     1.645893     1.638250
      1.630607     1.622964     1.615321     1.607677     1.600034     1.592391     1.584748     1.577105     1.569462     1.561819
      1.554176     1.546533     1.538890     1.531246     1.523603     1.515960     1.508317     1.500674     1.493031     1.485388
      1.477745     1.470102     1.462458     1.454815     1.447172     1.439529     1.431886     1.424243     1.416600     1.408957
      1.401314     1.393671     1.386027     1.378384     1.370741     1.363098     1.355455     1.347812     1.340169     1.332526
      1.324883     1.317240     1.309596     1.301953     1.294310     1.286667     1.279024     1.271381     1.263738     1.256095
      1.248452     1.240808     1.233165     1.225522     1.217879     1.210236     1.202593     1.194950     1.187307     1.179664
      1.172021     1.164377     1.156734     1.149091     1.141448     1.133805     1.126162     1.118519     1.110876     1.103233
      1.095590     1.087946     1.080303     1.072660     1.065017     1.057374     1.049731     1.042088     1.034445     1.026802
      1.019158     1.011515     1.003872     0.996229     0.988586     0.980943     0.973300     0.965657     0.958014     0.950371
      0.942727     0.935084     0.927441     0.919798     0.912155     0.904512     0.896869     0.889226     0.881583     0.873940
      0.866296     0.858653     0.851010     0.843367     0.835724     0.828081     0.820438     0.812795     0.805152     0.797508
      0.789865     0.782222     0.774579     0.766936     0.759293     0.751650     0.744007     0.736364     0.728721     0.721077
      0.713434     0.705791     0.698148     0.690505     0.682862     0.675219     0.667576     0.659933     0.652290     0.644646
      0.637003     0.629360     0.621717     0.614074     0.606431     0.598788     0.591145     0.583502     0.575858     0.568215
      0.560572     0.552929     0.545286     0.537643     0.530000     0.522357     0.514714     0.507071     0.499427     0.491784
      0.484141     0.476498     0.468855     0.461212     0.453569     0.445925     0.438282     0.430639     0.422996     0.415353
      0.407710     0.400067     0.392424     0.384780     0.377137     0.369494     0.361851     0.354208     0.346565     0.338922
      0.331278     0.323635     0.315992     0.308349     0.300706     0.293063     0.285420     0.277777     0.270133     0.262490
      0.254847     0.247204     0.239561     0.231918     0.224275     0.216631     0.208988     0.201345
 NY phased data points follow
  -3.76753E-01 -7.47719E+00 -7.65722E+00 -1.69641E+00  3.25067E+00  4.60306E+00 -5.24613E+00  7.07838E-01  7.53900E-01 -4.76256E-01
   4.90790E+00  1.55082E+01  6.55857E+00  9.81545E+00  2.40842E+00 -3.93962E-01  2.20131E+00  2.07857E+00  5.60239E+00  3.97036E+00
  -5.13811E-01  5.60092E+00 -1.09691E+00  1.16153E+00 -3.52244E+00  1.38300E+00 -3.15504E+00  7.97863E+00  3.97208E+00 -3.71155E+00
   6.70727E+00  6.68080E+00  1.10095E+00 -1.63273E+00  8.63529E+00  1.66136E-01 -1.16042E+01  6.54564E+00 -1.98913E+00  4.07251E+00
   1.14113E+01  5.37194E+00  5.51186E+00  8.11657E+00  1.12451E+00  2.13868E+00 -2.61543E+00  6.57127E+00  2.97291E+00 -5.35059E+00
  -3.73755E-01  1.11725E+01  7.73316E+00  4.73639E+00  3.59441E+00  1.01905E+01  4.58551E+00 -3.50636E+00  1.28057E+01  1.76958E+00
   8.05210E+00 -4.45714E+00  5.42131E+00  6.89647E+00 -1.26571E+00  7.50100E+00  7.12650E+00  9.15751E+00  9.21068E+00  1.21605E+00
   3.37968E+00  3.64593E+00  1.44053E+00  5.11549E-01  2.97346E-01  5.66506E+00  1.38381E-01 -2.01541E+00  3.75477E+00  1.17640E+01
   2.15609E+00  2.19863E+00  2.82511E+00  2.45889E+00  3.65853E+00  2.67188E+00  9.56840E+00  6.39708E+00 -3.07490E+00  3.37797E+00
  -2.83681E+00  6.05535E+00  2.57516E+00  7.26747E+00  5.10597E+00  5.05271E-01  4.17643E+00  1.60584E+00  5.00754E+00  1.07190E+01
   1.40367E+01  1.10586E+00  6.03561E+00  1.18420E+01  9.76694E+00  9.49243E+00  3.87356E+00  9.83336E+00  2.31522E+00  1.01183E+00
   4.53552E+00  2.72786E+00  8.28780E+00  3.44315E+00  5.80453E+00  2.93460E+00 -2.96683E+00  6.48158E+00  6.21260E+00  6.85069E+00
   1.07147E+01  4.61321E+00  1.05220E+01  9.81343E+00 -8.00955E-01  6.04548E+00  6.52049E+00  1.44347E+00  4.62534E+00  2.05597E+01
   1.57653E+01  7.71805E+00  2.41736E+00  1.28595E+01  5.06378E+00  1.02679E+01  5.91748E+00  1.21841E+01  1.38072E+01  9.40294E+00
   8.72913E+00  1.25959E+01  5.01109E+00  6.65770E+00  6.63188E+00  1.22118E+01  6.05615E+00  1.11568E+01  2.04359E+00  7.99031E+00
   8.82410E+00  3.64378E+00  7.52208E+00  9.40230E+00  9.06469E+00  2.39529E+00  6.87609E+00  7.72640E+00  8.34972E+00  1.04346E+01
   5.91757E+00  2.89395E+00  7.66859E+00  8.58856E+00  8.97128E-01  7.57536E+00  6.88635E+00  9.47251E+00  1.17518E+01  1.11139E+01
   9.95408E+00 -5.42441E+00  1.15613E+01  1.11069E+01  1.62390E+01  7.15480E+00  7.99132E+00  1.78271E+01  1.69501E+01  1.43257E+01
   8.66855E+00  1.70742E+01  1.22075E+01  1.77769E+01  2.70293E+01  1.80090E+01  1.11671E+01  2.02717E+01  2.22581E+01  1.96632E+01
   1.68661E+01  2.21278E+01  1.79665E+01  1.04130E+01  1.13633E+01  1.30105E+01  1.19941E+01  6.70955E+00  1.75779E+01  1.33379E+01
   9.13104E+00  1.01294E+01  2.32628E+00  1.09133E+01  5.54272E+00 -9.86728E-01 -2.55956E+00 -2.53420E+00 -3.14958E+00  1.60481E+01
   1.79353E+01  2.56127E+00  6.32875E+00  3.88347E+00  4.09134E+00  9.08324E-01  8.60510E+00  3.12138E+00  9.10200E+00  8.11621E+00
  -4.78751E+00  4.75258E+00  6.33364E+00 -1.03022E+01 -5.06438E+00  5.09049E+00  2.03949E+00  7.41401E+00 -4.77867E+00 -6.35436E-01
  -9.35189E+00 -8.02219E+00 -3.94712E+00  1.49987E+00 -8.24587E+00 -1.11180E+01 -5.29074E+00 -1.17193E+01 -4.30247E+00 -7.68919E+00
  -1.29547E+01 -5.66736E+00 -1.38415E+01  9.17769E-01 -8.88003E+00 -1.60863E+01 -1.85733E+01 -1.46049E+01 -7.40990E+00 -1.32791E+01
  -9.04595E+00 -1.16378E+01 -6.83625E+00 -4.11329E+00 -9.63381E+00 -9.00404E+00  5.84875E-01  7.33173E+00  4.74156E+00  5.80566E+00
  -5.78175E-01  4.79006E+00 -5.19608E+00 -6.08166E+00 -2.81755E+00  8.93312E+00 -5.76981E+00 -1.28378E+01 -6.26837E+00 -3.14113E+00
  -7.49267E+00 -7.13502E+00 -1.35208E+01 -1.17649E+01 -3.94222E+00 -7.44001E+00 -1.18290E+01 -8.33888E+00 -9.74253E+00 -3.83846E+00
  -3.05121E+00  1.12764E-01 -2.32014E+00 -1.30219E+01 -5.94340E+00 -7.74947E+00 -1.05445E+01 -6.23252E-01 -2.68627E+00  2.21373E+00
  -8.18427E-01  9.15285E-01 -1.02308E+00  1.78985E+00  5.95660E+00  2.41121E+00  2.78825E+00 -1.49708E+00  1.31253E+01 -4.05491E+00
   9.60142E+00  1.11846E+01  2.79558E+00  1.29441E+01  8.07268E+00 -5.01993E-01  3.19016E+00 -5.79421E-01  1.62638E+00 -2.66208E+00
  -2.79278E-01  1.14880E+01  9.05388E-01  7.24158E+00  6.62917E+00  1.08700E+01 -7.59456E+00 -1.31619E+00  9.13604E+00 -1.14034E+00
  -5.83039E+00  1.63302E+00 -7.52863E+00 -1.01538E+01 -4.18400E+00  6.20346E-01 -1.31258E+01 -1.41986E+01 -2.32240E+01 -1.41261E+01
  -2.29328E+01 -1.40862E+01 -8.06483E+00 -9.87759E+00 -6.21510E+00  5.00934E-01 -1.54090E+01 -1.12949E+01 -1.92865E+00  5.31041E-01
  -7.71773E-01 -1.94824E+00 -2.39291E+00 -8.76154E+00 -5.29546E+00  6.77765E-02 -3.62320E+00 -1.14993E+01  3.97676E+00 -1.33781E+00
  -2.71792E+00  1.22431E+00 -1.66868E+00 -5.82048E+00 -3.53837E+00 -5.35277E+00 -7.58338E+00 -9.21804E+00 -8.35783E-01 -8.06119E+00
  -5.42567E+00  4.43939E+00  9.71156E+00 -2.20795E+00  5.73293E+00 -1.13757E+01  1.41383E+00  4.20331E+00  5.52285E-01  1.49961E+00
   8.64097E+00  5.68768E+00 -7.44789E+00  2.50521E+00 -4.67322E+00 -7.51960E-01 -1.71763E+01 -1.92003E+01 -9.36838E+00 -9.16277E+00
  -7.70803E+00 -8.64118E+00 -1.20483E+00 -1.44479E+01 -1.79392E+01 -1.38113E+01 -5.58819E+00 -9.94523E+00 -1.08625E+01 -1.10381E+01
  -1.66048E+01 -6.08062E+00 -1.30149E+01 -3.10596E+00 -6.90213E+00 -2.88967E+00 -1.37744E+01 -8.54965E+00 -8.67069E+00 -4.02564E+00
  -1.72157E+00 -2.58803E+00  2.51438E-01 -7.71224E+00 -6.03402E+00 -2.01060E+00 -1.57893E+00 -7.79066E+00 -3.42774E+00 -2.51334E+00
  -1.06998E+01 -1.11916E+01 -4.25989E+00 -1.51277E+01 -1.30466E+01 -8.82686E+00 -1.01561E+01 -1.27569E+01 -4.63187E+00 -4.36091E+00
  -2.21013E+00  1.41781E+00 -1.44874E+01  3.46067E+00 -6.78327E+00 -4.45266E+00 -5.11709E-01  6.22979E+00  3.66489E+00 -5.46683E+00
  -6.12966E+00 -8.88064E+00 -4.17623E+00 -1.05650E+00 -8.22011E+00 -2.95183E-01  2.07831E+00  3.36505E+00 -3.93845E+00 -3.80866E+00
  -2.03471E+00 -4.54824E+00 -7.48402E+00 -4.20545E-01 -1.01416E+01 -2.76926E+00 -9.61816E+00 -4.66815E+00 -7.47200E+00 -2.62587E+00
   5.13092E-01 -1.35673E+00 -9.57463E+00  1.12792E+00  1.57005E+00 -1.02676E+01 -5.79001E-01 -5.33732E-01  8.69185E+00 -1.64296E+00
  -1.67138E+00 -1.54963E+00 -2.24704E+00  5.01638E-01 -6.01066E+00  2.44387E+00 -7.27852E+00  4.40654E+00 -9.88834E+00 -2.98049E+00
  -5.18773E+00 -5.98977E+00 -4.70000E+00 -1.15951E+01 -5.95713E+00  3.87703E+00 -8.39213E+00 -4.91573E+00 -3.00402E+00  4.55925E+00
  -3.82861E-01 -8.78160E+00 -4.69317E+00 -8.82168E+00 -5.98920E+00 -4.47243E+00  1.02934E+00 -3.69520E+00 -1.07408E+00 -2.13314E+00
  -1.52918E+00 -1.78638E+00 -1.41770E+00  5.42112E+00  4.25198E+00 -1.35530E+00 -3.64277E+00 -2.37217E+00
 NY points of the fit to the data follow
  -4.62179E+00 -4.27445E+00 -4.40985E+00 -4.03094E+00 -3.85760E+00 -3.35070E+00 -2.82492E+00 -2.16234E+00 -1.30551E+00 -5.88750E-01
   3.42344E-01  6.45289E-01  1.41767E+00  1.49259E+00  2.23795E+00  2.34102E+00  2.80356E+00  2.99924E+00  3.40837E+00  3.81865E+00
   3.89438E+00  4.49442E+00  4.15204E+00  4.92380E+00  4.13081E+00  4.97726E+00  3.80636E+00  4.72972E+00  3.26867E+00  4.25729E+00
   2.68922E+00  3.82106E+00  2.35227E+00  3.65822E+00  2.27716E+00  3.53250E+00  2.29146E+00  3.49931E+00  2.39950E+00  3.49902E+00
   2.53410E+00  3.38229E+00  2.52838E+00  2.96963E+00  2.24793E+00  2.65193E+00  2.19341E+00  2.70373E+00  2.35316E+00  2.81709E+00
   2.74525E+00  3.23327E+00  3.11776E+00  3.48325E+00  3.34443E+00  3.62183E+00  3.43021E+00  3.67417E+00  3.48693E+00  3.79835E+00
   3.66686E+00  4.03229E+00  3.98057E+00  4.40880E+00  4.42911E+00  4.84805E+00  4.75707E+00  4.96037E+00  4.77208E+00  4.85723E+00
   4.65216E+00  4.65160E+00  4.42344E+00  4.35130E+00  4.14653E+00  4.06445E+00  3.94857E+00  3.92485E+00  3.87857E+00  3.88551E+00
   3.89203E+00  3.91278E+00  4.01195E+00  4.02614E+00  4.22683E+00  4.24654E+00  4.53501E+00  4.55226E+00  4.88544E+00  4.88405E+00
   5.24290E+00  5.20284E+00  5.57285E+00  5.52502E+00  5.90774E+00  5.88131E+00  6.26899E+00  6.28177E+00  6.66058E+00  6.70525E+00
   7.05443E+00  7.11535E+00  7.41245E+00  7.46854E+00  7.68457E+00  7.71601E+00  7.88810E+00  7.94108E+00  8.10695E+00  8.19296E+00
   8.35905E+00  8.46470E+00  8.62371E+00  8.71991E+00  8.86760E+00  8.93119E+00  9.06320E+00  9.12738E+00  9.28423E+00  9.36127E+00
   9.43511E+00  9.46439E+00  9.44860E+00  9.44227E+00  9.38690E+00  9.41334E+00  9.32668E+00  9.43706E+00  9.26810E+00  9.45168E+00
   9.19343E+00  9.45399E+00  9.12033E+00  9.45985E+00  9.06984E+00  9.45934E+00  9.00070E+00  9.38144E+00  8.86897E+00  9.20496E+00
   8.67953E+00  8.96554E+00  8.47818E+00  8.71045E+00  8.27515E+00  8.44838E+00  8.07650E+00  8.18928E+00  7.90341E+00  7.96966E+00
   7.77170E+00  7.78431E+00  7.59607E+00  7.50938E+00  7.35992E+00  7.22772E+00  7.14131E+00  7.03625E+00  6.99504E+00  6.92826E+00
   6.88093E+00  6.81227E+00  6.74703E+00  6.67689E+00  6.60042E+00  6.52665E+00  6.44011E+00  6.35526E+00  6.25518E+00  6.16290E+00
   6.04083E+00  5.93238E+00  5.80935E+00  5.69444E+00  5.61289E+00  5.53122E+00  5.52426E+00  5.48306E+00  5.53016E+00  5.47996E+00
   5.55436E+00  5.46765E+00  5.52806E+00  5.36279E+00  5.44043E+00  5.25472E+00  5.33993E+00  5.14388E+00  5.21974E+00  5.02849E+00
   5.10316E+00  4.95108E+00  5.02484E+00  4.89275E+00  4.96721E+00  4.82468E+00  4.84412E+00  4.69325E+00  4.64411E+00  4.50900E+00
   4.46445E+00  4.44350E+00  4.53584E+00  4.44961E+00  4.62712E+00  4.38175E+00  4.59814E+00  4.11071E+00  4.25502E+00  3.51550E+00
   3.68978E+00  2.77149E+00  2.94351E+00  1.94777E+00  2.08032E+00  1.11430E+00  1.23175E+00  4.17881E-01  5.70754E-01 -2.24043E-02
   1.74427E-01 -1.73965E-01  6.65426E-02 -6.27195E-02  1.02539E-01  3.41278E-02  4.56345E-02 -3.31066E-03 -1.71791E-01 -2.22683E-01
  -4.54195E-01 -4.19728E-01 -6.05134E-01 -5.31734E-01 -5.84658E-01 -6.51063E-01 -7.06670E-01 -9.55704E-01 -1.02950E+00 -1.41992E+00
  -1.52328E+00 -1.96378E+00 -1.98105E+00 -2.37536E+00 -2.40696E+00 -2.70376E+00 -2.62338E+00 -2.74098E+00 -2.65945E+00 -2.63379E+00
  -2.59538E+00 -2.41071E+00 -2.43865E+00 -2.09775E+00 -2.23391E+00 -1.78008E+00 -2.11227E+00 -1.68860E+00 -2.25496E+00 -1.90266E+00
  -2.63400E+00 -2.36281E+00 -3.13338E+00 -2.87331E+00 -3.62392E+00 -3.42124E+00 -4.13396E+00 -4.02433E+00 -4.71001E+00 -4.71306E+00
  -5.33912E+00 -5.41267E+00 -5.94644E+00 -6.07824E+00 -6.52473E+00 -6.69790E+00 -7.03981E+00 -7.19153E+00 -7.33165E+00 -7.37531E+00
  -7.40044E+00 -7.35150E+00 -7.23282E+00 -7.06274E+00 -6.78653E+00 -6.44121E+00 -5.97615E+00 -5.43330E+00 -4.76834E+00 -4.02619E+00
  -3.17984E+00 -2.26728E+00 -1.28647E+00 -2.83720E-01  7.25676E-01  1.69730E+00  2.60361E+00  3.40690E+00  4.07561E+00  4.58503E+00
   4.91533E+00  5.05460E+00  4.99980E+00  4.75635E+00  4.33967E+00  3.77264E+00  3.08701E+00  2.32115E+00  1.52261E+00  7.47695E-01
   7.66069E-02 -3.49022E-01 -1.40919E-01  8.19970E-01  6.02281E-01  2.24636E+00  9.54217E-01  2.83457E+00  1.25180E-01  1.67019E+00
  -3.14106E+00 -8.48202E-01 -6.73634E+00 -3.84605E+00 -1.02002E+01 -7.04442E+00 -1.32860E+01 -9.87342E+00 -1.51284E+01 -1.13135E+01
  -1.51675E+01 -1.12223E+01 -1.34200E+01 -9.07808E+00 -9.77484E+00 -6.37912E+00 -6.14233E+00 -4.15403E+00 -3.22608E+00 -2.93483E+00
  -1.84366E+00 -2.69017E+00 -7.51741E-01 -2.37113E+00  4.89128E-01 -1.37952E+00  1.32099E+00 -1.46588E+00  1.18390E+00 -2.03250E+00
   4.94832E-01 -2.94470E+00 -7.23611E-01 -3.48538E+00 -7.64416E-01 -3.22091E+00 -6.33666E-01 -2.80620E+00 -5.35480E-01 -2.39089E+00
  -5.33097E-01 -2.06114E+00 -6.44248E-01 -1.68068E+00 -5.95993E-01 -9.59370E-01 -1.79986E-01 -7.87801E-01 -5.47463E-01 -1.39236E+00
  -1.75371E+00 -2.77705E+00 -3.70044E+00 -4.46098E+00 -5.12330E+00 -5.71699E+00 -6.25683E+00 -6.75093E+00 -7.20401E+00 -7.61884E+00
  -7.99704E+00 -8.33943E+00 -8.64628E+00 -8.91736E+00 -9.15206E+00 -9.34944E+00 -9.50835E+00 -9.62746E+00 -9.70539E+00 -9.74076E+00
  -9.73233E+00 -9.67917E+00 -9.58083E+00 -9.43745E+00 -9.24992E+00 -9.02001E+00 -8.75041E+00 -8.44483E+00 -8.10797E+00 -7.74550E+00
  -7.36386E+00 -6.97017E+00 -6.57194E+00 -6.17687E+00 -5.79257E+00 -5.42629E+00 -5.08462E+00 -4.77331E+00 -4.49705E+00 -4.25935E+00
  -4.06249E+00 -3.90751E+00 -3.79421E+00 -3.72128E+00 -3.68646E+00 -3.68670E+00 -3.71833E+00 -3.77728E+00 -3.85924E+00 -3.95983E+00
  -4.07477E+00 -4.20002E+00 -4.33181E+00 -4.46675E+00 -4.60188E+00 -4.73463E+00 -4.86289E+00 -4.98494E+00 -5.09944E+00 -5.20539E+00
  -5.30207E+00 -5.38901E+00 -5.46599E+00 -5.53292E+00 -5.58987E+00 -5.63699E+00 -5.67454E+00 -5.70280E+00 -5.72210E+00 -5.73280E+00
  -5.73527E+00 -5.72984E+00 -5.71687E+00 -5.69669E+00 -5.66965E+00 -5.63604E+00 -5.59615E+00 -5.55023E+00 -5.49857E+00 -5.44138E+00
  -5.37889E+00 -5.31131E+00 -5.23881E+00 -5.16158E+00 -5.07978E+00 -4.99356E+00 -4.90307E+00 -4.80844E+00 -4.70980E+00 -4.60724E+00
  -4.50089E+00 -4.39086E+00 -4.27724E+00 -4.16011E+00 -4.03957E+00 -3.91568E+00 -3.78855E+00 -3.65824E+00 -3.52482E+00 -3.38836E+00
  -3.24892E+00 -3.10658E+00 -2.96139E+00 -2.81342E+00 -2.66273E+00 -2.50937E+00 -2.35341E+00 -2.19491E+00 -2.03392E+00 -1.87051E+00
  -1.70474E+00 -1.53667E+00 -1.36636E+00 -1.19390E+00 -1.01934E+00 -8.42763E-01 -6.64245E-01 -4.83874E-01 -3.01750E-01 -1.17975E-01
   6.73420E-02  2.54076E-01  4.42084E-01  6.31199E-01  8.21230E-01  1.01196E+00  1.20314E+00  1.39445E+00
 NY background values follow
    -5.588E+00   -5.372E+00   -5.157E+00   -4.943E+00   -4.731E+00   -4.521E+00   -4.312E+00   -4.105E+00   -3.900E+00   -3.696E+00
    -3.494E+00   -3.293E+00   -3.094E+00   -2.897E+00   -2.701E+00   -2.507E+00   -2.315E+00   -2.124E+00   -1.935E+00   -1.748E+00
    -1.563E+00   -1.379E+00   -1.197E+00   -1.017E+00   -8.381E-01   -6.614E-01   -4.865E-01   -3.134E-01   -1.421E-01    2.746E-02
     1.952E-01    3.611E-01    5.252E-01    6.875E-01    8.479E-01    1.006E+00    1.163E+00    1.318E+00    1.471E+00    1.622E+00
     1.772E+00    1.919E+00    2.064E+00    2.208E+00    2.350E+00    2.490E+00    2.628E+00    2.764E+00    2.898E+00    3.030E+00
     3.160E+00    3.288E+00    3.415E+00    3.539E+00    3.662E+00    3.782E+00    3.901E+00    4.018E+00    4.132E+00    4.245E+00
     4.356E+00    4.465E+00    4.572E+00    4.677E+00    4.780E+00    4.881E+00    4.980E+00    5.077E+00    5.172E+00    5.265E+00
     5.356E+00    5.445E+00    5.533E+00    5.618E+00    5.701E+00    5.782E+00    5.862E+00    5.939E+00    6.014E+00    6.088E+00
     6.159E+00    6.229E+00    6.296E+00    6.362E+00    6.425E+00    6.487E+00    6.546E+00    6.604E+00    6.659E+00    6.713E+00
     6.765E+00    6.815E+00    6.862E+00    6.908E+00    6.952E+00    6.994E+00    7.034E+00    7.072E+00    7.108E+00    7.143E+00
     7.175E+00    7.205E+00    7.234E+00    7.260E+00    7.285E+00    7.308E+00    7.328E+00    7.347E+00    7.364E+00    7.380E+00
     7.393E+00    7.404E+00    7.414E+00    7.421E+00    7.427E+00    7.431E+00    7.433E+00    7.433E+00    7.432E+00    7.428E+00
     7.423E+00    7.416E+00    7.407E+00    7.397E+00    7.384E+00    7.370E+00    7.354E+00    7.336E+00    7.317E+00    7.295E+00
     7.272E+00    7.248E+00    7.221E+00    7.193E+00    7.163E+00    7.131E+00    7.098E+00    7.063E+00    7.027E+00    6.988E+00
     6.948E+00    6.907E+00    6.863E+00    6.818E+00    6.772E+00    6.724E+00    6.674E+00    6.623E+00    6.570E+00    6.516E+00
     6.460E+00    6.402E+00    6.343E+00    6.283E+00    6.221E+00    6.157E+00    6.092E+00    6.026E+00    5.958E+00    5.888E+00
     5.818E+00    5.745E+00    5.672E+00    5.597E+00    5.520E+00    5.442E+00    5.363E+00    5.283E+00    5.201E+00    5.118E+00
     5.033E+00    4.948E+00    4.860E+00    4.772E+00    4.683E+00    4.592E+00    4.500E+00    4.406E+00    4.312E+00    4.216E+00
     4.120E+00    4.022E+00    3.923E+00    3.822E+00    3.721E+00    3.619E+00    3.515E+00    3.410E+00    3.305E+00    3.198E+00
     3.090E+00    2.982E+00    2.872E+00    2.761E+00    2.650E+00    2.537E+00    2.424E+00    2.309E+00    2.194E+00    2.078E+00
     1.961E+00    1.843E+00    1.724E+00    1.604E+00    1.484E+00    1.363E+00    1.241E+00    1.118E+00    9.946E-01    8.704E-01
     7.456E-01    6.200E-01    4.938E-01    3.669E-01    2.394E-01    1.112E-01   -1.754E-02   -1.469E-01   -2.768E-01   -4.073E-01
    -5.383E-01   -6.698E-01   -8.018E-01   -9.343E-01   -1.067E+00   -1.201E+00   -1.335E+00   -1.469E+00   -1.604E+00   -1.739E+00
    -1.874E+00   -2.010E+00   -2.146E+00   -2.282E+00   -2.419E+00   -2.556E+00   -2.693E+00   -2.831E+00   -2.968E+00   -3.106E+00
    -3.244E+00   -3.383E+00   -3.521E+00   -3.660E+00   -3.798E+00   -3.937E+00   -4.076E+00   -4.215E+00   -4.354E+00   -4.493E+00
    -4.632E+00   -4.770E+00   -4.909E+00   -5.048E+00   -5.187E+00   -5.326E+00   -5.465E+00   -5.603E+00   -5.741E+00   -5.880E+00
    -6.018E+00   -6.156E+00   -6.293E+00   -6.431E+00   -6.568E+00   -6.705E+00   -6.841E+00   -6.978E+00   -7.114E+00   -7.250E+00
    -7.385E+00   -7.520E+00   -7.654E+00   -7.789E+00   -7.922E+00   -8.056E+00   -8.189E+00   -8.321E+00   -8.453E+00   -8.584E+00
    -8.715E+00   -8.845E+00   -8.975E+00   -9.104E+00   -9.233E+00   -9.361E+00   -9.488E+00   -9.615E+00   -9.741E+00   -9.866E+00
    -9.991E+00   -1.011E+01   -1.024E+01   -1.036E+01   -1.048E+01   -1.060E+01   -1.072E+01   -1.084E+01   -1.096E+01   -1.108E+01
    -1.119E+01   -1.131E+01   -1.142E+01   -1.154E+01   -1.165E+01   -1.176E+01   -1.187E+01   -1.198E+01   -1.209E+01   -1.220E+01
    -1.231E+01   -1.241E+01   -1.252E+01   -1.262E+01   -1.273E+01   -1.283E+01   -1.293E+01   -1.303E+01   -1.312E+01   -1.322E+01
    -1.332E+01   -1.341E+01   -1.350E+01   -1.360E+01   -1.369E+01   -1.378E+01   -1.386E+01   -1.395E+01   -1.404E+01   -1.412E+01
    -1.420E+01   -1.429E+01   -1.437E+01   -1.444E+01   -1.452E+01   -1.460E+01   -1.467E+01   -1.475E+01   -1.482E+01   -1.489E+01
    -1.496E+01   -1.502E+01   -1.509E+01   -1.515E+01   -1.521E+01   -1.528E+01   -1.533E+01   -1.539E+01   -1.545E+01   -1.550E+01
    -1.556E+01   -1.561E+01   -1.566E+01   -1.570E+01   -1.575E+01   -1.580E+01   -1.584E+01   -1.588E+01   -1.592E+01   -1.596E+01
    -1.599E+01   -1.603E+01   -1.606E+01   -1.609E+01   -1.612E+01   -1.615E+01   -1.617E+01   -1.620E+01   -1.622E+01   -1.624E+01
    -1.626E+01   -1.627E+01   -1.629E+01   -1.630E+01   -1.631E+01   -1.632E+01   -1.632E+01   -1.633E+01   -1.633E+01   -1.633E+01
    -1.633E+01   -1.633E+01   -1.632E+01   -1.632E+01   -1.631E+01   -1.630E+01   -1.629E+01   -1.627E+01   -1.625E+01   -1.624E+01
    -1.621E+01   -1.619E+01   -1.617E+01   -1.614E+01   -1.611E+01   -1.608E+01   -1.605E+01   -1.601E+01   -1.597E+01   -1.593E+01
    -1.589E+01   -1.585E+01   -1.580E+01   -1.576E+01   -1.571E+01   -1.565E+01   -1.560E+01   -1.554E+01   -1.549E+01   -1.542E+01
    -1.536E+01   -1.530E+01   -1.523E+01   -1.516E+01   -1.509E+01   -1.502E+01   -1.494E+01   -1.486E+01   -1.478E+01   -1.470E+01
    -1.462E+01   -1.453E+01   -1.444E+01   -1.435E+01   -1.426E+01   -1.416E+01   -1.407E+01   -1.397E+01   -1.386E+01   -1.376E+01
    -1.365E+01   -1.355E+01   -1.344E+01   -1.332E+01   -1.321E+01   -1.309E+01   -1.297E+01   -1.285E+01   -1.273E+01   -1.260E+01
    -1.247E+01   -1.234E+01   -1.221E+01   -1.207E+01   -1.194E+01   -1.180E+01   -1.166E+01   -1.151E+01   -1.137E+01   -1.122E+01
    -1.107E+01   -1.092E+01   -1.076E+01   -1.061E+01   -1.045E+01   -1.029E+01   -1.012E+01   -9.959E+00   -9.792E+00   -9.622E+00
    -9.451E+00   -9.277E+00   -9.101E+00   -8.923E+00   -8.743E+00   -8.560E+00   -8.376E+00   -8.189E+00   -8.000E+00   -7.810E+00
    -7.617E+00   -7.422E+00   -7.225E+00   -7.025E+00   -6.824E+00   -6.621E+00   -6.415E+00   -6.208E+00   -5.998E+00   -5.787E+00
    -5.573E+00   -5.358E+00   -5.140E+00   -4.920E+00   -4.699E+00   -4.475E+00   -4.249E+00   -4.022E+00   -3.792E+00   -3.560E+00
    -3.327E+00   -3.091E+00   -2.854E+00   -2.615E+00   -2.374E+00   -2.130E+00   -1.885E+00   -1.638E+00
 Ala      Conc. = 3.56E+03
