 LCModel (Version 6.3-1L) Copyright: S.W. Provencher.          Ref.: Magn. Reson. Med. 30:672-679 (1993).                
 Slice#1 Row#12 Col#2  PD_05_press_2_raw_act
 36 lines in following concentration table = NCONC+1
    Conc.  %SD /Cr+PCr  Metabolite                                         
  971.254  55%   0.000 Ala                                                 
    0.383 999%   0.000 Asp                                                 
    0.000 999%   0.000 Cr                                                  
    0.000 999%   0.000 PCr                                                 
    0.000 999%   0.000 GABA                                                
 6.07E-02 999%   0.000 Glc                                                 
    0.000 999%   0.000 Gln                                                 
    0.000 999%   0.000 Glu                                                 
    0.000 999%   0.000 GPC                                                 
    1.646 999%   0.000 PCh                                                 
    7.518 999%   0.000 GSH                                                 
    0.000 999%   0.000 Ins                                                 
 2.51E+03  20%   0.000 Lac                                                 
    0.000 999%   0.000 NAA                                                 
    0.000 999%   0.000 NAAG                                                
 6.27E-02 999%   0.000 Scyllo                                              
    0.230 999%   0.000 Tau                                                 
    0.291 999%   0.000 -CrCH2                                              
    1.646 999%   0.000 GPC+PCh                                             
    0.000 999%   0.000 NAA+NAAG                                            
    0.000 999%   0.000 Cr+PCr                                              
    0.000 999%   0.000 Glu+Gln                                             
    0.000 999%   0.000 Lip13a                                              
   46.923 204%   0.000 Lip13b                                              
    0.000 999%   0.000 Lip09                                               
  515.183  20%   0.000 MM09                                                
    0.000 999%   0.000 Lip20                                               
    0.000 999%   0.000-MM20                                                
  135.704  58%   0.000 MM12                                                
 1.80E+03  15%   0.000+MM14                                                
 1.67E+03  11%   0.000+MM17                                                
   46.923 204%   0.000 Lip13a+Lip13b                                       
 1.99E+03  15%   0.000 MM14+Lip13a+Lip13b+MM12                             
  515.183  20%   0.000 MM09+Lip09                                          
    0.000 999%   0.000 MM20+Lip20                                          
   6 lines in following misc. output table
  FWHM = 0.168 ppm    S/N =   4                                            
  Data shift = 0.260 ppm                                                   
  Ph: -63 deg      17.9 deg/ppm                                            
  alphaB,S = 8.5E+01,   1.2E+03                                            
    9 spline knots.   Ns = 9(2)                                            
  ( 5) 4 infls.   ( 1) 1 extrs.                                            
  498 points on ppm-axis = NY
      4.000000     3.992357     3.984714     3.977070     3.969427     3.961784     3.954141     3.946497     3.938854     3.931211
      3.923568     3.915925     3.908281     3.900638     3.892995     3.885352     3.877708     3.870065     3.862422     3.854779
      3.847136     3.839492     3.831849     3.824206     3.816563     3.808919     3.801276     3.793633     3.785990     3.778347
      3.770703     3.763060     3.755417     3.747774     3.740130     3.732487     3.724844     3.717201     3.709558     3.701914
      3.694271     3.686628     3.678985     3.671341     3.663698     3.656055     3.648412     3.640769     3.633125     3.625482
      3.617839     3.610196     3.602552     3.594909     3.587266     3.579623     3.571980     3.564336     3.556693     3.549050
      3.541407     3.533763     3.526120     3.518477     3.510834     3.503191     3.495547     3.487904     3.480261     3.472618
      3.464974     3.457331     3.449688     3.442045     3.434402     3.426758     3.419115     3.411472     3.403829     3.396185
      3.388542     3.380899     3.373256     3.365613     3.357969     3.350326     3.342683     3.335040     3.327396     3.319753
      3.312110     3.304467     3.296824     3.289180     3.281537     3.273894     3.266251     3.258607     3.250964     3.243321
      3.235678     3.228034     3.220391     3.212748     3.205105     3.197462     3.189818     3.182175     3.174532     3.166889
      3.159245     3.151602     3.143959     3.136316     3.128673     3.121029     3.113386     3.105743     3.098100     3.090456
      3.082813     3.075170     3.067527     3.059884     3.052240     3.044597     3.036954     3.029311     3.021667     3.014024
      3.006381     2.998738     2.991095     2.983451     2.975808     2.968165     2.960522     2.952878     2.945235     2.937592
      2.929949     2.922306     2.914662     2.907019     2.899376     2.891733     2.884089     2.876446     2.868803     2.861160
      2.853517     2.845873     2.838230     2.830587     2.822944     2.815300     2.807657     2.800014     2.792371     2.784728
      2.777084     2.769441     2.761798     2.754155     2.746511     2.738868     2.731225     2.723582     2.715939     2.708295
      2.700652     2.693009     2.685366     2.677722     2.670079     2.662436     2.654793     2.647150     2.639506     2.631863
      2.624220     2.616577     2.608933     2.601290     2.593647     2.586004     2.578361     2.570717     2.563074     2.555431
      2.547788     2.540144     2.532501     2.524858     2.517215     2.509572     2.501928     2.494285     2.486642     2.478999
      2.471355     2.463712     2.456069     2.448426     2.440783     2.433139     2.425496     2.417853     2.410210     2.402566
      2.394923     2.387280     2.379637     2.371994     2.364350     2.356707     2.349064     2.341421     2.333777     2.326134
      2.318491     2.310848     2.303205     2.295561     2.287918     2.280275     2.272632     2.264988     2.257345     2.249702
      2.242059     2.234416     2.226772     2.219129     2.211486     2.203843     2.196199     2.188556     2.180913     2.173270
      2.165627     2.157983     2.150340     2.142697     2.135054     2.127410     2.119767     2.112124     2.104481     2.096838
      2.089194     2.081551     2.073908     2.066265     2.058621     2.050978     2.043335     2.035692     2.028049     2.020405
      2.012762     2.005119     1.997476     1.989833     1.982190     1.974546     1.966903     1.959260     1.951617     1.943974
      1.936331     1.928688     1.921045     1.913402     1.905759     1.898115     1.890472     1.882829     1.875186     1.867543
      1.859900     1.852257     1.844614     1.836971     1.829327     1.821684     1.814041     1.806398     1.798755     1.791112
      1.783469     1.775826     1.768183     1.760540     1.752896     1.745253     1.737610     1.729967     1.722324     1.714681
      1.707038     1.699395     1.691752     1.684108     1.676465     1.668822     1.661179     1.653536     1.645893     1.638250
      1.630607     1.622964     1.615321     1.607677     1.600034     1.592391     1.584748     1.577105     1.569462     1.561819
      1.554176     1.546533     1.538890     1.531246     1.523603     1.515960     1.508317     1.500674     1.493031     1.485388
      1.477745     1.470102     1.462458     1.454815     1.447172     1.439529     1.431886     1.424243     1.416600     1.408957
      1.401314     1.393671     1.386027     1.378384     1.370741     1.363098     1.355455     1.347812     1.340169     1.332526
      1.324883     1.317240     1.309596     1.301953     1.294310     1.286667     1.279024     1.271381     1.263738     1.256095
      1.248452     1.240808     1.233165     1.225522     1.217879     1.210236     1.202593     1.194950     1.187307     1.179664
      1.172021     1.164377     1.156734     1.149091     1.141448     1.133805     1.126162     1.118519     1.110876     1.103233
      1.095590     1.087946     1.080303     1.072660     1.065017     1.057374     1.049731     1.042088     1.034445     1.026802
      1.019158     1.011515     1.003872     0.996229     0.988586     0.980943     0.973300     0.965657     0.958014     0.950371
      0.942727     0.935084     0.927441     0.919798     0.912155     0.904512     0.896869     0.889226     0.881583     0.873940
      0.866296     0.858653     0.851010     0.843367     0.835724     0.828081     0.820438     0.812795     0.805152     0.797508
      0.789865     0.782222     0.774579     0.766936     0.759293     0.751650     0.744007     0.736364     0.728721     0.721077
      0.713434     0.705791     0.698148     0.690505     0.682862     0.675219     0.667576     0.659933     0.652290     0.644646
      0.637003     0.629360     0.621717     0.614074     0.606431     0.598788     0.591145     0.583502     0.575858     0.568215
      0.560572     0.552929     0.545286     0.537643     0.530000     0.522357     0.514714     0.507071     0.499427     0.491784
      0.484141     0.476498     0.468855     0.461212     0.453569     0.445925     0.438282     0.430639     0.422996     0.415353
      0.407710     0.400067     0.392424     0.384780     0.377137     0.369494     0.361851     0.354208     0.346565     0.338922
      0.331278     0.323635     0.315992     0.308349     0.300706     0.293063     0.285420     0.277777     0.270133     0.262490
      0.254847     0.247204     0.239561     0.231918     0.224275     0.216631     0.208988     0.201345
 NY phased data points follow
  -4.91935E+00 -3.63885E+00 -7.94812E+00 -4.04854E+00 -7.78474E+00 -2.86685E+00 -6.37212E+00 -4.61177E+00 -5.31588E+00 -2.24237E+00
  -4.31454E+00 -6.38515E+00 -2.91456E+00 -1.60821E+00 -6.66952E+00 -3.76923E+00 -5.55650E+00 -7.12820E+00 -4.42921E+00 -2.74767E+00
  -6.36513E+00 -2.68129E+00 -2.24844E+00 -5.30718E+00 -5.94315E+00 -1.79562E+00 -3.13603E+00 -4.05058E+00 -4.23753E+00 -6.75510E+00
  -3.60259E+00 -2.52732E+00 -6.31084E+00 -3.56616E+00 -5.19540E+00 -4.23306E+00 -4.59797E+00 -2.53531E+00 -3.97036E+00 -3.39597E+00
  -4.21664E+00 -3.54016E+00 -4.60638E+00 -5.54547E+00 -3.51246E+00 -3.86110E+00 -6.06394E+00 -5.29422E+00 -1.72955E+00 -2.18720E+00
  -2.76214E+00 -2.97569E+00 -3.13587E+00 -2.99531E+00 -2.50858E+00 -2.02941E+00 -1.63461E+00 -2.02626E+00 -3.78225E+00 -3.79729E+00
  -5.07418E+00 -4.52477E+00 -2.27705E+00 -4.06803E+00 -2.67765E+00 -4.18551E+00 -2.49839E+00 -2.29373E+00 -1.70714E+00 -2.09868E+00
  -4.28140E+00 -3.66039E+00 -3.91128E+00 -1.38601E+00 -3.50132E+00 -5.79780E+00 -5.13278E+00 -4.79014E+00 -3.14401E+00 -3.10839E+00
  -4.36859E+00 -5.08458E+00 -3.46889E+00 -3.08907E-01 -3.49511E+00 -3.42723E+00 -2.23271E+00 -2.89888E+00 -1.99063E-01  5.56178E-01
  -4.53617E+00  2.79404E-01 -2.49401E+00 -2.39480E+00 -3.36467E+00 -4.12378E-01 -3.78193E+00 -5.66894E+00  7.91915E-02 -1.87115E+00
  -6.30610E+00 -5.00105E+00 -3.90526E+00 -3.43150E+00 -2.11074E+00 -3.57061E+00  1.36308E+00 -1.31895E+00 -2.52088E+00 -3.80028E+00
  -2.56052E+00 -3.93895E+00 -3.10419E+00 -2.12083E+00 -1.89884E+00 -2.85183E+00 -1.89940E+00 -7.35324E-03  4.14939E-01  7.18049E-01
  -1.96566E+00 -3.01211E+00 -2.85420E+00 -3.30060E+00 -3.42691E+00 -4.46074E+00 -5.00587E-02 -4.08995E-01 -2.40749E+00 -1.41694E+00
  -4.41562E+00 -5.82234E+00 -1.13395E+00 -2.08760E+00 -2.52395E+00 -3.05653E+00 -2.50218E+00 -9.51696E-01 -2.59214E+00 -3.62534E+00
  -2.81827E+00 -1.58799E+00 -1.25567E+00 -2.37657E+00 -2.56838E+00 -2.14529E+00  1.37153E+00 -2.26089E+00 -2.95347E+00 -3.20237E+00
  -2.38031E+00 -2.08804E+00 -1.42404E+00 -2.43655E+00 -1.62905E+00 -4.37164E-01 -2.17711E+00 -1.78054E+00 -1.97243E+00 -2.59449E+00
  -2.62089E+00 -2.92229E-01 -2.42765E+00  2.01578E+00  4.59517E-02 -3.27758E+00 -2.14117E+00  4.76799E-01 -1.54989E+00  1.69597E+00
   1.71133E+00 -6.71306E-01 -5.29755E-02  1.46105E+00 -1.50317E-01 -6.10324E-01  2.36536E+00  2.08287E+00  1.68669E+00  7.81072E-01
   1.53962E+00 -5.87009E-02 -2.59766E-01  2.59387E+00  2.57158E+00  3.49829E+00 -2.09862E+00  2.26206E+00  3.00419E+00  9.44228E-01
   3.03584E+00  2.52372E+00  1.38833E+00  1.97534E+00  4.30423E+00  2.08603E+00  4.13689E+00  3.32850E+00  4.51745E+00  4.12142E+00
   5.70100E+00  3.50138E+00  2.70593E+00  2.24894E+00  2.13378E+00  3.82207E+00  3.45601E+00  6.44712E+00  4.19880E+00  3.79361E+00
   4.62613E+00  5.43811E+00  4.12734E+00  3.88393E+00  4.63848E+00  1.56584E+00 -6.47764E-01  3.27226E+00  3.99702E+00  2.86679E+00
   4.46125E+00  3.56114E+00  4.88231E-01  3.01559E+00  2.13013E+00 -2.28348E-02  1.97082E-01 -1.64938E+00 -2.88211E+00 -1.93881E+00
  -1.74125E+00  4.23126E-01 -1.55495E+00  3.42720E-01 -1.43237E+00 -7.11193E-01 -1.37156E+00 -8.05450E-01  3.49426E-01  7.04228E-01
  -2.23475E+00 -1.86351E+00  9.12975E-02  1.64790E+00 -1.64371E+00  1.69971E+00 -1.02317E+00  2.27237E+00 -2.44687E+00 -3.78142E-01
  -2.82209E+00 -2.90850E-01  1.59014E+00 -1.53757E+00 -1.37786E+00 -8.64730E-01  2.57897E-01 -2.79494E-01  1.81168E-01 -2.34920E+00
  -8.34639E-01 -3.58958E+00 -1.00962E+00  2.00105E+00 -1.48381E+00 -2.17004E+00  2.24769E+00  1.04150E-01 -1.46599E+00  5.06940E-01
   8.19130E-01  1.12284E+00  5.82171E-01 -3.01138E-01  5.89882E-01  1.67965E+00  4.53192E+00  2.74674E+00  2.70386E+00  5.92840E+00
   6.71784E+00  5.37715E+00  8.11317E+00  8.49983E+00  1.19147E+01  1.22251E+01  1.25885E+01  1.36385E+01  1.47007E+01  1.69593E+01
   1.72668E+01  1.97199E+01  2.34998E+01  2.27076E+01  2.56079E+01  2.61831E+01  2.61239E+01  2.43974E+01  2.69624E+01  2.47516E+01
   2.48383E+01  2.60663E+01  2.68026E+01  2.47660E+01  1.96317E+01  2.32865E+01  2.05026E+01  1.89390E+01  1.69092E+01  1.44979E+01
   1.59029E+01  1.69039E+01  1.20560E+01  9.33930E+00  1.11986E+01  9.11033E+00  6.23357E+00  7.70948E+00  1.05594E+01  2.43084E+00
   6.91349E+00  2.71149E+00  3.87784E+00  4.02582E+00  5.83271E+00  4.12842E+00  5.31308E+00  4.38885E+00  4.61073E+00  5.01064E+00
   4.41072E+00  3.30481E+00  3.92380E+00  3.10819E+00  3.88206E+00 -1.76711E+00  2.22238E+00  2.30897E+00  2.10106E+00  2.60640E+00
   4.55453E+00 -1.14192E+00  6.76853E-01  3.13209E+00  1.84855E+00  5.58627E-01  1.29198E+00  3.69607E+00  2.63971E+00  2.23344E+00
  -1.36008E+00  1.54260E+00  1.99432E+00  1.95259E+00  1.93261E+00  1.28068E-01 -9.56321E-02  2.27100E+00  2.84061E+00  3.76619E+00
   2.05226E+00 -7.17521E-02 -6.17846E-01 -2.89441E+00 -1.97371E+00 -6.27508E-01 -2.95544E+00  6.11952E-01 -7.88088E-01 -6.65256E-01
  -3.99367E-01 -8.68119E-01 -1.81446E+00 -2.51882E+00  6.99808E-01 -1.29816E-01 -1.29309E+00 -1.53700E+00  1.21015E+00 -5.06339E-01
  -1.55192E+00 -1.83362E+00 -2.08330E+00 -2.97516E+00 -6.02490E-01 -1.16395E+00  6.22434E-02 -1.44662E+00  8.70136E-01 -5.19175E-01
   7.92497E-01 -1.42077E+00  5.41719E-01 -3.19041E+00 -1.18331E+00 -2.91519E+00 -4.56069E+00  2.51520E+00  1.89349E+00 -3.13685E+00
  -1.28133E+00 -8.20600E-01 -3.42713E+00 -5.34919E-01 -8.90752E-01 -1.30495E+00 -1.33811E+00  3.13846E-01 -2.36981E+00 -5.77961E-01
  -2.83209E+00 -6.37769E-01 -2.60017E+00 -2.11520E+00 -4.12357E-01 -5.01575E-01  1.06170E+00 -1.88264E+00 -8.42611E-01 -3.45037E+00
  -2.94573E+00 -1.72073E+00 -7.36003E-01 -9.53776E-01 -3.58302E+00 -1.70496E+00 -2.31172E+00 -2.11198E+00 -3.17946E+00 -1.33663E+00
  -1.76670E-01 -1.43750E+00 -3.87554E+00 -1.14682E+00 -2.67168E+00 -8.41593E-01 -5.51981E+00 -2.09346E+00 -2.70250E+00 -5.68655E+00
  -3.53969E+00 -3.75893E+00 -1.58806E+00 -4.76973E+00  1.03427E-01 -1.74306E+00 -3.83560E+00  7.50156E-01 -2.75574E+00 -7.38510E-01
  -7.66412E-01 -2.83605E+00 -1.92681E+00 -3.76459E+00 -3.09352E+00 -3.58160E+00 -5.13693E+00 -4.92560E+00 -1.91375E-01 -3.69013E+00
  -2.68014E+00  1.15509E-01 -1.59787E+00  5.51919E-01 -3.56576E+00 -1.25084E+00 -1.81927E+00 -2.15058E+00 -3.77418E+00 -1.37078E+00
  -3.09681E+00 -3.70505E+00 -4.34962E+00 -5.45214E+00 -1.10255E+00 -2.45096E+00 -2.01650E+00 -2.45143E+00 -9.43476E-01 -3.39819E+00
  -3.72563E+00 -2.26726E+00 -2.08685E+00 -1.83960E+00 -9.71170E-01 -3.03011E-01 -1.25823E+00 -2.45990E+00 -8.52338E-01 -9.62864E-01
  -2.08845E+00 -2.67986E+00 -3.61528E+00 -5.45472E+00 -1.39945E+00 -2.74351E+00 -3.35280E+00 -2.81219E+00
 NY points of the fit to the data follow
  -3.71082E+00 -3.93498E+00 -3.72075E+00 -3.84679E+00 -3.64822E+00 -3.68888E+00 -3.51682E+00 -3.58463E+00 -3.43721E+00 -3.55266E+00
  -3.43661E+00 -3.59745E+00 -3.48827E+00 -3.64003E+00 -3.45428E+00 -3.65263E+00 -3.40316E+00 -3.63718E+00 -3.34618E+00 -3.61438E+00
  -3.32048E+00 -3.61479E+00 -3.29127E+00 -3.60421E+00 -3.27130E+00 -3.59111E+00 -3.26317E+00 -3.57758E+00 -3.26753E+00 -3.56494E+00
  -3.28199E+00 -3.54948E+00 -3.30000E+00 -3.52654E+00 -3.31541E+00 -3.49465E+00 -3.32652E+00 -3.45934E+00 -3.33927E+00 -3.43181E+00
  -3.36061E+00 -3.41920E+00 -3.37821E+00 -3.39031E+00 -3.36729E+00 -3.33465E+00 -3.31850E+00 -3.25450E+00 -3.24269E+00 -3.19677E+00
  -3.21601E+00 -3.18746E+00 -3.22558E+00 -3.21212E+00 -3.25363E+00 -3.24587E+00 -3.25235E+00 -3.22415E+00 -3.21291E+00 -3.17852E+00
  -3.15829E+00 -3.12733E+00 -3.10631E+00 -3.09010E+00 -3.07613E+00 -3.06284E+00 -3.05031E+00 -3.03782E+00 -3.02567E+00 -3.01335E+00
  -3.00120E+00 -2.98888E+00 -2.97660E+00 -2.96417E+00 -2.95168E+00 -2.93907E+00 -2.92637E+00 -2.91357E+00 -2.90069E+00 -2.88771E+00
  -2.87464E+00 -2.86147E+00 -2.84821E+00 -2.83485E+00 -2.82120E+00 -2.80594E+00 -2.79015E+00 -2.77377E+00 -2.75570E+00 -2.73908E+00
  -2.71888E+00 -2.70268E+00 -2.68060E+00 -2.66528E+00 -2.64167E+00 -2.62753E+00 -2.60277E+00 -2.58998E+00 -2.56448E+00 -2.55306E+00
  -2.52722E+00 -2.51714E+00 -2.49143E+00 -2.48255E+00 -2.45740E+00 -2.44951E+00 -2.42526E+00 -2.41800E+00 -2.39493E+00 -2.38789E+00
  -2.36622E+00 -2.35893E+00 -2.33868E+00 -2.33062E+00 -2.31153E+00 -2.30196E+00 -2.28357E+00 -2.27273E+00 -2.25526E+00 -2.24324E+00
  -2.22663E+00 -2.21309E+00 -2.19653E+00 -2.18094E+00 -2.16315E+00 -2.14541E+00 -2.12569E+00 -2.10799E+00 -2.08718E+00 -2.06984E+00
  -2.04805E+00 -2.03112E+00 -2.00852E+00 -1.99203E+00 -1.96883E+00 -1.95274E+00 -1.92914E+00 -1.91339E+00 -1.88950E+00 -1.87391E+00
  -1.84988E+00 -1.83426E+00 -1.81026E+00 -1.79442E+00 -1.77056E+00 -1.75433E+00 -1.73073E+00 -1.71392E+00 -1.69069E+00 -1.67314E+00
  -1.65023E+00 -1.63178E+00 -1.60909E+00 -1.58965E+00 -1.56707E+00 -1.54668E+00 -1.52432E+00 -1.50360E+00 -1.48170E+00 -1.46045E+00
  -1.43865E+00 -1.41659E+00 -1.39437E+00 -1.37159E+00 -1.34881E+00 -1.32566E+00 -1.30248E+00 -1.27922E+00 -1.25568E+00 -1.23233E+00
  -1.20840E+00 -1.18478E+00 -1.16019E+00 -1.13605E+00 -1.11060E+00 -1.08600E+00 -1.05986E+00 -1.03497E+00 -1.00839E+00 -9.83561E-01
  -9.56899E-01 -9.31649E-01 -9.04782E-01 -8.78831E-01 -8.51755E-01 -8.24952E-01 -7.97674E-01 -7.69923E-01 -7.42455E-01 -7.13718E-01
  -6.86036E-01 -6.56293E-01 -6.28383E-01 -5.97689E-01 -5.69551E-01 -5.37996E-01 -5.09650E-01 -4.77373E-01 -4.48721E-01 -4.15777E-01
  -3.86693E-01 -3.53180E-01 -3.23550E-01 -2.89591E-01 -2.59306E-01 -2.25038E-01 -1.93979E-01 -1.59484E-01 -1.27487E-01 -9.25712E-02
  -5.94470E-02 -2.40066E-02  1.02837E-02  4.58887E-02  8.09580E-02  1.16696E-01  1.52454E-01  1.88625E-01  2.25311E-01  2.62557E-01
   3.00406E-01  3.38835E-01  3.77776E-01  4.17010E-01  4.56929E-01  4.96879E-01  5.37864E-01  5.78928E-01  6.21420E-01  6.63796E-01
   7.07996E-01  7.51818E-01  7.97826E-01  8.43143E-01  8.90947E-01  9.37840E-01  9.87509E-01  1.03619E+00  1.08789E+00  1.13860E+00
   1.19246E+00  1.24546E+00  1.30168E+00  1.35728E+00  1.41607E+00  1.47459E+00  1.53620E+00  1.59793E+00  1.66261E+00  1.72785E+00
   1.79587E+00  1.86495E+00  1.93671E+00  2.01013E+00  2.08626E+00  2.16498E+00  2.24630E+00  2.33090E+00  2.41813E+00  2.50922E+00
   2.60312E+00  2.70125E+00  2.80305E+00  2.91000E+00  3.02180E+00  3.14001E+00  3.26465E+00  3.39755E+00  3.53914E+00  3.69147E+00
   3.85600E+00  4.03537E+00  4.23227E+00  4.45033E+00  4.69379E+00  4.96770E+00  5.27796E+00  5.63115E+00  6.03457E+00  6.49596E+00
   7.02327E+00  7.62410E+00  8.30528E+00  9.07207E+00  9.92753E+00  1.08717E+01  1.19008E+01  1.30067E+01  1.41766E+01  1.53924E+01
   1.66315E+01  1.78670E+01  1.90686E+01  2.02042E+01  2.12414E+01  2.21489E+01  2.28990E+01  2.34685E+01  2.38407E+01  2.40058E+01
   2.39619E+01  2.37146E+01  2.32766E+01  2.26668E+01  2.19091E+01  2.10310E+01  2.00632E+01  1.90389E+01  1.79972E+01  1.69825E+01
   1.59040E+01  1.47317E+01  1.36588E+01  1.22929E+01  1.12867E+01  9.72995E+00  8.84307E+00  7.21334E+00  6.73997E+00  5.06898E+00
   5.08252E+00  3.37428E+00  3.89608E+00  2.17252E+00  3.19752E+00  1.49724E+00  3.01459E+00  1.42112E+00  3.47169E+00  2.13254E+00
   4.15958E+00  2.69056E+00  4.49014E+00  2.78779E+00  4.26392E+00  2.32416E+00  3.55781E+00  2.00972E+00  3.06582E+00  1.95837E+00
   2.74833E+00  2.07354E+00  2.53593E+00  2.29149E+00  2.39221E+00  2.55172E+00  2.29237E+00  2.79372E+00  2.18335E+00  2.90081E+00
   1.93635E+00  2.66800E+00  1.48550E+00  2.28945E+00  1.01376E+00  1.88056E+00  6.42704E-01  1.54905E+00  5.09842E-01  1.30237E+00
   3.98510E-01  1.04686E+00  3.35724E-01  8.65254E-01  3.72348E-01  7.97962E-01  4.74856E-01  7.58781E-01  4.55976E-01  4.76244E-01
  -1.13104E-01 -5.25778E-01 -1.06325E+00 -1.59428E+00 -1.93753E+00 -2.32182E+00 -2.37867E+00 -2.33127E+00 -2.24761E+00 -2.14496E+00
  -2.03026E+00 -1.90699E+00 -1.77725E+00 -1.64246E+00 -1.50383E+00 -1.36251E+00 -1.21973E+00 -1.07683E+00 -9.35294E-01 -7.96778E-01
  -6.63138E-01 -5.36434E-01 -4.18872E-01 -3.12756E-01 -2.20399E-01 -1.44083E-01 -8.59486E-02 -4.79354E-02 -3.16295E-02 -3.81948E-02
  -6.82515E-02 -1.21866E-01 -1.98475E-01 -2.96914E-01 -4.15375E-01 -5.51504E-01 -7.02436E-01 -8.64964E-01 -1.03561E+00 -1.21082E+00
  -1.38702E+00 -1.56081E+00 -1.72903E+00 -1.88893E+00 -2.03819E+00 -2.17500E+00 -2.29800E+00 -2.40639E+00 -2.49978E+00 -2.57826E+00
  -2.64225E+00 -2.69249E+00 -2.72990E+00 -2.75560E+00 -2.77075E+00 -2.77661E+00 -2.77439E+00 -2.76526E+00 -2.75032E+00 -2.73057E+00
  -2.70690E+00 -2.68013E+00 -2.65094E+00 -2.61993E+00 -2.58759E+00 -2.55433E+00 -2.52050E+00 -2.48639E+00 -2.45221E+00 -2.41815E+00
  -2.38434E+00 -2.35089E+00 -2.31787E+00 -2.28537E+00 -2.25342E+00 -2.22206E+00 -2.19128E+00 -2.16112E+00 -2.13158E+00 -2.10267E+00
  -2.07438E+00 -2.04669E+00 -2.01960E+00 -1.99310E+00 -1.96718E+00 -1.94184E+00 -1.91704E+00 -1.89278E+00 -1.86904E+00 -1.84581E+00
  -1.82308E+00 -1.80084E+00 -1.77906E+00 -1.75773E+00 -1.73684E+00 -1.71638E+00 -1.69632E+00 -1.67667E+00 -1.65740E+00 -1.63849E+00
  -1.61994E+00 -1.60174E+00 -1.58386E+00 -1.56630E+00 -1.54903E+00 -1.53205E+00 -1.51534E+00 -1.49889E+00 -1.48268E+00 -1.46670E+00
  -1.45091E+00 -1.43532E+00 -1.41990E+00 -1.40463E+00 -1.38949E+00 -1.37445E+00 -1.35948E+00 -1.34457E+00 -1.32967E+00 -1.31475E+00
  -1.29977E+00 -1.28468E+00 -1.26941E+00 -1.25392E+00 -1.23812E+00 -1.22191E+00 -1.20517E+00 -1.18775E+00
 NY background values follow
    -2.962E+00   -2.959E+00   -2.957E+00   -2.954E+00   -2.951E+00   -2.948E+00   -2.945E+00   -2.942E+00   -2.939E+00   -2.936E+00
    -2.933E+00   -2.929E+00   -2.926E+00   -2.922E+00   -2.918E+00   -2.915E+00   -2.911E+00   -2.907E+00   -2.903E+00   -2.898E+00
    -2.894E+00   -2.890E+00   -2.886E+00   -2.881E+00   -2.876E+00   -2.872E+00   -2.867E+00   -2.862E+00   -2.857E+00   -2.852E+00
    -2.847E+00   -2.842E+00   -2.837E+00   -2.831E+00   -2.826E+00   -2.821E+00   -2.815E+00   -2.809E+00   -2.804E+00   -2.798E+00
    -2.792E+00   -2.786E+00   -2.780E+00   -2.774E+00   -2.767E+00   -2.761E+00   -2.755E+00   -2.748E+00   -2.742E+00   -2.735E+00
    -2.728E+00   -2.722E+00   -2.715E+00   -2.708E+00   -2.701E+00   -2.694E+00   -2.687E+00   -2.680E+00   -2.672E+00   -2.665E+00
    -2.658E+00   -2.650E+00   -2.643E+00   -2.635E+00   -2.627E+00   -2.619E+00   -2.612E+00   -2.604E+00   -2.596E+00   -2.588E+00
    -2.580E+00   -2.571E+00   -2.563E+00   -2.555E+00   -2.546E+00   -2.538E+00   -2.529E+00   -2.521E+00   -2.512E+00   -2.504E+00
    -2.495E+00   -2.486E+00   -2.477E+00   -2.468E+00   -2.459E+00   -2.450E+00   -2.441E+00   -2.432E+00   -2.423E+00   -2.413E+00
    -2.404E+00   -2.395E+00   -2.385E+00   -2.376E+00   -2.366E+00   -2.356E+00   -2.347E+00   -2.337E+00   -2.327E+00   -2.317E+00
    -2.307E+00   -2.297E+00   -2.287E+00   -2.277E+00   -2.267E+00   -2.257E+00   -2.247E+00   -2.237E+00   -2.226E+00   -2.216E+00
    -2.206E+00   -2.195E+00   -2.185E+00   -2.174E+00   -2.163E+00   -2.153E+00   -2.142E+00   -2.131E+00   -2.121E+00   -2.110E+00
    -2.099E+00   -2.088E+00   -2.077E+00   -2.066E+00   -2.055E+00   -2.044E+00   -2.033E+00   -2.022E+00   -2.011E+00   -1.999E+00
    -1.988E+00   -1.977E+00   -1.966E+00   -1.954E+00   -1.943E+00   -1.931E+00   -1.920E+00   -1.908E+00   -1.897E+00   -1.885E+00
    -1.874E+00   -1.862E+00   -1.851E+00   -1.839E+00   -1.827E+00   -1.815E+00   -1.804E+00   -1.792E+00   -1.780E+00   -1.768E+00
    -1.756E+00   -1.744E+00   -1.732E+00   -1.720E+00   -1.708E+00   -1.696E+00   -1.684E+00   -1.672E+00   -1.660E+00   -1.648E+00
    -1.636E+00   -1.624E+00   -1.612E+00   -1.600E+00   -1.587E+00   -1.575E+00   -1.563E+00   -1.551E+00   -1.538E+00   -1.526E+00
    -1.514E+00   -1.501E+00   -1.489E+00   -1.477E+00   -1.464E+00   -1.452E+00   -1.440E+00   -1.427E+00   -1.415E+00   -1.402E+00
    -1.390E+00   -1.377E+00   -1.365E+00   -1.353E+00   -1.340E+00   -1.328E+00   -1.315E+00   -1.303E+00   -1.290E+00   -1.278E+00
    -1.265E+00   -1.253E+00   -1.240E+00   -1.227E+00   -1.215E+00   -1.202E+00   -1.190E+00   -1.177E+00   -1.165E+00   -1.152E+00
    -1.140E+00   -1.127E+00   -1.115E+00   -1.102E+00   -1.090E+00   -1.077E+00   -1.064E+00   -1.052E+00   -1.039E+00   -1.027E+00
    -1.014E+00   -1.002E+00   -9.894E-01   -9.769E-01   -9.644E-01   -9.520E-01   -9.395E-01   -9.270E-01   -9.146E-01   -9.021E-01
    -8.897E-01   -8.773E-01   -8.649E-01   -8.525E-01   -8.401E-01   -8.277E-01   -8.154E-01   -8.030E-01   -7.907E-01   -7.784E-01
    -7.661E-01   -7.538E-01   -7.415E-01   -7.293E-01   -7.171E-01   -7.048E-01   -6.927E-01   -6.805E-01   -6.683E-01   -6.562E-01
    -6.441E-01   -6.320E-01   -6.199E-01   -6.079E-01   -5.958E-01   -5.838E-01   -5.719E-01   -5.599E-01   -5.480E-01   -5.361E-01
    -5.242E-01   -5.124E-01   -5.005E-01   -4.887E-01   -4.770E-01   -4.652E-01   -4.535E-01   -4.418E-01   -4.302E-01   -4.186E-01
    -4.070E-01   -3.954E-01   -3.839E-01   -3.724E-01   -3.609E-01   -3.495E-01   -3.381E-01   -3.267E-01   -3.154E-01   -3.041E-01
    -2.929E-01   -2.816E-01   -2.705E-01   -2.593E-01   -2.482E-01   -2.371E-01   -2.261E-01   -2.151E-01   -2.042E-01   -1.933E-01
    -1.824E-01   -1.716E-01   -1.608E-01   -1.500E-01   -1.393E-01   -1.286E-01   -1.180E-01   -1.075E-01   -9.692E-02   -8.643E-02
    -7.599E-02   -6.560E-02   -5.525E-02   -4.494E-02   -3.469E-02   -2.448E-02   -1.431E-02   -4.202E-03    5.862E-03    1.588E-02
     2.584E-02    3.576E-02    4.562E-02    5.544E-02    6.520E-02    7.491E-02    8.457E-02    9.417E-02    1.037E-01    1.132E-01
     1.227E-01    1.321E-01    1.414E-01    1.507E-01    1.599E-01    1.691E-01    1.782E-01    1.872E-01    1.962E-01    2.052E-01
     2.141E-01    2.229E-01    2.316E-01    2.403E-01    2.490E-01    2.576E-01    2.661E-01    2.746E-01    2.830E-01    2.913E-01
     2.996E-01    3.078E-01    3.160E-01    3.240E-01    3.321E-01    3.400E-01    3.479E-01    3.558E-01    3.635E-01    3.712E-01
     3.789E-01    3.864E-01    3.939E-01    4.014E-01    4.087E-01    4.160E-01    4.232E-01    4.304E-01    4.375E-01    4.445E-01
     4.515E-01    4.584E-01    4.652E-01    4.719E-01    4.786E-01    4.852E-01    4.917E-01    4.982E-01    5.045E-01    5.108E-01
     5.171E-01    5.232E-01    5.293E-01    5.353E-01    5.413E-01    5.471E-01    5.529E-01    5.586E-01    5.643E-01    5.698E-01
     5.753E-01    5.807E-01    5.861E-01    5.913E-01    5.965E-01    6.016E-01    6.066E-01    6.116E-01    6.164E-01    6.212E-01
     6.259E-01    6.305E-01    6.351E-01    6.395E-01    6.439E-01    6.482E-01    6.524E-01    6.566E-01    6.606E-01    6.646E-01
     6.685E-01    6.723E-01    6.760E-01    6.796E-01    6.832E-01    6.867E-01    6.901E-01    6.934E-01    6.966E-01    6.997E-01
     7.028E-01    7.058E-01    7.086E-01    7.114E-01    7.141E-01    7.168E-01    7.193E-01    7.217E-01    7.241E-01    7.264E-01
     7.286E-01    7.307E-01    7.327E-01    7.346E-01    7.364E-01    7.382E-01    7.398E-01    7.414E-01    7.429E-01    7.443E-01
     7.456E-01    7.468E-01    7.479E-01    7.490E-01    7.499E-01    7.508E-01    7.515E-01    7.522E-01    7.528E-01    7.532E-01
     7.536E-01    7.539E-01    7.542E-01    7.543E-01    7.543E-01    7.542E-01    7.541E-01    7.538E-01    7.535E-01    7.531E-01
     7.525E-01    7.519E-01    7.512E-01    7.504E-01    7.495E-01    7.485E-01    7.474E-01    7.462E-01    7.449E-01    7.436E-01
     7.421E-01    7.405E-01    7.389E-01    7.371E-01    7.353E-01    7.334E-01    7.313E-01    7.292E-01    7.270E-01    7.246E-01
     7.222E-01    7.197E-01    7.171E-01    7.144E-01    7.116E-01    7.087E-01    7.057E-01    7.026E-01    6.994E-01    6.962E-01
     6.928E-01    6.893E-01    6.857E-01    6.821E-01    6.783E-01    6.744E-01    6.705E-01    6.664E-01    6.623E-01    6.580E-01
     6.537E-01    6.493E-01    6.447E-01    6.401E-01    6.353E-01    6.305E-01    6.256E-01    6.206E-01    6.154E-01    6.102E-01
     6.049E-01    5.995E-01    5.940E-01    5.884E-01    5.827E-01    5.769E-01    5.710E-01    5.650E-01
 Ala      Conc. = 9.71E+02
