 LCModel (Version 6.3-1L) Copyright: S.W. Provencher.          Ref.: Magn. Reson. Med. 30:672-679 (1993).                
 Slice#1 Row#6 Col#1  PD_05_press_2_raw_act
 36 lines in following concentration table = NCONC+1
    Conc.  %SD /Cr+PCr  Metabolite                                         
    0.000 999%   0.000 Ala                                                 
    0.000 999%   0.000 Asp                                                 
 1.01E+03  10%   1.000 Cr                                                  
    0.000 999%   0.000 PCr                                                 
  171.918  92%   0.171 GABA                                                
    0.000 999%   0.000 Glc                                                 
    0.000 999%   0.000 Gln                                                 
  302.048 208%   0.300 Glu                                                 
  235.878  15%   0.234 GPC                                                 
    0.000 999%   0.000 PCh                                                 
  300.068  45%   0.298 GSH                                                 
 1.35E+03  32%   1.339 Ins                                                 
  249.928 127%   0.248 Lac                                                 
    0.000 999%   0.000 NAA                                                 
 2.02E+03   7%   2.011 NAAG                                                
    0.000 999%   0.000 Scyllo                                              
    0.000 999%   0.000 Tau                                                 
  796.689  20%   0.791 -CrCH2                                              
  235.878  15%   0.234 GPC+PCh                                             
 2.02E+03   7%   2.011 NAA+NAAG                                            
 1.01E+03  10%   1.000 Cr+PCr                                              
  302.048 208%   0.300 Glu+Gln                                             
 3.59E+03  23%   3.568 Lip13a                                              
    0.000 999%   0.000 Lip13b                                              
    0.000 999%   0.000 Lip09                                               
 1.50E+03  20%   1.492 MM09                                                
 1.52E+03  29%   1.508 Lip20                                               
 2.70E+03  20%   2.682 MM20                                                
  458.877  34%   0.456 MM12                                                
 3.27E+03  10%   3.251+MM14                                                
  757.470  34%   0.752 MM17                                                
 3.59E+03  23%   3.568 Lip13a+Lip13b                                       
 7.32E+03  10%   7.274 MM14+Lip13a+Lip13b+MM12                             
 1.50E+03  20%   1.492 MM09+Lip09                                          
 4.22E+03  14%   4.190 MM20+Lip20                                          
   6 lines in following misc. output table
  FWHM = 0.084 ppm    S/N =   5                                            
  Data shift = 0.023 ppm                                                   
  Ph: 113 deg      60.3 deg/ppm                                            
  alphaB,S = 8.5E+01,   1.3E+02                                            
   14 spline knots.   Ns = 9(1)                                            
  (13) 2 infls.   (13) 1 extrs.                                            
  498 points on ppm-axis = NY
      4.000000     3.992357     3.984714     3.977070     3.969427     3.961784     3.954141     3.946497     3.938854     3.931211
      3.923568     3.915925     3.908281     3.900638     3.892995     3.885352     3.877708     3.870065     3.862422     3.854779
      3.847136     3.839492     3.831849     3.824206     3.816563     3.808919     3.801276     3.793633     3.785990     3.778347
      3.770703     3.763060     3.755417     3.747774     3.740130     3.732487     3.724844     3.717201     3.709558     3.701914
      3.694271     3.686628     3.678985     3.671341     3.663698     3.656055     3.648412     3.640769     3.633125     3.625482
      3.617839     3.610196     3.602552     3.594909     3.587266     3.579623     3.571980     3.564336     3.556693     3.549050
      3.541407     3.533763     3.526120     3.518477     3.510834     3.503191     3.495547     3.487904     3.480261     3.472618
      3.464974     3.457331     3.449688     3.442045     3.434402     3.426758     3.419115     3.411472     3.403829     3.396185
      3.388542     3.380899     3.373256     3.365613     3.357969     3.350326     3.342683     3.335040     3.327396     3.319753
      3.312110     3.304467     3.296824     3.289180     3.281537     3.273894     3.266251     3.258607     3.250964     3.243321
      3.235678     3.228034     3.220391     3.212748     3.205105     3.197462     3.189818     3.182175     3.174532     3.166889
      3.159245     3.151602     3.143959     3.136316     3.128673     3.121029     3.113386     3.105743     3.098100     3.090456
      3.082813     3.075170     3.067527     3.059884     3.052240     3.044597     3.036954     3.029311     3.021667     3.014024
      3.006381     2.998738     2.991095     2.983451     2.975808     2.968165     2.960522     2.952878     2.945235     2.937592
      2.929949     2.922306     2.914662     2.907019     2.899376     2.891733     2.884089     2.876446     2.868803     2.861160
      2.853517     2.845873     2.838230     2.830587     2.822944     2.815300     2.807657     2.800014     2.792371     2.784728
      2.777084     2.769441     2.761798     2.754155     2.746511     2.738868     2.731225     2.723582     2.715939     2.708295
      2.700652     2.693009     2.685366     2.677722     2.670079     2.662436     2.654793     2.647150     2.639506     2.631863
      2.624220     2.616577     2.608933     2.601290     2.593647     2.586004     2.578361     2.570717     2.563074     2.555431
      2.547788     2.540144     2.532501     2.524858     2.517215     2.509572     2.501928     2.494285     2.486642     2.478999
      2.471355     2.463712     2.456069     2.448426     2.440783     2.433139     2.425496     2.417853     2.410210     2.402566
      2.394923     2.387280     2.379637     2.371994     2.364350     2.356707     2.349064     2.341421     2.333777     2.326134
      2.318491     2.310848     2.303205     2.295561     2.287918     2.280275     2.272632     2.264988     2.257345     2.249702
      2.242059     2.234416     2.226772     2.219129     2.211486     2.203843     2.196199     2.188556     2.180913     2.173270
      2.165627     2.157983     2.150340     2.142697     2.135054     2.127410     2.119767     2.112124     2.104481     2.096838
      2.089194     2.081551     2.073908     2.066265     2.058621     2.050978     2.043335     2.035692     2.028049     2.020405
      2.012762     2.005119     1.997476     1.989833     1.982190     1.974546     1.966903     1.959260     1.951617     1.943974
      1.936331     1.928688     1.921045     1.913402     1.905759     1.898115     1.890472     1.882829     1.875186     1.867543
      1.859900     1.852257     1.844614     1.836971     1.829327     1.821684     1.814041     1.806398     1.798755     1.791112
      1.783469     1.775826     1.768183     1.760540     1.752896     1.745253     1.737610     1.729967     1.722324     1.714681
      1.707038     1.699395     1.691752     1.684108     1.676465     1.668822     1.661179     1.653536     1.645893     1.638250
      1.630607     1.622964     1.615321     1.607677     1.600034     1.592391     1.584748     1.577105     1.569462     1.561819
      1.554176     1.546533     1.538890     1.531246     1.523603     1.515960     1.508317     1.500674     1.493031     1.485388
      1.477745     1.470102     1.462458     1.454815     1.447172     1.439529     1.431886     1.424243     1.416600     1.408957
      1.401314     1.393671     1.386027     1.378384     1.370741     1.363098     1.355455     1.347812     1.340169     1.332526
      1.324883     1.317240     1.309596     1.301953     1.294310     1.286667     1.279024     1.271381     1.263738     1.256095
      1.248452     1.240808     1.233165     1.225522     1.217879     1.210236     1.202593     1.194950     1.187307     1.179664
      1.172021     1.164377     1.156734     1.149091     1.141448     1.133805     1.126162     1.118519     1.110876     1.103233
      1.095590     1.087946     1.080303     1.072660     1.065017     1.057374     1.049731     1.042088     1.034445     1.026802
      1.019158     1.011515     1.003872     0.996229     0.988586     0.980943     0.973300     0.965657     0.958014     0.950371
      0.942727     0.935084     0.927441     0.919798     0.912155     0.904512     0.896869     0.889226     0.881583     0.873940
      0.866296     0.858653     0.851010     0.843367     0.835724     0.828081     0.820438     0.812795     0.805152     0.797508
      0.789865     0.782222     0.774579     0.766936     0.759293     0.751650     0.744007     0.736364     0.728721     0.721077
      0.713434     0.705791     0.698148     0.690505     0.682862     0.675219     0.667576     0.659933     0.652290     0.644646
      0.637003     0.629360     0.621717     0.614074     0.606431     0.598788     0.591145     0.583502     0.575858     0.568215
      0.560572     0.552929     0.545286     0.537643     0.530000     0.522357     0.514714     0.507071     0.499427     0.491784
      0.484141     0.476498     0.468855     0.461212     0.453569     0.445925     0.438282     0.430639     0.422996     0.415353
      0.407710     0.400067     0.392424     0.384780     0.377137     0.369494     0.361851     0.354208     0.346565     0.338922
      0.331278     0.323635     0.315992     0.308349     0.300706     0.293063     0.285420     0.277777     0.270133     0.262490
      0.254847     0.247204     0.239561     0.231918     0.224275     0.216631     0.208988     0.201345
 NY phased data points follow
  -3.76931E+00 -1.79785E+00  4.10002E-01 -4.67254E+00 -1.11840E+01 -4.13711E+00 -1.48591E+00  2.42043E+00  1.25271E+01  1.67859E+01
   1.86644E+01  1.55434E+01  2.11868E+01  1.67051E+01  1.33505E+01  1.59716E+01  1.30324E+01  1.34381E+01  1.13805E+01  7.89069E+00
   1.37662E+01  5.71892E+00  9.09778E-01  1.60733E+01  9.11825E+00  6.14426E+00  1.08609E+01  1.22191E+00  9.26931E+00  5.60725E+00
  -4.83456E-03  8.35817E+00  7.57005E+00  5.80759E+00  1.44771E+01  9.09951E+00  7.10796E+00  4.32932E+00  1.21426E+00  1.58812E+00
   9.24384E-01  6.67424E+00  1.23783E+01  8.06596E+00  1.04341E+01  1.92331E+00  4.69065E+00  1.05697E+01  1.57076E+00  7.89039E+00
   1.06969E+01  3.96815E+00  2.38577E+00 -1.26223E+00  8.58972E+00  1.19633E+00  2.58947E+00 -3.38150E+00  2.37141E+00  3.13227E+00
   5.82851E+00  7.06449E+00  1.66142E-01  6.35939E+00  2.72798E+00  1.89213E+00  4.51121E+00 -4.30450E+00 -4.04001E+00 -2.93802E+00
  -4.76613E+00 -6.45914E+00 -6.61540E-01 -4.96002E+00 -2.18364E+00 -1.04675E+00 -7.03917E+00 -5.16398E+00  8.80765E-01 -5.03759E+00
  -1.11406E+01 -9.11915E+00 -5.13324E+00 -6.96744E+00 -8.94099E+00 -6.24899E+00 -2.90649E+00 -2.25982E+00 -7.90008E+00 -1.68053E+00
  -6.50435E+00 -7.91315E+00  6.00645E-01 -1.00473E+01 -1.32549E+01 -5.37005E+00 -9.74162E+00 -2.36831E+00  1.39490E-01  1.46159E+01
   7.98916E+00  6.90424E+00  8.43280E+00  1.44078E+01  1.62702E+01  1.14278E+01  1.66498E+01  6.36898E+00  1.22027E+00  6.81320E+00
   9.07329E+00  5.28181E+00 -2.03781E+00  1.32814E-01 -5.80674E+00 -3.94414E+00 -6.30325E+00 -1.90046E+01 -1.88828E+00 -1.39677E+01
  -5.52738E+00 -2.60675E+00 -1.90992E+00  5.96443E+00  1.08196E+01  9.20922E+00  1.21217E+01  2.05725E+01  1.97009E+01  2.10658E+01
   1.58806E+01  1.87498E+01  9.26660E+00  1.90113E+01  1.35526E+01  1.62120E+00  8.28666E-02 -4.96270E+00 -6.58444E+00 -9.72697E-01
  -3.94719E+00 -4.89470E+00 -3.04495E-02 -8.20765E+00 -3.01262E+00 -4.61670E+00 -1.16517E+01 -1.76025E+00 -1.00708E+01 -4.73341E+00
  -8.50383E+00 -3.69779E+00 -1.03600E+01 -1.11365E+01 -5.87506E+00 -1.46870E+01 -5.45765E+00 -6.18092E+00 -7.03293E+00 -1.42500E+01
  -1.30303E+01 -1.01420E+01 -6.99881E+00 -1.97641E+00 -9.45652E+00 -9.02792E+00 -9.10148E+00 -1.03196E+01 -9.97074E+00 -3.11211E+00
  -1.07752E+01 -2.31140E+01 -2.44556E+01 -9.59943E+00 -1.37972E+01 -1.90665E+01 -2.18992E+01 -2.29421E+01 -1.64326E+01 -2.76104E+01
  -2.04619E+01 -2.22276E+01 -2.16075E+01 -1.56479E+01 -2.59677E+01 -1.33254E+01 -6.87560E+00 -1.26900E+01 -1.11275E+01 -1.20180E+01
  -3.75978E+00 -1.31183E+01 -6.66127E+00 -1.51668E+01 -1.45476E+01 -1.48678E+01 -1.73688E+01 -7.31473E+00 -2.12140E+01 -1.37347E+01
  -1.52343E+01 -1.86250E+01 -2.01653E+01 -1.49897E+01 -1.99200E+01 -1.10005E+01 -2.21301E+01 -1.60959E+01 -2.18080E+01 -1.00948E+01
  -1.67815E+01 -1.42653E+01 -2.64105E+01 -1.91591E+01 -1.13285E+01 -6.98174E+00 -1.66890E+01 -1.03121E+01 -1.48884E+01 -2.07761E+01
  -1.62168E+01 -7.91944E+00 -4.90256E+00 -8.06483E+00 -1.03792E+01 -2.08475E+01 -2.38668E+01 -1.92177E+01 -2.31222E+01 -1.17523E+01
  -1.80791E+01 -2.14090E+01 -1.01197E+01 -1.30959E+01 -1.48374E+01 -1.56332E+01 -1.71407E+01 -9.83915E+00 -1.09608E+01 -1.07692E+01
  -9.89336E+00 -1.38403E+01 -6.53079E+00 -8.10050E+00 -1.09768E+01 -2.34404E+00 -1.83999E+00 -5.38619E+00  2.27927E+00 -3.43727E+00
  -1.13171E+00  4.05431E+00  7.99128E+00  7.09882E+00  1.83681E+01  3.51994E+01  3.54106E+01  3.54999E+01  4.72119E+01  3.53157E+01
   3.80343E+01  4.32307E+01  3.84395E+01  3.94938E+01  2.15850E+01  1.85137E+01  5.47934E+00 -5.27105E-01 -1.07718E+01 -1.70742E+01
  -9.84984E+00 -1.78811E+01 -8.38418E+00 -1.27515E+01 -1.01828E+01 -1.37923E+01 -1.89760E+01 -2.04149E+01 -1.76565E+01 -2.33693E+01
  -2.03545E+01 -1.61922E+01 -1.76843E+01 -2.22695E+01 -2.01141E+01 -2.31170E+01 -2.11086E+01 -2.78408E+01 -2.12356E+01 -1.15244E+01
  -1.08951E+01 -1.25601E+01 -1.36186E+01 -1.35462E+01 -1.41523E+01 -1.29584E+01 -2.11304E+01 -1.10138E+01 -1.17615E+01 -1.75587E+01
  -1.73076E+01 -1.35492E+01 -1.86922E+01 -1.55137E+01 -1.57418E+01 -1.01740E+01 -1.02381E+01 -1.91545E+01 -2.17581E+01 -2.54355E+01
  -2.35928E+01 -2.51828E+01 -2.35663E+01 -2.14468E+01 -2.32665E+01 -2.53024E+01 -3.00104E+01 -2.68982E+01 -3.53338E+01 -2.52839E+01
  -3.31435E+01 -3.72586E+01 -3.72760E+01 -4.16835E+01 -3.56481E+01 -3.44474E+01 -3.83363E+01 -2.89805E+01 -3.23701E+01 -1.83336E+01
  -1.62347E+01 -1.74337E+01 -3.47974E+00 -4.59197E+00 -3.53359E+00  1.43254E+00 -1.21882E+00  3.84079E-01 -5.74084E-02  2.66200E+00
   9.84913E+00 -3.11633E+00  3.22900E+00  3.50995E+00 -7.68206E-02  9.59506E+00  9.24221E+00  1.12069E+01  1.79605E+00  1.78493E+01
   1.14705E+01  7.58305E+00  4.92970E+00  3.20876E+00  9.13026E-01  3.84542E-01  5.31203E+00 -3.31314E-01  6.00940E-01 -1.25480E+00
  -5.97835E+00  1.54554E+00 -7.27978E+00 -2.19197E+00 -3.31917E+00 -8.70808E+00 -2.53076E+00 -3.19926E+00 -8.64386E-01 -7.82762E+00
  -6.23353E+00 -9.48643E-01 -6.41134E+00 -1.05365E+01 -7.57212E+00 -4.66909E+00 -8.00024E+00 -4.85477E+00 -2.26037E+00 -5.37438E+00
  -5.33243E+00 -2.04661E+00 -1.14496E+01 -2.26831E+00 -1.21199E+01 -1.04334E+01 -9.54997E+00 -1.62106E+01 -2.03716E+01 -7.50333E+00
  -3.13131E+00 -1.00646E+01 -1.42077E+01 -9.82057E+00 -1.24034E+01 -1.41284E+01 -1.50584E+01 -1.05753E+01 -7.08151E+00 -1.54100E+01
  -9.74079E+00 -1.22097E+01 -8.94637E+00 -4.77735E+00 -1.45137E+01 -1.44310E+01 -6.92706E+00 -1.45380E+01 -1.48894E+01 -1.45867E+01
  -7.92594E+00 -1.10124E+01 -7.68896E+00 -1.74102E+01 -1.63573E+01 -5.87860E+00 -1.02408E+01 -1.30474E+01 -5.39611E+00 -1.22843E+01
  -1.21115E+01 -8.60461E+00 -1.50832E+01 -7.32672E+00 -1.41854E+01 -2.42593E-01 -1.72248E+01 -1.05470E+01 -9.85178E+00 -2.22858E+01
  -1.46433E+01 -1.60300E+01 -1.11885E+01 -1.36927E+01 -6.97569E+00 -9.54358E+00 -1.11407E+01 -7.37430E+00 -1.41400E+01 -6.67772E+00
  -1.54184E+01 -1.64933E+01 -9.65948E+00 -9.93743E+00 -5.79275E+00 -8.75408E+00 -2.15578E+01 -4.93663E+00 -9.93134E+00 -1.16817E+01
  -4.86264E+00 -1.04872E+01 -1.10216E+01 -5.85889E+00 -1.01949E+01 -1.48634E+01 -7.24181E+00 -1.52566E+01 -7.95724E+00 -8.02633E+00
  -1.05472E+01 -6.95383E+00 -1.25717E+01 -4.66751E+00 -7.28242E+00 -9.97157E+00  3.92537E+00 -1.04596E+01 -9.62603E+00 -1.52833E+01
  -1.17125E+01 -1.39657E+01 -8.87319E+00 -1.17794E+01 -1.22241E+01 -1.42604E+01 -1.66974E+01 -1.05395E+01 -7.23249E+00 -1.70098E+01
  -7.90475E+00 -1.00270E+01 -7.75329E+00 -1.83946E+00 -5.91759E+00 -3.20705E+00 -2.41422E+00 -1.35147E+01 -4.83393E+00 -8.14943E+00
  -9.69164E+00 -7.50384E+00 -1.09225E+01 -8.76242E+00 -1.16512E+01 -7.75423E+00 -1.39298E+01 -7.93405E+00
 NY points of the fit to the data follow
   6.38403E+00  4.84459E+00  3.26719E+00  1.93211E+00  1.19412E+00  1.33420E+00  2.49700E+00  4.53196E+00  7.10650E+00  9.83861E+00
   1.22909E+01  1.40010E+01  1.48086E+01  1.50523E+01  1.52532E+01  1.56826E+01  1.60714E+01  1.56954E+01  1.38285E+01  1.05342E+01
   7.09069E+00  4.57518E+00  3.63133E+00  4.17148E+00  5.11881E+00  6.05043E+00  6.92527E+00  7.71033E+00  8.33167E+00  8.70057E+00
   8.80737E+00  8.71280E+00  8.48374E+00  8.16561E+00  7.74566E+00  7.14855E+00  6.31623E+00  5.28926E+00  4.27212E+00  3.61428E+00
   3.66286E+00  4.39503E+00  5.35203E+00  6.27596E+00  7.04189E+00  7.56013E+00  7.73809E+00  7.56003E+00  7.11492E+00  6.46746E+00
   5.70848E+00  4.97320E+00  4.23245E+00  3.39833E+00  2.45916E+00  1.53413E+00  8.68909E-01  7.43850E-01  1.14461E+00  1.65538E+00
   1.93403E+00  1.96319E+00  1.85050E+00  1.67989E+00  1.51061E+00  1.35169E+00  1.18080E+00  9.71010E-01  7.31946E-01  5.72176E-01
   5.84063E-01  7.20193E-01  8.95956E-01  1.00401E+00  9.81419E-01  8.29715E-01  5.75046E-01  2.57493E-01 -1.00083E-01 -5.05807E-01
  -9.58338E-01 -1.45068E+00 -1.93027E+00 -2.39389E+00 -2.86097E+00 -3.29773E+00 -3.64296E+00 -3.83809E+00 -3.85157E+00 -3.69626E+00
  -3.42423E+00 -3.09469E+00 -2.73652E+00 -2.34171E+00 -1.90904E+00 -1.34491E+00 -4.09077E-01  1.01432E+00  2.87365E+00  4.97302E+00
   7.09305E+00  9.03606E+00  1.05332E+01  1.13001E+01  1.12838E+01  1.06768E+01  9.74959E+00  8.73844E+00  7.60993E+00  6.06088E+00
   3.79266E+00  8.89986E-01 -2.12009E+00 -4.46296E+00 -5.43064E+00 -5.24255E+00 -4.84456E+00 -4.45927E+00 -4.10710E+00 -3.72544E+00
  -2.91130E+00 -1.27115E+00  1.31292E+00  4.62595E+00  8.27193E+00  1.19003E+01  1.51387E+01  1.74715E+01  1.85421E+01  1.83966E+01
   1.73220E+01  1.57053E+01  1.37858E+01  1.13479E+01  7.93502E+00  3.46450E+00 -1.48422E+00 -5.86473E+00 -8.53086E+00 -9.14416E+00
  -9.05866E+00 -8.93239E+00 -8.79042E+00 -8.58516E+00 -8.29346E+00 -7.98643E+00 -7.78955E+00 -7.77627E+00 -7.98794E+00 -8.39052E+00
  -8.86953E+00 -9.31919E+00 -9.66961E+00 -9.90609E+00 -1.00622E+01 -1.01708E+01 -1.02707E+01 -1.04038E+01 -1.06146E+01 -1.09118E+01
  -1.12482E+01 -1.15634E+01 -1.18474E+01 -1.21536E+01 -1.25634E+01 -1.31423E+01 -1.38299E+01 -1.44605E+01 -1.49505E+01 -1.52550E+01
  -1.53895E+01 -1.54807E+01 -1.56036E+01 -1.57696E+01 -1.59687E+01 -1.61695E+01 -1.63209E+01 -1.64041E+01 -1.64579E+01 -1.65565E+01
  -1.67535E+01 -1.69981E+01 -1.70827E+01 -1.68618E+01 -1.63906E+01 -1.57745E+01 -1.51511E+01 -1.45833E+01 -1.40083E+01 -1.34305E+01
  -1.29444E+01 -1.26888E+01 -1.27521E+01 -1.31179E+01 -1.36512E+01 -1.41257E+01 -1.44775E+01 -1.47365E+01 -1.49641E+01 -1.52202E+01
  -1.54952E+01 -1.57261E+01 -1.58491E+01 -1.58228E+01 -1.57128E+01 -1.56508E+01 -1.57153E+01 -1.59697E+01 -1.63995E+01 -1.68716E+01
  -1.71882E+01 -1.72597E+01 -1.71741E+01 -1.70194E+01 -1.68341E+01 -1.66297E+01 -1.64036E+01 -1.61481E+01 -1.58785E+01 -1.56273E+01
  -1.54302E+01 -1.52485E+01 -1.50353E+01 -1.48160E+01 -1.46386E+01 -1.45266E+01 -1.44748E+01 -1.44262E+01 -1.43411E+01 -1.41718E+01
  -1.38676E+01 -1.34413E+01 -1.29710E+01 -1.25399E+01 -1.21909E+01 -1.19572E+01 -1.18730E+01 -1.19167E+01 -1.19720E+01 -1.19424E+01
  -1.17818E+01 -1.15319E+01 -1.13276E+01 -1.11999E+01 -1.11119E+01 -1.10255E+01 -1.08936E+01 -1.08360E+01 -1.05222E+01 -9.08997E+00
  -5.80481E+00 -5.17740E-01  6.28098E+00  1.38945E+01  2.17541E+01  2.90864E+01  3.48831E+01  3.85967E+01  4.03259E+01  4.06227E+01
   4.01662E+01  3.90644E+01  3.64217E+01  3.11086E+01  2.29568E+01  1.31425E+01  4.02314E+00 -1.73561E+00 -4.55374E+00 -6.37577E+00
  -7.79311E+00 -8.98122E+00 -1.00254E+01 -1.09770E+01 -1.18757E+01 -1.27422E+01 -1.35687E+01 -1.43187E+01 -1.49695E+01 -1.55444E+01
  -1.60795E+01 -1.65976E+01 -1.70882E+01 -1.75166E+01 -1.78527E+01 -1.80605E+01 -1.81173E+01 -1.80380E+01 -1.78847E+01 -1.76847E+01
  -1.74383E+01 -1.71594E+01 -1.68858E+01 -1.66437E+01 -1.64352E+01 -1.62551E+01 -1.61242E+01 -1.60378E+01 -1.60036E+01 -1.60424E+01
  -1.61781E+01 -1.64310E+01 -1.68079E+01 -1.72709E+01 -1.77900E+01 -1.83504E+01 -1.89318E+01 -1.95146E+01 -2.00890E+01 -2.06572E+01
  -2.12322E+01 -2.18088E+01 -2.23667E+01 -2.28931E+01 -2.33762E+01 -2.38053E+01 -2.41713E+01 -2.44644E+01 -2.46747E+01 -2.47913E+01
  -2.48030E+01 -2.46974E+01 -2.44618E+01 -2.40832E+01 -2.35497E+01 -2.28520E+01 -2.19840E+01 -2.09424E+01 -1.97288E+01 -1.83493E+01
  -1.68160E+01 -1.51462E+01 -1.33636E+01 -1.14962E+01 -9.57640E+00 -7.63917E+00 -5.72126E+00 -3.85934E+00 -2.09115E+00 -4.35725E-01
   1.12952E+00  2.61796E+00  4.00842E+00  5.24815E+00  6.27831E+00  7.05544E+00  7.51891E+00  7.59477E+00  7.28729E+00  6.69287E+00
   5.94708E+00  5.17118E+00  4.42940E+00  3.72371E+00  3.02555E+00  2.32034E+00  1.64420E+00  1.08368E+00  7.36840E-01  6.03465E-01
   5.41720E-01  5.03585E-01  4.24034E-01  1.96600E-01 -2.67749E-01 -9.83517E-01 -1.81360E+00 -2.58755E+00 -3.31041E+00 -4.00480E+00
  -4.68033E+00 -5.34009E+00 -5.98454E+00 -6.61222E+00 -7.22122E+00 -7.80902E+00 -8.37326E+00 -8.91116E+00 -9.42025E+00 -9.89788E+00
  -1.03419E+01 -1.07501E+01 -1.11206E+01 -1.14513E+01 -1.17403E+01 -1.19858E+01 -1.21862E+01 -1.23400E+01 -1.24459E+01 -1.25029E+01
  -1.25102E+01 -1.24677E+01 -1.23758E+01 -1.22357E+01 -1.20495E+01 -1.18199E+01 -1.15507E+01 -1.12467E+01 -1.09137E+01 -1.05583E+01
  -1.01879E+01 -9.81013E+00 -9.43314E+00 -9.06507E+00 -8.71406E+00 -8.38742E+00 -8.09191E+00 -7.83305E+00 -7.61553E+00 -7.44252E+00
  -7.31609E+00 -7.23664E+00 -7.20346E+00 -7.21449E+00 -7.26694E+00 -7.35697E+00 -7.48035E+00 -7.63211E+00 -7.80734E+00 -8.00095E+00
  -8.20829E+00 -8.42478E+00 -8.64637E+00 -8.86925E+00 -9.09033E+00 -9.30689E+00 -9.51696E+00 -9.71877E+00 -9.91115E+00 -1.00930E+01
  -1.02640E+01 -1.04238E+01 -1.05724E+01 -1.07098E+01 -1.08364E+01 -1.09523E+01 -1.10582E+01 -1.11542E+01 -1.12411E+01 -1.13193E+01
  -1.13891E+01 -1.14509E+01 -1.15054E+01 -1.15528E+01 -1.15937E+01 -1.16283E+01 -1.16569E+01 -1.16799E+01 -1.16975E+01 -1.17102E+01
  -1.17181E+01 -1.17213E+01 -1.17202E+01 -1.17148E+01 -1.17056E+01 -1.16926E+01 -1.16759E+01 -1.16557E+01 -1.16321E+01 -1.16053E+01
  -1.15754E+01 -1.15425E+01 -1.15067E+01 -1.14680E+01 -1.14266E+01 -1.13826E+01 -1.13362E+01 -1.12872E+01 -1.12358E+01 -1.11821E+01
  -1.11261E+01 -1.10679E+01 -1.10077E+01 -1.09453E+01 -1.08808E+01 -1.08144E+01 -1.07461E+01 -1.06759E+01 -1.06039E+01 -1.05301E+01
  -1.04545E+01 -1.03772E+01 -1.02984E+01 -1.02179E+01 -1.01359E+01 -1.00523E+01 -9.96721E+00 -9.88071E+00 -9.79290E+00 -9.70373E+00
  -9.61328E+00 -9.52154E+00 -9.42866E+00 -9.33466E+00 -9.23968E+00 -9.14368E+00 -9.04677E+00 -8.94898E+00
 NY background values follow
     4.525E-01    3.940E-01    3.349E-01    2.752E-01    2.150E-01    1.542E-01    9.285E-02    3.094E-02   -3.153E-02   -9.455E-02
    -1.581E-01   -2.222E-01   -2.869E-01   -3.521E-01   -4.178E-01   -4.841E-01   -5.509E-01   -6.182E-01   -6.861E-01   -7.545E-01
    -8.233E-01   -8.927E-01   -9.626E-01   -1.033E+00   -1.104E+00   -1.175E+00   -1.247E+00   -1.320E+00   -1.393E+00   -1.466E+00
    -1.540E+00   -1.614E+00   -1.689E+00   -1.764E+00   -1.840E+00   -1.916E+00   -1.993E+00   -2.070E+00   -2.147E+00   -2.225E+00
    -2.304E+00   -2.383E+00   -2.462E+00   -2.542E+00   -2.622E+00   -2.702E+00   -2.783E+00   -2.865E+00   -2.947E+00   -3.029E+00
    -3.111E+00   -3.194E+00   -3.278E+00   -3.362E+00   -3.446E+00   -3.531E+00   -3.615E+00   -3.701E+00   -3.787E+00   -3.873E+00
    -3.959E+00   -4.046E+00   -4.133E+00   -4.220E+00   -4.308E+00   -4.396E+00   -4.485E+00   -4.574E+00   -4.663E+00   -4.752E+00
    -4.842E+00   -4.932E+00   -5.023E+00   -5.114E+00   -5.205E+00   -5.296E+00   -5.388E+00   -5.479E+00   -5.572E+00   -5.664E+00
    -5.757E+00   -5.850E+00   -5.943E+00   -6.037E+00   -6.131E+00   -6.225E+00   -6.319E+00   -6.414E+00   -6.508E+00   -6.603E+00
    -6.699E+00   -6.794E+00   -6.890E+00   -6.986E+00   -7.082E+00   -7.178E+00   -7.275E+00   -7.372E+00   -7.469E+00   -7.566E+00
    -7.663E+00   -7.760E+00   -7.858E+00   -7.956E+00   -8.054E+00   -8.152E+00   -8.250E+00   -8.349E+00   -8.448E+00   -8.546E+00
    -8.645E+00   -8.744E+00   -8.843E+00   -8.943E+00   -9.042E+00   -9.142E+00   -9.241E+00   -9.341E+00   -9.441E+00   -9.541E+00
    -9.641E+00   -9.741E+00   -9.841E+00   -9.941E+00   -1.004E+01   -1.014E+01   -1.024E+01   -1.034E+01   -1.044E+01   -1.054E+01
    -1.065E+01   -1.075E+01   -1.085E+01   -1.095E+01   -1.105E+01   -1.115E+01   -1.125E+01   -1.135E+01   -1.145E+01   -1.155E+01
    -1.165E+01   -1.175E+01   -1.185E+01   -1.196E+01   -1.206E+01   -1.216E+01   -1.226E+01   -1.236E+01   -1.246E+01   -1.256E+01
    -1.266E+01   -1.276E+01   -1.286E+01   -1.296E+01   -1.306E+01   -1.316E+01   -1.326E+01   -1.336E+01   -1.346E+01   -1.356E+01
    -1.366E+01   -1.376E+01   -1.386E+01   -1.396E+01   -1.406E+01   -1.416E+01   -1.426E+01   -1.436E+01   -1.445E+01   -1.455E+01
    -1.465E+01   -1.475E+01   -1.485E+01   -1.494E+01   -1.504E+01   -1.514E+01   -1.524E+01   -1.533E+01   -1.543E+01   -1.553E+01
    -1.563E+01   -1.572E+01   -1.582E+01   -1.591E+01   -1.601E+01   -1.610E+01   -1.620E+01   -1.629E+01   -1.639E+01   -1.648E+01
    -1.658E+01   -1.667E+01   -1.677E+01   -1.686E+01   -1.695E+01   -1.705E+01   -1.714E+01   -1.723E+01   -1.732E+01   -1.742E+01
    -1.751E+01   -1.760E+01   -1.769E+01   -1.778E+01   -1.787E+01   -1.796E+01   -1.805E+01   -1.814E+01   -1.823E+01   -1.832E+01
    -1.840E+01   -1.849E+01   -1.858E+01   -1.867E+01   -1.875E+01   -1.884E+01   -1.893E+01   -1.901E+01   -1.910E+01   -1.918E+01
    -1.927E+01   -1.935E+01   -1.943E+01   -1.952E+01   -1.960E+01   -1.968E+01   -1.976E+01   -1.985E+01   -1.993E+01   -2.001E+01
    -2.009E+01   -2.017E+01   -2.025E+01   -2.033E+01   -2.041E+01   -2.048E+01   -2.056E+01   -2.064E+01   -2.071E+01   -2.079E+01
    -2.087E+01   -2.094E+01   -2.102E+01   -2.109E+01   -2.116E+01   -2.124E+01   -2.131E+01   -2.138E+01   -2.145E+01   -2.153E+01
    -2.160E+01   -2.167E+01   -2.174E+01   -2.180E+01   -2.187E+01   -2.194E+01   -2.201E+01   -2.207E+01   -2.214E+01   -2.221E+01
    -2.227E+01   -2.234E+01   -2.240E+01   -2.246E+01   -2.252E+01   -2.259E+01   -2.265E+01   -2.271E+01   -2.277E+01   -2.283E+01
    -2.289E+01   -2.295E+01   -2.300E+01   -2.306E+01   -2.312E+01   -2.317E+01   -2.323E+01   -2.328E+01   -2.334E+01   -2.339E+01
    -2.344E+01   -2.350E+01   -2.355E+01   -2.360E+01   -2.365E+01   -2.370E+01   -2.375E+01   -2.379E+01   -2.384E+01   -2.389E+01
    -2.393E+01   -2.398E+01   -2.402E+01   -2.407E+01   -2.411E+01   -2.415E+01   -2.419E+01   -2.423E+01   -2.427E+01   -2.431E+01
    -2.435E+01   -2.439E+01   -2.443E+01   -2.446E+01   -2.450E+01   -2.453E+01   -2.457E+01   -2.460E+01   -2.464E+01   -2.467E+01
    -2.470E+01   -2.473E+01   -2.476E+01   -2.479E+01   -2.482E+01   -2.484E+01   -2.487E+01   -2.489E+01   -2.492E+01   -2.494E+01
    -2.497E+01   -2.499E+01   -2.501E+01   -2.503E+01   -2.505E+01   -2.507E+01   -2.509E+01   -2.511E+01   -2.512E+01   -2.514E+01
    -2.516E+01   -2.517E+01   -2.518E+01   -2.520E+01   -2.521E+01   -2.522E+01   -2.523E+01   -2.524E+01   -2.525E+01   -2.525E+01
    -2.526E+01   -2.527E+01   -2.527E+01   -2.527E+01   -2.528E+01   -2.528E+01   -2.528E+01   -2.528E+01   -2.528E+01   -2.528E+01
    -2.528E+01   -2.528E+01   -2.527E+01   -2.527E+01   -2.526E+01   -2.525E+01   -2.525E+01   -2.524E+01   -2.523E+01   -2.522E+01
    -2.521E+01   -2.520E+01   -2.518E+01   -2.517E+01   -2.515E+01   -2.514E+01   -2.512E+01   -2.510E+01   -2.508E+01   -2.507E+01
    -2.505E+01   -2.502E+01   -2.500E+01   -2.498E+01   -2.495E+01   -2.493E+01   -2.490E+01   -2.488E+01   -2.485E+01   -2.482E+01
    -2.479E+01   -2.476E+01   -2.473E+01   -2.469E+01   -2.466E+01   -2.462E+01   -2.459E+01   -2.455E+01   -2.452E+01   -2.448E+01
    -2.444E+01   -2.440E+01   -2.435E+01   -2.431E+01   -2.427E+01   -2.422E+01   -2.418E+01   -2.413E+01   -2.409E+01   -2.404E+01
    -2.399E+01   -2.394E+01   -2.389E+01   -2.383E+01   -2.378E+01   -2.373E+01   -2.367E+01   -2.361E+01   -2.356E+01   -2.350E+01
    -2.344E+01   -2.338E+01   -2.332E+01   -2.326E+01   -2.319E+01   -2.313E+01   -2.306E+01   -2.300E+01   -2.293E+01   -2.286E+01
    -2.279E+01   -2.272E+01   -2.265E+01   -2.258E+01   -2.250E+01   -2.243E+01   -2.235E+01   -2.228E+01   -2.220E+01   -2.212E+01
    -2.204E+01   -2.196E+01   -2.188E+01   -2.180E+01   -2.172E+01   -2.163E+01   -2.155E+01   -2.146E+01   -2.137E+01   -2.128E+01
    -2.119E+01   -2.110E+01   -2.101E+01   -2.092E+01   -2.082E+01   -2.073E+01   -2.063E+01   -2.054E+01   -2.044E+01   -2.034E+01
    -2.024E+01   -2.014E+01   -2.004E+01   -1.994E+01   -1.983E+01   -1.973E+01   -1.962E+01   -1.951E+01   -1.941E+01   -1.930E+01
    -1.919E+01   -1.908E+01   -1.897E+01   -1.885E+01   -1.874E+01   -1.862E+01   -1.851E+01   -1.839E+01   -1.827E+01   -1.815E+01
    -1.803E+01   -1.791E+01   -1.779E+01   -1.767E+01   -1.754E+01   -1.742E+01   -1.729E+01   -1.717E+01   -1.704E+01   -1.691E+01
    -1.678E+01   -1.665E+01   -1.651E+01   -1.638E+01   -1.625E+01   -1.611E+01   -1.598E+01   -1.584E+01   -1.570E+01   -1.556E+01
    -1.542E+01   -1.528E+01   -1.514E+01   -1.500E+01   -1.485E+01   -1.471E+01   -1.456E+01   -1.442E+01
 Cr       Conc. = 1.01E+03
