 LCModel (Version 6.3-1L) Copyright: S.W. Provencher.          Ref.: Magn. Reson. Med. 30:672-679 (1993).                
 Slice#1 Row#4 Col#5  PD_05_press_2_raw_act
 36 lines in following concentration table = NCONC+1
    Conc.  %SD /Cr+PCr  Metabolite                                         
    0.000 999%   0.000 Ala                                                 
  186.656 276% 8.8E-02 Asp                                                 
    0.000 999%   0.000 Cr                                                  
 2.12E+03   9%   1.000 PCr                                                 
    0.000 999%   0.000 GABA                                                
   84.549 382% 4.0E-02 Glc                                                 
  770.886 123%   0.364 Gln                                                 
  652.048 161%   0.308 Glu                                                 
    0.000 999%   0.000 GPC                                                 
  952.253   8%   0.450 PCh                                                 
  341.603  77%   0.161 GSH                                                 
 2.27E+03  39%   1.073 Ins                                                 
    0.000 999%   0.000 Lac                                                 
 4.71E+03   6%   2.228 NAA                                                 
    0.000 999%   0.000 NAAG                                                
  286.087  28%   0.135 Scyllo                                              
  922.464  54%   0.436 Tau                                                 
 1.39E+03  22%   0.659 -CrCH2                                              
  952.253   8%   0.450 GPC+PCh                                             
 4.71E+03   6%   2.228 NAA+NAAG                                            
 2.12E+03   9%   1.000 Cr+PCr                                              
 1.42E+03 113%   0.672 Glu+Gln                                             
 5.83E+03  18%   2.753 Lip13a                                              
    0.000 999%   0.000 Lip13b                                              
 1.33E+03  59%   0.629 Lip09                                               
 3.10E+03  27%   1.466 MM09                                                
 1.44E+03  40%   0.681 Lip20                                               
 9.12E+03  13%   4.307 MM20                                                
  872.212  79%   0.412 MM12                                                
    0.000 999%   0.000 MM14                                                
 3.52E+03  19%   1.664 MM17                                                
 5.83E+03  18%   2.753 Lip13a+Lip13b                                       
 6.70E+03  13%   3.165 MM14+Lip13a+Lip13b+MM12                             
 4.43E+03  13%   2.095 MM09+Lip09                                          
 1.06E+04  11%   4.988 MM20+Lip20                                          
   6 lines in following misc. output table
  FWHM = 0.069 ppm    S/N =   7                                            
  Data shift = 0.023 ppm                                                   
  Ph: -72 deg     -19.5 deg/ppm                                            
  alphaB,S = 3.6E+00,   1.1E+02                                            
   14 spline knots.   Ns = 8(1)                                            
  (10) 2 infls.   ( 7) 1 extrs.                                            
  498 points on ppm-axis = NY
      4.000000     3.992357     3.984714     3.977070     3.969427     3.961784     3.954141     3.946497     3.938854     3.931211
      3.923568     3.915925     3.908281     3.900638     3.892995     3.885352     3.877708     3.870065     3.862422     3.854779
      3.847136     3.839492     3.831849     3.824206     3.816563     3.808919     3.801276     3.793633     3.785990     3.778347
      3.770703     3.763060     3.755417     3.747774     3.740130     3.732487     3.724844     3.717201     3.709558     3.701914
      3.694271     3.686628     3.678985     3.671341     3.663698     3.656055     3.648412     3.640769     3.633125     3.625482
      3.617839     3.610196     3.602552     3.594909     3.587266     3.579623     3.571980     3.564336     3.556693     3.549050
      3.541407     3.533763     3.526120     3.518477     3.510834     3.503191     3.495547     3.487904     3.480261     3.472618
      3.464974     3.457331     3.449688     3.442045     3.434402     3.426758     3.419115     3.411472     3.403829     3.396185
      3.388542     3.380899     3.373256     3.365613     3.357969     3.350326     3.342683     3.335040     3.327396     3.319753
      3.312110     3.304467     3.296824     3.289180     3.281537     3.273894     3.266251     3.258607     3.250964     3.243321
      3.235678     3.228034     3.220391     3.212748     3.205105     3.197462     3.189818     3.182175     3.174532     3.166889
      3.159245     3.151602     3.143959     3.136316     3.128673     3.121029     3.113386     3.105743     3.098100     3.090456
      3.082813     3.075170     3.067527     3.059884     3.052240     3.044597     3.036954     3.029311     3.021667     3.014024
      3.006381     2.998738     2.991095     2.983451     2.975808     2.968165     2.960522     2.952878     2.945235     2.937592
      2.929949     2.922306     2.914662     2.907019     2.899376     2.891733     2.884089     2.876446     2.868803     2.861160
      2.853517     2.845873     2.838230     2.830587     2.822944     2.815300     2.807657     2.800014     2.792371     2.784728
      2.777084     2.769441     2.761798     2.754155     2.746511     2.738868     2.731225     2.723582     2.715939     2.708295
      2.700652     2.693009     2.685366     2.677722     2.670079     2.662436     2.654793     2.647150     2.639506     2.631863
      2.624220     2.616577     2.608933     2.601290     2.593647     2.586004     2.578361     2.570717     2.563074     2.555431
      2.547788     2.540144     2.532501     2.524858     2.517215     2.509572     2.501928     2.494285     2.486642     2.478999
      2.471355     2.463712     2.456069     2.448426     2.440783     2.433139     2.425496     2.417853     2.410210     2.402566
      2.394923     2.387280     2.379637     2.371994     2.364350     2.356707     2.349064     2.341421     2.333777     2.326134
      2.318491     2.310848     2.303205     2.295561     2.287918     2.280275     2.272632     2.264988     2.257345     2.249702
      2.242059     2.234416     2.226772     2.219129     2.211486     2.203843     2.196199     2.188556     2.180913     2.173270
      2.165627     2.157983     2.150340     2.142697     2.135054     2.127410     2.119767     2.112124     2.104481     2.096838
      2.089194     2.081551     2.073908     2.066265     2.058621     2.050978     2.043335     2.035692     2.028049     2.020405
      2.012762     2.005119     1.997476     1.989833     1.982190     1.974546     1.966903     1.959260     1.951617     1.943974
      1.936331     1.928688     1.921045     1.913402     1.905759     1.898115     1.890472     1.882829     1.875186     1.867543
      1.859900     1.852257     1.844614     1.836971     1.829327     1.821684     1.814041     1.806398     1.798755     1.791112
      1.783469     1.775826     1.768183     1.760540     1.752896     1.745253     1.737610     1.729967     1.722324     1.714681
      1.707038     1.699395     1.691752     1.684108     1.676465     1.668822     1.661179     1.653536     1.645893     1.638250
      1.630607     1.622964     1.615321     1.607677     1.600034     1.592391     1.584748     1.577105     1.569462     1.561819
      1.554176     1.546533     1.538890     1.531246     1.523603     1.515960     1.508317     1.500674     1.493031     1.485388
      1.477745     1.470102     1.462458     1.454815     1.447172     1.439529     1.431886     1.424243     1.416600     1.408957
      1.401314     1.393671     1.386027     1.378384     1.370741     1.363098     1.355455     1.347812     1.340169     1.332526
      1.324883     1.317240     1.309596     1.301953     1.294310     1.286667     1.279024     1.271381     1.263738     1.256095
      1.248452     1.240808     1.233165     1.225522     1.217879     1.210236     1.202593     1.194950     1.187307     1.179664
      1.172021     1.164377     1.156734     1.149091     1.141448     1.133805     1.126162     1.118519     1.110876     1.103233
      1.095590     1.087946     1.080303     1.072660     1.065017     1.057374     1.049731     1.042088     1.034445     1.026802
      1.019158     1.011515     1.003872     0.996229     0.988586     0.980943     0.973300     0.965657     0.958014     0.950371
      0.942727     0.935084     0.927441     0.919798     0.912155     0.904512     0.896869     0.889226     0.881583     0.873940
      0.866296     0.858653     0.851010     0.843367     0.835724     0.828081     0.820438     0.812795     0.805152     0.797508
      0.789865     0.782222     0.774579     0.766936     0.759293     0.751650     0.744007     0.736364     0.728721     0.721077
      0.713434     0.705791     0.698148     0.690505     0.682862     0.675219     0.667576     0.659933     0.652290     0.644646
      0.637003     0.629360     0.621717     0.614074     0.606431     0.598788     0.591145     0.583502     0.575858     0.568215
      0.560572     0.552929     0.545286     0.537643     0.530000     0.522357     0.514714     0.507071     0.499427     0.491784
      0.484141     0.476498     0.468855     0.461212     0.453569     0.445925     0.438282     0.430639     0.422996     0.415353
      0.407710     0.400067     0.392424     0.384780     0.377137     0.369494     0.361851     0.354208     0.346565     0.338922
      0.331278     0.323635     0.315992     0.308349     0.300706     0.293063     0.285420     0.277777     0.270133     0.262490
      0.254847     0.247204     0.239561     0.231918     0.224275     0.216631     0.208988     0.201345
 NY phased data points follow
  -9.67046E+01 -8.54232E+01 -7.37209E+01 -5.38899E+01 -7.05742E+01 -4.61310E+01 -5.91482E+01 -4.76583E+01 -5.14286E+01 -4.34482E+01
  -5.98467E+01 -5.55871E+01 -4.47514E+01 -6.13834E+01 -6.46560E+01 -5.75070E+01 -7.82088E+01 -7.68012E+01 -7.76491E+01 -7.66591E+01
  -8.01522E+01 -7.85721E+01 -7.85437E+01 -7.57831E+01 -7.23798E+01 -5.91805E+01 -5.65368E+01 -6.30087E+01 -5.61505E+01 -5.02650E+01
  -4.68225E+01 -4.24672E+01 -6.37096E+01 -4.94801E+01 -5.87202E+01 -5.31958E+01 -5.99777E+01 -4.90477E+01 -4.41063E+01 -5.17986E+01
  -4.24843E+01 -4.99545E+01 -3.97871E+01 -3.78800E+01 -5.30704E+01 -3.52375E+01 -3.85723E+01 -2.69963E+01 -4.63932E+01 -2.25136E+01
  -3.67975E+01 -3.92249E+01 -4.82269E+01 -3.40321E+01 -4.81026E+01 -5.54166E+01 -5.05152E+01 -2.82776E+01 -3.89197E+01 -5.01519E+01
  -4.42179E+01 -4.80805E+01 -3.68836E+01 -5.69104E+01 -4.86020E+01 -4.04633E+01 -5.43152E+01 -4.21823E+01 -5.87018E+01 -3.97863E+01
  -5.36733E+01 -3.88348E+01 -2.83234E+01 -3.73370E+01 -4.76650E+01 -4.02837E+01 -4.62663E+01 -3.44409E+01 -4.51621E+01 -4.76866E+01
  -4.71029E+01 -4.07733E+01 -2.08656E+01 -4.68945E+01 -2.20899E+01 -4.49163E+01 -3.50291E+01 -2.48309E+01 -1.78630E+01 -2.95766E+01
  -1.77293E+01 -3.86829E+01 -2.66699E+01 -2.90762E+01 -1.73987E+01 -1.35979E+01 -1.87169E+01 -8.27950E+00 -3.71582E+00  7.02164E+00
   1.95659E+01  2.91851E+01  2.81625E+01  3.98055E+01  2.43017E+01  3.83691E+01  1.80170E+01  4.31733E+00 -1.82689E+01 -1.61658E+01
  -1.85529E+01 -3.01000E+01 -2.00227E+01 -1.94304E+01 -3.57570E+01 -2.94902E+01 -3.09894E+01 -2.64372E+01 -4.28947E+01 -3.42244E+01
  -1.52246E+01  8.70019E+00 -1.42323E+01  4.57979E+00  2.61559E+01  2.36947E+01  3.28145E+01  2.40970E+01  1.65856E+01  1.97909E+01
   2.18846E+01 -5.46405E-01  4.03102E+00 -7.87993E+00 -7.55409E+00 -1.05253E+01 -2.17475E+01 -9.38464E+00 -2.48545E+01 -1.69486E+01
  -2.74706E+01 -2.26831E+01 -3.69281E+01 -2.09909E+00 -2.83932E+01 -2.36587E+01 -2.43882E+01 -4.86091E+00 -3.74480E+01 -3.96423E+01
  -2.16999E+01 -2.85542E+01 -4.24042E+01 -2.48542E+01 -3.31788E+01 -1.91068E+01 -2.86191E+01 -2.65308E+01 -1.75013E+01 -3.14833E+01
  -3.40295E+01 -1.57295E+01 -1.63058E+01 -5.75483E+00 -1.72097E+01 -8.72154E+00 -1.94455E+01 -2.81576E+01 -2.32710E+01 -5.05170E+00
  -3.27890E+01 -3.84568E+01 -3.69738E+01 -4.03065E+01 -4.47273E+01 -5.04804E+01 -5.71889E+01 -5.05788E+01 -4.54719E+01 -3.87679E+01
  -3.84888E+01 -4.14040E+01 -3.21552E+01 -2.66615E+01 -2.48686E+01 -1.62756E+01 -3.08581E+01 -2.80884E+01 -1.36856E+01 -1.84465E+01
  -1.84493E+01 -1.23526E+01 -3.25571E+01 -2.58540E+01 -2.12180E+01 -3.78973E+01 -2.82728E+01 -2.21859E+01 -1.19510E+01 -3.40770E+01
  -3.39832E+01 -2.12340E+01 -9.27307E+00 -1.53184E+01 -1.14988E+01 -1.00580E+01 -5.93419E+00 -2.52979E+01 -2.20829E+01 -7.48425E+00
  -8.79903E+00 -3.94332E+00 -5.94801E-01 -1.80467E+01  1.41555E+00  9.72285E+00  5.29557E-01  1.22156E+01  5.38085E-01 -5.96409E+00
  -4.23034E+00  7.53492E+00 -1.24222E+00 -4.87401E+00 -8.51493E+00  5.00066E+00  1.20398E+00  4.39363E+00  1.93447E+01  4.15613E+00
   1.88658E+01  1.14736E+01  1.01435E+01  2.11963E+01  1.83653E+01 -5.65421E+00  3.83400E+00  1.65932E+01  8.17321E+00  9.84996E+00
   1.76398E+00 -1.34388E-01  1.76008E+01  2.92383E+00  1.36166E+01  1.97415E+01  1.56984E+01  1.98708E+01  1.58509E+01  1.94439E+01
   1.04737E+01  3.22614E+01  2.58250E+01  4.51206E+01  6.42051E+01  8.40946E+01  9.93990E+01  1.21590E+02  1.43961E+02  1.49416E+02
   1.55703E+02  1.58235E+02  1.20321E+02  1.10521E+02  7.33801E+01  7.24925E+01  5.19019E+01  3.35222E+01  1.98836E+01  1.04201E+01
   1.33743E+01  1.92500E+01  2.67426E+01  1.06720E+01  1.13307E+01  5.93972E+00  1.34525E+01  1.18244E+01  2.86301E+00  1.26481E+01
   3.33824E+00  3.95139E+00 -5.30281E+00 -2.15962E+00  7.37639E+00  4.29048E+00  1.65743E+01  6.60876E+00  6.91452E+00  2.31411E+00
  -1.26025E+00  1.34714E+01  2.42281E+00 -1.02695E+00  1.28627E+01  2.62077E+01  1.87629E+01 -1.96822E+00  1.20615E+01  6.42116E-02
   2.62794E+01  2.08828E+01  9.36275E+00  2.89138E+01  1.64337E+01  2.00722E+01  3.32839E+01  1.02668E+01  1.18926E+01  1.58162E+01
   2.74391E+01  1.23406E+01  4.57018E+01  2.28179E+01  3.03104E+01  2.45946E+01  3.63934E+01  2.40938E+01  2.55314E+01  7.89325E+00
   2.28735E+00  9.01641E+00 -1.21154E+01 -1.21300E+01 -1.64928E+01 -1.91128E+01 -2.63545E+01 -1.26494E+01 -1.54657E+00 -1.80631E+01
  -3.29463E+00  4.30754E+00  1.01420E+01 -2.27836E+00  1.27312E+01  1.39618E+01  7.37667E+00 -3.50829E+00  8.00057E+00  1.33928E+01
   1.81704E+01  3.10813E+01  2.69352E+01  1.91066E+01  3.36577E+01  3.22672E+01  3.59833E+01  4.08180E+01  2.97066E+01  3.49924E+01
   6.23875E+01  6.78225E+01  5.52888E+01  5.58558E+01  5.37880E+01  5.22194E+01  3.68092E+01  3.26523E+01  4.48128E+01  2.03689E+01
   2.87508E+01  1.56697E+01  3.06230E+01  3.61619E+01  2.19390E+01  3.69221E+01  3.97527E+01  1.03341E+01  2.17166E+01  1.67912E+01
   2.18762E+01  2.95147E+01  3.54264E+01  1.28136E+01  2.80576E+01  2.21979E+01  1.62812E+01  2.19401E+01  1.28213E+00  1.03947E+01
   3.36070E+01  1.53764E+01  1.55832E+01  1.88024E+01  2.12520E+01  3.03631E+01  1.86159E+01  9.31826E+00  1.44150E+01  4.06296E+01
   2.39887E+01  1.88298E+01  1.83669E+01  2.54137E+01  3.92516E+01  3.67167E+01  4.16987E+01  1.86637E+01  4.07854E+01  3.68216E+01
   1.43944E+01  3.40873E+01  2.02888E+01  3.76265E+01  2.34101E+01  3.05107E+01  4.17656E+01  4.16485E+01  2.97417E+01  3.38924E+01
   3.66547E+01  3.62085E+01  4.11614E+01  1.68007E+01  2.61519E+01  3.14416E+01  3.29481E+01  2.69983E+01  4.25300E+01  2.36165E+01
   2.75226E+01  2.91147E+01  2.28927E+01  3.47092E+01  2.55574E+01  1.77905E+01  1.69046E+01  2.72847E+01  2.25274E+01  3.11908E+01
   1.27661E+01  2.32626E+01  2.75289E+01  3.48113E+01  1.08239E+01  1.35526E+01  2.23330E+01  3.20433E+01  2.38638E+01  1.84460E+01
   1.98501E+01  1.52333E+01  3.12299E+01  2.50575E+01  1.00340E+01  2.00115E+01  2.83739E+01  1.76865E+01  1.09344E+01  1.48120E+01
   1.89459E+01  1.65931E+01  5.59306E+00 -1.58329E+00  2.65325E+01  2.59669E+01  1.14343E+01 -2.15151E+00  1.27523E+01  1.12428E+01
   3.05451E+01  9.70702E+00  1.44846E+01  4.44584E+00  1.07661E+00  4.16593E+00 -9.95638E+00  2.06800E+01  9.07987E+00  6.54415E+00
   1.97322E+01  1.79608E+01  1.24013E+01  1.21125E+01  2.45528E+01  1.54542E+01  2.73707E+01  1.73184E+01  1.72935E+01  2.87962E+01
   1.80273E+01  1.18116E+01  1.95809E+01  1.11400E+01  4.39769E+01  2.43993E+01  2.15770E+01  6.21603E+00  2.93081E+01  1.67983E+01
   1.64172E+00  1.92731E+01  2.26357E+01  6.32037E+00  1.75514E+01 -6.79172E-02  2.26997E+01  1.47130E+01
 NY points of the fit to the data follow
  -6.19633E+01 -6.21656E+01 -6.14234E+01 -6.00080E+01 -5.82263E+01 -5.61836E+01 -5.40364E+01 -5.21300E+01 -5.08047E+01 -5.02939E+01
  -5.06990E+01 -5.18834E+01 -5.35442E+01 -5.53104E+01 -5.68807E+01 -5.81542E+01 -5.91412E+01 -5.98038E+01 -6.01018E+01 -6.00666E+01
  -5.99003E+01 -5.97184E+01 -5.93369E+01 -5.86403E+01 -5.76500E+01 -5.63765E+01 -5.48375E+01 -5.30991E+01 -5.13407E+01 -4.97486E+01
  -4.85181E+01 -4.78660E+01 -4.78789E+01 -4.84513E+01 -4.94037E+01 -5.05551E+01 -5.17674E+01 -5.29306E+01 -5.38552E+01 -5.41273E+01
  -5.34185E+01 -5.18774E+01 -4.98907E+01 -4.77352E+01 -4.55759E+01 -4.36522E+01 -4.23225E+01 -4.18959E+01 -4.24690E+01 -4.38867E+01
  -4.57790E+01 -4.76011E+01 -4.88967E+01 -4.95038E+01 -4.94928E+01 -4.90162E+01 -4.81670E+01 -4.70472E+01 -4.58760E+01 -4.49066E+01
  -4.43335E+01 -4.41352E+01 -4.42250E+01 -4.44707E+01 -4.46428E+01 -4.45997E+01 -4.43580E+01 -4.39072E+01 -4.31775E+01 -4.22417E+01
  -4.12853E+01 -4.04436E+01 -3.98237E+01 -3.95233E+01 -3.95343E+01 -3.98112E+01 -4.03027E+01 -4.08730E+01 -4.11660E+01 -4.06627E+01
  -3.94332E+01 -3.78144E+01 -3.60281E+01 -3.42005E+01 -3.25340E+01 -3.13279E+01 -3.08578E+01 -3.12815E+01 -3.24846E+01 -3.41570E+01
  -3.59226E+01 -3.73728E+01 -3.83645E+01 -3.88774E+01 -3.81600E+01 -3.39038E+01 -2.56012E+01 -1.48332E+01 -3.07230E+00  9.06188E+00
   2.07511E+01  3.03813E+01  3.63010E+01  3.73558E+01  3.32568E+01  2.50051E+01  1.43971E+01  3.41002E+00 -6.52583E+00 -1.50281E+01
  -2.20963E+01 -2.74994E+01 -3.09595E+01 -3.24953E+01 -3.30004E+01 -3.31503E+01 -3.30770E+01 -3.27124E+01 -3.14040E+01 -2.73606E+01
  -2.04146E+01 -1.18046E+01 -2.46302E+00  7.24224E+00  1.65776E+01  2.41950E+01  2.88247E+01  2.95740E+01  2.62363E+01  1.96758E+01
   1.13291E+01  2.73506E+00 -5.04348E+00 -1.17594E+01 -1.73579E+01 -2.16143E+01 -2.42798E+01 -2.53660E+01 -2.56186E+01 -2.55709E+01
  -2.54126E+01 -2.52440E+01 -2.51177E+01 -2.50588E+01 -2.50751E+01 -2.51700E+01 -2.53295E+01 -2.55288E+01 -2.57392E+01 -2.59228E+01
  -2.60508E+01 -2.61153E+01 -2.61497E+01 -2.62960E+01 -2.66136E+01 -2.70344E+01 -2.74609E+01 -2.77850E+01 -2.80231E+01 -2.82192E+01
  -2.83407E+01 -2.83197E+01 -2.81568E+01 -2.79614E+01 -2.78690E+01 -2.79896E+01 -2.83688E+01 -2.89585E+01 -2.97347E+01 -3.06456E+01
  -3.15047E+01 -3.22248E+01 -3.27924E+01 -3.32629E+01 -3.35956E+01 -3.36620E+01 -3.34567E+01 -3.30682E+01 -3.26439E+01 -3.23527E+01
  -3.21659E+01 -3.18884E+01 -3.13683E+01 -3.05631E+01 -2.94979E+01 -2.82052E+01 -2.67291E+01 -2.50671E+01 -2.32440E+01 -2.14233E+01
  -1.99061E+01 -1.88954E+01 -1.83580E+01 -1.81215E+01 -1.80485E+01 -1.80189E+01 -1.78482E+01 -1.74347E+01 -1.67344E+01 -1.57707E+01
  -1.46474E+01 -1.35517E+01 -1.28128E+01 -1.26313E+01 -1.30162E+01 -1.39848E+01 -1.53976E+01 -1.69016E+01 -1.80881E+01 -1.87069E+01
  -1.86832E+01 -1.79992E+01 -1.67274E+01 -1.50521E+01 -1.32727E+01 -1.17074E+01 -1.04921E+01 -9.63856E+00 -9.10860E+00 -8.76835E+00
  -8.42496E+00 -7.88353E+00 -7.06748E+00 -6.02370E+00 -4.81280E+00 -3.50660E+00 -2.19677E+00 -1.00585E+00 -3.37139E-02  7.84130E-01
   1.59394E+00  2.46317E+00  3.40952E+00  4.49695E+00  5.76535E+00  7.10836E+00  8.42801E+00  9.69731E+00  1.08951E+01  1.19767E+01
   1.29396E+01  1.38345E+01  1.47510E+01  1.57911E+01  1.70025E+01  1.83771E+01  1.98784E+01  2.14677E+01  2.30913E+01  2.47255E+01
   2.64628E+01  2.89303E+01  3.52451E+01  4.80831E+01  6.53602E+01  8.43749E+01  1.03948E+02  1.23129E+02  1.39418E+02  1.49739E+02
   1.51848E+02  1.44782E+02  1.29695E+02  1.09609E+02  8.80635E+01  6.80831E+01  5.08994E+01  3.64747E+01  2.49949E+01  1.68941E+01
   1.23564E+01  1.02713E+01  8.91003E+00  7.79221E+00  6.81127E+00  5.92283E+00  5.10589E+00  4.35576E+00  3.67280E+00  3.06262E+00
   2.53168E+00  2.08771E+00  1.73901E+00  1.49489E+00  1.36238E+00  1.34746E+00  1.45716E+00  1.70056E+00  2.08599E+00  2.62116E+00
   3.31194E+00  4.16295E+00  5.17556E+00  6.34617E+00  7.66449E+00  9.11428E+00  1.06721E+01  1.23080E+01  1.39852E+01  1.56613E+01
   1.72892E+01  1.88198E+01  2.02039E+01  2.13955E+01  2.23532E+01  2.30436E+01  2.34424E+01  2.35370E+01  2.33268E+01  2.28238E+01
   2.20505E+01  2.10396E+01  1.98311E+01  1.84712E+01  1.70086E+01  1.54925E+01  1.39694E+01  1.24818E+01  1.10664E+01  9.75382E+00
   8.56739E+00  7.52387E+00  6.63322E+00  5.90051E+00  5.32636E+00  4.90917E+00  4.64531E+00  4.53107E+00  4.56300E+00  4.73969E+00
   5.06174E+00  5.53279E+00  6.15858E+00  6.94750E+00  7.90927E+00  9.05506E+00  1.03955E+01  1.19400E+01  1.36943E+01  1.56593E+01
   1.78291E+01  2.01903E+01  2.27197E+01  2.53845E+01  2.81412E+01  3.09370E+01  3.37102E+01  3.63937E+01  3.89164E+01  4.12074E+01
   4.31988E+01  4.48304E+01  4.60521E+01  4.68286E+01  4.71394E+01  4.69818E+01  4.63698E+01  4.53343E+01  4.39201E+01  4.21843E+01
   4.01917E+01  3.80120E+01  3.57157E+01  3.33709E+01  3.10404E+01  2.87796E+01  2.66341E+01  2.46402E+01  2.28234E+01  2.12007E+01
   1.97800E+01  1.85628E+01  1.75443E+01  1.67161E+01  1.60668E+01  1.55844E+01  1.52560E+01  1.50698E+01  1.50147E+01  1.50813E+01
   1.52618E+01  1.55505E+01  1.59427E+01  1.64353E+01  1.70257E+01  1.77122E+01  1.84931E+01  1.93665E+01  2.03293E+01  2.13775E+01
   2.25047E+01  2.37029E+01  2.49613E+01  2.62669E+01  2.76032E+01  2.89515E+01  3.02903E+01  3.15967E+01  3.28457E+01  3.40126E+01
   3.50719E+01  3.60002E+01  3.67758E+01  3.73807E+01  3.78007E+01  3.80264E+01  3.80533E+01  3.78825E+01  3.75204E+01  3.69787E+01
   3.62729E+01  3.54229E+01  3.44507E+01  3.33807E+01  3.22376E+01  3.10466E+01  2.98311E+01  2.86132E+01  2.74125E+01  2.62460E+01
   2.51275E+01  2.40682E+01  2.30760E+01  2.21562E+01  2.13115E+01  2.05428E+01  1.98491E+01  1.92281E+01  1.86761E+01  1.81891E+01
   1.77623E+01  1.73911E+01  1.70705E+01  1.67959E+01  1.65625E+01  1.63662E+01  1.62029E+01  1.60693E+01  1.59618E+01  1.58777E+01
   1.58142E+01  1.57690E+01  1.57402E+01  1.57260E+01  1.57246E+01  1.57349E+01  1.57554E+01  1.57851E+01  1.58231E+01  1.58686E+01
   1.59208E+01  1.59791E+01  1.60428E+01  1.61115E+01  1.61847E+01  1.62621E+01  1.63432E+01  1.64278E+01  1.65154E+01  1.66061E+01
   1.66993E+01  1.67951E+01  1.68930E+01  1.69931E+01  1.70950E+01  1.71988E+01  1.73043E+01  1.74113E+01  1.75197E+01  1.76295E+01
   1.77405E+01  1.78527E+01  1.79661E+01  1.80805E+01  1.81958E+01  1.83120E+01  1.84291E+01  1.85471E+01  1.86659E+01  1.87854E+01
   1.89055E+01  1.90264E+01  1.91479E+01  1.92701E+01  1.93928E+01  1.95162E+01  1.96400E+01  1.97645E+01  1.98896E+01  2.00152E+01
   2.01413E+01  2.02680E+01  2.03951E+01  2.05229E+01  2.06513E+01  2.07803E+01  2.09098E+01  2.10400E+01
 NY background values follow
    -6.608E+01   -6.585E+01   -6.562E+01   -6.539E+01   -6.516E+01   -6.493E+01   -6.470E+01   -6.447E+01   -6.424E+01   -6.401E+01
    -6.378E+01   -6.355E+01   -6.332E+01   -6.309E+01   -6.286E+01   -6.263E+01   -6.239E+01   -6.216E+01   -6.193E+01   -6.170E+01
    -6.147E+01   -6.124E+01   -6.101E+01   -6.078E+01   -6.055E+01   -6.032E+01   -6.009E+01   -5.986E+01   -5.963E+01   -5.940E+01
    -5.917E+01   -5.894E+01   -5.871E+01   -5.848E+01   -5.825E+01   -5.802E+01   -5.779E+01   -5.756E+01   -5.733E+01   -5.710E+01
    -5.687E+01   -5.664E+01   -5.641E+01   -5.618E+01   -5.595E+01   -5.572E+01   -5.549E+01   -5.526E+01   -5.504E+01   -5.481E+01
    -5.458E+01   -5.435E+01   -5.412E+01   -5.389E+01   -5.366E+01   -5.344E+01   -5.321E+01   -5.298E+01   -5.275E+01   -5.252E+01
    -5.230E+01   -5.207E+01   -5.184E+01   -5.161E+01   -5.139E+01   -5.116E+01   -5.093E+01   -5.071E+01   -5.048E+01   -5.026E+01
    -5.003E+01   -4.980E+01   -4.958E+01   -4.935E+01   -4.913E+01   -4.890E+01   -4.868E+01   -4.845E+01   -4.823E+01   -4.800E+01
    -4.778E+01   -4.756E+01   -4.733E+01   -4.711E+01   -4.689E+01   -4.666E+01   -4.644E+01   -4.622E+01   -4.600E+01   -4.577E+01
    -4.555E+01   -4.533E+01   -4.511E+01   -4.489E+01   -4.467E+01   -4.445E+01   -4.423E+01   -4.401E+01   -4.379E+01   -4.357E+01
    -4.335E+01   -4.313E+01   -4.291E+01   -4.269E+01   -4.248E+01   -4.226E+01   -4.204E+01   -4.182E+01   -4.161E+01   -4.139E+01
    -4.117E+01   -4.096E+01   -4.074E+01   -4.053E+01   -4.031E+01   -4.010E+01   -3.988E+01   -3.967E+01   -3.945E+01   -3.924E+01
    -3.903E+01   -3.881E+01   -3.860E+01   -3.839E+01   -3.818E+01   -3.796E+01   -3.775E+01   -3.754E+01   -3.733E+01   -3.712E+01
    -3.691E+01   -3.670E+01   -3.649E+01   -3.628E+01   -3.607E+01   -3.586E+01   -3.565E+01   -3.545E+01   -3.524E+01   -3.503E+01
    -3.482E+01   -3.462E+01   -3.441E+01   -3.421E+01   -3.400E+01   -3.379E+01   -3.359E+01   -3.338E+01   -3.318E+01   -3.298E+01
    -3.277E+01   -3.257E+01   -3.237E+01   -3.216E+01   -3.196E+01   -3.176E+01   -3.156E+01   -3.136E+01   -3.116E+01   -3.096E+01
    -3.076E+01   -3.056E+01   -3.036E+01   -3.016E+01   -2.996E+01   -2.976E+01   -2.956E+01   -2.936E+01   -2.916E+01   -2.897E+01
    -2.877E+01   -2.857E+01   -2.838E+01   -2.818E+01   -2.799E+01   -2.779E+01   -2.760E+01   -2.740E+01   -2.721E+01   -2.701E+01
    -2.682E+01   -2.663E+01   -2.643E+01   -2.624E+01   -2.605E+01   -2.586E+01   -2.566E+01   -2.547E+01   -2.528E+01   -2.509E+01
    -2.490E+01   -2.471E+01   -2.452E+01   -2.433E+01   -2.414E+01   -2.396E+01   -2.377E+01   -2.358E+01   -2.339E+01   -2.320E+01
    -2.302E+01   -2.283E+01   -2.264E+01   -2.246E+01   -2.227E+01   -2.209E+01   -2.190E+01   -2.172E+01   -2.153E+01   -2.135E+01
    -2.117E+01   -2.098E+01   -2.080E+01   -2.062E+01   -2.044E+01   -2.026E+01   -2.007E+01   -1.989E+01   -1.971E+01   -1.953E+01
    -1.935E+01   -1.917E+01   -1.899E+01   -1.881E+01   -1.864E+01   -1.846E+01   -1.828E+01   -1.810E+01   -1.793E+01   -1.775E+01
    -1.757E+01   -1.740E+01   -1.722E+01   -1.704E+01   -1.687E+01   -1.669E+01   -1.652E+01   -1.635E+01   -1.617E+01   -1.600E+01
    -1.583E+01   -1.565E+01   -1.548E+01   -1.531E+01   -1.514E+01   -1.497E+01   -1.479E+01   -1.462E+01   -1.445E+01   -1.428E+01
    -1.411E+01   -1.394E+01   -1.377E+01   -1.361E+01   -1.344E+01   -1.327E+01   -1.310E+01   -1.293E+01   -1.277E+01   -1.260E+01
    -1.243E+01   -1.227E+01   -1.210E+01   -1.193E+01   -1.177E+01   -1.160E+01   -1.144E+01   -1.127E+01   -1.111E+01   -1.095E+01
    -1.078E+01   -1.062E+01   -1.046E+01   -1.029E+01   -1.013E+01   -9.968E+00   -9.806E+00   -9.644E+00   -9.483E+00   -9.321E+00
    -9.160E+00   -9.000E+00   -8.839E+00   -8.679E+00   -8.519E+00   -8.360E+00   -8.200E+00   -8.041E+00   -7.882E+00   -7.724E+00
    -7.566E+00   -7.407E+00   -7.250E+00   -7.092E+00   -6.935E+00   -6.777E+00   -6.621E+00   -6.464E+00   -6.307E+00   -6.151E+00
    -5.995E+00   -5.840E+00   -5.684E+00   -5.529E+00   -5.374E+00   -5.219E+00   -5.064E+00   -4.910E+00   -4.756E+00   -4.602E+00
    -4.448E+00   -4.294E+00   -4.141E+00   -3.988E+00   -3.835E+00   -3.682E+00   -3.530E+00   -3.377E+00   -3.225E+00   -3.073E+00
    -2.921E+00   -2.770E+00   -2.618E+00   -2.467E+00   -2.316E+00   -2.165E+00   -2.014E+00   -1.864E+00   -1.714E+00   -1.564E+00
    -1.414E+00   -1.264E+00   -1.114E+00   -9.649E-01   -8.157E-01   -6.667E-01   -5.179E-01   -3.692E-01   -2.207E-01   -7.236E-02
     7.579E-02    2.238E-01    3.716E-01    5.192E-01    6.667E-01    8.140E-01    9.611E-01    1.108E+00    1.255E+00    1.402E+00
     1.548E+00    1.694E+00    1.840E+00    1.986E+00    2.132E+00    2.278E+00    2.423E+00    2.569E+00    2.714E+00    2.859E+00
     3.004E+00    3.149E+00    3.293E+00    3.438E+00    3.582E+00    3.726E+00    3.870E+00    4.014E+00    4.157E+00    4.301E+00
     4.444E+00    4.588E+00    4.731E+00    4.874E+00    5.016E+00    5.159E+00    5.301E+00    5.444E+00    5.586E+00    5.728E+00
     5.870E+00    6.012E+00    6.153E+00    6.295E+00    6.436E+00    6.577E+00    6.718E+00    6.859E+00    7.000E+00    7.141E+00
     7.281E+00    7.421E+00    7.562E+00    7.702E+00    7.842E+00    7.981E+00    8.121E+00    8.261E+00    8.400E+00    8.539E+00
     8.678E+00    8.817E+00    8.956E+00    9.095E+00    9.233E+00    9.372E+00    9.510E+00    9.648E+00    9.786E+00    9.924E+00
     1.006E+01    1.020E+01    1.034E+01    1.047E+01    1.061E+01    1.075E+01    1.089E+01    1.102E+01    1.116E+01    1.130E+01
     1.143E+01    1.157E+01    1.170E+01    1.184E+01    1.198E+01    1.211E+01    1.225E+01    1.238E+01    1.252E+01    1.266E+01
     1.279E+01    1.293E+01    1.306E+01    1.320E+01    1.333E+01    1.347E+01    1.360E+01    1.374E+01    1.387E+01    1.401E+01
     1.414E+01    1.427E+01    1.441E+01    1.454E+01    1.468E+01    1.481E+01    1.495E+01    1.508E+01    1.521E+01    1.535E+01
     1.548E+01    1.561E+01    1.575E+01    1.588E+01    1.601E+01    1.615E+01    1.628E+01    1.641E+01    1.655E+01    1.668E+01
     1.681E+01    1.695E+01    1.708E+01    1.721E+01    1.734E+01    1.748E+01    1.761E+01    1.774E+01    1.788E+01    1.801E+01
     1.814E+01    1.827E+01    1.840E+01    1.854E+01    1.867E+01    1.880E+01    1.893E+01    1.907E+01    1.920E+01    1.933E+01
     1.946E+01    1.959E+01    1.973E+01    1.986E+01    1.999E+01    2.012E+01    2.025E+01    2.039E+01    2.052E+01    2.065E+01
     2.078E+01    2.091E+01    2.105E+01    2.118E+01    2.131E+01    2.144E+01    2.157E+01    2.170E+01
 Asp      Conc. = 1.87E+02
