 LCModel (Version 6.3-1L) Copyright: S.W. Provencher.          Ref.: Magn. Reson. Med. 30:672-679 (1993).                
 Slice#2 Row#12 Col#6  PD_05_press_2_raw_act
 36 lines in following concentration table = NCONC+1
    Conc.  %SD /Cr+PCr  Metabolite                                         
    0.000 999%   0.000 Ala                                                 
    7.699  34%   0.136 Asp                                                 
   56.809 137%   1.000 Cr                                                  
    0.000 999%   0.000 PCr                                                 
    4.632  34% 8.2E-02 GABA                                                
    4.637  34% 8.2E-02 Glc                                                 
  162.796  71%   2.866 Gln                                                 
  209.693  62%   3.691 Glu                                                 
   32.519  30%   0.572 GPC                                                 
    0.000 999%   0.000 PCh                                                 
   15.092 244%   0.266 GSH                                                 
  193.877  57%   3.413 Ins                                                 
    0.000 999%   0.000 Lac                                                 
    0.000 999%   0.000 NAA                                                 
    0.000 999%   0.000 NAAG                                                
    1.556  34% 2.7E-02 Scyllo                                              
    7.741  34%   0.136 Tau                                                 
    5.854  68%   0.103 -CrCH2                                              
   32.519  30%   0.572 GPC+PCh                                             
    0.000 999%   0.000 NAA+NAAG                                            
   56.809  45%   1.000 Cr+PCr                                              
  372.489  50%   6.557 Glu+Gln                                             
  265.021  59%   4.665 Lip13a                                              
    0.000 999%   0.000 Lip13b                                              
    0.000 999%   0.000 Lip09                                               
   54.258 119%   0.955 MM09                                                
   11.410 594%   0.201 Lip20                                               
    1.726 999% 3.0E-02 MM20                                                
   17.115 252%   0.301 MM12                                                
  795.805  11%  14.009+MM14                                                
    0.000 999%   0.000 MM17                                                
  265.021  59%   4.665 Lip13a+Lip13b                                       
 1.08E+03  12%  18.975 MM14+Lip13a+Lip13b+MM12                             
   54.258 119%   0.955 MM09+Lip09                                          
   13.136 839%   0.231 MM20+Lip20                                          
   6 lines in following misc. output table
  FWHM = 0.046 ppm    S/N =   1                                            
  Data shift = 0.031 ppm                                                   
  Ph: 147 deg      59.6 deg/ppm                                            
  alphaB,S = 8.5E+01,   1.8E+01                                            
   14 spline knots.   Ns = 5(1)                                            
   2 inflections.     1 extrema                                            
  498 points on ppm-axis = NY
      4.000000     3.992357     3.984714     3.977070     3.969427     3.961784     3.954141     3.946497     3.938854     3.931211
      3.923568     3.915925     3.908281     3.900638     3.892995     3.885352     3.877708     3.870065     3.862422     3.854779
      3.847136     3.839492     3.831849     3.824206     3.816563     3.808919     3.801276     3.793633     3.785990     3.778347
      3.770703     3.763060     3.755417     3.747774     3.740130     3.732487     3.724844     3.717201     3.709558     3.701914
      3.694271     3.686628     3.678985     3.671341     3.663698     3.656055     3.648412     3.640769     3.633125     3.625482
      3.617839     3.610196     3.602552     3.594909     3.587266     3.579623     3.571980     3.564336     3.556693     3.549050
      3.541407     3.533763     3.526120     3.518477     3.510834     3.503191     3.495547     3.487904     3.480261     3.472618
      3.464974     3.457331     3.449688     3.442045     3.434402     3.426758     3.419115     3.411472     3.403829     3.396185
      3.388542     3.380899     3.373256     3.365613     3.357969     3.350326     3.342683     3.335040     3.327396     3.319753
      3.312110     3.304467     3.296824     3.289180     3.281537     3.273894     3.266251     3.258607     3.250964     3.243321
      3.235678     3.228034     3.220391     3.212748     3.205105     3.197462     3.189818     3.182175     3.174532     3.166889
      3.159245     3.151602     3.143959     3.136316     3.128673     3.121029     3.113386     3.105743     3.098100     3.090456
      3.082813     3.075170     3.067527     3.059884     3.052240     3.044597     3.036954     3.029311     3.021667     3.014024
      3.006381     2.998738     2.991095     2.983451     2.975808     2.968165     2.960522     2.952878     2.945235     2.937592
      2.929949     2.922306     2.914662     2.907019     2.899376     2.891733     2.884089     2.876446     2.868803     2.861160
      2.853517     2.845873     2.838230     2.830587     2.822944     2.815300     2.807657     2.800014     2.792371     2.784728
      2.777084     2.769441     2.761798     2.754155     2.746511     2.738868     2.731225     2.723582     2.715939     2.708295
      2.700652     2.693009     2.685366     2.677722     2.670079     2.662436     2.654793     2.647150     2.639506     2.631863
      2.624220     2.616577     2.608933     2.601290     2.593647     2.586004     2.578361     2.570717     2.563074     2.555431
      2.547788     2.540144     2.532501     2.524858     2.517215     2.509572     2.501928     2.494285     2.486642     2.478999
      2.471355     2.463712     2.456069     2.448426     2.440783     2.433139     2.425496     2.417853     2.410210     2.402566
      2.394923     2.387280     2.379637     2.371994     2.364350     2.356707     2.349064     2.341421     2.333777     2.326134
      2.318491     2.310848     2.303205     2.295561     2.287918     2.280275     2.272632     2.264988     2.257345     2.249702
      2.242059     2.234416     2.226772     2.219129     2.211486     2.203843     2.196199     2.188556     2.180913     2.173270
      2.165627     2.157983     2.150340     2.142697     2.135054     2.127410     2.119767     2.112124     2.104481     2.096838
      2.089194     2.081551     2.073908     2.066265     2.058621     2.050978     2.043335     2.035692     2.028049     2.020405
      2.012762     2.005119     1.997476     1.989833     1.982190     1.974546     1.966903     1.959260     1.951617     1.943974
      1.936331     1.928688     1.921045     1.913402     1.905759     1.898115     1.890472     1.882829     1.875186     1.867543
      1.859900     1.852257     1.844614     1.836971     1.829327     1.821684     1.814041     1.806398     1.798755     1.791112
      1.783469     1.775826     1.768183     1.760540     1.752896     1.745253     1.737610     1.729967     1.722324     1.714681
      1.707038     1.699395     1.691752     1.684108     1.676465     1.668822     1.661179     1.653536     1.645893     1.638250
      1.630607     1.622964     1.615321     1.607677     1.600034     1.592391     1.584748     1.577105     1.569462     1.561819
      1.554176     1.546533     1.538890     1.531246     1.523603     1.515960     1.508317     1.500674     1.493031     1.485388
      1.477745     1.470102     1.462458     1.454815     1.447172     1.439529     1.431886     1.424243     1.416600     1.408957
      1.401314     1.393671     1.386027     1.378384     1.370741     1.363098     1.355455     1.347812     1.340169     1.332526
      1.324883     1.317240     1.309596     1.301953     1.294310     1.286667     1.279024     1.271381     1.263738     1.256095
      1.248452     1.240808     1.233165     1.225522     1.217879     1.210236     1.202593     1.194950     1.187307     1.179664
      1.172021     1.164377     1.156734     1.149091     1.141448     1.133805     1.126162     1.118519     1.110876     1.103233
      1.095590     1.087946     1.080303     1.072660     1.065017     1.057374     1.049731     1.042088     1.034445     1.026802
      1.019158     1.011515     1.003872     0.996229     0.988586     0.980943     0.973300     0.965657     0.958014     0.950371
      0.942727     0.935084     0.927441     0.919798     0.912155     0.904512     0.896869     0.889226     0.881583     0.873940
      0.866296     0.858653     0.851010     0.843367     0.835724     0.828081     0.820438     0.812795     0.805152     0.797508
      0.789865     0.782222     0.774579     0.766936     0.759293     0.751650     0.744007     0.736364     0.728721     0.721077
      0.713434     0.705791     0.698148     0.690505     0.682862     0.675219     0.667576     0.659933     0.652290     0.644646
      0.637003     0.629360     0.621717     0.614074     0.606431     0.598788     0.591145     0.583502     0.575858     0.568215
      0.560572     0.552929     0.545286     0.537643     0.530000     0.522357     0.514714     0.507071     0.499427     0.491784
      0.484141     0.476498     0.468855     0.461212     0.453569     0.445925     0.438282     0.430639     0.422996     0.415353
      0.407710     0.400067     0.392424     0.384780     0.377137     0.369494     0.361851     0.354208     0.346565     0.338922
      0.331278     0.323635     0.315992     0.308349     0.300706     0.293063     0.285420     0.277777     0.270133     0.262490
      0.254847     0.247204     0.239561     0.231918     0.224275     0.216631     0.208988     0.201345
 NY phased data points follow
   2.54532E+00  6.24011E+00  8.98725E-01 -2.19578E-01  3.46698E+00  4.09376E+00  8.10371E+00  3.93558E+00  2.19427E-01 -7.33967E-01
   3.74945E+00  2.55062E+00  2.29863E+00  3.75458E+00  5.63842E+00  8.31435E+00  4.92687E+00  2.28813E+00  3.68056E+00  3.64139E+00
   4.83904E+00  4.00307E+00  2.58979E+00  2.42208E+00  4.20680E+00  2.45994E+00  3.07169E+00  4.21524E+00  2.18970E+00  7.43001E-01
   2.76004E+00  4.10748E+00  6.39405E+00  3.74219E+00  5.07969E+00  2.44366E-02  1.13280E+00  3.04022E+00  3.62805E+00  1.78965E+00
   1.51344E+00  4.94643E+00  5.39705E+00  2.74907E+00  3.50502E+00  2.88312E+00  6.03461E+00  2.26697E+00  2.63705E+00  3.84902E+00
   5.31710E+00  3.44760E+00  2.21333E+00  7.70973E+00  2.49219E+00  2.67623E+00  3.23661E+00  4.49717E-01  6.34975E+00  3.82627E+00
   7.34034E-01  2.83115E+00  3.44788E+00  1.55343E+00  2.72734E+00  1.65933E+00  3.69428E+00  6.69117E-01  6.94739E+00  3.07847E-01
   4.11084E+00 -1.41743E+00  2.30946E+00 -3.49039E-01  5.21347E+00  8.13561E-01 -8.31296E-01  3.21599E+00  5.76427E+00  3.49299E+00
   2.49825E+00  1.30568E+00  6.43493E-01  1.92410E+00  4.50870E+00  2.79510E+00  7.85113E-01  4.07447E+00  2.12645E+00  3.37413E+00
   2.92386E+00  1.94300E+00  4.40162E+00  3.64719E+00  4.11924E+00 -1.81002E+00  1.46330E+00  6.23866E-01  4.45015E+00  2.93988E+00
   2.96770E+00  6.22567E-01  4.61132E+00  4.26625E+00  8.62451E+00  4.40460E+00 -4.61862E-02  1.64696E+00  1.98769E+00  1.04519E+00
   4.54915E+00  4.43775E+00  3.54722E+00  5.71188E-01  6.95377E-01  2.52275E+00  5.65967E+00  4.42775E+00  4.92946E+00 -2.07778E+00
   1.75094E+00  1.96447E+00 -8.47917E-01  3.32782E+00  1.16138E+00  5.90880E+00  4.80911E+00  3.14321E+00  2.26905E+00  3.12572E+00
   1.03832E+00  2.72210E+00  1.76460E+00  8.94407E-01  3.22134E+00  6.72769E-01  2.71890E-01 -2.49298E-01  6.11241E+00  9.60795E-01
   4.93979E+00  1.65234E+00 -3.03214E-01 -1.84340E-01  5.71378E-01  6.96642E-01 -1.86413E+00  1.57533E+00  1.60518E+00  6.62393E-01
   3.55690E+00 -3.43021E+00  1.32495E+00  1.98675E+00  8.34051E-01  2.35695E+00  4.04218E+00 -5.89662E-01  1.62070E+00  3.10117E+00
   2.77040E+00  1.22451E+00  1.31191E+00 -2.35537E-01 -9.45788E-01  1.57586E+00  2.06517E+00  2.26872E+00  5.15055E+00  1.00287E+00
  -1.49273E+00 -2.46884E-02 -1.45567E+00  2.21233E+00 -3.92669E+00 -4.92095E-01  9.88556E-01 -1.57809E+00  1.33751E+00 -4.62734E-01
   1.06303E+00 -1.03301E+00 -2.31356E+00 -2.12372E+00  1.04469E+00 -7.66017E-01  1.94750E-01  1.85860E-01  4.31846E-01 -2.57429E+00
  -2.06528E+00  5.68777E-01  1.02464E+00  6.01399E-01 -1.70524E+00  2.12950E+00 -9.87855E-01  1.65564E+00  3.51696E-01  1.15975E+00
   4.73840E+00  1.66976E+00  6.85354E-01  3.99389E+00 -3.41353E-01  1.21597E+00  7.06417E-01 -2.78646E+00 -1.34423E-02 -7.04276E-01
   4.69379E-01 -4.58080E-01  7.89221E-01 -1.30058E-01  1.80721E+00  1.21696E+00  2.66404E+00 -6.67577E-01 -2.67932E+00  1.08179E+00
  -2.54322E+00 -1.88848E+00  2.30865E-01  2.33100E+00 -7.34194E-01 -1.54692E+00 -1.54959E+00  5.35583E+00 -3.71757E-01  1.86355E+00
   1.21972E+00  1.04084E+00  2.40452E+00  1.75403E+00  7.26050E-02 -5.16837E-01  6.59241E-01  2.13240E+00  9.19133E-01  3.69345E-01
  -1.98338E+00  2.34294E+00  1.99143E+00 -5.16315E-01  3.62985E+00 -3.55049E-01  2.48113E+00 -1.88186E+00  1.30134E+00  4.61490E-01
   1.23037E+00 -1.12893E+00  3.54800E+00  1.40158E+00  2.51900E+00 -9.97041E-01 -2.48952E+00 -5.19880E-01 -1.80236E+00  4.55364E-01
   7.91906E-01 -8.21385E-02 -1.64994E+00 -2.67562E+00 -4.82015E-01 -1.86181E-01 -6.58671E-01 -3.46150E+00 -1.59335E+00 -1.53920E+00
  -2.80308E+00  3.28220E+00 -4.86521E+00 -3.49570E+00  5.60671E-01 -2.28415E+00  6.65621E-01  8.99591E-01 -3.55659E+00 -2.81338E+00
  -1.14464E-02 -1.08446E+00  5.07974E-01 -1.39348E+00 -1.75894E+00 -3.25369E+00  1.20291E+00 -2.56407E+00  1.33941E+00 -4.41762E-01
   5.67022E-01 -4.87785E-01  3.11956E-01 -8.24141E-01 -1.16660E+00 -3.10670E+00 -2.12153E+00 -2.83240E+00 -3.69874E+00 -2.78960E+00
  -9.15580E-01 -3.31964E+00  2.69326E-02  4.49739E-02 -1.23794E+00 -2.32927E+00 -4.73482E+00 -5.53107E+00 -1.16813E+00 -4.76876E+00
  -2.31218E+00 -6.26932E+00 -3.09542E+00 -4.05606E+00  1.79015E-01  4.00916E-01  5.87797E-02 -1.50531E+00 -3.15834E-01  2.12543E+00
   3.53514E+00 -9.16320E-01  1.96918E+00  3.88349E+00  9.73554E-01  4.76931E-01  9.66018E-01  2.79955E+00  5.87248E+00  5.54151E+00
   5.37924E+00  3.99703E+00  9.11604E+00  7.25493E+00  5.62868E+00  6.22036E+00  4.41801E+00  5.66598E+00  6.97786E+00  5.33162E+00
   4.79867E+00  4.05968E+00  7.45168E+00  7.81347E+00  7.26313E+00  2.96881E+00  6.31845E+00  7.10035E+00  3.79923E+00  7.10861E+00
   3.78602E+00  1.99462E+00  2.91521E+00  2.38611E+00  1.69366E+00  1.82999E+00 -3.66592E+00 -4.83008E-01 -2.53952E+00  6.99625E-01
   2.12016E+00 -6.89327E-01 -5.39883E-01  1.30514E+00  1.21146E+00  6.53040E-01 -5.46237E-01 -3.06881E-01 -2.49364E+00  1.50824E+00
  -8.43572E-01  1.11453E+00 -1.35798E+00 -6.67635E-02  2.20746E+00  3.16612E+00 -2.06736E-01  2.16085E-01  1.20003E+00 -3.49642E+00
   3.09425E-01 -1.99723E+00 -7.05824E-01 -1.55845E+00 -1.86805E+00 -7.28453E-01 -2.24082E+00 -1.08466E+00  1.16981E+00 -1.15964E+00
  -3.14140E+00 -3.56835E+00  4.44287E-01 -8.66416E-01 -2.03849E+00 -4.69790E-01  1.41614E+00 -1.43389E-01  2.45612E-01 -4.46163E+00
   8.38769E-01 -2.37530E+00 -5.53205E-01 -2.73392E+00 -2.62991E+00 -1.75449E+00 -7.90583E-01 -2.49417E+00 -1.30587E+00  4.92701E-01
   8.20653E-01 -7.43536E-01 -1.37570E+00  1.47983E-01 -9.41572E-01 -2.28355E+00 -2.64818E+00 -7.83085E-01  5.70279E-01 -1.59307E+00
  -4.43025E+00 -1.87629E+00 -7.99679E-01  6.89060E-01 -4.29210E+00 -1.73114E+00 -1.14599E+00 -1.91180E+00 -8.58562E-01 -3.45810E+00
  -3.27339E+00 -2.72571E+00 -3.59834E+00 -1.00171E+00 -9.97475E-01  1.44170E-01 -2.09253E+00 -3.79555E+00 -2.80290E+00 -3.06515E+00
  -4.23179E-03 -2.38857E+00 -1.49476E+00 -2.08393E+00 -2.39901E+00 -1.85698E+00 -1.41758E+00  6.31540E-01 -1.70522E+00 -1.44360E+00
   1.48087E-01 -9.44875E-01 -2.91846E+00  1.96644E+00 -1.17427E+00 -1.59509E+00 -3.88931E+00 -1.13623E+00 -8.77198E-01  3.62591E-01
  -1.13637E+00 -1.78392E+00 -1.99614E+00 -1.59966E+00  2.30584E+00 -2.23390E+00 -2.79027E+00 -1.84129E+00 -4.17351E+00  6.63705E-01
  -8.49598E-01 -3.39107E+00  4.23865E-01  7.88763E-01 -1.13228E+00 -1.86660E+00  6.77227E-01 -2.33650E+00 -1.20093E+00 -2.23751E+00
  -3.02048E+00 -2.99923E+00 -1.67525E-01 -3.06436E+00  2.58141E-01  1.85599E+00 -2.59825E+00 -1.88227E+00  1.68678E+00  1.98121E+00
   2.54780E-01 -1.72536E+00  1.34206E+00  1.90825E+00 -1.62124E+00  1.50472E+00  6.98058E-01  1.58838E+00
 NY points of the fit to the data follow
   2.88337E+00  2.80456E+00  2.75824E+00  2.74693E+00  2.74784E+00  2.77121E+00  2.90829E+00  3.16761E+00  3.43860E+00  3.69006E+00
   3.89343E+00  3.99293E+00  3.95581E+00  3.79181E+00  3.56007E+00  3.32707E+00  3.11724E+00  2.94439E+00  2.85162E+00  2.84245E+00
   2.87748E+00  2.91170E+00  2.88415E+00  2.77138E+00  2.60933E+00  2.45157E+00  2.34323E+00  2.39810E+00  2.63710E+00  2.99460E+00
   3.36673E+00  3.64131E+00  3.73981E+00  3.62293E+00  3.33489E+00  2.97766E+00  2.63953E+00  2.39741E+00  2.28567E+00  2.29830E+00
   2.38384E+00  2.52249E+00  2.75316E+00  3.08299E+00  3.42714E+00  3.70563E+00  3.88426E+00  3.92143E+00  3.77189E+00  3.45815E+00
   3.06854E+00  2.69747E+00  2.39393E+00  2.18012E+00  2.10639E+00  2.17844E+00  2.32777E+00  2.49703E+00  2.63624E+00  2.71659E+00
   2.71882E+00  2.63746E+00  2.50235E+00  2.35447E+00  2.23034E+00  2.14622E+00  2.11970E+00  2.16629E+00  2.25128E+00  2.34058E+00
   2.41348E+00  2.45914E+00  2.46727E+00  2.43715E+00  2.38113E+00  2.31269E+00  2.24426E+00  2.17937E+00  2.12171E+00  2.08094E+00
   2.05338E+00  2.03035E+00  1.98306E+00  1.89738E+00  1.77572E+00  1.63615E+00  1.49952E+00  1.39019E+00  1.33298E+00  1.34386E+00
   1.41162E+00  1.51915E+00  1.63797E+00  1.73439E+00  1.78964E+00  1.79949E+00  1.78677E+00  1.86821E+00  2.30884E+00  2.95978E+00
   3.61238E+00  4.21161E+00  4.62310E+00  4.71223E+00  4.44020E+00  3.88982E+00  3.24050E+00  2.63491E+00  2.11161E+00  1.71642E+00
   1.53703E+00  1.48382E+00  1.45787E+00  1.43945E+00  1.42173E+00  1.40246E+00  1.38239E+00  1.36372E+00  1.34779E+00  1.33899E+00
   1.34721E+00  1.41147E+00  1.67226E+00  2.09925E+00  2.53078E+00  2.92177E+00  3.20901E+00  3.30591E+00  3.18277E+00  2.88035E+00
   2.48862E+00  2.10066E+00  1.75030E+00  1.45363E+00  1.27110E+00  1.18834E+00  1.14177E+00  1.12204E+00  1.12216E+00  1.13486E+00
   1.15394E+00  1.17213E+00  1.17993E+00  1.17496E+00  1.16068E+00  1.13970E+00  1.11574E+00  1.09189E+00  1.06960E+00  1.04986E+00
   1.03100E+00  1.01360E+00  9.98413E-01  9.85496E-01  9.73801E-01  9.61841E-01  9.50349E-01  9.39154E-01  9.27644E-01  9.15636E-01
   9.03568E-01  8.91989E-01  8.82349E-01  8.74789E-01  8.69001E-01  8.64782E-01  8.61104E-01  8.56858E-01  8.51762E-01  8.45484E-01
   8.38042E-01  8.29013E-01  8.18082E-01  8.05173E-01  7.90794E-01  7.75267E-01  7.58990E-01  7.42917E-01  7.27706E-01  7.15431E-01
   7.05245E-01  6.95349E-01  6.86859E-01  6.79830E-01  6.73747E-01  6.71741E-01  6.76314E-01  6.86430E-01  6.93539E-01  6.80335E-01
   6.46813E-01  5.79128E-01  4.72797E-01  3.48998E-01  2.35951E-01  1.60065E-01  1.62402E-01  2.69952E-01  4.65524E-01  7.07817E-01
   9.78604E-01  1.21940E+00  1.35041E+00  1.34473E+00  1.15606E+00  7.31564E-01  2.06296E-01 -2.69785E-01 -6.19071E-01 -7.38515E-01
  -5.49273E-01 -4.17740E-02  5.96916E-01  1.19329E+00  1.62237E+00  1.80652E+00  1.67138E+00  1.17985E+00  5.08571E-01 -9.62995E-02
  -5.30633E-01 -7.56152E-01 -7.14547E-01 -4.19780E-01 -3.60505E-03  4.06514E-01  7.14965E-01  8.93591E-01  9.51194E-01  8.92264E-01
   7.46736E-01  5.49637E-01  3.77806E-01  2.74349E-01  2.36364E-01  2.59898E-01  3.69962E-01  5.16170E-01  5.91802E-01  5.97879E-01
   5.33377E-01  3.91777E-01  2.04259E-01  1.53334E-02 -1.36972E-01 -2.34927E-01 -2.77260E-01 -2.64980E-01 -1.85854E-01 -6.64198E-02
   5.61471E-02  1.80064E-01  2.80539E-01  3.15180E-01  2.83774E-01  2.21252E-01  1.49951E-01  8.63972E-02  5.98195E-02  8.87506E-02
   1.45734E-01  2.06031E-01  2.56420E-01  2.79788E-01  2.69811E-01  2.27846E-01  1.64835E-01  9.89546E-02  4.64079E-02  1.22407E-02
  -1.63676E-03  6.94933E-03  2.78268E-02  5.33551E-02  7.68654E-02  8.78834E-02  8.30454E-02  6.58881E-02  3.91415E-02  6.49187E-03
  -2.43403E-02 -4.79663E-02 -6.47557E-02 -7.70252E-02 -8.63471E-02 -9.38498E-02 -1.01195E-01 -1.10072E-01 -1.20378E-01 -1.31372E-01
  -1.42698E-01 -1.54230E-01 -1.65732E-01 -1.76812E-01 -1.87394E-01 -1.97738E-01 -2.07739E-01 -2.17193E-01 -2.26084E-01 -2.34488E-01
  -2.42326E-01 -2.49520E-01 -2.55979E-01 -2.61576E-01 -2.66074E-01 -2.69112E-01 -2.70144E-01 -2.68477E-01 -2.63266E-01 -2.53445E-01
  -2.37653E-01 -2.14384E-01 -1.81879E-01 -1.38083E-01 -8.07086E-02 -7.26714E-03  8.48894E-02  1.98462E-01  3.36099E-01  5.00231E-01
   6.92922E-01  9.15661E-01  1.16918E+00  1.45325E+00  1.76651E+00  2.10633E+00  2.46873E+00  2.84835E+00  3.23852E+00  3.63142E+00
   4.01830E+00  4.38979E+00  4.73630E+00  5.04842E+00  5.31741E+00  5.53559E+00  5.69677E+00  5.79656E+00  5.83260E+00  5.80468E+00
   5.71475E+00  5.56676E+00  5.36645E+00  5.12098E+00  4.83860E+00  4.52813E+00  4.19857E+00  3.85863E+00  3.51643E+00  3.17911E+00
   2.85270E+00  2.54194E+00  2.25026E+00  1.97983E+00  1.73166E+00  1.50575E+00  1.30131E+00  1.11695E+00  9.50871E-01  8.01045E-01
   6.65409E-01  5.41961E-01  4.28875E-01  3.24542E-01  2.27620E-01  1.37019E-01  5.19133E-02 -2.83122E-02 -1.04076E-01 -1.75662E-01
  -2.43237E-01 -3.06901E-01 -3.66701E-01 -4.22669E-01 -4.74827E-01 -5.23211E-01 -5.67864E-01 -6.08845E-01 -6.46220E-01 -6.80070E-01
  -7.10475E-01 -7.37526E-01 -7.61303E-01 -7.81892E-01 -7.99365E-01 -8.13802E-01 -8.25283E-01 -8.33905E-01 -8.39775E-01 -8.43030E-01
  -8.43842E-01 -8.42432E-01 -8.39070E-01 -8.34092E-01 -8.27884E-01 -8.20898E-01 -8.13630E-01 -8.06624E-01 -8.00443E-01 -7.95657E-01
  -7.92812E-01 -7.92413E-01 -7.94895E-01 -8.00613E-01 -8.09807E-01 -8.22606E-01 -8.39003E-01 -8.58881E-01 -8.81998E-01 -9.08023E-01
  -9.36535E-01 -9.67062E-01 -9.99090E-01 -1.03211E+00 -1.06561E+00 -1.09914E+00 -1.13227E+00 -1.16465E+00 -1.19599E+00 -1.22608E+00
  -1.25476E+00 -1.28196E+00 -1.30764E+00 -1.33182E+00 -1.35453E+00 -1.37587E+00 -1.39593E+00 -1.41482E+00 -1.43265E+00 -1.44953E+00
  -1.46556E+00 -1.48085E+00 -1.49549E+00 -1.50957E+00 -1.52315E+00 -1.53630E+00 -1.54907E+00 -1.56153E+00 -1.57370E+00 -1.58563E+00
  -1.59733E+00 -1.60885E+00 -1.62020E+00 -1.63140E+00 -1.64247E+00 -1.65342E+00 -1.66426E+00 -1.67501E+00 -1.68567E+00 -1.69626E+00
  -1.70678E+00 -1.71723E+00 -1.72762E+00 -1.73795E+00 -1.74824E+00 -1.75848E+00 -1.76867E+00 -1.77883E+00 -1.78895E+00 -1.79903E+00
  -1.80909E+00 -1.81911E+00 -1.82911E+00 -1.83908E+00 -1.84902E+00 -1.85894E+00 -1.86883E+00 -1.87871E+00 -1.88857E+00 -1.89841E+00
  -1.90823E+00 -1.91804E+00 -1.92783E+00 -1.93761E+00 -1.94737E+00 -1.95711E+00 -1.96684E+00 -1.97657E+00 -1.98627E+00 -1.99597E+00
  -2.00566E+00 -2.01533E+00 -2.02500E+00 -2.03465E+00 -2.04430E+00 -2.05394E+00 -2.06356E+00 -2.07318E+00 -2.08279E+00 -2.09239E+00
  -2.10198E+00 -2.11157E+00 -2.12114E+00 -2.13071E+00 -2.14026E+00 -2.14981E+00 -2.15935E+00 -2.16887E+00
 NY background values follow
     2.451E+00    2.441E+00    2.432E+00    2.423E+00    2.414E+00    2.404E+00    2.395E+00    2.386E+00    2.376E+00    2.367E+00
     2.358E+00    2.348E+00    2.339E+00    2.330E+00    2.320E+00    2.311E+00    2.302E+00    2.292E+00    2.283E+00    2.274E+00
     2.264E+00    2.255E+00    2.246E+00    2.236E+00    2.227E+00    2.218E+00    2.208E+00    2.199E+00    2.190E+00    2.180E+00
     2.171E+00    2.162E+00    2.152E+00    2.143E+00    2.134E+00    2.124E+00    2.115E+00    2.106E+00    2.096E+00    2.087E+00
     2.078E+00    2.068E+00    2.059E+00    2.050E+00    2.040E+00    2.031E+00    2.022E+00    2.012E+00    2.003E+00    1.994E+00
     1.984E+00    1.975E+00    1.966E+00    1.956E+00    1.947E+00    1.938E+00    1.928E+00    1.919E+00    1.910E+00    1.900E+00
     1.891E+00    1.882E+00    1.872E+00    1.863E+00    1.854E+00    1.844E+00    1.835E+00    1.826E+00    1.816E+00    1.807E+00
     1.798E+00    1.788E+00    1.779E+00    1.770E+00    1.760E+00    1.751E+00    1.742E+00    1.732E+00    1.723E+00    1.714E+00
     1.704E+00    1.695E+00    1.686E+00    1.676E+00    1.667E+00    1.658E+00    1.648E+00    1.639E+00    1.630E+00    1.620E+00
     1.611E+00    1.602E+00    1.592E+00    1.583E+00    1.574E+00    1.564E+00    1.555E+00    1.546E+00    1.536E+00    1.527E+00
     1.518E+00    1.508E+00    1.499E+00    1.490E+00    1.480E+00    1.471E+00    1.462E+00    1.452E+00    1.443E+00    1.434E+00
     1.424E+00    1.415E+00    1.406E+00    1.396E+00    1.387E+00    1.378E+00    1.368E+00    1.359E+00    1.350E+00    1.340E+00
     1.331E+00    1.322E+00    1.312E+00    1.303E+00    1.294E+00    1.284E+00    1.275E+00    1.266E+00    1.256E+00    1.247E+00
     1.238E+00    1.228E+00    1.219E+00    1.210E+00    1.200E+00    1.191E+00    1.182E+00    1.172E+00    1.163E+00    1.154E+00
     1.144E+00    1.135E+00    1.126E+00    1.116E+00    1.107E+00    1.098E+00    1.088E+00    1.079E+00    1.070E+00    1.060E+00
     1.051E+00    1.042E+00    1.032E+00    1.023E+00    1.014E+00    1.004E+00    9.950E-01    9.857E-01    9.763E-01    9.670E-01
     9.577E-01    9.483E-01    9.390E-01    9.297E-01    9.203E-01    9.110E-01    9.017E-01    8.924E-01    8.830E-01    8.737E-01
     8.644E-01    8.550E-01    8.457E-01    8.364E-01    8.270E-01    8.177E-01    8.084E-01    7.990E-01    7.897E-01    7.804E-01
     7.710E-01    7.617E-01    7.524E-01    7.430E-01    7.337E-01    7.244E-01    7.150E-01    7.057E-01    6.964E-01    6.870E-01
     6.777E-01    6.684E-01    6.591E-01    6.497E-01    6.404E-01    6.311E-01    6.217E-01    6.124E-01    6.031E-01    5.937E-01
     5.844E-01    5.751E-01    5.657E-01    5.564E-01    5.471E-01    5.377E-01    5.284E-01    5.191E-01    5.097E-01    5.004E-01
     4.911E-01    4.817E-01    4.724E-01    4.631E-01    4.538E-01    4.444E-01    4.351E-01    4.258E-01    4.164E-01    4.071E-01
     3.978E-01    3.884E-01    3.791E-01    3.698E-01    3.604E-01    3.511E-01    3.418E-01    3.324E-01    3.231E-01    3.138E-01
     3.044E-01    2.951E-01    2.858E-01    2.764E-01    2.671E-01    2.578E-01    2.485E-01    2.391E-01    2.298E-01    2.205E-01
     2.111E-01    2.018E-01    1.925E-01    1.831E-01    1.738E-01    1.645E-01    1.551E-01    1.458E-01    1.365E-01    1.271E-01
     1.178E-01    1.085E-01    9.915E-02    8.982E-02    8.049E-02    7.116E-02    6.183E-02    5.250E-02    4.317E-02    3.383E-02
     2.450E-02    1.517E-02    5.840E-03   -3.491E-03   -1.282E-02   -2.215E-02   -3.148E-02   -4.082E-02   -5.015E-02   -5.948E-02
    -6.881E-02   -7.814E-02   -8.747E-02   -9.680E-02   -1.061E-01   -1.155E-01   -1.248E-01   -1.341E-01   -1.435E-01   -1.528E-01
    -1.621E-01   -1.715E-01   -1.808E-01   -1.901E-01   -1.994E-01   -2.088E-01   -2.181E-01   -2.274E-01   -2.368E-01   -2.461E-01
    -2.554E-01   -2.648E-01   -2.741E-01   -2.834E-01   -2.928E-01   -3.021E-01   -3.114E-01   -3.207E-01   -3.301E-01   -3.394E-01
    -3.487E-01   -3.581E-01   -3.674E-01   -3.767E-01   -3.861E-01   -3.954E-01   -4.047E-01   -4.141E-01   -4.234E-01   -4.327E-01
    -4.420E-01   -4.514E-01   -4.607E-01   -4.700E-01   -4.794E-01   -4.887E-01   -4.980E-01   -5.074E-01   -5.167E-01   -5.260E-01
    -5.353E-01   -5.447E-01   -5.540E-01   -5.633E-01   -5.727E-01   -5.820E-01   -5.913E-01   -6.007E-01   -6.100E-01   -6.193E-01
    -6.287E-01   -6.380E-01   -6.473E-01   -6.566E-01   -6.660E-01   -6.753E-01   -6.846E-01   -6.940E-01   -7.033E-01   -7.126E-01
    -7.220E-01   -7.313E-01   -7.406E-01   -7.499E-01   -7.593E-01   -7.686E-01   -7.779E-01   -7.873E-01   -7.966E-01   -8.059E-01
    -8.153E-01   -8.246E-01   -8.339E-01   -8.432E-01   -8.526E-01   -8.619E-01   -8.712E-01   -8.806E-01   -8.899E-01   -8.992E-01
    -9.086E-01   -9.179E-01   -9.272E-01   -9.365E-01   -9.459E-01   -9.552E-01   -9.645E-01   -9.739E-01   -9.832E-01   -9.925E-01
    -1.002E+00   -1.011E+00   -1.021E+00   -1.030E+00   -1.039E+00   -1.049E+00   -1.058E+00   -1.067E+00   -1.076E+00   -1.086E+00
    -1.095E+00   -1.104E+00   -1.114E+00   -1.123E+00   -1.132E+00   -1.142E+00   -1.151E+00   -1.160E+00   -1.170E+00   -1.179E+00
    -1.188E+00   -1.198E+00   -1.207E+00   -1.216E+00   -1.226E+00   -1.235E+00   -1.244E+00   -1.254E+00   -1.263E+00   -1.272E+00
    -1.282E+00   -1.291E+00   -1.300E+00   -1.310E+00   -1.319E+00   -1.328E+00   -1.338E+00   -1.347E+00   -1.356E+00   -1.366E+00
    -1.375E+00   -1.384E+00   -1.394E+00   -1.403E+00   -1.412E+00   -1.422E+00   -1.431E+00   -1.440E+00   -1.450E+00   -1.459E+00
    -1.468E+00   -1.478E+00   -1.487E+00   -1.496E+00   -1.506E+00   -1.515E+00   -1.524E+00   -1.534E+00   -1.543E+00   -1.552E+00
    -1.562E+00   -1.571E+00   -1.580E+00   -1.590E+00   -1.599E+00   -1.608E+00   -1.618E+00   -1.627E+00   -1.636E+00   -1.646E+00
    -1.655E+00   -1.664E+00   -1.674E+00   -1.683E+00   -1.692E+00   -1.702E+00   -1.711E+00   -1.720E+00   -1.730E+00   -1.739E+00
    -1.748E+00   -1.758E+00   -1.767E+00   -1.776E+00   -1.786E+00   -1.795E+00   -1.804E+00   -1.814E+00   -1.823E+00   -1.832E+00
    -1.842E+00   -1.851E+00   -1.860E+00   -1.870E+00   -1.879E+00   -1.888E+00   -1.898E+00   -1.907E+00   -1.916E+00   -1.925E+00
    -1.935E+00   -1.944E+00   -1.953E+00   -1.963E+00   -1.972E+00   -1.981E+00   -1.991E+00   -2.000E+00   -2.009E+00   -2.019E+00
    -2.028E+00   -2.037E+00   -2.047E+00   -2.056E+00   -2.065E+00   -2.075E+00   -2.084E+00   -2.093E+00   -2.103E+00   -2.112E+00
    -2.121E+00   -2.131E+00   -2.140E+00   -2.149E+00   -2.159E+00   -2.168E+00   -2.177E+00   -2.187E+00
 Asp      Conc. = 7.70E+00
