 LCModel (Version 6.3-1L) Copyright: S.W. Provencher.          Ref.: Magn. Reson. Med. 30:672-679 (1993).                
 Slice#2 Row#12 Col#9  PD_05_press_2_raw_act
 36 lines in following concentration table = NCONC+1
    Conc.  %SD /Cr+PCr  Metabolite                                         
  250.688 101%   1.832 Ala                                                 
   22.665  61%   0.166 Asp                                                 
  136.864  31%   1.000 Cr                                                  
    0.000 999%   0.000 PCr                                                 
   14.042  59%   0.103 GABA                                                
   13.901  60%   0.102 Glc                                                 
 1.00E+03  37%   7.322 Gln                                                 
   72.560 604%   0.530 Glu                                                 
   27.198  57%   0.199 GPC                                                 
    0.000 999%   0.000 PCh                                                 
    0.000 999%   0.000 GSH                                                 
  148.132 113%   1.082 Ins                                                 
 1.35E+03  21%   9.853 Lac                                                 
  248.685  22%   1.817 NAA                                                 
    0.000 999%   0.000 NAAG                                                
    4.691  59% 3.4E-02 Scyllo                                              
   23.042  59%   0.168 Tau                                                 
   20.789 144%   0.152 -CrCH2                                              
   27.198  57%   0.199 GPC+PCh                                             
  248.685  22%   1.817 NAA+NAAG                                            
  136.864  31%   1.000 Cr+PCr                                              
 1.07E+03  55%   7.852 Glu+Gln                                             
    0.000 999%   0.000 Lip13a                                              
  302.391  23%   2.209 Lip13b                                              
   80.737  23%   0.590 Lip09                                               
  172.771  36%   1.262 MM09                                                
   45.359  23%   0.331 Lip20                                               
  243.194  49%   1.777 MM20                                                
   42.433  77%   0.310 MM12                                                
  466.070  21%   3.405 MM14                                                
    0.000 999%   0.000 MM17                                                
  302.391  23%   2.209 Lip13a+Lip13b                                       
  810.894  15%   5.925 MM14+Lip13a+Lip13b+MM12                             
  253.508  25%   1.852 MM09+Lip09                                          
  288.553  41%   2.108 MM20+Lip20                                          
   6 lines in following misc. output table
  FWHM = 0.153 ppm    S/N =   2                                            
  Data shift = 0.031 ppm                                                   
  Ph: 172 deg      -4.0 deg/ppm                                            
  alphaB,S = 8.5E+01,   1.0E+02                                            
   14 spline knots.   Ns = 8(2)                                            
   2 inflections.     1 extrema                                            
  498 points on ppm-axis = NY
      4.000000     3.992357     3.984714     3.977070     3.969427     3.961784     3.954141     3.946497     3.938854     3.931211
      3.923568     3.915925     3.908281     3.900638     3.892995     3.885352     3.877708     3.870065     3.862422     3.854779
      3.847136     3.839492     3.831849     3.824206     3.816563     3.808919     3.801276     3.793633     3.785990     3.778347
      3.770703     3.763060     3.755417     3.747774     3.740130     3.732487     3.724844     3.717201     3.709558     3.701914
      3.694271     3.686628     3.678985     3.671341     3.663698     3.656055     3.648412     3.640769     3.633125     3.625482
      3.617839     3.610196     3.602552     3.594909     3.587266     3.579623     3.571980     3.564336     3.556693     3.549050
      3.541407     3.533763     3.526120     3.518477     3.510834     3.503191     3.495547     3.487904     3.480261     3.472618
      3.464974     3.457331     3.449688     3.442045     3.434402     3.426758     3.419115     3.411472     3.403829     3.396185
      3.388542     3.380899     3.373256     3.365613     3.357969     3.350326     3.342683     3.335040     3.327396     3.319753
      3.312110     3.304467     3.296824     3.289180     3.281537     3.273894     3.266251     3.258607     3.250964     3.243321
      3.235678     3.228034     3.220391     3.212748     3.205105     3.197462     3.189818     3.182175     3.174532     3.166889
      3.159245     3.151602     3.143959     3.136316     3.128673     3.121029     3.113386     3.105743     3.098100     3.090456
      3.082813     3.075170     3.067527     3.059884     3.052240     3.044597     3.036954     3.029311     3.021667     3.014024
      3.006381     2.998738     2.991095     2.983451     2.975808     2.968165     2.960522     2.952878     2.945235     2.937592
      2.929949     2.922306     2.914662     2.907019     2.899376     2.891733     2.884089     2.876446     2.868803     2.861160
      2.853517     2.845873     2.838230     2.830587     2.822944     2.815300     2.807657     2.800014     2.792371     2.784728
      2.777084     2.769441     2.761798     2.754155     2.746511     2.738868     2.731225     2.723582     2.715939     2.708295
      2.700652     2.693009     2.685366     2.677722     2.670079     2.662436     2.654793     2.647150     2.639506     2.631863
      2.624220     2.616577     2.608933     2.601290     2.593647     2.586004     2.578361     2.570717     2.563074     2.555431
      2.547788     2.540144     2.532501     2.524858     2.517215     2.509572     2.501928     2.494285     2.486642     2.478999
      2.471355     2.463712     2.456069     2.448426     2.440783     2.433139     2.425496     2.417853     2.410210     2.402566
      2.394923     2.387280     2.379637     2.371994     2.364350     2.356707     2.349064     2.341421     2.333777     2.326134
      2.318491     2.310848     2.303205     2.295561     2.287918     2.280275     2.272632     2.264988     2.257345     2.249702
      2.242059     2.234416     2.226772     2.219129     2.211486     2.203843     2.196199     2.188556     2.180913     2.173270
      2.165627     2.157983     2.150340     2.142697     2.135054     2.127410     2.119767     2.112124     2.104481     2.096838
      2.089194     2.081551     2.073908     2.066265     2.058621     2.050978     2.043335     2.035692     2.028049     2.020405
      2.012762     2.005119     1.997476     1.989833     1.982190     1.974546     1.966903     1.959260     1.951617     1.943974
      1.936331     1.928688     1.921045     1.913402     1.905759     1.898115     1.890472     1.882829     1.875186     1.867543
      1.859900     1.852257     1.844614     1.836971     1.829327     1.821684     1.814041     1.806398     1.798755     1.791112
      1.783469     1.775826     1.768183     1.760540     1.752896     1.745253     1.737610     1.729967     1.722324     1.714681
      1.707038     1.699395     1.691752     1.684108     1.676465     1.668822     1.661179     1.653536     1.645893     1.638250
      1.630607     1.622964     1.615321     1.607677     1.600034     1.592391     1.584748     1.577105     1.569462     1.561819
      1.554176     1.546533     1.538890     1.531246     1.523603     1.515960     1.508317     1.500674     1.493031     1.485388
      1.477745     1.470102     1.462458     1.454815     1.447172     1.439529     1.431886     1.424243     1.416600     1.408957
      1.401314     1.393671     1.386027     1.378384     1.370741     1.363098     1.355455     1.347812     1.340169     1.332526
      1.324883     1.317240     1.309596     1.301953     1.294310     1.286667     1.279024     1.271381     1.263738     1.256095
      1.248452     1.240808     1.233165     1.225522     1.217879     1.210236     1.202593     1.194950     1.187307     1.179664
      1.172021     1.164377     1.156734     1.149091     1.141448     1.133805     1.126162     1.118519     1.110876     1.103233
      1.095590     1.087946     1.080303     1.072660     1.065017     1.057374     1.049731     1.042088     1.034445     1.026802
      1.019158     1.011515     1.003872     0.996229     0.988586     0.980943     0.973300     0.965657     0.958014     0.950371
      0.942727     0.935084     0.927441     0.919798     0.912155     0.904512     0.896869     0.889226     0.881583     0.873940
      0.866296     0.858653     0.851010     0.843367     0.835724     0.828081     0.820438     0.812795     0.805152     0.797508
      0.789865     0.782222     0.774579     0.766936     0.759293     0.751650     0.744007     0.736364     0.728721     0.721077
      0.713434     0.705791     0.698148     0.690505     0.682862     0.675219     0.667576     0.659933     0.652290     0.644646
      0.637003     0.629360     0.621717     0.614074     0.606431     0.598788     0.591145     0.583502     0.575858     0.568215
      0.560572     0.552929     0.545286     0.537643     0.530000     0.522357     0.514714     0.507071     0.499427     0.491784
      0.484141     0.476498     0.468855     0.461212     0.453569     0.445925     0.438282     0.430639     0.422996     0.415353
      0.407710     0.400067     0.392424     0.384780     0.377137     0.369494     0.361851     0.354208     0.346565     0.338922
      0.331278     0.323635     0.315992     0.308349     0.300706     0.293063     0.285420     0.277777     0.270133     0.262490
      0.254847     0.247204     0.239561     0.231918     0.224275     0.216631     0.208988     0.201345
 NY phased data points follow
  -9.30741E-01 -3.73851E+00 -2.16108E+00 -5.07880E-01  1.60749E+00 -3.54941E+00  7.51349E-01  9.63379E-01  2.56780E+00 -1.56480E+00
   1.17545E+00 -3.46999E+00  3.44521E+00 -2.56595E+00  4.93941E-01 -2.02050E+00  9.23026E-01  9.05927E-01  1.05720E+00 -3.42665E+00
   1.83032E+00 -2.15118E-01  1.50422E+00  1.74571E+00 -4.83578E+00 -1.65083E+00  9.11981E-01 -2.17988E+00 -1.07169E+00 -1.02781E+00
   2.27315E-01  2.03475E+00 -6.74651E+00  1.33169E+00 -7.68940E-01  1.05642E+00 -1.40404E+00 -7.74956E-01  8.08757E-01  2.43657E-01
  -1.21588E+00 -2.10264E+00  1.54388E+00 -4.52509E-01  8.07644E-01 -6.84967E-01 -8.44364E-01 -1.56441E+00 -1.51647E+00  2.01954E+00
   6.43946E-01  8.47718E-01 -9.62022E-01 -9.63578E-01  1.89364E+00 -2.09447E+00 -9.79173E-01 -1.64939E+00 -3.56615E+00  2.04031E+00
   2.19321E+00 -3.44555E+00 -3.31937E-01 -2.58742E+00  3.14914E-01 -7.16737E-01 -1.37628E+00 -9.20289E-01 -4.12550E+00 -3.35338E+00
   3.60249E-01 -1.67870E+00  3.34975E-02 -2.44012E+00 -3.10969E+00 -8.58687E-01  3.01259E+00 -2.76703E-01 -4.28030E+00  1.27968E+00
   1.03690E+00 -1.01874E+00 -1.73226E+00 -4.06233E-01 -3.91093E+00 -1.43807E+00 -7.67148E-01 -2.40844E+00  2.04770E+00 -3.66049E-02
  -5.49295E-01 -1.24319E+00 -2.04887E+00 -1.94152E+00 -1.01392E+00  2.24959E-01  8.87164E-01 -2.54850E+00  6.66876E-01 -1.38384E+00
  -3.50974E+00  1.12243E+00 -4.78625E-01 -2.30877E+00  2.03341E+00  3.31367E+00 -2.04841E+00  1.33395E-02 -2.03966E+00  2.31576E-01
  -1.31748E+00  3.32880E+00 -2.16664E+00 -1.29945E+00  2.91672E+00 -2.76985E-01 -7.48762E-01  3.89793E-01  1.62332E+00 -1.68425E-01
   4.02777E-01  1.02989E+00 -7.46206E-01  3.37038E+00  1.29773E+00  1.75847E+00  1.39730E+00  2.61285E+00  9.46205E-01 -2.93584E+00
   9.27149E-01 -6.79078E-01  5.86842E-01 -8.55579E-01 -5.36288E-01 -9.38144E-01 -6.82845E-01  8.96091E-01 -4.24995E+00 -9.64539E-01
  -2.04423E+00 -8.07907E-02 -3.93244E-01 -1.54981E+00 -7.44462E-01 -1.72803E+00 -2.66110E+00 -8.80900E-01 -7.49395E-01 -5.09834E-01
  -1.57614E+00 -2.43195E+00 -8.78170E-01 -1.94696E+00 -1.09244E-01 -6.90485E-01 -8.59639E-01 -3.95508E+00 -8.25317E-01 -2.76339E-01
  -4.37377E-01  1.06564E+00  8.49439E-01 -3.29622E-01  2.51491E+00  1.87764E+00 -1.28248E+00 -3.87134E+00 -1.12598E+00  3.80785E-02
  -1.28387E+00 -7.09802E-01 -1.24929E+00 -2.24865E+00 -1.01863E+00 -6.55425E-01 -3.19765E+00 -4.87605E+00  1.48409E-01 -2.10136E+00
  -2.08203E+00 -1.67550E-01 -2.95708E+00 -2.44149E+00 -1.05286E+00 -1.50057E+00 -3.86205E+00  9.53435E-02 -4.30763E+00 -1.09673E+00
  -5.47698E+00 -1.60880E+00 -2.29602E+00  3.82852E-01 -1.05043E+00 -2.53160E+00 -4.59035E-03 -7.96870E-01 -3.25739E+00 -2.93117E+00
  -3.00799E+00 -4.37713E+00  2.20009E+00  7.14641E-01 -1.54774E+00  2.07942E-01 -2.21433E+00 -1.77045E+00 -2.58596E+00  1.67517E+00
   2.41003E+00 -1.96083E+00 -1.76451E+00 -2.80677E+00 -5.39917E-01  1.19951E+00 -1.50044E+00 -1.51653E+00  2.82093E+00 -3.05525E-01
  -1.08603E+00 -1.01811E+00 -3.18101E-03  5.53680E-02  3.84682E-01 -2.34154E+00 -7.05794E-01 -8.01827E-01  4.63553E+00  1.64370E-01
   5.77504E-02  3.89919E-02  1.48467E+00  1.00862E+00  1.17039E+00  2.99603E+00 -1.42239E+00  3.79270E-01  3.16493E+00 -1.71981E+00
   9.51971E-01  2.79133E+00 -2.69678E-01 -2.03734E+00  2.42536E-01  3.54270E+00 -3.05090E+00  2.79234E+00  2.31798E+00 -2.43551E+00
   2.61898E+00  1.42811E+00  1.41717E+00  8.41611E-01  4.90665E-01  5.28662E+00  1.67197E+00  2.03130E+00  4.21755E+00  5.78813E+00
   6.67090E+00  6.88070E+00  5.55944E+00  4.13930E+00  4.50943E+00  2.35207E+00  7.65221E-01  1.74719E+00 -2.49903E-01  1.36699E-01
   1.68816E+00 -1.10157E+00  2.60575E+00  8.03367E-01 -5.18917E-01  2.76573E+00  4.40122E-01 -1.53867E+00 -2.84418E+00  1.26363E+00
   2.54819E+00  1.28886E+00 -1.60286E+00 -2.82415E-01  1.47076E-01 -2.18115E+00 -9.68216E-01 -1.09352E+00 -1.43268E+00 -3.54074E+00
  -1.89782E+00 -2.83894E-01 -4.15087E-01 -9.43587E-01 -1.62053E+00 -1.88027E+00 -2.88266E+00 -1.59599E+00 -1.47534E+00 -6.07611E-01
   3.48682E-01 -2.93899E+00 -9.33417E-01 -2.34321E+00  6.89123E-01 -8.29658E-01  1.11680E+00  1.10371E+00 -5.16297E-01 -6.90443E-02
  -1.11799E+00 -2.00575E+00 -1.89892E+00  7.81693E-01 -5.40310E-02  1.94426E+00 -2.78815E+00  3.31353E+00  4.24473E-01  2.72798E+00
   2.69634E+00  1.16618E+00  1.24992E+00  7.12654E-02 -2.45205E-01  6.37385E+00  2.88721E+00  5.15945E+00  2.78716E+00  3.34053E+00
   5.02277E+00  9.03114E+00  7.33425E+00  6.96826E+00  5.26816E+00  1.12402E+01  5.87339E+00  6.37854E+00  8.90802E+00  6.20944E+00
   8.63989E+00  5.96168E+00  9.87328E+00  7.99406E+00  9.74945E+00  4.49622E+00  6.54737E+00  6.71546E+00  1.02507E+01  1.11798E+01
   6.22815E+00  7.50450E+00  8.54370E+00  5.43415E+00  5.91946E+00  4.57328E+00  7.09394E+00  3.00166E+00  1.24797E+00  7.22348E-01
   6.07431E+00  3.87442E+00  1.90183E-01  2.34575E+00  5.21376E+00  2.03821E+00  3.42643E+00  4.25793E+00  2.78298E+00  1.11649E+00
  -1.78280E+00 -9.87402E-01  2.56363E+00  2.41813E+00  2.01360E+00 -4.70950E-01 -2.61758E-01  2.89492E+00 -7.24257E-01  2.89912E+00
  -3.38729E+00 -6.99350E-01  4.17701E+00  2.06413E+00  1.64659E+00  4.99731E-01  2.54142E-02  2.22279E+00 -5.33228E-01 -1.54375E+00
   2.15664E+00  2.04340E+00  3.57452E+00  1.90111E-01  2.44766E+00  1.78750E+00 -1.32519E+00  1.79190E-01  1.66817E-01  1.56401E+00
   5.22429E+00  3.01044E+00  2.60747E+00  2.30454E+00 -7.00138E-01  1.62316E+00  2.22462E+00  1.24148E+00 -7.88030E-01  1.04934E+00
  -1.54007E+00  7.00172E-01  1.54964E+00  1.51730E+00  2.61440E+00  1.36830E+00  1.27603E+00  1.99911E+00  2.15015E+00  1.60827E+00
   1.99703E-01  2.68369E+00  2.80181E+00  3.56177E+00 -7.84122E-02 -9.49509E-01  1.36354E+00  5.39584E-01 -5.50959E-01 -8.63258E-01
   2.49749E+00 -5.86227E-01  1.28460E+00  3.02435E+00  3.37026E-01  5.79498E+00  1.00663E-01  1.21001E+00  4.63811E+00  4.32346E-01
   1.81640E+00  3.36527E+00  3.19468E+00  5.29538E-01  4.04931E+00  1.49718E-01  9.63391E-01  3.37360E+00  2.47224E+00  2.52303E+00
  -4.15886E-01  1.14301E+00  2.70999E+00  5.14072E+00  7.78239E-01 -1.76288E+00 -6.45842E-01 -2.14779E+00  5.63461E-01  1.37591E+00
  -8.71928E-01 -1.16122E-01  4.97581E-01  3.51683E-01  8.90823E-01  1.14256E+00 -1.17591E+00 -1.51039E+00  3.32661E+00 -1.10632E+00
  -1.42845E+00  2.06766E+00  7.26117E-02  1.77547E+00 -1.11910E-01  8.13328E-01  4.15138E-01 -2.65623E+00 -9.52635E-01 -4.13767E+00
   5.12218E-01 -9.67220E-01 -1.02614E+00 -9.52992E-01 -4.66986E-01  4.07664E+00 -1.16729E+00  1.31597E+00 -2.78333E-01 -1.71206E+00
  -2.36890E+00  2.55187E+00  1.84036E+00 -1.07527E+00 -1.68741E+00  1.74403E+00  9.98684E-01  2.09209E-01
 NY points of the fit to the data follow
  -6.21682E-01 -5.44360E-01 -5.31008E-01 -5.35382E-01 -4.84373E-01 -5.43249E-01 -4.23751E-01 -4.55220E-01 -2.21709E-01 -2.54389E-01
  -3.01691E-02 -1.12069E-01  8.86144E-02 -7.42382E-02  5.61079E-02 -1.49235E-01  2.69840E-02 -1.58279E-01 -3.98748E-02 -2.01380E-01
  -1.61832E-01 -3.12867E-01 -3.78434E-01 -4.48433E-01 -5.61378E-01 -5.36768E-01 -6.89106E-01 -5.82681E-01 -7.53129E-01 -6.11774E-01
  -8.13996E-01 -6.25989E-01 -7.86544E-01 -5.46317E-01 -7.12088E-01 -4.45568E-01 -6.16978E-01 -3.52378E-01 -5.65187E-01 -3.25535E-01
  -5.44289E-01 -3.48645E-01 -5.81027E-01 -4.51267E-01 -6.27238E-01 -5.46410E-01 -6.52086E-01 -6.04743E-01 -6.21011E-01 -6.02742E-01
  -6.04997E-01 -6.28069E-01 -6.30013E-01 -6.82456E-01 -7.09479E-01 -7.66428E-01 -7.94785E-01 -8.53956E-01 -8.80321E-01 -9.20751E-01
  -9.31197E-01 -9.55622E-01 -9.50666E-01 -9.61291E-01 -9.46847E-01 -9.57208E-01 -9.42902E-01 -9.55126E-01 -9.41274E-01 -9.54873E-01
  -9.39619E-01 -9.58985E-01 -9.46185E-01 -9.72695E-01 -9.60341E-01 -9.90204E-01 -9.74589E-01 -1.01112E+00 -9.96268E-01 -1.04110E+00
  -1.02598E+00 -1.07741E+00 -1.06334E+00 -1.11526E+00 -1.10276E+00 -1.14488E+00 -1.09889E+00 -1.06617E+00 -1.02574E+00 -9.43087E-01
  -9.24988E-01 -7.97198E-01 -8.09378E-01 -6.43437E-01 -6.89309E-01 -4.89968E-01 -5.71740E-01 -3.47583E-01 -4.63017E-01 -2.24064E-01
  -3.77872E-01 -1.46889E-01 -3.22578E-01 -9.85746E-02 -3.01902E-01 -1.08239E-01 -3.28544E-01 -1.81050E-01 -4.08509E-01 -3.21897E-01
  -5.06351E-01 -3.68992E-01 -4.60987E-01 -3.52560E-01 -3.57816E-01 -2.72240E-01 -1.95952E-01 -1.27778E-01  1.78410E-02  8.17520E-02
   2.61725E-01  2.94716E-01  4.94100E-01  4.93986E-01  6.90523E-01  6.25683E-01  8.05939E-01  7.05976E-01  8.68902E-01  7.07408E-01
   8.33777E-01  6.07673E-01  6.81095E-01  3.84520E-01  3.96793E-01  7.90561E-02  4.28853E-02 -2.69960E-01 -3.38564E-01 -5.91537E-01
  -6.63489E-01 -8.31777E-01 -8.85090E-01 -9.57469E-01 -9.86852E-01 -1.02983E+00 -1.04797E+00 -1.06424E+00 -1.07011E+00 -1.08130E+00
  -1.08787E+00 -1.09862E+00 -1.10715E+00 -1.11766E+00 -1.12910E+00 -1.13950E+00 -1.15392E+00 -1.16395E+00 -1.18165E+00 -1.19150E+00
  -1.21707E+00 -1.22785E+00 -1.25213E+00 -1.26319E+00 -1.28496E+00 -1.30018E+00 -1.31764E+00 -1.33264E+00 -1.34350E+00 -1.35881E+00
  -1.36569E+00 -1.38624E+00 -1.38082E+00 -1.40127E+00 -1.38279E+00 -1.40332E+00 -1.37378E+00 -1.39685E+00 -1.37520E+00 -1.40095E+00
  -1.40189E+00 -1.44911E+00 -1.46402E+00 -1.52685E+00 -1.54277E+00 -1.57452E+00 -1.53017E+00 -1.51560E+00 -1.43237E+00 -1.35932E+00
  -1.24920E+00 -1.17180E+00 -1.07999E+00 -1.07653E+00 -1.14628E+00 -1.18882E+00 -1.25545E+00 -1.31827E+00 -1.35217E+00 -1.41433E+00
  -1.38977E+00 -1.44649E+00 -1.35538E+00 -1.40943E+00 -1.26971E+00 -1.32661E+00 -1.16643E+00 -1.24238E+00 -1.06373E+00 -1.17811E+00
  -1.03266E+00 -1.16625E+00 -9.88590E-01 -1.09876E+00 -8.46433E-01 -8.87172E-01 -5.32647E-01 -4.96420E-01 -9.76666E-02 -3.35837E-02
   2.60312E-01  3.20376E-01  4.96598E-01  5.41504E-01  6.09419E-01  6.76971E-01  6.44666E-01  6.42720E-01  6.08951E-01  5.25622E-01
   4.76217E-01  3.17019E-01  3.13683E-01  8.74486E-02  1.53029E-01 -1.01599E-01  2.97588E-02 -2.43105E-01 -2.77898E-02 -3.11424E-01
  -1.44932E-02 -2.84749E-01  9.79213E-02 -1.68204E-01  4.28610E-01  2.53298E-01  8.74651E-01  7.55573E-01  1.32110E+00  1.29410E+00
   1.75763E+00  1.84322E+00  2.19008E+00  2.41937E+00  2.67469E+00  3.01596E+00  3.15581E+00  3.53514E+00  3.50986E+00  3.82286E+00
   3.67811E+00  3.92592E+00  3.61657E+00  3.77054E+00  3.32044E+00  3.38982E+00  2.80980E+00  2.80192E+00  2.19588E+00  2.12677E+00
   1.53845E+00  1.42069E+00  9.43680E-01  8.13069E-01  4.89863E-01  3.82432E-01  2.32723E-01  1.72216E-01  9.09019E-02  5.10474E-02
   2.64412E-02  8.01396E-03 -7.64061E-03 -2.07256E-02 -3.14129E-02 -4.03610E-02 -4.73358E-02 -5.21863E-02 -5.55638E-02 -5.61805E-02
  -5.58826E-02 -5.26743E-02 -4.90889E-02 -4.23253E-02 -3.59223E-02 -2.63984E-02 -1.74276E-02 -5.23615E-03  6.57032E-03  2.17849E-02
   3.73381E-02  5.66824E-02  7.75159E-02  1.02730E-01  1.31201E-01  1.65569E-01  2.06197E-01  2.56177E-01  3.19088E-01  4.04269E-01
   5.33765E-01  6.73467E-01  7.47026E-01  9.14759E-01  9.21486E-01  1.11968E+00  1.04835E+00  1.26424E+00  1.13081E+00  1.49918E+00
   1.33473E+00  1.84507E+00  1.64999E+00  2.29590E+00  2.07097E+00  2.83903E+00  2.62620E+00  3.51442E+00  3.31761E+00  4.33381E+00
   4.28631E+00  5.66963E+00  5.63716E+00  6.66546E+00  6.61534E+00  7.19553E+00  7.11844E+00  7.09037E+00  6.95794E+00  6.79292E+00
   7.04078E+00  6.60477E+00  7.20608E+00  6.51615E+00  7.42840E+00  6.44973E+00  7.70213E+00  6.64106E+00  8.09591E+00  6.75931E+00
   8.22643E+00  6.61007E+00  7.90306E+00  5.87544E+00  6.86451E+00  4.88308E+00  5.74031E+00  3.96780E+00  4.81046E+00  3.53948E+00
   4.42274E+00  3.55663E+00  4.32759E+00  3.78609E+00  4.30026E+00  3.66824E+00  3.82095E+00  3.20353E+00  3.06490E+00  2.46702E+00
   2.17976E+00  1.81074E+00  1.59838E+00  1.35015E+00  1.17878E+00  1.06128E+00  9.73812E-01  9.07925E-01  8.57586E-01  8.20887E-01
   7.94906E-01  7.79489E-01  7.72807E-01  7.75421E-01  7.85978E-01  8.05341E-01  8.32332E-01  8.67875E-01  9.10769E-01  9.61824E-01
   1.01964E+00  1.08473E+00  1.15533E+00  1.23157E+00  1.31123E+00  1.39398E+00  1.47717E+00  1.56008E+00  1.63973E+00  1.71520E+00
   1.78344E+00  1.84362E+00  1.89296E+00  1.93102E+00  1.95558E+00  1.96692E+00  1.96362E+00  1.94679E+00  1.91586E+00  1.87277E+00
   1.81768E+00  1.75317E+00  1.67988E+00  1.60072E+00  1.51648E+00  1.43005E+00  1.34211E+00  1.25526E+00  1.16983E+00  1.08800E+00
   1.00961E+00  9.36385E-01  8.67720E-01  8.04916E-01  7.47002E-01  6.94959E-01  6.47559E-01  6.05589E-01  5.67688E-01  5.34553E-01
   5.04770E-01  4.79019E-01  4.55890E-01  4.36101E-01  4.18288E-01  4.03220E-01  3.89583E-01  3.78200E-01  3.67808E-01  3.59289E-01
   3.51426E-01  3.45145E-01  3.39259E-01  3.34725E-01  3.30391E-01  3.27242E-01  3.24148E-01  3.22111E-01  3.20012E-01  3.18869E-01
   3.17577E-01  3.17168E-01  3.16548E-01  3.16747E-01  3.16680E-01  3.17382E-01  3.17779E-01  3.18912E-01  3.19707E-01  3.21203E-01
   3.22333E-01  3.24138E-01  3.25559E-01  3.27639E-01  3.29314E-01  3.31626E-01  3.33518E-01  3.36035E-01  3.38122E-01  3.40825E-01
   3.43082E-01  3.45944E-01  3.48350E-01  3.51355E-01  3.53899E-01  3.57036E-01  3.59700E-01  3.62949E-01  3.65722E-01  3.69079E-01
   3.71956E-01  3.75412E-01  3.78380E-01  3.81924E-01  3.84981E-01  3.88614E-01  3.91758E-01  3.95474E-01  3.98697E-01  4.02496E-01
   4.05806E-01  4.09694E-01  4.13094E-01  4.17074E-01  4.20572E-01  4.24664E-01  4.28289E-01  4.32524E-01
 NY background values follow
    -1.791E+00   -1.786E+00   -1.782E+00   -1.778E+00   -1.773E+00   -1.769E+00   -1.764E+00   -1.760E+00   -1.756E+00   -1.751E+00
    -1.747E+00   -1.743E+00   -1.738E+00   -1.734E+00   -1.729E+00   -1.725E+00   -1.721E+00   -1.716E+00   -1.712E+00   -1.708E+00
    -1.703E+00   -1.699E+00   -1.694E+00   -1.690E+00   -1.686E+00   -1.681E+00   -1.677E+00   -1.673E+00   -1.668E+00   -1.664E+00
    -1.659E+00   -1.655E+00   -1.651E+00   -1.646E+00   -1.642E+00   -1.637E+00   -1.633E+00   -1.629E+00   -1.624E+00   -1.620E+00
    -1.616E+00   -1.611E+00   -1.607E+00   -1.602E+00   -1.598E+00   -1.594E+00   -1.589E+00   -1.585E+00   -1.581E+00   -1.576E+00
    -1.572E+00   -1.567E+00   -1.563E+00   -1.559E+00   -1.554E+00   -1.550E+00   -1.546E+00   -1.541E+00   -1.537E+00   -1.532E+00
    -1.528E+00   -1.524E+00   -1.519E+00   -1.515E+00   -1.510E+00   -1.506E+00   -1.502E+00   -1.497E+00   -1.493E+00   -1.489E+00
    -1.484E+00   -1.480E+00   -1.475E+00   -1.471E+00   -1.467E+00   -1.462E+00   -1.458E+00   -1.454E+00   -1.449E+00   -1.445E+00
    -1.440E+00   -1.436E+00   -1.432E+00   -1.427E+00   -1.423E+00   -1.419E+00   -1.414E+00   -1.410E+00   -1.405E+00   -1.401E+00
    -1.397E+00   -1.392E+00   -1.388E+00   -1.383E+00   -1.379E+00   -1.375E+00   -1.370E+00   -1.366E+00   -1.362E+00   -1.357E+00
    -1.353E+00   -1.348E+00   -1.344E+00   -1.340E+00   -1.335E+00   -1.331E+00   -1.327E+00   -1.322E+00   -1.318E+00   -1.313E+00
    -1.309E+00   -1.305E+00   -1.300E+00   -1.296E+00   -1.292E+00   -1.287E+00   -1.283E+00   -1.278E+00   -1.274E+00   -1.270E+00
    -1.265E+00   -1.261E+00   -1.257E+00   -1.252E+00   -1.248E+00   -1.243E+00   -1.239E+00   -1.235E+00   -1.230E+00   -1.226E+00
    -1.221E+00   -1.217E+00   -1.213E+00   -1.208E+00   -1.204E+00   -1.200E+00   -1.195E+00   -1.191E+00   -1.186E+00   -1.182E+00
    -1.178E+00   -1.173E+00   -1.169E+00   -1.165E+00   -1.160E+00   -1.156E+00   -1.151E+00   -1.147E+00   -1.143E+00   -1.138E+00
    -1.134E+00   -1.130E+00   -1.125E+00   -1.121E+00   -1.116E+00   -1.112E+00   -1.108E+00   -1.103E+00   -1.099E+00   -1.094E+00
    -1.090E+00   -1.086E+00   -1.081E+00   -1.077E+00   -1.073E+00   -1.068E+00   -1.064E+00   -1.059E+00   -1.055E+00   -1.051E+00
    -1.046E+00   -1.042E+00   -1.038E+00   -1.033E+00   -1.029E+00   -1.024E+00   -1.020E+00   -1.016E+00   -1.011E+00   -1.007E+00
    -1.003E+00   -9.981E-01   -9.938E-01   -9.894E-01   -9.850E-01   -9.806E-01   -9.762E-01   -9.719E-01   -9.675E-01   -9.631E-01
    -9.587E-01   -9.543E-01   -9.500E-01   -9.456E-01   -9.412E-01   -9.368E-01   -9.325E-01   -9.281E-01   -9.237E-01   -9.193E-01
    -9.149E-01   -9.106E-01   -9.062E-01   -9.018E-01   -8.974E-01   -8.930E-01   -8.887E-01   -8.843E-01   -8.799E-01   -8.755E-01
    -8.711E-01   -8.668E-01   -8.624E-01   -8.580E-01   -8.536E-01   -8.492E-01   -8.449E-01   -8.405E-01   -8.361E-01   -8.317E-01
    -8.274E-01   -8.230E-01   -8.186E-01   -8.142E-01   -8.098E-01   -8.055E-01   -8.011E-01   -7.967E-01   -7.923E-01   -7.879E-01
    -7.836E-01   -7.792E-01   -7.748E-01   -7.704E-01   -7.660E-01   -7.617E-01   -7.573E-01   -7.529E-01   -7.485E-01   -7.441E-01
    -7.398E-01   -7.354E-01   -7.310E-01   -7.266E-01   -7.222E-01   -7.179E-01   -7.135E-01   -7.091E-01   -7.047E-01   -7.004E-01
    -6.960E-01   -6.916E-01   -6.872E-01   -6.828E-01   -6.785E-01   -6.741E-01   -6.697E-01   -6.653E-01   -6.609E-01   -6.566E-01
    -6.522E-01   -6.478E-01   -6.434E-01   -6.390E-01   -6.347E-01   -6.303E-01   -6.259E-01   -6.215E-01   -6.171E-01   -6.128E-01
    -6.084E-01   -6.040E-01   -5.996E-01   -5.952E-01   -5.909E-01   -5.865E-01   -5.821E-01   -5.777E-01   -5.733E-01   -5.690E-01
    -5.646E-01   -5.602E-01   -5.558E-01   -5.515E-01   -5.471E-01   -5.427E-01   -5.383E-01   -5.339E-01   -5.296E-01   -5.252E-01
    -5.208E-01   -5.164E-01   -5.120E-01   -5.077E-01   -5.033E-01   -4.989E-01   -4.945E-01   -4.901E-01   -4.858E-01   -4.814E-01
    -4.770E-01   -4.726E-01   -4.682E-01   -4.639E-01   -4.595E-01   -4.551E-01   -4.507E-01   -4.463E-01   -4.420E-01   -4.376E-01
    -4.332E-01   -4.288E-01   -4.244E-01   -4.201E-01   -4.157E-01   -4.113E-01   -4.069E-01   -4.025E-01   -3.982E-01   -3.938E-01
    -3.894E-01   -3.850E-01   -3.807E-01   -3.763E-01   -3.719E-01   -3.675E-01   -3.631E-01   -3.588E-01   -3.544E-01   -3.500E-01
    -3.456E-01   -3.412E-01   -3.369E-01   -3.325E-01   -3.281E-01   -3.237E-01   -3.193E-01   -3.150E-01   -3.106E-01   -3.062E-01
    -3.018E-01   -2.974E-01   -2.931E-01   -2.887E-01   -2.843E-01   -2.799E-01   -2.755E-01   -2.712E-01   -2.668E-01   -2.624E-01
    -2.580E-01   -2.536E-01   -2.493E-01   -2.449E-01   -2.405E-01   -2.361E-01   -2.317E-01   -2.274E-01   -2.230E-01   -2.186E-01
    -2.142E-01   -2.098E-01   -2.055E-01   -2.011E-01   -1.967E-01   -1.923E-01   -1.879E-01   -1.836E-01   -1.792E-01   -1.748E-01
    -1.704E-01   -1.660E-01   -1.617E-01   -1.573E-01   -1.529E-01   -1.485E-01   -1.441E-01   -1.398E-01   -1.354E-01   -1.310E-01
    -1.266E-01   -1.222E-01   -1.179E-01   -1.135E-01   -1.091E-01   -1.047E-01   -1.004E-01   -9.597E-02   -9.159E-02   -8.721E-02
    -8.283E-02   -7.845E-02   -7.407E-02   -6.969E-02   -6.531E-02   -6.093E-02   -5.655E-02   -5.217E-02   -4.779E-02   -4.341E-02
    -3.903E-02   -3.465E-02   -3.027E-02   -2.589E-02   -2.152E-02   -1.714E-02   -1.276E-02   -8.376E-03   -3.996E-03    3.838E-04
     4.764E-03    9.143E-03    1.352E-02    1.790E-02    2.228E-02    2.666E-02    3.104E-02    3.542E-02    3.980E-02    4.418E-02
     4.856E-02    5.294E-02    5.732E-02    6.170E-02    6.608E-02    7.046E-02    7.484E-02    7.922E-02    8.360E-02    8.798E-02
     9.236E-02    9.674E-02    1.011E-01    1.055E-01    1.099E-01    1.143E-01    1.186E-01    1.230E-01    1.274E-01    1.318E-01
     1.362E-01    1.405E-01    1.449E-01    1.493E-01    1.537E-01    1.581E-01    1.624E-01    1.668E-01    1.712E-01    1.756E-01
     1.800E-01    1.843E-01    1.887E-01    1.931E-01    1.975E-01    2.019E-01    2.062E-01    2.106E-01    2.150E-01    2.194E-01
     2.238E-01    2.281E-01    2.325E-01    2.369E-01    2.413E-01    2.457E-01    2.500E-01    2.544E-01    2.588E-01    2.632E-01
     2.675E-01    2.719E-01    2.763E-01    2.807E-01    2.851E-01    2.894E-01    2.938E-01    2.982E-01    3.026E-01    3.070E-01
     3.113E-01    3.157E-01    3.201E-01    3.245E-01    3.289E-01    3.332E-01    3.376E-01    3.420E-01    3.464E-01    3.508E-01
     3.551E-01    3.595E-01    3.639E-01    3.683E-01    3.727E-01    3.770E-01    3.814E-01    3.858E-01
 Ala      Conc. = 2.51E+02
