 LCModel (Version 6.3-1L) Copyright: S.W. Provencher.          Ref.: Magn. Reson. Med. 30:672-679 (1993).                
 Slice#2 Row#3 Col#3  PD_05_press_2_raw_act
 36 lines in following concentration table = NCONC+1
    Conc.  %SD /Cr+PCr  Metabolite                                         
    0.000 999%   0.000 Ala                                                 
  131.333 148%   0.111 Asp                                                 
    0.000 999%   0.000 Cr                                                  
 1.18E+03  10%   1.000 PCr                                                 
   82.524 142% 7.0E-02 GABA                                                
   84.389 140% 7.1E-02 Glc                                                 
  205.851 182%   0.174 Gln                                                 
  376.620 110%   0.318 Glu                                                 
    0.000 999%   0.000 GPC                                                 
  346.643  11%   0.293 PCh                                                 
  103.684 126% 8.8E-02 GSH                                                 
  331.372 129%   0.280 Ins                                                 
    0.000 999%   0.000 Lac                                                 
 1.24E+03  12%   1.051 NAA                                                 
  224.493  73%   0.190 NAAG                                                
   57.452  57% 4.9E-02 Scyllo                                              
  293.976  64%   0.248 Tau                                                 
  757.019  22%   0.640 -CrCH2                                              
  346.643  11%   0.293 GPC+PCh                                             
 1.47E+03  11%   1.241 NAA+NAAG                                            
 1.18E+03  10%   1.000 Cr+PCr                                              
  582.471  94%   0.492 Glu+Gln                                             
 3.42E+03  28%   2.892 Lip13a                                              
    0.000 999%   0.000 Lip13b                                              
  504.698 101%   0.427 Lip09                                               
 2.02E+03  25%   1.704 MM09                                                
  569.068  69%   0.481 Lip20                                               
 2.81E+03  26%   2.372 MM20                                                
  772.880  39%   0.653 MM12                                                
  835.395  80%   0.706 MM14                                                
 2.12E+03  22%   1.788 MM17                                                
 3.42E+03  28%   2.892 Lip13a+Lip13b                                       
 5.03E+03  15%   4.251 MM14+Lip13a+Lip13b+MM12                             
 2.52E+03  15%   2.130 MM09+Lip09                                          
 3.38E+03  21%   2.853 MM20+Lip20                                          
   6 lines in following misc. output table
  FWHM = 0.046 ppm    S/N =   4                                            
  Data shift = 0.038 ppm                                                   
  Ph: -36 deg     -15.4 deg/ppm                                            
  alphaB,S = 2.8E+00,   4.2E+01                                            
   14 spline knots.   Ns = 6(1)                                            
  (10) 2 infls.   ( 9) 1 extrs.                                            
  498 points on ppm-axis = NY
      4.000000     3.992357     3.984714     3.977070     3.969427     3.961784     3.954141     3.946497     3.938854     3.931211
      3.923568     3.915925     3.908281     3.900638     3.892995     3.885352     3.877708     3.870065     3.862422     3.854779
      3.847136     3.839492     3.831849     3.824206     3.816563     3.808919     3.801276     3.793633     3.785990     3.778347
      3.770703     3.763060     3.755417     3.747774     3.740130     3.732487     3.724844     3.717201     3.709558     3.701914
      3.694271     3.686628     3.678985     3.671341     3.663698     3.656055     3.648412     3.640769     3.633125     3.625482
      3.617839     3.610196     3.602552     3.594909     3.587266     3.579623     3.571980     3.564336     3.556693     3.549050
      3.541407     3.533763     3.526120     3.518477     3.510834     3.503191     3.495547     3.487904     3.480261     3.472618
      3.464974     3.457331     3.449688     3.442045     3.434402     3.426758     3.419115     3.411472     3.403829     3.396185
      3.388542     3.380899     3.373256     3.365613     3.357969     3.350326     3.342683     3.335040     3.327396     3.319753
      3.312110     3.304467     3.296824     3.289180     3.281537     3.273894     3.266251     3.258607     3.250964     3.243321
      3.235678     3.228034     3.220391     3.212748     3.205105     3.197462     3.189818     3.182175     3.174532     3.166889
      3.159245     3.151602     3.143959     3.136316     3.128673     3.121029     3.113386     3.105743     3.098100     3.090456
      3.082813     3.075170     3.067527     3.059884     3.052240     3.044597     3.036954     3.029311     3.021667     3.014024
      3.006381     2.998738     2.991095     2.983451     2.975808     2.968165     2.960522     2.952878     2.945235     2.937592
      2.929949     2.922306     2.914662     2.907019     2.899376     2.891733     2.884089     2.876446     2.868803     2.861160
      2.853517     2.845873     2.838230     2.830587     2.822944     2.815300     2.807657     2.800014     2.792371     2.784728
      2.777084     2.769441     2.761798     2.754155     2.746511     2.738868     2.731225     2.723582     2.715939     2.708295
      2.700652     2.693009     2.685366     2.677722     2.670079     2.662436     2.654793     2.647150     2.639506     2.631863
      2.624220     2.616577     2.608933     2.601290     2.593647     2.586004     2.578361     2.570717     2.563074     2.555431
      2.547788     2.540144     2.532501     2.524858     2.517215     2.509572     2.501928     2.494285     2.486642     2.478999
      2.471355     2.463712     2.456069     2.448426     2.440783     2.433139     2.425496     2.417853     2.410210     2.402566
      2.394923     2.387280     2.379637     2.371994     2.364350     2.356707     2.349064     2.341421     2.333777     2.326134
      2.318491     2.310848     2.303205     2.295561     2.287918     2.280275     2.272632     2.264988     2.257345     2.249702
      2.242059     2.234416     2.226772     2.219129     2.211486     2.203843     2.196199     2.188556     2.180913     2.173270
      2.165627     2.157983     2.150340     2.142697     2.135054     2.127410     2.119767     2.112124     2.104481     2.096838
      2.089194     2.081551     2.073908     2.066265     2.058621     2.050978     2.043335     2.035692     2.028049     2.020405
      2.012762     2.005119     1.997476     1.989833     1.982190     1.974546     1.966903     1.959260     1.951617     1.943974
      1.936331     1.928688     1.921045     1.913402     1.905759     1.898115     1.890472     1.882829     1.875186     1.867543
      1.859900     1.852257     1.844614     1.836971     1.829327     1.821684     1.814041     1.806398     1.798755     1.791112
      1.783469     1.775826     1.768183     1.760540     1.752896     1.745253     1.737610     1.729967     1.722324     1.714681
      1.707038     1.699395     1.691752     1.684108     1.676465     1.668822     1.661179     1.653536     1.645893     1.638250
      1.630607     1.622964     1.615321     1.607677     1.600034     1.592391     1.584748     1.577105     1.569462     1.561819
      1.554176     1.546533     1.538890     1.531246     1.523603     1.515960     1.508317     1.500674     1.493031     1.485388
      1.477745     1.470102     1.462458     1.454815     1.447172     1.439529     1.431886     1.424243     1.416600     1.408957
      1.401314     1.393671     1.386027     1.378384     1.370741     1.363098     1.355455     1.347812     1.340169     1.332526
      1.324883     1.317240     1.309596     1.301953     1.294310     1.286667     1.279024     1.271381     1.263738     1.256095
      1.248452     1.240808     1.233165     1.225522     1.217879     1.210236     1.202593     1.194950     1.187307     1.179664
      1.172021     1.164377     1.156734     1.149091     1.141448     1.133805     1.126162     1.118519     1.110876     1.103233
      1.095590     1.087946     1.080303     1.072660     1.065017     1.057374     1.049731     1.042088     1.034445     1.026802
      1.019158     1.011515     1.003872     0.996229     0.988586     0.980943     0.973300     0.965657     0.958014     0.950371
      0.942727     0.935084     0.927441     0.919798     0.912155     0.904512     0.896869     0.889226     0.881583     0.873940
      0.866296     0.858653     0.851010     0.843367     0.835724     0.828081     0.820438     0.812795     0.805152     0.797508
      0.789865     0.782222     0.774579     0.766936     0.759293     0.751650     0.744007     0.736364     0.728721     0.721077
      0.713434     0.705791     0.698148     0.690505     0.682862     0.675219     0.667576     0.659933     0.652290     0.644646
      0.637003     0.629360     0.621717     0.614074     0.606431     0.598788     0.591145     0.583502     0.575858     0.568215
      0.560572     0.552929     0.545286     0.537643     0.530000     0.522357     0.514714     0.507071     0.499427     0.491784
      0.484141     0.476498     0.468855     0.461212     0.453569     0.445925     0.438282     0.430639     0.422996     0.415353
      0.407710     0.400067     0.392424     0.384780     0.377137     0.369494     0.361851     0.354208     0.346565     0.338922
      0.331278     0.323635     0.315992     0.308349     0.300706     0.293063     0.285420     0.277777     0.270133     0.262490
      0.254847     0.247204     0.239561     0.231918     0.224275     0.216631     0.208988     0.201345
 NY phased data points follow
  -5.39894E+01 -4.27785E+01 -2.98265E+01 -3.58189E+01 -3.09511E+01 -3.96330E+01 -4.43385E+01 -2.41348E+01 -1.65049E+01 -8.14006E-01
  -1.25189E+01 -1.28317E+01 -3.88486E+01 -3.15311E+01 -4.78074E+01 -3.51826E+01 -3.96952E+01 -2.68772E+01 -3.82165E+01 -3.51563E+01
  -3.64216E+01 -3.61380E+01 -3.27394E+01 -2.90803E+01 -3.20346E+01 -2.37115E+01 -2.51885E+01 -4.42779E+01 -2.20957E+01 -2.60289E+01
  -8.78860E+00 -2.79112E+01 -2.33319E+01 -2.83253E+01 -2.66767E+01 -1.98806E+01 -3.22843E+01 -1.85801E+01 -2.35487E+01 -2.72189E+01
  -2.45960E+01 -2.31372E+01 -2.46356E+01 -1.34087E+01 -3.25673E+01 -1.85014E+01 -1.71396E+01 -7.34596E+00 -2.30294E+01 -9.77490E+00
  -2.88662E+01 -7.50249E+00 -2.24537E+01 -2.00951E+01 -2.39288E+01 -1.73460E+01 -1.52799E+01 -1.95638E+01 -2.37819E+01 -1.93323E+01
  -1.80823E+01 -1.51529E+01 -8.40654E+00 -2.87165E+01 -2.89279E+01 -2.31310E+01 -1.77182E+01 -2.04550E+01 -1.78145E+01 -1.14749E+01
  -2.05279E+01 -1.32410E+01 -1.11416E+01 -1.29154E+01 -2.06070E+01 -1.01967E+01 -1.41113E+01 -1.32770E+01 -1.74617E+01 -1.58991E+01
  -8.72239E+00 -1.85666E+01 -2.98955E+01 -2.75000E+00 -1.54375E+01 -1.00122E+01 -3.27890E+00 -8.65277E+00 -2.22626E+01 -3.58735E+00
  -6.74927E+00 -4.44466E+00 -5.13093E+00 -3.23028E+00 -5.89188E+00  3.98595E+00 -1.12991E+01  1.10353E+01  5.78758E+00  8.03271E+00
   1.17519E+01  2.39495E+01  2.68402E+01  2.16607E+01  1.84072E+01  1.40901E+01  1.11327E+00 -4.39597E+00 -1.60835E+01 -8.21169E+00
  -9.98722E+00 -8.95728E+00 -2.75967E+00 -1.22853E+01 -1.34201E+01 -1.33113E+01  2.96913E+00 -9.83822E+00  4.31026E-01 -3.97298E+00
   2.84751E-01  2.91775E+00 -8.96646E-01  1.55252E+01  2.67125E+01  2.94061E+01  3.48548E+01  3.75351E+01  3.58062E+01  1.37301E+01
   2.38062E+01  1.24075E+01  1.02089E+01  1.09253E+00 -6.14675E+00  2.82517E+00 -9.01554E+00 -1.74912E+00 -7.38566E+00  1.12407E+00
  -3.88113E-01 -1.02641E+00 -8.22404E+00  6.66394E+00 -1.51343E+00  1.07848E+01  9.87628E+00  8.21123E-01  2.51145E+00  2.10874E+00
   2.41813E+00  6.35614E+00 -5.84586E+00 -7.20897E+00 -3.58746E+00 -1.20366E+01  5.44332E+00 -3.20853E+00 -1.26968E+01 -1.12543E+01
   3.19217E-02 -1.36615E+01  5.38691E-01 -7.91331E+00 -5.72064E+00  6.23370E+00 -3.81185E+00 -6.75908E+00 -2.57176E+00  8.18164E-02
  -2.42340E-01 -1.42267E+01  4.22171E+00  2.67704E+00 -1.38852E+01 -4.96639E+00 -2.62471E+00 -9.33299E+00 -6.54030E+00 -7.39847E+00
  -1.99750E+01 -1.17701E+01 -1.32486E+00  6.27808E-01 -1.21187E+01  6.76526E+00 -4.99863E-01  7.43532E+00 -1.17484E+01 -1.42555E+00
   7.79547E+00  8.28685E+00  1.27732E+01  1.36459E+01 -6.07487E+00  9.07879E+00  7.53065E+00 -2.78078E+00 -1.23423E+01 -6.19448E+00
   4.90709E+00  4.00858E+00 -2.48240E+00  1.23279E+01  9.24090E+00  4.06550E+00 -8.11469E+00 -5.28020E+00 -2.48519E+00 -1.61217E+00
   7.48661E-01  2.84773E+00  1.74946E+01  1.07381E+01  8.61233E+00  1.55287E+01  5.43933E+00  3.34113E+00  1.26908E+01  3.90516E+00
   6.88813E+00  6.32123E+00  7.45451E+00  1.60581E+00  4.46494E+00  8.69540E+00  1.05995E+00  1.73215E+01  7.38455E+00  7.99510E-01
   3.06569E-01  1.97250E+01  3.88434E+00 -3.78695E+00  1.17844E+01  1.55488E+01  3.33481E+00  1.28901E+01  1.08550E+01  7.55770E+00
   1.49550E+01  3.60396E+00  1.06161E+01  1.28051E+01  1.48705E+01  1.93593E+01  1.77434E+01  1.41596E+01  1.58668E+01  1.79663E+01
   9.97313E+00  2.30845E+01  3.29986E+01  3.25167E+01  3.25152E+01  3.18893E+01  4.08790E+01  5.22702E+01  6.50460E+01  7.20098E+01
   6.75067E+01  6.17862E+01  4.30022E+01  5.25675E+01  3.20141E+01  1.22281E+01  2.23558E+01  2.22389E+01  1.43490E+01  1.64037E+01
   1.52755E+01  2.03161E+01  1.45950E+01  1.78185E+01  1.87334E+01  1.07965E+01  1.01517E+01  1.95472E+01  2.37803E+00  6.90355E+00
   1.58792E+01 -1.81949E+00  7.88680E+00  1.53648E+01  1.82193E+01  1.88993E+01  3.14066E+01  1.16044E+01  2.30237E+01  2.41173E+01
   2.08777E+01  6.13621E+00  2.47657E+01  1.15479E+01  1.44678E+01  1.58300E+01  1.74098E+01  2.49840E+01  8.62624E+00  2.12980E+01
   2.01696E+01  1.56340E+01  1.23961E+01  2.31065E+01  1.33476E+01  1.64422E+01  1.38036E+01  2.03181E+01  2.08698E+01  3.39259E+01
   3.70534E+01  2.88548E+01  3.35184E+01  3.25975E+01  2.66450E+01  2.24461E+01  2.62483E+01  1.81863E+01  3.74660E+01  2.55042E+01
   2.47529E+01  2.73842E+01  2.60356E+01  3.26297E+01  3.47876E+01  3.33118E+01  1.96798E+01  3.89523E+01  2.31460E+01  2.97806E+01
   4.05802E+01  2.97596E+01  2.78931E+01  3.05571E+01  2.69799E+01  1.92367E+01  1.56070E+01  2.42146E+01  1.90131E+01  1.40814E+01
   1.56916E+01  1.75669E+01  2.76735E+00  1.95137E+01  2.61198E+01  2.89359E+01  2.51655E+01  3.60912E+01  3.20452E+01  4.69868E+01
   2.55531E+01  3.17092E+01  3.63619E+01  2.82637E+01  2.79569E+01  3.24487E+01  2.40480E+01  2.07239E+01  3.46837E+01  4.06254E+01
   2.93344E+01  3.50145E+01  3.63253E+01  3.16309E+01  3.64541E+01  4.57670E+01  3.12822E+01  4.77347E+01  3.91844E+01  2.88363E+01
   3.61415E+01  4.10334E+01  2.43507E+01  3.03547E+01  2.93962E+01  4.27424E+01  2.64495E+01  4.22930E+01  2.36897E+01  3.83738E+01
   3.83884E+01  1.87892E+01  3.21764E+01  2.62596E+01  3.25051E+01  3.18255E+01  3.14129E+01  3.93955E+01  2.40746E+01  3.29379E+01
   3.78516E+01  3.12221E+01  4.81463E+01  4.09863E+01  3.01869E+01  3.50583E+01  4.55251E+01  3.27504E+01  4.78779E+01  2.94877E+01
   4.11128E+01  2.27859E+01  3.32038E+01  2.83342E+01  3.66103E+01  4.05018E+01  1.81222E+01  2.88725E+01  3.14216E+01  3.10376E+01
   4.38620E+01  3.15091E+01  2.97051E+01  3.98261E+01  4.96721E+01  3.01374E+01  1.78756E+01  3.51281E+01  2.04505E+01  2.98331E+01
   3.14476E+01  2.37818E+01  2.28159E+01  2.28987E+01  3.40139E+01  2.70757E+01  2.43859E+01  1.69377E+01  2.94390E+01  2.32700E+01
   3.54022E+01  3.62855E+01  1.96573E+01  2.23408E+01  2.56196E+01  2.86929E+01  2.16073E+01  1.95679E+01  2.21908E+01  1.67732E+01
   3.04817E+01  1.79958E+01  3.40123E+01  2.22747E+01  2.42763E+01  2.58837E+01  3.61585E+01  2.56352E+01  2.40677E+01  1.87791E+01
   2.55866E+01  1.16330E+01  1.85226E+01  1.85988E+01  2.35172E+01  2.29419E+01  1.37897E+01  2.37026E+01  1.68543E+01  1.93764E+01
   2.09385E+01  2.65050E+01  1.80854E+01  1.80065E+01  2.33831E+01  2.55551E+01  1.57872E+01  2.37934E+01  3.13767E+01  2.84513E+01
   2.22704E+01  2.14668E+01  1.78385E+01  1.96608E+01  1.95119E+01  2.53508E+01  1.63819E+01  1.65742E+01  2.26516E+01  1.20824E+01
   2.83763E+01  3.03093E+01  2.15821E+01  2.30622E+01  3.10562E+01  1.95876E+01  1.92891E+01  2.44104E+01  2.43341E+01  1.97612E+01
   2.63253E+01  2.07042E+01  2.91475E+01  2.94386E+01  2.57242E+01  1.70854E+01  1.60989E+01  2.59281E+01
 NY points of the fit to the data follow
  -3.04511E+01 -3.04860E+01 -3.10957E+01 -3.17348E+01 -3.12694E+01 -2.99365E+01 -2.71747E+01 -2.29566E+01 -1.85529E+01 -1.58144E+01
  -1.57449E+01 -1.76217E+01 -2.01029E+01 -2.28392E+01 -2.54451E+01 -2.70057E+01 -2.75550E+01 -2.76724E+01 -2.75106E+01 -2.71946E+01
  -2.67992E+01 -2.64228E+01 -2.61478E+01 -2.59782E+01 -2.57776E+01 -2.54608E+01 -2.49032E+01 -2.40080E+01 -2.28814E+01 -2.18259E+01
  -2.11529E+01 -2.10012E+01 -2.13250E+01 -2.20110E+01 -2.28267E+01 -2.34879E+01 -2.38444E+01 -2.39063E+01 -2.37564E+01 -2.35426E+01
  -2.33331E+01 -2.30753E+01 -2.26609E+01 -2.20356E+01 -2.12674E+01 -2.05165E+01 -1.99623E+01 -1.98014E+01 -2.00360E+01 -2.04584E+01
  -2.08451E+01 -2.10917E+01 -2.11702E+01 -2.10667E+01 -2.07906E+01 -2.04117E+01 -1.99848E+01 -1.95414E+01 -1.91166E+01 -1.87866E+01
  -1.85900E+01 -1.84998E+01 -1.84633E+01 -1.83978E+01 -1.82883E+01 -1.81464E+01 -1.79628E+01 -1.77663E+01 -1.75689E+01 -1.72872E+01
  -1.68556E+01 -1.63200E+01 -1.57427E+01 -1.52497E+01 -1.49928E+01 -1.50704E+01 -1.54281E+01 -1.58537E+01 -1.61248E+01 -1.61197E+01
  -1.56752E+01 -1.47887E+01 -1.36947E+01 -1.25871E+01 -1.16889E+01 -1.12648E+01 -1.14096E+01 -1.19660E+01 -1.26330E+01 -1.32252E+01
  -1.37234E+01 -1.40852E+01 -1.41904E+01 -1.39760E+01 -1.34592E+01 -1.25388E+01 -1.05976E+01 -6.18798E+00  4.13127E-01  8.65634E+00
   1.74917E+01  2.44246E+01  2.68689E+01  2.39964E+01  1.74520E+01  9.82828E+00  2.62345E+00 -3.35899E+00 -7.18584E+00 -8.92457E+00
  -9.60578E+00 -9.82499E+00 -9.83910E+00 -9.75955E+00 -9.62267E+00 -9.45125E+00 -9.24727E+00 -9.01056E+00 -8.70332E+00 -8.22556E+00
  -7.17352E+00 -3.86229E+00  2.65464E+00  1.16171E+01  2.22774E+01  3.22407E+01  3.80618E+01  3.75888E+01  3.15282E+01  2.27858E+01
   1.38949E+01  5.95605E+00  2.72851E-02 -3.24676E+00 -4.74561E+00 -5.46793E+00 -5.71023E+00 -5.67587E+00 -5.46280E+00 -5.16038E+00
  -4.85795E+00 -4.61965E+00 -4.46043E+00 -4.37350E+00 -4.34734E+00 -4.36714E+00 -4.41195E+00 -4.45959E+00 -4.50153E+00 -4.54306E+00
  -4.57566E+00 -4.58768E+00 -4.56071E+00 -4.48085E+00 -4.36798E+00 -4.30167E+00 -4.33944E+00 -4.50366E+00 -4.76238E+00 -4.97107E+00
  -5.01024E+00 -4.82055E+00 -4.45543E+00 -4.09481E+00 -3.89074E+00 -3.88093E+00 -4.02178E+00 -4.22289E+00 -4.39432E+00 -4.50979E+00
  -4.60383E+00 -4.72946E+00 -4.88083E+00 -5.03057E+00 -5.08608E+00 -4.99532E+00 -4.76762E+00 -4.49120E+00 -4.28026E+00 -4.14188E+00
  -3.98679E+00 -3.79118E+00 -3.56003E+00 -3.27754E+00 -2.93206E+00 -2.44721E+00 -1.75576E+00 -9.19372E-01 -8.48248E-02  5.97751E-01
   1.04565E+00  1.26861E+00  1.25944E+00  1.10623E+00  9.49082E-01  8.37861E-01  8.04926E-01  9.29996E-01  1.30657E+00  1.91305E+00
   2.65797E+00  3.40645E+00  4.00844E+00  4.26249E+00  3.99817E+00  3.30527E+00  2.39111E+00  1.42461E+00  6.74784E-01  4.08996E-01
   7.72799E-01  1.65774E+00  2.87550E+00  4.21440E+00  5.36437E+00  5.98737E+00  5.95745E+00  5.45837E+00  4.78176E+00  4.17738E+00
   3.89437E+00  4.16734E+00  4.99732E+00  6.13602E+00  7.27240E+00  8.16578E+00  8.73564E+00  8.99651E+00  9.02102E+00  8.98968E+00
   9.07798E+00  9.38997E+00  9.92275E+00  1.05827E+01  1.12818E+01  1.19791E+01  1.25896E+01  1.29962E+01  1.32159E+01  1.33223E+01
   1.34194E+01  1.36086E+01  1.39899E+01  1.45933E+01  1.53311E+01  1.60738E+01  1.67554E+01  1.73667E+01  1.79220E+01  1.86041E+01
   1.98458E+01  2.16636E+01  2.39512E+01  2.67448E+01  3.10197E+01  3.76130E+01  4.56020E+01  5.47385E+01  6.35056E+01  6.86750E+01
   6.77095E+01  6.09555E+01  5.12215E+01  4.11650E+01  3.19893E+01  2.47835E+01  2.04633E+01  1.82944E+01  1.70691E+01  1.63533E+01
   1.59012E+01  1.55976E+01  1.53768E+01  1.51825E+01  1.49674E+01  1.47040E+01  1.44002E+01  1.40838E+01  1.37831E+01  1.35221E+01
   1.33219E+01  1.31866E+01  1.31077E+01  1.30709E+01  1.30638E+01  1.30771E+01  1.31101E+01  1.31658E+01  1.32541E+01  1.33845E+01
   1.35610E+01  1.37827E+01  1.40463E+01  1.43458E+01  1.46852E+01  1.50702E+01  1.55058E+01  1.60001E+01  1.65632E+01  1.71970E+01
   1.78973E+01  1.86549E+01  1.94594E+01  2.02984E+01  2.11577E+01  2.20221E+01  2.28777E+01  2.37085E+01  2.44983E+01  2.52301E+01
   2.58884E+01  2.64591E+01  2.69312E+01  2.72967E+01  2.75520E+01  2.76968E+01  2.77355E+01  2.76755E+01  2.75281E+01  2.73066E+01
   2.70266E+01  2.67044E+01  2.63570E+01  2.60004E+01  2.56499E+01  2.53184E+01  2.50173E+01  2.47551E+01  2.45388E+01  2.43725E+01
   2.42592E+01  2.41993E+01  2.41928E+01  2.42383E+01  2.43342E+01  2.44783E+01  2.46690E+01  2.49039E+01  2.51817E+01  2.55004E+01
   2.58589E+01  2.62555E+01  2.66885E+01  2.71555E+01  2.76540E+01  2.81802E+01  2.87298E+01  2.92971E+01  2.98759E+01  3.04584E+01
   3.10365E+01  3.16009E+01  3.21425E+01  3.26512E+01  3.31178E+01  3.35329E+01  3.38887E+01  3.41777E+01  3.43947E+01  3.45352E+01
   3.45973E+01  3.45803E+01  3.44864E+01  3.43188E+01  3.40830E+01  3.37857E+01  3.34355E+01  3.30416E+01  3.26148E+01  3.21656E+01
   3.17055E+01  3.12457E+01  3.07974E+01  3.03713E+01  2.99778E+01  2.96263E+01  2.93258E+01  2.90839E+01  2.89078E+01  2.88031E+01
   2.87749E+01  2.88264E+01  2.89601E+01  2.91764E+01  2.94746E+01  2.98518E+01  3.03036E+01  3.08231E+01  3.14019E+01  3.20289E+01
   3.26916E+01  3.33754E+01  3.40645E+01  3.47419E+01  3.53903E+01  3.59923E+01  3.65317E+01  3.69929E+01  3.73633E+01  3.76318E+01
   3.77912E+01  3.78368E+01  3.77678E+01  3.75864E+01  3.72982E+01  3.69111E+01  3.64359E+01  3.58847E+01  3.52711E+01  3.46089E+01
   3.39125E+01  3.31951E+01  3.24698E+01  3.17476E+01  3.10390E+01  3.03521E+01  2.96938E+01  2.90692E+01  2.84822E+01  2.79349E+01
   2.74287E+01  2.69635E+01  2.65388E+01  2.61531E+01  2.58049E+01  2.54917E+01  2.52114E+01  2.49613E+01  2.47393E+01  2.45425E+01
   2.43690E+01  2.42163E+01  2.40826E+01  2.39657E+01  2.38641E+01  2.37760E+01  2.37003E+01  2.36355E+01  2.35806E+01  2.35343E+01
   2.34961E+01  2.34649E+01  2.34403E+01  2.34214E+01  2.34078E+01  2.33988E+01  2.33944E+01  2.33937E+01  2.33968E+01  2.34030E+01
   2.34124E+01  2.34244E+01  2.34391E+01  2.34561E+01  2.34754E+01  2.34966E+01  2.35197E+01  2.35445E+01  2.35710E+01  2.35990E+01
   2.36284E+01  2.36590E+01  2.36910E+01  2.37241E+01  2.37583E+01  2.37935E+01  2.38297E+01  2.38667E+01  2.39046E+01  2.39433E+01
   2.39829E+01  2.40230E+01  2.40640E+01  2.41054E+01  2.41476E+01  2.41903E+01  2.42336E+01  2.42774E+01  2.43217E+01  2.43664E+01
   2.44117E+01  2.44573E+01  2.45035E+01  2.45499E+01  2.45967E+01  2.46439E+01  2.46915E+01  2.47393E+01  2.47876E+01  2.48360E+01
   2.48848E+01  2.49338E+01  2.49832E+01  2.50327E+01  2.50825E+01  2.51324E+01  2.51827E+01  2.52331E+01
 NY background values follow
    -3.152E+01   -3.134E+01   -3.116E+01   -3.098E+01   -3.081E+01   -3.063E+01   -3.045E+01   -3.027E+01   -3.010E+01   -2.992E+01
    -2.974E+01   -2.956E+01   -2.939E+01   -2.921E+01   -2.903E+01   -2.885E+01   -2.868E+01   -2.850E+01   -2.832E+01   -2.814E+01
    -2.797E+01   -2.779E+01   -2.761E+01   -2.744E+01   -2.726E+01   -2.708E+01   -2.690E+01   -2.673E+01   -2.655E+01   -2.637E+01
    -2.620E+01   -2.602E+01   -2.584E+01   -2.567E+01   -2.549E+01   -2.531E+01   -2.514E+01   -2.496E+01   -2.479E+01   -2.461E+01
    -2.443E+01   -2.426E+01   -2.408E+01   -2.391E+01   -2.373E+01   -2.356E+01   -2.338E+01   -2.321E+01   -2.303E+01   -2.286E+01
    -2.268E+01   -2.251E+01   -2.233E+01   -2.216E+01   -2.199E+01   -2.181E+01   -2.164E+01   -2.146E+01   -2.129E+01   -2.112E+01
    -2.095E+01   -2.077E+01   -2.060E+01   -2.043E+01   -2.026E+01   -2.008E+01   -1.991E+01   -1.974E+01   -1.957E+01   -1.940E+01
    -1.923E+01   -1.906E+01   -1.889E+01   -1.872E+01   -1.855E+01   -1.838E+01   -1.821E+01   -1.804E+01   -1.787E+01   -1.770E+01
    -1.754E+01   -1.737E+01   -1.720E+01   -1.703E+01   -1.687E+01   -1.670E+01   -1.653E+01   -1.637E+01   -1.620E+01   -1.604E+01
    -1.587E+01   -1.571E+01   -1.554E+01   -1.538E+01   -1.522E+01   -1.505E+01   -1.489E+01   -1.473E+01   -1.456E+01   -1.440E+01
    -1.424E+01   -1.408E+01   -1.392E+01   -1.376E+01   -1.360E+01   -1.344E+01   -1.328E+01   -1.312E+01   -1.296E+01   -1.280E+01
    -1.264E+01   -1.249E+01   -1.233E+01   -1.217E+01   -1.202E+01   -1.186E+01   -1.170E+01   -1.155E+01   -1.139E+01   -1.124E+01
    -1.109E+01   -1.093E+01   -1.078E+01   -1.063E+01   -1.047E+01   -1.032E+01   -1.017E+01   -1.002E+01   -9.867E+00   -9.716E+00
    -9.566E+00   -9.416E+00   -9.267E+00   -9.118E+00   -8.970E+00   -8.822E+00   -8.674E+00   -8.527E+00   -8.380E+00   -8.234E+00
    -8.088E+00   -7.943E+00   -7.798E+00   -7.653E+00   -7.509E+00   -7.365E+00   -7.222E+00   -7.079E+00   -6.937E+00   -6.795E+00
    -6.653E+00   -6.512E+00   -6.371E+00   -6.230E+00   -6.090E+00   -5.951E+00   -5.812E+00   -5.673E+00   -5.535E+00   -5.397E+00
    -5.259E+00   -5.122E+00   -4.985E+00   -4.849E+00   -4.713E+00   -4.578E+00   -4.443E+00   -4.308E+00   -4.174E+00   -4.040E+00
    -3.906E+00   -3.773E+00   -3.641E+00   -3.508E+00   -3.376E+00   -3.245E+00   -3.114E+00   -2.983E+00   -2.853E+00   -2.723E+00
    -2.593E+00   -2.464E+00   -2.336E+00   -2.207E+00   -2.079E+00   -1.952E+00   -1.825E+00   -1.698E+00   -1.571E+00   -1.445E+00
    -1.320E+00   -1.195E+00   -1.070E+00   -9.451E-01   -8.210E-01   -6.972E-01   -5.738E-01   -4.508E-01   -3.282E-01   -2.059E-01
    -8.397E-02    3.758E-02    1.588E-01    2.796E-01    4.001E-01    5.202E-01    6.399E-01    7.593E-01    8.784E-01    9.970E-01
     1.115E+00    1.233E+00    1.351E+00    1.468E+00    1.585E+00    1.702E+00    1.818E+00    1.934E+00    2.050E+00    2.165E+00
     2.280E+00    2.394E+00    2.508E+00    2.622E+00    2.736E+00    2.849E+00    2.962E+00    3.075E+00    3.187E+00    3.299E+00
     3.410E+00    3.522E+00    3.632E+00    3.743E+00    3.853E+00    3.963E+00    4.073E+00    4.182E+00    4.291E+00    4.400E+00
     4.508E+00    4.616E+00    4.724E+00    4.831E+00    4.938E+00    5.045E+00    5.152E+00    5.258E+00    5.364E+00    5.469E+00
     5.574E+00    5.679E+00    5.784E+00    5.888E+00    5.992E+00    6.096E+00    6.199E+00    6.302E+00    6.405E+00    6.507E+00
     6.609E+00    6.711E+00    6.812E+00    6.913E+00    7.014E+00    7.115E+00    7.215E+00    7.315E+00    7.415E+00    7.514E+00
     7.613E+00    7.712E+00    7.810E+00    7.908E+00    8.006E+00    8.104E+00    8.201E+00    8.298E+00    8.395E+00    8.491E+00
     8.587E+00    8.683E+00    8.778E+00    8.873E+00    8.968E+00    9.063E+00    9.157E+00    9.251E+00    9.345E+00    9.438E+00
     9.532E+00    9.624E+00    9.717E+00    9.809E+00    9.901E+00    9.993E+00    1.008E+01    1.018E+01    1.027E+01    1.036E+01
     1.045E+01    1.054E+01    1.063E+01    1.072E+01    1.081E+01    1.089E+01    1.098E+01    1.107E+01    1.116E+01    1.125E+01
     1.133E+01    1.142E+01    1.151E+01    1.160E+01    1.168E+01    1.177E+01    1.185E+01    1.194E+01    1.202E+01    1.211E+01
     1.219E+01    1.228E+01    1.236E+01    1.245E+01    1.253E+01    1.261E+01    1.270E+01    1.278E+01    1.286E+01    1.295E+01
     1.303E+01    1.311E+01    1.319E+01    1.327E+01    1.335E+01    1.343E+01    1.352E+01    1.360E+01    1.368E+01    1.376E+01
     1.384E+01    1.391E+01    1.399E+01    1.407E+01    1.415E+01    1.423E+01    1.431E+01    1.439E+01    1.446E+01    1.454E+01
     1.462E+01    1.470E+01    1.477E+01    1.485E+01    1.493E+01    1.500E+01    1.508E+01    1.515E+01    1.523E+01    1.530E+01
     1.538E+01    1.545E+01    1.553E+01    1.560E+01    1.568E+01    1.575E+01    1.582E+01    1.590E+01    1.597E+01    1.604E+01
     1.612E+01    1.619E+01    1.626E+01    1.633E+01    1.641E+01    1.648E+01    1.655E+01    1.662E+01    1.669E+01    1.676E+01
     1.684E+01    1.691E+01    1.698E+01    1.705E+01    1.712E+01    1.719E+01    1.726E+01    1.733E+01    1.740E+01    1.747E+01
     1.753E+01    1.760E+01    1.767E+01    1.774E+01    1.781E+01    1.788E+01    1.795E+01    1.801E+01    1.808E+01    1.815E+01
     1.822E+01    1.828E+01    1.835E+01    1.842E+01    1.848E+01    1.855E+01    1.862E+01    1.868E+01    1.875E+01    1.882E+01
     1.888E+01    1.895E+01    1.901E+01    1.908E+01    1.915E+01    1.921E+01    1.928E+01    1.934E+01    1.941E+01    1.947E+01
     1.954E+01    1.960E+01    1.966E+01    1.973E+01    1.979E+01    1.986E+01    1.992E+01    1.999E+01    2.005E+01    2.011E+01
     2.018E+01    2.024E+01    2.030E+01    2.037E+01    2.043E+01    2.049E+01    2.056E+01    2.062E+01    2.068E+01    2.074E+01
     2.081E+01    2.087E+01    2.093E+01    2.100E+01    2.106E+01    2.112E+01    2.118E+01    2.125E+01    2.131E+01    2.137E+01
     2.143E+01    2.149E+01    2.156E+01    2.162E+01    2.168E+01    2.174E+01    2.180E+01    2.187E+01    2.193E+01    2.199E+01
     2.205E+01    2.211E+01    2.217E+01    2.224E+01    2.230E+01    2.236E+01    2.242E+01    2.248E+01    2.254E+01    2.261E+01
     2.267E+01    2.273E+01    2.279E+01    2.285E+01    2.291E+01    2.297E+01    2.303E+01    2.310E+01    2.316E+01    2.322E+01
     2.328E+01    2.334E+01    2.340E+01    2.346E+01    2.352E+01    2.359E+01    2.365E+01    2.371E+01    2.377E+01    2.383E+01
     2.389E+01    2.395E+01    2.401E+01    2.407E+01    2.414E+01    2.420E+01    2.426E+01    2.432E+01
 Asp      Conc. = 1.31E+02
