 LCModel (Version 6.3-1L) Copyright: S.W. Provencher.          Ref.: Magn. Reson. Med. 30:672-679 (1993).                
 Slice#2 Row#1 Col#8  PD_05_press_2_raw_act
 36 lines in following concentration table = NCONC+1
    Conc.  %SD /Cr+PCr  Metabolite                                         
  741.776  44%  42.842 Ala                                                 
   39.185  87%   2.263 Asp                                                 
    8.201 999%   0.474 Cr                                                  
    9.113 999%   0.526 PCr                                                 
   24.655  83%   1.424 GABA                                                
   24.528  83%   1.417 Glc                                                 
 1.51E+03  45%  87.273 Gln                                                 
  931.826  80%  53.818 Glu                                                 
  114.727  46%   6.626 GPC                                                 
    0.000 999%   0.000 PCh                                                 
    0.000 999%   0.000 GSH                                                 
  795.612  78%  45.951 Ins                                                 
    0.000 999%   0.000 Lac                                                 
  358.331  55%  20.696 NAA                                                 
   86.589 231%   5.001 NAAG                                                
    8.586  79%   0.496 Scyllo                                              
   42.343  80%   2.446 Tau                                                 
    0.000 999%   0.000 -CrCH2                                              
  114.727  46%   6.626 GPC+PCh                                             
  444.920  42%  25.697 NAA+NAAG                                            
   17.314 592%   1.000 Cr+PCr                                              
 2.44E+03  43% 141.091 Glu+Gln                                             
    0.000 999%   0.000 Lip13a                                              
   56.982 493%   3.291 Lip13b                                              
    0.000 999%   0.000 Lip09                                               
 1.76E+03  27% 101.389 MM09                                                
   41.923 367%   2.421 Lip20                                               
 2.73E+03  26% 157.541 MM20                                                
  528.743  28%  30.538 MM12                                                
 1.39E+03  29%  80.126 MM14                                                
  910.236  25%  52.571 MM17                                                
   56.982 493%   3.291 Lip13a+Lip13b                                       
 1.97E+03  31% 113.955 MM14+Lip13a+Lip13b+MM12                             
 1.76E+03  27% 101.389 MM09+Lip09                                          
 2.77E+03  26% 159.962 MM20+Lip20                                          
   6 lines in following misc. output table
  FWHM = 0.069 ppm    S/N =   1                                            
  Data shift = 0.130 ppm                                                   
  Ph: 121 deg     -10.1 deg/ppm                                            
  alphaB,S = 8.5E+01,   5.1E+01                                            
   14 spline knots.   Ns = 5(1)                                            
  (10) 3 infls.   (11) 3 extrs.                                            
  498 points on ppm-axis = NY
      4.000000     3.992357     3.984714     3.977070     3.969427     3.961784     3.954141     3.946497     3.938854     3.931211
      3.923568     3.915925     3.908281     3.900638     3.892995     3.885352     3.877708     3.870065     3.862422     3.854779
      3.847136     3.839492     3.831849     3.824206     3.816563     3.808919     3.801276     3.793633     3.785990     3.778347
      3.770703     3.763060     3.755417     3.747774     3.740130     3.732487     3.724844     3.717201     3.709558     3.701914
      3.694271     3.686628     3.678985     3.671341     3.663698     3.656055     3.648412     3.640769     3.633125     3.625482
      3.617839     3.610196     3.602552     3.594909     3.587266     3.579623     3.571980     3.564336     3.556693     3.549050
      3.541407     3.533763     3.526120     3.518477     3.510834     3.503191     3.495547     3.487904     3.480261     3.472618
      3.464974     3.457331     3.449688     3.442045     3.434402     3.426758     3.419115     3.411472     3.403829     3.396185
      3.388542     3.380899     3.373256     3.365613     3.357969     3.350326     3.342683     3.335040     3.327396     3.319753
      3.312110     3.304467     3.296824     3.289180     3.281537     3.273894     3.266251     3.258607     3.250964     3.243321
      3.235678     3.228034     3.220391     3.212748     3.205105     3.197462     3.189818     3.182175     3.174532     3.166889
      3.159245     3.151602     3.143959     3.136316     3.128673     3.121029     3.113386     3.105743     3.098100     3.090456
      3.082813     3.075170     3.067527     3.059884     3.052240     3.044597     3.036954     3.029311     3.021667     3.014024
      3.006381     2.998738     2.991095     2.983451     2.975808     2.968165     2.960522     2.952878     2.945235     2.937592
      2.929949     2.922306     2.914662     2.907019     2.899376     2.891733     2.884089     2.876446     2.868803     2.861160
      2.853517     2.845873     2.838230     2.830587     2.822944     2.815300     2.807657     2.800014     2.792371     2.784728
      2.777084     2.769441     2.761798     2.754155     2.746511     2.738868     2.731225     2.723582     2.715939     2.708295
      2.700652     2.693009     2.685366     2.677722     2.670079     2.662436     2.654793     2.647150     2.639506     2.631863
      2.624220     2.616577     2.608933     2.601290     2.593647     2.586004     2.578361     2.570717     2.563074     2.555431
      2.547788     2.540144     2.532501     2.524858     2.517215     2.509572     2.501928     2.494285     2.486642     2.478999
      2.471355     2.463712     2.456069     2.448426     2.440783     2.433139     2.425496     2.417853     2.410210     2.402566
      2.394923     2.387280     2.379637     2.371994     2.364350     2.356707     2.349064     2.341421     2.333777     2.326134
      2.318491     2.310848     2.303205     2.295561     2.287918     2.280275     2.272632     2.264988     2.257345     2.249702
      2.242059     2.234416     2.226772     2.219129     2.211486     2.203843     2.196199     2.188556     2.180913     2.173270
      2.165627     2.157983     2.150340     2.142697     2.135054     2.127410     2.119767     2.112124     2.104481     2.096838
      2.089194     2.081551     2.073908     2.066265     2.058621     2.050978     2.043335     2.035692     2.028049     2.020405
      2.012762     2.005119     1.997476     1.989833     1.982190     1.974546     1.966903     1.959260     1.951617     1.943974
      1.936331     1.928688     1.921045     1.913402     1.905759     1.898115     1.890472     1.882829     1.875186     1.867543
      1.859900     1.852257     1.844614     1.836971     1.829327     1.821684     1.814041     1.806398     1.798755     1.791112
      1.783469     1.775826     1.768183     1.760540     1.752896     1.745253     1.737610     1.729967     1.722324     1.714681
      1.707038     1.699395     1.691752     1.684108     1.676465     1.668822     1.661179     1.653536     1.645893     1.638250
      1.630607     1.622964     1.615321     1.607677     1.600034     1.592391     1.584748     1.577105     1.569462     1.561819
      1.554176     1.546533     1.538890     1.531246     1.523603     1.515960     1.508317     1.500674     1.493031     1.485388
      1.477745     1.470102     1.462458     1.454815     1.447172     1.439529     1.431886     1.424243     1.416600     1.408957
      1.401314     1.393671     1.386027     1.378384     1.370741     1.363098     1.355455     1.347812     1.340169     1.332526
      1.324883     1.317240     1.309596     1.301953     1.294310     1.286667     1.279024     1.271381     1.263738     1.256095
      1.248452     1.240808     1.233165     1.225522     1.217879     1.210236     1.202593     1.194950     1.187307     1.179664
      1.172021     1.164377     1.156734     1.149091     1.141448     1.133805     1.126162     1.118519     1.110876     1.103233
      1.095590     1.087946     1.080303     1.072660     1.065017     1.057374     1.049731     1.042088     1.034445     1.026802
      1.019158     1.011515     1.003872     0.996229     0.988586     0.980943     0.973300     0.965657     0.958014     0.950371
      0.942727     0.935084     0.927441     0.919798     0.912155     0.904512     0.896869     0.889226     0.881583     0.873940
      0.866296     0.858653     0.851010     0.843367     0.835724     0.828081     0.820438     0.812795     0.805152     0.797508
      0.789865     0.782222     0.774579     0.766936     0.759293     0.751650     0.744007     0.736364     0.728721     0.721077
      0.713434     0.705791     0.698148     0.690505     0.682862     0.675219     0.667576     0.659933     0.652290     0.644646
      0.637003     0.629360     0.621717     0.614074     0.606431     0.598788     0.591145     0.583502     0.575858     0.568215
      0.560572     0.552929     0.545286     0.537643     0.530000     0.522357     0.514714     0.507071     0.499427     0.491784
      0.484141     0.476498     0.468855     0.461212     0.453569     0.445925     0.438282     0.430639     0.422996     0.415353
      0.407710     0.400067     0.392424     0.384780     0.377137     0.369494     0.361851     0.354208     0.346565     0.338922
      0.331278     0.323635     0.315992     0.308349     0.300706     0.293063     0.285420     0.277777     0.270133     0.262490
      0.254847     0.247204     0.239561     0.231918     0.224275     0.216631     0.208988     0.201345
 NY phased data points follow
  -3.55590E+01 -2.76986E+01 -1.78132E+01 -4.67536E+00 -1.04153E+01 -5.18062E+00 -3.75652E+00 -1.06894E+01 -2.53694E+00 -1.75310E+01
   1.61120E+01 -5.30982E+00 -1.30258E+01 -7.82799E-01  9.67519E-01  6.12945E+00 -9.51508E+00  5.05032E+00 -1.28712E+00  7.94460E+00
   7.90759E+00  1.86121E+00 -5.31523E+00  2.42882E+00 -1.76828E+00 -2.18132E+01 -9.96459E-01  7.60479E-01 -2.07809E+00 -2.89639E+00
  -6.45029E+00 -1.23113E+01 -1.84239E+01 -1.42312E+01 -1.33811E+01 -1.31786E+01  5.59555E+00 -1.01998E+01 -8.04425E+00 -8.04359E-01
  -1.71999E+01 -1.98595E+00 -9.80116E+00 -2.40856E+00 -3.76836E+00  5.23557E-01 -1.70850E+00 -1.30962E+01  1.37697E+01  6.35489E+00
   5.28967E+00  5.84618E+00  4.42684E+00 -1.45671E+01 -9.08787E+00 -8.04010E+00 -2.80888E-01 -3.85985E+00 -7.25971E+00 -7.73334E+00
   1.57264E+01 -2.79446E+00 -1.75876E+01 -6.53075E+00 -4.40967E+00 -5.86337E-01  1.40352E+01 -4.59043E+00  5.53406E+00 -1.85119E+01
  -1.95211E+00 -1.59008E+01  1.18013E+01  7.93033E-02 -2.47296E+00 -3.88531E+00  2.13455E+00  4.04476E+00  4.48649E+00  5.94805E+00
   2.25491E+00  4.93429E+00 -5.30997E+00 -9.18078E+00  9.29030E+00 -3.18205E+00 -9.20872E+00 -1.65769E+01 -4.83924E+00  1.60056E+01
   1.20167E+01  1.27391E+01 -1.10910E+01 -1.29765E+01 -4.18592E+00 -9.20870E+00  2.05645E+00 -4.74188E+00 -2.32599E+00 -1.21434E-02
  -5.36760E+00 -1.08383E+01  6.59287E-01 -1.23471E+01  2.20623E+00 -2.45865E+00  2.29565E+01  8.11603E+00  5.65371E+00  4.12868E-01
  -2.16096E+00 -2.45417E+00 -1.80064E+01 -5.87965E-01  1.96492E+00  3.52416E+00  6.35638E-02  8.74028E+00  8.50236E+00  2.07788E+01
   1.11129E+01  6.80568E-01 -2.57011E-01 -9.40215E+00 -5.52588E-01 -6.65001E+00 -6.32441E+00 -9.97987E+00 -8.90219E+00  5.76275E+00
  -5.11285E+00 -1.00560E+01  1.23741E+01 -6.18354E+00 -1.45715E+00 -5.69718E-01 -3.62955E+00 -8.07398E+00  5.40738E+00  1.24435E+00
  -4.21003E+00  1.35370E+00 -5.94967E+00 -1.15171E+01  1.24780E+01  2.36302E+01  8.08846E+00  1.14715E+01  3.37861E+00 -4.50922E+00
   1.65188E+01  1.10529E+01 -1.11578E+01  2.72572E+00  9.09452E+00  1.72553E+01  1.10696E+00 -1.54484E-01 -8.19332E-01 -3.78592E+00
  -3.27339E+00  2.46805E+01 -7.60638E+00  8.63085E+00 -4.98165E+00 -1.18988E+00 -6.54264E+00  5.73353E+00 -1.11715E+01  1.07327E+01
  -7.12261E+00 -1.46805E+01 -5.57736E+00 -1.72837E+00 -5.84216E+00 -6.40604E+00 -6.65789E+00 -2.33878E+01 -6.99935E+00 -1.91563E+01
  -9.45147E-01 -2.19290E+01 -1.34571E+01 -1.64253E+01 -1.72183E+01 -2.59545E+01 -1.57694E+01 -2.77336E+01 -1.72657E+01 -1.06770E+01
  -3.34477E+01 -2.14679E+01 -1.23527E+01 -2.18036E+01 -2.00173E+01 -1.81080E+01 -1.11376E+01 -1.82530E-01 -1.25814E+01 -3.56048E+00
  -2.04286E+01 -9.96540E+00 -5.66260E+00 -3.58617E-01 -6.09961E+00  7.50451E+00 -4.92736E+00 -1.01589E+01 -9.11802E+00 -9.89692E+00
  -6.81505E+00  9.13477E+00 -1.65525E+01 -4.76788E-01 -3.88393E+00  1.77865E-01  6.01022E-01 -7.64947E+00  8.26941E+00 -3.88409E+00
   5.26092E+00  9.89610E-01 -4.50816E+00  4.44964E+00  1.15582E+01  1.72485E+01 -1.97430E+00  6.84730E+00  7.07848E+00  1.41229E+01
   2.03418E+01  6.56213E+00  1.68641E+01  1.55032E+01  7.83535E+00  2.35307E+01  1.25702E+01  1.71131E+01  1.42621E+01  1.22461E+01
   1.46139E+01  2.54099E+01  5.84798E-01 -1.07805E+01  1.47892E+00  1.27982E+01  2.67737E+00  1.74317E+01  1.89219E+01  7.61114E+00
   4.80445E+00  3.78295E+00  1.65881E+01  1.97407E+01  2.42723E+01  3.08070E+01  1.45873E+01  1.88789E+01  1.79682E+01  2.32282E+01
   2.37036E+01  1.75770E+01  2.93409E+01  2.14807E+01  1.91999E+01  2.61105E+01  2.26600E+01  2.03776E+01  1.82653E+01  1.74058E+01
   3.14309E+01  1.73434E+01  1.81002E+01  3.06236E+01  1.92956E+01  6.79941E+00  2.55301E+01  2.00238E+01  2.28673E+01  1.29566E+01
   2.64512E+01  1.88859E+01  1.92742E+01  2.01858E+01  3.57959E+00  1.83499E+01  2.16067E+01  3.65312E+01  1.86956E+01  2.76970E+01
   1.19611E+01  3.02134E+01  2.15676E+01  3.95887E+01  2.68446E+01  2.16478E+01  2.01476E+01  2.48209E+01  1.72419E+01  1.31596E+01
   2.41872E+01  2.03272E+01  1.72705E+01  9.81097E-01  1.46789E+01  1.60542E+01  2.71872E+01  2.94204E+01  1.39261E+01  1.08701E+01
   1.42742E+01  2.90988E+01  5.86591E+00  2.38836E+01  8.02952E+00  3.84647E+01  2.55231E+01  2.74620E+01  2.60938E+01  3.18248E+01
   3.62105E+01  1.20259E+01  1.33320E+01  1.55896E+01 -2.64596E+00 -2.19261E+00 -8.46381E+00 -2.61573E+00  5.31272E+00 -3.61474E+00
   6.46117E+00  7.44986E+00 -1.61750E+00  1.44828E+01 -2.48724E+00  6.68679E-01  2.09212E+01  1.50951E+01  1.47584E+01 -8.67626E+00
  -8.56440E-01 -2.41894E-01  1.45207E+01 -7.33035E+00 -4.19490E+00 -8.00498E+00 -1.07841E+00  5.98775E+00  8.03497E+00 -4.63759E+00
   2.49233E+00  1.47751E+01  1.66019E+01  9.76858E+00  1.50117E+01  1.48051E+01  1.80514E+01  1.41359E+01 -1.62250E-01 -2.34399E+00
   1.32883E+01  1.18591E+01 -5.98752E+00  5.79810E-01  1.57925E+01  9.59879E+00  1.96174E+01  1.67326E+01  2.30212E+01  1.17191E+01
   1.56720E+01  1.04703E+01  4.82119E+00  4.24283E+00  6.69914E+00  2.03932E+01  1.21547E+00  5.99409E+00 -1.00027E+00 -1.11746E+01
   2.61596E+00  8.40566E+00  5.19323E+00  3.40816E+00  1.00163E-01  1.03443E+01 -1.34663E+01 -4.67183E+00  7.97155E+00 -2.07101E+00
   2.36561E-01  7.38082E+00 -5.45498E+00  7.14244E+00  4.13270E+00 -4.00219E+00 -1.05120E+01  9.13758E+00  1.46410E+01  1.57454E+00
  -5.25690E+00 -7.24547E+00 -8.51453E-01  1.69238E+01 -6.51077E-01  5.01358E+00 -7.19136E+00  1.33242E+01  1.85034E+01  3.03349E+00
   3.98807E+00  1.34909E+01  6.54525E+00  4.38198E+00  2.15432E+00 -5.75407E+00  1.48765E+01 -6.55140E+00  9.59846E-01  1.25995E+01
   7.26364E+00  1.05173E+01  1.14238E+01  3.72559E-01 -1.75653E+01 -1.19617E+00  7.43198E+00  1.91134E+00 -1.95921E+00 -4.56911E+00
  -2.57871E+01 -1.20960E+00  4.52882E-01  1.09548E+01 -9.62162E-01  4.81259E+00  3.53152E-01 -1.09090E+01  1.69158E+01 -2.78431E-01
   7.39246E+00  1.27955E+01 -1.32465E+00  9.28112E+00 -3.31043E+00  9.43245E-01  1.60239E+01 -1.27647E+01 -1.56271E+01 -1.71539E+01
  -1.45700E+01  1.27855E+01 -2.46400E+01  1.52066E+01 -1.13712E+01 -1.38119E+01  5.60561E+00  1.62360E+00  7.14424E+00 -3.93679E+00
  -8.52929E+00  4.61280E+00 -1.49485E+00 -2.87536E+00 -3.50738E-01 -5.48354E+00 -7.00035E+00  1.61504E+01  7.07299E+00 -5.75361E-01
   8.76662E+00  8.13613E+00  1.85218E+00  8.35562E+00  1.71125E+01  6.33385E+00  3.02424E+00  1.75697E+00 -7.67948E+00 -2.01658E+00
  -1.07092E+01 -2.01081E+00 -4.12675E+00 -7.55273E+00 -5.08266E+00 -7.18471E+00 -3.05260E+00  1.31879E+01  3.15487E+00  8.11689E-01
   1.62387E+00  2.27481E+01  1.64366E-01 -1.53264E+01 -5.44074E+00  6.49615E-02  9.28929E+00 -2.11772E+00
 NY points of the fit to the data follow
  -1.51220E+00 -1.80307E+00 -2.20984E+00 -2.62817E+00 -2.95533E+00 -3.19004E+00 -3.37001E+00 -3.49408E+00 -3.54787E+00 -3.55268E+00
  -3.54108E+00 -3.52185E+00 -3.51160E+00 -3.62277E+00 -3.86601E+00 -4.18775E+00 -4.53836E+00 -4.88486E+00 -5.20174E+00 -5.31131E+00
  -4.73647E+00 -3.46216E+00 -2.06280E+00 -1.08284E+00 -8.37649E-01 -1.44271E+00 -2.98312E+00 -5.13481E+00 -6.84266E+00 -7.77397E+00
  -8.03023E+00 -7.70072E+00 -6.67122E+00 -5.19772E+00 -3.56433E+00 -1.94205E+00 -7.62423E-01 -5.68320E-01 -1.63804E+00 -3.46248E+00
  -5.17230E+00 -6.53639E+00 -7.29837E+00 -7.09019E+00 -5.93577E+00 -4.40430E+00 -2.96088E+00 -1.75370E+00 -7.75632E-01  3.07330E-02
   6.41755E-01  8.88575E-01  5.36701E-01 -5.15266E-01 -1.91498E+00 -2.98996E+00 -3.46449E+00 -3.41973E+00 -3.08101E+00 -2.65962E+00
  -2.29181E+00 -2.05163E+00 -1.93828E+00 -1.92452E+00 -2.03627E+00 -2.33259E+00 -2.81900E+00 -3.26598E+00 -3.49529E+00 -3.46655E+00
  -3.26566E+00 -2.97360E+00 -2.65871E+00 -2.38861E+00 -2.18524E+00 -2.05816E+00 -2.02577E+00 -2.08339E+00 -2.21979E+00 -2.34544E+00
  -2.42136E+00 -2.42678E+00 -2.39781E+00 -2.44321E+00 -2.67323E+00 -3.08377E+00 -3.59674E+00 -4.14129E+00 -4.68727E+00 -5.21350E+00
  -5.70440E+00 -6.10498E+00 -6.31474E+00 -6.35024E+00 -6.33956E+00 -6.47158E+00 -6.91780E+00 -7.69715E+00 -7.87290E+00 -6.59445E+00
  -4.52508E+00 -2.39838E+00 -5.46145E-01  1.09008E+00  2.66709E+00  4.09791E+00  5.02851E+00  5.02024E+00  3.89100E+00  2.00890E+00
   4.06762E-01 -4.38150E-01 -9.30174E-01 -1.24790E+00 -1.47054E+00 -1.63373E+00 -1.76122E+00 -1.86143E+00 -1.94196E+00 -2.01022E+00
  -2.06937E+00 -2.11223E+00 -2.08239E+00 -1.94546E+00 -1.74539E+00 -1.52835E+00 -1.31294E+00 -1.10421E+00 -9.03571E-01 -7.21657E-01
  -5.89362E-01 -5.27946E-01 -5.37819E-01 -5.96703E-01 -6.45542E-01 -6.61597E-01 -6.65030E-01 -6.66462E-01 -6.71879E-01 -6.80244E-01
  -6.89313E-01 -6.94809E-01 -6.97362E-01 -7.05397E-01 -7.26720E-01 -7.62591E-01 -8.03151E-01 -8.41000E-01 -8.75764E-01 -9.19861E-01
  -9.87043E-01 -1.06749E+00 -1.14501E+00 -1.20366E+00 -1.23384E+00 -1.25282E+00 -1.30454E+00 -1.41131E+00 -1.53926E+00 -1.65029E+00
  -1.70807E+00 -1.72397E+00 -1.74936E+00 -1.79504E+00 -1.84351E+00 -1.87475E+00 -1.87731E+00 -1.86074E+00 -1.86485E+00 -1.90943E+00
  -1.98328E+00 -2.08958E+00 -2.21442E+00 -2.30282E+00 -2.33571E+00 -2.32428E+00 -2.32194E+00 -2.37011E+00 -2.43547E+00 -2.44990E+00
  -2.37814E+00 -2.25416E+00 -2.15191E+00 -2.10181E+00 -2.04459E+00 -1.91114E+00 -1.69555E+00 -1.42767E+00 -1.18729E+00 -1.12961E+00
  -1.23147E+00 -1.52950E+00 -2.04023E+00 -2.66900E+00 -3.35066E+00 -3.97707E+00 -4.22731E+00 -3.77240E+00 -2.61461E+00 -1.02592E+00
   9.32889E-01  3.04724E+00  4.89628E+00  6.02173E+00  5.92007E+00  3.78013E+00  2.67508E-01 -3.11854E+00 -5.65077E+00 -7.16183E+00
  -7.63635E+00 -6.74250E+00 -4.45568E+00 -1.20917E+00  2.42686E+00  5.78396E+00  7.92526E+00  7.94226E+00  6.39560E+00  4.40267E+00
   2.54707E+00  1.10518E+00  3.94167E-01  6.21826E-01  1.53319E+00  2.92681E+00  4.62479E+00  6.31028E+00  7.63566E+00  8.30978E+00
   8.21315E+00  7.29616E+00  6.15831E+00  5.42862E+00  5.44148E+00  6.21628E+00  7.70061E+00  9.38460E+00  1.04900E+01  1.11890E+01
   1.17811E+01  1.21421E+01  1.19213E+01  1.09583E+01  9.62260E+00  8.37989E+00  7.73789E+00  8.04910E+00  9.35821E+00  1.11521E+01
   1.29423E+01  1.48721E+01  1.66516E+01  1.78533E+01  1.85495E+01  1.97450E+01  2.19719E+01  2.40673E+01  2.52601E+01  2.55056E+01
   2.50814E+01  2.43039E+01  2.33421E+01  2.20003E+01  1.98508E+01  1.68969E+01  1.38258E+01  1.17059E+01  1.07632E+01  1.02551E+01
   9.93559E+00  9.74024E+00  9.58251E+00  9.44083E+00  9.34154E+00  9.26164E+00  9.17130E+00  9.05781E+00  8.92120E+00  8.77804E+00
   8.66999E+00  8.62937E+00  8.65654E+00  8.74411E+00  8.88782E+00  9.08320E+00  9.31947E+00  9.58558E+00  9.87613E+00  1.01906E+01
   1.05255E+01  1.08747E+01  1.12309E+01  1.15860E+01  1.19272E+01  1.22432E+01  1.25264E+01  1.27695E+01  1.29667E+01  1.31161E+01
   1.32151E+01  1.32624E+01  1.32603E+01  1.32132E+01  1.31269E+01  1.30087E+01  1.28674E+01  1.27154E+01  1.25649E+01  1.24278E+01
   1.23156E+01  1.22387E+01  1.22064E+01  1.22276E+01  1.23099E+01  1.24619E+01  1.26940E+01  1.30226E+01  1.34763E+01  1.41128E+01
   1.50673E+01  1.65258E+01  1.75890E+01  1.70345E+01  1.51707E+01  1.27350E+01  1.01895E+01  7.60084E+00  4.88226E+00  2.83292E+00
   2.72619E+00  4.32047E+00  7.09520E+00  1.05460E+01  1.36733E+01  1.58905E+01  1.74121E+01  1.80929E+01  1.76176E+01  1.59321E+01
   1.35222E+01  1.14807E+01  1.04254E+01  9.83840E+00  9.44785E+00  9.17313E+00  8.98116E+00  8.85417E+00  8.77984E+00  8.74734E+00
   8.74574E+00  8.76346E+00  8.78863E+00  8.80988E+00  8.81768E+00  8.80554E+00  8.77079E+00  8.71467E+00  8.64169E+00  8.55843E+00
   8.47211E+00  8.38927E+00  8.31471E+00  8.25106E+00  8.19883E+00  8.15700E+00  8.12379E+00  8.09739E+00  8.07647E+00  8.06054E+00
   8.04998E+00  8.04603E+00  8.05054E+00  8.06579E+00  8.09413E+00  8.13785E+00  8.19903E+00  8.27942E+00  8.38044E+00  8.50310E+00
   8.64788E+00  8.81481E+00  9.00340E+00  9.21267E+00  9.44110E+00  9.68654E+00  9.94614E+00  1.02163E+01  1.04929E+01  1.07707E+01
   1.10441E+01  1.13063E+01  1.15500E+01  1.17675E+01  1.19503E+01  1.20902E+01  1.21788E+01  1.22081E+01  1.21711E+01  1.20618E+01
   1.18756E+01  1.16101E+01  1.12644E+01  1.08401E+01  1.03410E+01  9.77316E+00  9.14459E+00  8.46513E+00  7.74597E+00  6.99923E+00
   6.23753E+00  5.47349E+00  4.71923E+00  3.98595E+00  3.28354E+00  2.62031E+00  2.00285E+00  1.43601E+00  9.22805E-01  4.64560E-01
   6.10403E-02 -2.89298E-01 -5.89044E-01 -8.41591E-01 -1.05091E+00 -1.22133E+00 -1.35735E+00 -1.46341E+00 -1.54374E+00 -1.60234E+00
  -1.64285E+00 -1.66858E+00 -1.68248E+00 -1.68707E+00 -1.68449E+00 -1.67654E+00 -1.66477E+00 -1.65045E+00 -1.63462E+00 -1.61810E+00
  -1.60151E+00 -1.58537E+00 -1.57011E+00 -1.55605E+00 -1.54345E+00 -1.53246E+00 -1.52318E+00 -1.51571E+00 -1.51012E+00 -1.50647E+00
  -1.50475E+00 -1.50496E+00 -1.50706E+00 -1.51106E+00 -1.51694E+00 -1.52470E+00 -1.53429E+00 -1.54564E+00 -1.55872E+00 -1.57351E+00
  -1.58999E+00 -1.60812E+00 -1.62785E+00 -1.64911E+00 -1.67189E+00 -1.69616E+00 -1.72191E+00 -1.74910E+00 -1.77766E+00 -1.80755E+00
  -1.83876E+00 -1.87126E+00 -1.90503E+00 -1.94003E+00 -1.97620E+00 -2.01350E+00 -2.05194E+00 -2.09150E+00 -2.13214E+00 -2.17382E+00
  -2.21647E+00 -2.26009E+00 -2.30466E+00 -2.35016E+00 -2.39655E+00 -2.44376E+00 -2.49176E+00 -2.54052E+00 -2.59003E+00 -2.64024E+00
  -2.69111E+00 -2.74254E+00 -2.79450E+00 -2.84695E+00 -2.89984E+00 -2.95310E+00 -3.00664E+00 -3.06033E+00
 NY background values follow
     5.432E-01    4.894E-01    4.362E-01    3.835E-01    3.314E-01    2.798E-01    2.288E-01    1.784E-01    1.285E-01    7.918E-02
     3.044E-02   -1.773E-02   -6.532E-02   -1.123E-01   -1.588E-01   -2.046E-01   -2.499E-01   -2.946E-01   -3.387E-01   -3.822E-01
    -4.251E-01   -4.675E-01   -5.092E-01   -5.503E-01   -5.909E-01   -6.308E-01   -6.702E-01   -7.090E-01   -7.471E-01   -7.847E-01
    -8.216E-01   -8.580E-01   -8.937E-01   -9.289E-01   -9.634E-01   -9.973E-01   -1.031E+00   -1.063E+00   -1.095E+00   -1.127E+00
    -1.158E+00   -1.188E+00   -1.218E+00   -1.247E+00   -1.275E+00   -1.303E+00   -1.330E+00   -1.357E+00   -1.383E+00   -1.408E+00
    -1.433E+00   -1.457E+00   -1.480E+00   -1.503E+00   -1.526E+00   -1.547E+00   -1.568E+00   -1.589E+00   -1.608E+00   -1.628E+00
    -1.646E+00   -1.664E+00   -1.682E+00   -1.698E+00   -1.714E+00   -1.730E+00   -1.745E+00   -1.759E+00   -1.773E+00   -1.786E+00
    -1.798E+00   -1.810E+00   -1.821E+00   -1.832E+00   -1.842E+00   -1.852E+00   -1.860E+00   -1.869E+00   -1.876E+00   -1.883E+00
    -1.890E+00   -1.896E+00   -1.901E+00   -1.905E+00   -1.910E+00   -1.913E+00   -1.916E+00   -1.918E+00   -1.920E+00   -1.921E+00
    -1.922E+00   -1.921E+00   -1.921E+00   -1.920E+00   -1.918E+00   -1.916E+00   -1.913E+00   -1.909E+00   -1.905E+00   -1.900E+00
    -1.895E+00   -1.890E+00   -1.883E+00   -1.876E+00   -1.869E+00   -1.861E+00   -1.853E+00   -1.844E+00   -1.834E+00   -1.824E+00
    -1.813E+00   -1.802E+00   -1.790E+00   -1.778E+00   -1.765E+00   -1.752E+00   -1.738E+00   -1.724E+00   -1.709E+00   -1.693E+00
    -1.677E+00   -1.661E+00   -1.644E+00   -1.627E+00   -1.609E+00   -1.590E+00   -1.572E+00   -1.552E+00   -1.532E+00   -1.512E+00
    -1.491E+00   -1.470E+00   -1.448E+00   -1.426E+00   -1.403E+00   -1.380E+00   -1.356E+00   -1.332E+00   -1.308E+00   -1.283E+00
    -1.258E+00   -1.232E+00   -1.205E+00   -1.179E+00   -1.152E+00   -1.124E+00   -1.096E+00   -1.068E+00   -1.039E+00   -1.010E+00
    -9.802E-01   -9.502E-01   -9.198E-01   -8.891E-01   -8.579E-01   -8.264E-01   -7.945E-01   -7.622E-01   -7.296E-01   -6.966E-01
    -6.632E-01   -6.295E-01   -5.954E-01   -5.610E-01   -5.263E-01   -4.912E-01   -4.558E-01   -4.200E-01   -3.839E-01   -3.476E-01
    -3.109E-01   -2.739E-01   -2.365E-01   -1.989E-01   -1.610E-01   -1.228E-01   -8.437E-02   -4.561E-02   -6.583E-03    3.272E-02
     7.228E-02    1.121E-01    1.522E-01    1.925E-01    2.331E-01    2.739E-01    3.149E-01    3.562E-01    3.977E-01    4.394E-01
     4.813E-01    5.235E-01    5.658E-01    6.084E-01    6.511E-01    6.940E-01    7.371E-01    7.804E-01    8.239E-01    8.675E-01
     9.113E-01    9.552E-01    9.993E-01    1.044E+00    1.088E+00    1.132E+00    1.177E+00    1.222E+00    1.267E+00    1.312E+00
     1.357E+00    1.402E+00    1.447E+00    1.493E+00    1.538E+00    1.584E+00    1.629E+00    1.675E+00    1.721E+00    1.767E+00
     1.813E+00    1.858E+00    1.904E+00    1.950E+00    1.996E+00    2.043E+00    2.089E+00    2.135E+00    2.181E+00    2.227E+00
     2.273E+00    2.319E+00    2.365E+00    2.411E+00    2.457E+00    2.503E+00    2.549E+00    2.595E+00    2.641E+00    2.687E+00
     2.733E+00    2.778E+00    2.824E+00    2.869E+00    2.915E+00    2.960E+00    3.006E+00    3.051E+00    3.096E+00    3.141E+00
     3.186E+00    3.230E+00    3.275E+00    3.320E+00    3.364E+00    3.408E+00    3.452E+00    3.496E+00    3.540E+00    3.583E+00
     3.627E+00    3.670E+00    3.713E+00    3.756E+00    3.799E+00    3.841E+00    3.883E+00    3.925E+00    3.967E+00    4.009E+00
     4.050E+00    4.091E+00    4.132E+00    4.173E+00    4.213E+00    4.254E+00    4.293E+00    4.333E+00    4.373E+00    4.412E+00
     4.450E+00    4.489E+00    4.527E+00    4.565E+00    4.603E+00    4.640E+00    4.677E+00    4.714E+00    4.750E+00    4.787E+00
     4.822E+00    4.858E+00    4.893E+00    4.927E+00    4.962E+00    4.996E+00    5.030E+00    5.063E+00    5.096E+00    5.128E+00
     5.160E+00    5.192E+00    5.224E+00    5.255E+00    5.285E+00    5.315E+00    5.345E+00    5.374E+00    5.403E+00    5.432E+00
     5.460E+00    5.488E+00    5.515E+00    5.542E+00    5.568E+00    5.594E+00    5.619E+00    5.644E+00    5.669E+00    5.693E+00
     5.716E+00    5.739E+00    5.762E+00    5.784E+00    5.805E+00    5.826E+00    5.847E+00    5.867E+00    5.887E+00    5.906E+00
     5.924E+00    5.942E+00    5.960E+00    5.977E+00    5.993E+00    6.009E+00    6.024E+00    6.039E+00    6.054E+00    6.067E+00
     6.080E+00    6.093E+00    6.105E+00    6.117E+00    6.127E+00    6.138E+00    6.147E+00    6.157E+00    6.165E+00    6.173E+00
     6.181E+00    6.187E+00    6.194E+00    6.199E+00    6.204E+00    6.209E+00    6.212E+00    6.216E+00    6.218E+00    6.220E+00
     6.221E+00    6.222E+00    6.222E+00    6.222E+00    6.220E+00    6.218E+00    6.216E+00    6.213E+00    6.209E+00    6.205E+00
     6.200E+00    6.194E+00    6.187E+00    6.180E+00    6.173E+00    6.164E+00    6.155E+00    6.146E+00    6.135E+00    6.124E+00
     6.112E+00    6.100E+00    6.087E+00    6.073E+00    6.059E+00    6.044E+00    6.028E+00    6.011E+00    5.994E+00    5.976E+00
     5.958E+00    5.939E+00    5.919E+00    5.898E+00    5.877E+00    5.855E+00    5.832E+00    5.809E+00    5.784E+00    5.760E+00
     5.734E+00    5.708E+00    5.681E+00    5.653E+00    5.625E+00    5.596E+00    5.566E+00    5.535E+00    5.504E+00    5.472E+00
     5.440E+00    5.406E+00    5.372E+00    5.337E+00    5.302E+00    5.266E+00    5.229E+00    5.191E+00    5.153E+00    5.113E+00
     5.074E+00    5.033E+00    4.992E+00    4.950E+00    4.907E+00    4.864E+00    4.820E+00    4.775E+00    4.729E+00    4.683E+00
     4.636E+00    4.588E+00    4.540E+00    4.491E+00    4.441E+00    4.390E+00    4.339E+00    4.287E+00    4.234E+00    4.181E+00
     4.127E+00    4.072E+00    4.016E+00    3.960E+00    3.903E+00    3.845E+00    3.787E+00    3.728E+00    3.668E+00    3.608E+00
     3.546E+00    3.484E+00    3.422E+00    3.359E+00    3.295E+00    3.230E+00    3.165E+00    3.099E+00    3.032E+00    2.965E+00
     2.896E+00    2.828E+00    2.758E+00    2.688E+00    2.617E+00    2.546E+00    2.474E+00    2.401E+00    2.328E+00    2.253E+00
     2.179E+00    2.103E+00    2.027E+00    1.950E+00    1.873E+00    1.795E+00    1.716E+00    1.637E+00    1.557E+00    1.476E+00
     1.395E+00    1.313E+00    1.231E+00    1.148E+00    1.064E+00    9.797E-01    8.947E-01    8.091E-01    7.230E-01    6.362E-01
     5.488E-01    4.608E-01    3.723E-01    2.831E-01    1.934E-01    1.030E-01    1.213E-02   -7.935E-02
 Ala      Conc. = 7.42E+02
