 LCModel (Version 6.3-1L) Copyright: S.W. Provencher.          Ref.: Magn. Reson. Med. 30:672-679 (1993).                
 Slice#1 Row#10 Col#8  PD_05_press_2_raw_act
 36 lines in following concentration table = NCONC+1
    Conc.  %SD /Cr+PCr  Metabolite                                         
  574.610  33%   0.556 Ala                                                 
    0.000 999%   0.000 Asp                                                 
  717.423  33%   0.694 Cr                                                  
  315.688  78%   0.306 PCr                                                 
    0.000 999%   0.000 GABA                                                
    0.000 999%   0.000 Glc                                                 
 1.09E+03  38%   1.051 Gln                                                 
 1.52E+03  30%   1.470 Glu                                                 
  222.423  11%   0.215 GPC                                                 
    0.000 999%   0.000 PCh                                                 
  428.658  22%   0.415 GSH                                                 
 1.35E+03  20%   1.307 Ins                                                 
   45.503 460% 4.4E-02 Lac                                                 
 2.53E+03   3%   2.445 NAA                                                 
    0.000 999%   0.000 NAAG                                                
   33.703  84% 3.3E-02 Scyllo                                              
   84.005 233% 8.1E-02 Tau                                                 
  122.559  95%   0.119 -CrCH2                                              
  222.423  11%   0.215 GPC+PCh                                             
 2.53E+03   3%   2.445 NAA+NAAG                                            
 1.03E+03   6%   1.000 Cr+PCr                                              
 2.60E+03  29%   2.521 Glu+Gln                                             
 1.59E+03  32%   1.540 Lip13a                                              
    0.000 999%   0.000 Lip13b                                              
  309.749  71%   0.300 Lip09                                               
 1.11E+03  22%   1.079 MM09                                                
  242.656  61%   0.235 Lip20                                               
 1.62E+03  22%   1.566 MM20                                                
  404.447  41%   0.391 MM12                                                
 1.81E+03  20%   1.756 MM14                                                
  659.770  33%   0.639 MM17                                                
 1.59E+03  32%   1.540 Lip13a+Lip13b                                       
 3.81E+03  10%   3.687 MM14+Lip13a+Lip13b+MM12                             
 1.42E+03  11%   1.379 MM09+Lip09                                          
 1.86E+03  18%   1.801 MM20+Lip20                                          
   6 lines in following misc. output table
  FWHM = 0.076 ppm    S/N =   9                                            
  Data shift = 0.008 ppm                                                   
  Ph: -16 deg       3.6 deg/ppm                                            
  alphaB,S = 8.5E+01,   4.1E+02                                            
   14 spline knots.   Ns = 9(1)                                            
   2 inflections.     1 extrema                                            
  498 points on ppm-axis = NY
      4.000000     3.992357     3.984714     3.977070     3.969427     3.961784     3.954141     3.946497     3.938854     3.931211
      3.923568     3.915925     3.908281     3.900638     3.892995     3.885352     3.877708     3.870065     3.862422     3.854779
      3.847136     3.839492     3.831849     3.824206     3.816563     3.808919     3.801276     3.793633     3.785990     3.778347
      3.770703     3.763060     3.755417     3.747774     3.740130     3.732487     3.724844     3.717201     3.709558     3.701914
      3.694271     3.686628     3.678985     3.671341     3.663698     3.656055     3.648412     3.640769     3.633125     3.625482
      3.617839     3.610196     3.602552     3.594909     3.587266     3.579623     3.571980     3.564336     3.556693     3.549050
      3.541407     3.533763     3.526120     3.518477     3.510834     3.503191     3.495547     3.487904     3.480261     3.472618
      3.464974     3.457331     3.449688     3.442045     3.434402     3.426758     3.419115     3.411472     3.403829     3.396185
      3.388542     3.380899     3.373256     3.365613     3.357969     3.350326     3.342683     3.335040     3.327396     3.319753
      3.312110     3.304467     3.296824     3.289180     3.281537     3.273894     3.266251     3.258607     3.250964     3.243321
      3.235678     3.228034     3.220391     3.212748     3.205105     3.197462     3.189818     3.182175     3.174532     3.166889
      3.159245     3.151602     3.143959     3.136316     3.128673     3.121029     3.113386     3.105743     3.098100     3.090456
      3.082813     3.075170     3.067527     3.059884     3.052240     3.044597     3.036954     3.029311     3.021667     3.014024
      3.006381     2.998738     2.991095     2.983451     2.975808     2.968165     2.960522     2.952878     2.945235     2.937592
      2.929949     2.922306     2.914662     2.907019     2.899376     2.891733     2.884089     2.876446     2.868803     2.861160
      2.853517     2.845873     2.838230     2.830587     2.822944     2.815300     2.807657     2.800014     2.792371     2.784728
      2.777084     2.769441     2.761798     2.754155     2.746511     2.738868     2.731225     2.723582     2.715939     2.708295
      2.700652     2.693009     2.685366     2.677722     2.670079     2.662436     2.654793     2.647150     2.639506     2.631863
      2.624220     2.616577     2.608933     2.601290     2.593647     2.586004     2.578361     2.570717     2.563074     2.555431
      2.547788     2.540144     2.532501     2.524858     2.517215     2.509572     2.501928     2.494285     2.486642     2.478999
      2.471355     2.463712     2.456069     2.448426     2.440783     2.433139     2.425496     2.417853     2.410210     2.402566
      2.394923     2.387280     2.379637     2.371994     2.364350     2.356707     2.349064     2.341421     2.333777     2.326134
      2.318491     2.310848     2.303205     2.295561     2.287918     2.280275     2.272632     2.264988     2.257345     2.249702
      2.242059     2.234416     2.226772     2.219129     2.211486     2.203843     2.196199     2.188556     2.180913     2.173270
      2.165627     2.157983     2.150340     2.142697     2.135054     2.127410     2.119767     2.112124     2.104481     2.096838
      2.089194     2.081551     2.073908     2.066265     2.058621     2.050978     2.043335     2.035692     2.028049     2.020405
      2.012762     2.005119     1.997476     1.989833     1.982190     1.974546     1.966903     1.959260     1.951617     1.943974
      1.936331     1.928688     1.921045     1.913402     1.905759     1.898115     1.890472     1.882829     1.875186     1.867543
      1.859900     1.852257     1.844614     1.836971     1.829327     1.821684     1.814041     1.806398     1.798755     1.791112
      1.783469     1.775826     1.768183     1.760540     1.752896     1.745253     1.737610     1.729967     1.722324     1.714681
      1.707038     1.699395     1.691752     1.684108     1.676465     1.668822     1.661179     1.653536     1.645893     1.638250
      1.630607     1.622964     1.615321     1.607677     1.600034     1.592391     1.584748     1.577105     1.569462     1.561819
      1.554176     1.546533     1.538890     1.531246     1.523603     1.515960     1.508317     1.500674     1.493031     1.485388
      1.477745     1.470102     1.462458     1.454815     1.447172     1.439529     1.431886     1.424243     1.416600     1.408957
      1.401314     1.393671     1.386027     1.378384     1.370741     1.363098     1.355455     1.347812     1.340169     1.332526
      1.324883     1.317240     1.309596     1.301953     1.294310     1.286667     1.279024     1.271381     1.263738     1.256095
      1.248452     1.240808     1.233165     1.225522     1.217879     1.210236     1.202593     1.194950     1.187307     1.179664
      1.172021     1.164377     1.156734     1.149091     1.141448     1.133805     1.126162     1.118519     1.110876     1.103233
      1.095590     1.087946     1.080303     1.072660     1.065017     1.057374     1.049731     1.042088     1.034445     1.026802
      1.019158     1.011515     1.003872     0.996229     0.988586     0.980943     0.973300     0.965657     0.958014     0.950371
      0.942727     0.935084     0.927441     0.919798     0.912155     0.904512     0.896869     0.889226     0.881583     0.873940
      0.866296     0.858653     0.851010     0.843367     0.835724     0.828081     0.820438     0.812795     0.805152     0.797508
      0.789865     0.782222     0.774579     0.766936     0.759293     0.751650     0.744007     0.736364     0.728721     0.721077
      0.713434     0.705791     0.698148     0.690505     0.682862     0.675219     0.667576     0.659933     0.652290     0.644646
      0.637003     0.629360     0.621717     0.614074     0.606431     0.598788     0.591145     0.583502     0.575858     0.568215
      0.560572     0.552929     0.545286     0.537643     0.530000     0.522357     0.514714     0.507071     0.499427     0.491784
      0.484141     0.476498     0.468855     0.461212     0.453569     0.445925     0.438282     0.430639     0.422996     0.415353
      0.407710     0.400067     0.392424     0.384780     0.377137     0.369494     0.361851     0.354208     0.346565     0.338922
      0.331278     0.323635     0.315992     0.308349     0.300706     0.293063     0.285420     0.277777     0.270133     0.262490
      0.254847     0.247204     0.239561     0.231918     0.224275     0.216631     0.208988     0.201345
 NY phased data points follow
   1.34396E+01  9.33202E+00  1.30553E+01  1.80332E+01  1.45020E+01  2.06975E+01  1.21182E+01  1.56459E+01  2.24371E+01  1.86421E+01
   1.92625E+01  2.04063E+01  2.12480E+01  2.43885E+01  1.92363E+01  2.17768E+01  1.59478E+01  2.03700E+01  1.21444E+01  1.98616E+01
   1.15491E+01  1.57984E+01  1.67973E+01  1.19606E+01  1.42699E+01  1.09410E+01  1.51149E+01  1.10857E+01  1.40808E+01  1.28594E+01
   1.25121E+01  1.51502E+01  1.33259E+01  1.38616E+01  1.49116E+01  1.30480E+01  1.04447E+01  1.29762E+01  8.03198E+00  9.53478E+00
   1.44717E+01  1.34734E+01  1.11718E+01  1.69096E+01  1.58920E+01  1.17837E+01  1.27647E+01  1.56617E+01  1.29231E+01  1.59189E+01
   7.01477E+00  1.18751E+01  9.39342E+00  1.70696E+01  1.15607E+01  1.13332E+01  9.66055E+00  6.89434E+00  1.33800E+01  8.91293E+00
   8.78591E+00  8.37351E+00  8.09020E+00  5.56723E+00  6.10484E+00  4.74173E+00  7.24541E+00  1.21644E+01  7.01815E+00  2.24597E+00
   8.64590E+00  8.22660E+00  4.90136E+00  6.12443E+00  3.68069E+00  1.16762E+01  1.09478E+00  7.48955E+00  4.15342E+00  5.85509E+00
   1.04658E+01  2.31010E+00  6.58449E+00  6.81184E+00  5.31968E+00  5.42091E+00  5.40053E+00  7.41627E+00  2.97096E+00  4.70364E+00
  -2.41536E+00  7.48224E+00  9.51542E+00  8.05814E+00  9.20954E+00  5.12749E+00  1.27679E+01  1.18812E+01  1.21721E+01  1.52435E+01
   1.29203E+01  1.42605E+01  1.56431E+01  2.01939E+01  1.39701E+01  1.07874E+01  1.99327E+01  1.99732E+01  2.20395E+01  1.15455E+01
   1.17992E+01  8.62049E+00  8.30638E+00  1.07823E+01  5.19821E+00  8.70748E+00  5.60386E+00  1.07958E+01  2.54705E+00  7.83662E+00
   1.01097E+01  1.18840E+01  1.24017E+01  1.53072E+01  2.42269E+01  2.39855E+01  2.98515E+01  3.11028E+01  3.04422E+01  3.07213E+01
   2.59452E+01  2.71550E+01  1.83431E+01  1.71777E+01  1.30862E+01  1.74336E+01  1.19039E+01  1.18435E+01  1.45651E+01  8.39161E+00
   9.87741E+00  5.49409E+00  6.25451E+00  5.90213E+00  1.02708E+01  4.69369E+00  6.27367E+00  1.70821E+00  6.74281E+00  2.60944E+00
   6.39230E-01  2.24978E+00  2.22197E+00  2.79793E+00  4.95090E+00  5.42688E+00  2.13626E+00  1.30002E+00  2.47059E+00  8.13743E+00
   2.23526E+00  2.41074E+00  2.86610E+00  3.12359E+00  4.56202E+00  2.32989E+00  5.04005E+00  1.40351E+00  2.17423E+00  1.99790E+00
  -3.97938E+00 -8.48315E+00 -5.29734E+00 -1.13096E+00 -3.89663E+00  9.51678E-01 -7.09304E+00 -7.22830E+00 -8.34718E+00 -5.26394E+00
  -8.41746E+00 -5.26434E+00 -2.34420E+00 -1.36375E+00 -4.09253E+00  1.37146E+00  1.25472E-01  4.00941E+00  4.41478E+00  7.25197E+00
   1.82236E+00 -3.45527E+00  2.14156E+00 -2.17397E-01 -2.33834E+00  3.38719E+00 -2.33091E+00 -1.42927E+00 -5.06270E+00 -7.56301E+00
   4.86775E-01 -1.19136E+00 -2.72357E-01 -7.83201E-01  1.73562E+00  4.92906E+00  6.66604E+00  6.25075E+00  3.78429E+00  2.46343E-01
   1.82611E+00  1.70107E+00  3.41546E+00  4.76177E+00  9.61629E+00  8.39746E+00  8.50184E+00  1.29681E+01  7.99762E+00  7.69890E+00
  -3.46715E-01  1.86386E+00  1.99566E+00 -8.44356E-01  3.48902E+00  5.63388E+00  2.17309E+00  8.30803E+00  8.23664E+00  1.50261E+01
   1.02222E+01  1.14037E+01  4.36431E+00  1.14333E+01  4.02145E+00  7.01075E+00  3.77415E+00  7.36840E+00  2.66308E+00  9.57303E-01
   2.62328E+00  4.08527E+00  4.46146E+00  6.93786E+00  1.02259E+01  1.02770E+01  4.17925E+00  8.93432E+00  5.72439E+00  5.12234E+00
   9.16304E+00  1.54636E+01  1.46744E+01  2.36195E+01  2.56104E+01  3.21463E+01  3.63005E+01  5.13558E+01  5.70399E+01  7.19165E+01
   7.16614E+01  7.15870E+01  7.29011E+01  6.55956E+01  4.89557E+01  4.38739E+01  3.21731E+01  2.42051E+01  1.82487E+01  1.32673E+01
   1.38669E+01  4.06081E+00  8.37865E+00  4.58586E+00  5.33790E+00  7.30014E+00  3.25296E+00  3.15783E+00  3.66896E+00  1.54694E+00
  -2.78811E+00 -2.30587E+00  3.87089E+00 -7.20421E-01 -2.67679E+00  1.78696E+00 -1.00982E-01  1.20328E+00  8.79162E-01  2.99711E-01
  -4.35869E+00  2.04560E+00  9.81570E-01  3.03699E+00  1.61353E+00  5.49828E+00 -3.70408E+00  8.46357E+00  7.81820E+00  9.98586E+00
   2.26300E+00  7.69241E+00  2.94976E+00  2.34646E-01  5.23772E+00  2.69337E+00  3.20297E+00  1.34218E+00  5.89129E+00  1.04151E+01
   1.12084E+01  8.73287E+00  1.21226E+01  1.25411E+01  8.53683E+00  1.14213E+01  5.92349E+00  1.08577E+01  7.94405E+00  8.65048E+00
   1.04771E+01  8.86324E+00  3.79306E+00  9.35739E+00  1.09055E+01  1.16698E+01  1.49604E+01  1.35115E+01  9.61254E+00  1.45796E+01
   1.26584E+01  7.46129E+00  4.65082E+00  1.09411E+01  7.29628E+00  1.18833E+01  1.04384E+01  1.37972E+01  1.70086E+01  1.55409E+01
   1.97287E+01  1.50798E+01  1.41857E+01  1.76336E+01  1.47385E+01  1.46930E+01  1.35278E+01  1.59132E+01  1.31396E+01  1.11726E+01
   8.31965E+00  1.52938E+01  7.54789E+00  1.28702E+01  8.96556E+00  1.41348E+01  6.02439E+00  7.24961E+00  7.96503E+00  9.01397E+00
   5.72571E+00  4.95437E+00  9.59907E+00  1.11850E+01  1.10975E+01  7.58884E+00  1.29915E+01  1.06425E+01  1.44825E+01  7.58111E+00
   9.61582E+00  9.34820E+00  1.10806E+01  9.34589E+00  4.98081E+00  1.66765E+00  6.02568E+00  4.86857E+00  3.09006E+00  2.07374E+00
   5.56556E+00  4.90735E+00 -1.06662E+00  6.26027E+00  3.01346E+00  8.92556E+00  3.27604E+00  8.40451E-01  4.26410E-01  5.56839E-02
   6.77662E+00  1.11809E+01  7.96442E+00  7.22495E+00  6.17342E+00  4.30900E+00  5.98233E+00  5.19844E+00  9.47467E+00  1.30736E+01
   1.39249E+01  1.12614E+01  9.50050E+00  1.50046E+01  7.22991E+00  1.22607E+01  5.52765E+00  8.52767E+00  1.63100E+01  8.12669E+00
   1.01540E+01  7.25718E+00  1.15316E+01  2.25967E+00  7.37425E+00  3.45476E+00  6.69882E+00 -1.06290E-01  6.66589E+00  3.18191E+00
   2.62448E+00  1.75968E-01  1.10392E+00  8.92922E-01  4.60243E+00  4.96030E-02  2.94460E+00  4.44473E+00 -2.32379E+00  1.28264E+00
  -2.16901E+00  9.65874E-01 -3.56248E+00 -3.32404E+00  2.28774E+00 -9.46365E-01 -2.30966E-01 -2.32664E-01 -4.16143E+00  2.20331E+00
   9.31459E-01  3.96982E-01 -1.81120E-01 -3.19155E-01  2.04370E+00 -6.73179E+00 -6.61432E-01  2.04117E+00  3.82082E-01 -4.67601E+00
  -4.37664E+00  3.54703E+00  3.13308E+00 -2.27594E+00 -2.57661E+00 -3.76107E+00  4.50449E+00  1.54826E+00  2.00590E+00 -2.31282E+00
  -2.31717E+00 -1.18336E+00  3.81738E+00 -2.13103E+00 -7.21487E-01  2.80029E-01 -2.17167E+00 -4.09002E+00  2.90825E+00 -3.53049E+00
   8.70049E-01 -1.23184E+00  1.84779E+00 -1.88769E+00 -3.30982E+00  4.16023E-01 -1.66640E+00 -1.70436E+00 -5.78585E+00  5.37210E+00
  -1.07293E+00 -5.34877E-01 -3.07021E+00 -1.19829E+00 -2.21724E+00  5.41451E-01 -6.76951E+00 -2.60222E+00 -2.36481E+00 -3.78149E+00
  -2.05115E+00  5.63945E-01 -3.62724E+00  1.90043E+00  1.27415E+00 -2.66296E+00 -3.61853E+00 -2.06958E+00
 NY points of the fit to the data follow
   1.10572E+01  1.07973E+01  1.08291E+01  1.13853E+01  1.24728E+01  1.38812E+01  1.54979E+01  1.72630E+01  1.90648E+01  2.07357E+01
   2.20754E+01  2.28945E+01  2.30617E+01  2.25552E+01  2.14415E+01  1.98655E+01  1.80663E+01  1.62694E+01  1.45751E+01  1.30746E+01
   1.19489E+01  1.12799E+01  1.10026E+01  1.11447E+01  1.15791E+01  1.21767E+01  1.28832E+01  1.36620E+01  1.44783E+01  1.52408E+01
   1.58606E+01  1.62687E+01  1.63222E+01  1.59211E+01  1.50857E+01  1.39437E+01  1.26650E+01  1.14141E+01  1.03835E+01  9.77537E+00
   9.68796E+00  1.00329E+01  1.06404E+01  1.14822E+01  1.24736E+01  1.34215E+01  1.41013E+01  1.43699E+01  1.41684E+01  1.35056E+01
   1.25223E+01  1.14150E+01  1.03241E+01  9.38343E+00  8.67572E+00  8.22285E+00  8.00401E+00  8.01095E+00  8.23309E+00  8.54473E+00
   8.77299E+00  8.82137E+00  8.70140E+00  8.47881E+00  8.21599E+00  7.96993E+00  7.79693E+00  7.73306E+00  7.76893E+00  7.87816E+00
   8.04092E+00  8.21212E+00  8.33980E+00  8.38898E+00  8.33482E+00  8.18164E+00  7.95842E+00  7.71510E+00  7.47101E+00  7.20976E+00
   6.93291E+00  6.65233E+00  6.38487E+00  6.13267E+00  5.86635E+00  5.57358E+00  5.26812E+00  4.99010E+00  4.76813E+00  4.62160E+00
   4.57085E+00  4.62189E+00  4.76944E+00  5.02560E+00  5.55683E+00  6.54144E+00  7.82159E+00  9.26319E+00  1.08308E+01  1.25513E+01
   1.44102E+01  1.62731E+01  1.78971E+01  1.90125E+01  1.94201E+01  1.90431E+01  1.79159E+01  1.61968E+01  1.41305E+01  1.19804E+01
   9.95676E+00  8.18233E+00  6.72325E+00  5.65168E+00  5.08915E+00  4.99500E+00  5.09591E+00  5.39127E+00  6.13137E+00  7.58687E+00
   9.65748E+00  1.21318E+01  1.49468E+01  1.81102E+01  2.15455E+01  2.49639E+01  2.79103E+01  2.99354E+01  3.07214E+01  3.01440E+01
   2.82795E+01  2.53680E+01  2.18052E+01  1.80180E+01  1.43642E+01  1.10998E+01  8.39519E+00  6.40877E+00  5.28255E+00  4.93498E+00
   4.96751E+00  5.09127E+00  5.20894E+00  5.28312E+00  5.29926E+00  5.22942E+00  5.06331E+00  4.83260E+00  4.57019E+00  4.30704E+00
   4.07819E+00  3.87957E+00  3.68125E+00  3.47703E+00  3.27692E+00  3.09977E+00  2.95813E+00  2.80722E+00  2.62349E+00  2.42599E+00
   2.24878E+00  2.11185E+00  2.01042E+00  1.92170E+00  1.81395E+00  1.65102E+00  1.40055E+00  1.03281E+00  5.80520E-01  1.22384E-01
  -3.07189E-01 -7.29052E-01 -1.18695E+00 -1.61830E+00 -1.94478E+00 -2.12800E+00 -2.18763E+00 -2.20601E+00 -2.23292E+00 -2.22786E+00
  -2.14765E+00 -1.98224E+00 -1.73105E+00 -1.38284E+00 -9.22799E-01 -3.51361E-01  3.14950E-01  1.04895E+00  1.81530E+00  2.54532E+00
   3.15272E+00  3.55115E+00  3.69759E+00  3.65998E+00  3.55027E+00  3.46296E+00  3.47016E+00  3.64156E+00  3.99310E+00  4.56183E+00
   5.27867E+00  5.93165E+00  6.34578E+00  6.44907E+00  6.14416E+00  5.41199E+00  4.35361E+00  3.19492E+00  2.07279E+00  1.15870E+00
   6.70064E-01  7.34069E-01  1.32854E+00  2.26298E+00  3.29389E+00  4.20773E+00  4.80426E+00  4.92785E+00  4.53274E+00  3.74371E+00
   2.77278E+00  1.84596E+00  1.21241E+00  1.05965E+00  1.40118E+00  2.19495E+00  3.31094E+00  4.52480E+00  5.57048E+00  6.35876E+00
   6.88028E+00  7.15378E+00  7.22689E+00  7.15354E+00  6.98580E+00  6.84548E+00  6.79895E+00  6.81222E+00  6.83911E+00  6.85138E+00
   6.82052E+00  6.70852E+00  6.51843E+00  6.32535E+00  6.21057E+00  6.21482E+00  6.34613E+00  6.58328E+00  6.93918E+00  7.45129E+00
   8.40340E+00  1.10005E+01  1.55506E+01  2.12486E+01  2.76297E+01  3.47678E+01  4.27363E+01  5.11644E+01  5.92176E+01  6.57851E+01
   6.97876E+01  7.05591E+01  6.79499E+01  6.22708E+01  5.43277E+01  4.52420E+01  3.60672E+01  2.75461E+01  2.00792E+01  1.39025E+01
   9.41175E+00  7.13765E+00  6.28399E+00  5.80781E+00  5.47574E+00  5.22030E+00  4.98970E+00  4.76279E+00  4.53770E+00  4.31069E+00
   4.08466E+00  3.86565E+00  3.65816E+00  3.46840E+00  3.30746E+00  3.18018E+00  3.08246E+00  3.01021E+00  2.96206E+00  2.93783E+00
   2.93732E+00  2.95978E+00  3.00702E+00  3.08256E+00  3.18834E+00  3.32525E+00  3.49327E+00  3.69160E+00  3.91852E+00  4.17111E+00
   4.44591E+00  4.73862E+00  5.04360E+00  5.35452E+00  5.66502E+00  5.96855E+00  6.25893E+00  6.53089E+00  6.78056E+00  7.00581E+00
   7.20661E+00  7.38522E+00  7.54654E+00  7.69831E+00  7.85156E+00  8.02112E+00  8.22826E+00  8.50907E+00  8.93557E+00  9.52190E+00
   1.01320E+01  1.06974E+01  1.12085E+01  1.16447E+01  1.19316E+01  1.19461E+01  1.16232E+01  1.10777E+01  1.03924E+01  9.63483E+00
   8.91633E+00  8.40572E+00  8.27968E+00  8.63971E+00  9.47028E+00  1.06512E+01  1.20101E+01  1.33880E+01  1.46534E+01  1.56293E+01
   1.61474E+01  1.62507E+01  1.60413E+01  1.56100E+01  1.50185E+01  1.43158E+01  1.36086E+01  1.30330E+01  1.25592E+01  1.21440E+01
   1.17778E+01  1.14644E+01  1.12094E+01  1.10117E+01  1.08611E+01  1.07410E+01  1.06328E+01  1.05207E+01  1.03910E+01  1.02269E+01
   1.00177E+01  9.76774E+00  9.48358E+00  9.17101E+00  8.83499E+00  8.48246E+00  8.12621E+00  7.77151E+00  7.41663E+00  7.06275E+00
   6.71267E+00  6.36974E+00  6.03763E+00  5.72004E+00  5.42066E+00  5.14303E+00  4.89063E+00  4.66674E+00  4.47456E+00  4.31712E+00
   4.19741E+00  4.11823E+00  4.08231E+00  4.09214E+00  4.15000E+00  4.25775E+00  4.41676E+00  4.62765E+00  4.89015E+00  5.20283E+00
   5.56291E+00  5.96607E+00  6.40634E+00  6.87598E+00  7.36558E+00  7.86414E+00  8.35939E+00  8.83809E+00  9.28658E+00  9.69128E+00
   1.00393E+01  1.03191E+01  1.05208E+01  1.06372E+01  1.06636E+01  1.05982E+01  1.04422E+01  1.01999E+01  9.87781E+00  9.48494E+00
   9.03186E+00  8.53026E+00  7.99241E+00  7.43051E+00  6.85628E+00  6.28045E+00  5.71256E+00  5.16059E+00  4.63102E+00  4.12870E+00
   3.65700E+00  3.21790E+00  2.81221E+00  2.43972E+00  2.09945E+00  1.78983E+00  1.50890E+00  1.25442E+00  1.02410E+00  8.15570E-01
   6.26591E-01  4.55008E-01  2.98858E-01  1.56318E-01  2.57809E-02 -9.42117E-02 -2.04910E-01 -3.07444E-01 -4.02767E-01 -4.91742E-01
  -5.75084E-01 -6.53443E-01 -7.27350E-01 -7.97298E-01 -8.63686E-01 -9.26894E-01 -9.87221E-01 -1.04496E+00 -1.10034E+00 -1.15358E+00
  -1.20486E+00 -1.25437E+00 -1.30224E+00 -1.34862E+00 -1.39360E+00 -1.43731E+00 -1.47983E+00 -1.52127E+00 -1.56169E+00 -1.60117E+00
  -1.63977E+00 -1.67756E+00 -1.71457E+00 -1.75088E+00 -1.78652E+00 -1.82153E+00 -1.85595E+00 -1.88983E+00 -1.92318E+00 -1.95606E+00
  -1.98847E+00 -2.02045E+00 -2.05202E+00 -2.08322E+00 -2.11405E+00 -2.14454E+00 -2.17471E+00 -2.20458E+00 -2.23416E+00 -2.26349E+00
  -2.29256E+00 -2.32140E+00 -2.35001E+00 -2.37843E+00 -2.40665E+00 -2.43471E+00 -2.46260E+00 -2.49034E+00 -2.51794E+00 -2.54543E+00
  -2.57280E+00 -2.60010E+00 -2.62731E+00 -2.65446E+00 -2.68155E+00 -2.70863E+00 -2.73570E+00 -2.76278E+00
 NY background values follow
     5.435E+00    5.417E+00    5.399E+00    5.381E+00    5.363E+00    5.345E+00    5.327E+00    5.309E+00    5.291E+00    5.273E+00
     5.255E+00    5.237E+00    5.219E+00    5.201E+00    5.183E+00    5.165E+00    5.146E+00    5.128E+00    5.110E+00    5.092E+00
     5.074E+00    5.056E+00    5.038E+00    5.020E+00    5.002E+00    4.984E+00    4.966E+00    4.948E+00    4.930E+00    4.912E+00
     4.894E+00    4.876E+00    4.858E+00    4.840E+00    4.821E+00    4.803E+00    4.785E+00    4.767E+00    4.749E+00    4.731E+00
     4.713E+00    4.695E+00    4.677E+00    4.659E+00    4.640E+00    4.622E+00    4.604E+00    4.586E+00    4.568E+00    4.550E+00
     4.532E+00    4.514E+00    4.495E+00    4.477E+00    4.459E+00    4.441E+00    4.423E+00    4.405E+00    4.387E+00    4.368E+00
     4.350E+00    4.332E+00    4.314E+00    4.296E+00    4.278E+00    4.259E+00    4.241E+00    4.223E+00    4.205E+00    4.187E+00
     4.169E+00    4.150E+00    4.132E+00    4.114E+00    4.096E+00    4.078E+00    4.059E+00    4.041E+00    4.023E+00    4.005E+00
     3.987E+00    3.968E+00    3.950E+00    3.932E+00    3.914E+00    3.896E+00    3.877E+00    3.859E+00    3.841E+00    3.823E+00
     3.805E+00    3.786E+00    3.768E+00    3.750E+00    3.732E+00    3.713E+00    3.695E+00    3.677E+00    3.659E+00    3.640E+00
     3.622E+00    3.604E+00    3.586E+00    3.567E+00    3.549E+00    3.531E+00    3.513E+00    3.494E+00    3.476E+00    3.458E+00
     3.440E+00    3.421E+00    3.403E+00    3.385E+00    3.367E+00    3.348E+00    3.330E+00    3.312E+00    3.293E+00    3.275E+00
     3.257E+00    3.239E+00    3.220E+00    3.202E+00    3.184E+00    3.165E+00    3.147E+00    3.129E+00    3.111E+00    3.092E+00
     3.074E+00    3.056E+00    3.037E+00    3.019E+00    3.001E+00    2.982E+00    2.964E+00    2.946E+00    2.928E+00    2.909E+00
     2.891E+00    2.873E+00    2.854E+00    2.836E+00    2.818E+00    2.799E+00    2.781E+00    2.763E+00    2.744E+00    2.726E+00
     2.708E+00    2.689E+00    2.671E+00    2.653E+00    2.634E+00    2.616E+00    2.598E+00    2.579E+00    2.561E+00    2.543E+00
     2.524E+00    2.506E+00    2.488E+00    2.469E+00    2.451E+00    2.433E+00    2.414E+00    2.396E+00    2.378E+00    2.359E+00
     2.341E+00    2.323E+00    2.304E+00    2.286E+00    2.268E+00    2.249E+00    2.231E+00    2.213E+00    2.194E+00    2.176E+00
     2.158E+00    2.139E+00    2.121E+00    2.102E+00    2.084E+00    2.066E+00    2.047E+00    2.029E+00    2.011E+00    1.992E+00
     1.974E+00    1.956E+00    1.937E+00    1.919E+00    1.901E+00    1.882E+00    1.864E+00    1.845E+00    1.827E+00    1.809E+00
     1.790E+00    1.772E+00    1.754E+00    1.735E+00    1.717E+00    1.698E+00    1.680E+00    1.662E+00    1.643E+00    1.625E+00
     1.607E+00    1.588E+00    1.570E+00    1.552E+00    1.533E+00    1.515E+00    1.496E+00    1.478E+00    1.460E+00    1.441E+00
     1.423E+00    1.405E+00    1.386E+00    1.368E+00    1.349E+00    1.331E+00    1.313E+00    1.294E+00    1.276E+00    1.258E+00
     1.239E+00    1.221E+00    1.202E+00    1.184E+00    1.166E+00    1.147E+00    1.129E+00    1.111E+00    1.092E+00    1.074E+00
     1.055E+00    1.037E+00    1.019E+00    1.000E+00    9.820E-01    9.636E-01    9.452E-01    9.269E-01    9.085E-01    8.901E-01
     8.718E-01    8.534E-01    8.350E-01    8.166E-01    7.983E-01    7.799E-01    7.615E-01    7.432E-01    7.248E-01    7.064E-01
     6.881E-01    6.697E-01    6.513E-01    6.330E-01    6.146E-01    5.962E-01    5.779E-01    5.595E-01    5.411E-01    5.228E-01
     5.044E-01    4.860E-01    4.677E-01    4.493E-01    4.310E-01    4.126E-01    3.942E-01    3.759E-01    3.575E-01    3.392E-01
     3.208E-01    3.024E-01    2.841E-01    2.657E-01    2.474E-01    2.290E-01    2.107E-01    1.923E-01    1.740E-01    1.556E-01
     1.373E-01    1.189E-01    1.006E-01    8.223E-02    6.388E-02    4.553E-02    2.719E-02    8.846E-03   -9.497E-03   -2.784E-02
    -4.618E-02   -6.452E-02   -8.286E-02   -1.012E-01   -1.195E-01   -1.379E-01   -1.562E-01   -1.745E-01   -1.929E-01   -2.112E-01
    -2.295E-01   -2.479E-01   -2.662E-01   -2.845E-01   -3.028E-01   -3.212E-01   -3.395E-01   -3.578E-01   -3.761E-01   -3.945E-01
    -4.128E-01   -4.311E-01   -4.494E-01   -4.677E-01   -4.860E-01   -5.044E-01   -5.227E-01   -5.410E-01   -5.593E-01   -5.776E-01
    -5.959E-01   -6.142E-01   -6.325E-01   -6.508E-01   -6.691E-01   -6.874E-01   -7.057E-01   -7.240E-01   -7.423E-01   -7.606E-01
    -7.789E-01   -7.972E-01   -8.155E-01   -8.337E-01   -8.520E-01   -8.703E-01   -8.886E-01   -9.069E-01   -9.252E-01   -9.434E-01
    -9.617E-01   -9.800E-01   -9.983E-01   -1.017E+00   -1.035E+00   -1.053E+00   -1.071E+00   -1.090E+00   -1.108E+00   -1.126E+00
    -1.144E+00   -1.163E+00   -1.181E+00   -1.199E+00   -1.217E+00   -1.236E+00   -1.254E+00   -1.272E+00   -1.290E+00   -1.309E+00
    -1.327E+00   -1.345E+00   -1.363E+00   -1.382E+00   -1.400E+00   -1.418E+00   -1.436E+00   -1.455E+00   -1.473E+00   -1.491E+00
    -1.509E+00   -1.527E+00   -1.546E+00   -1.564E+00   -1.582E+00   -1.600E+00   -1.618E+00   -1.637E+00   -1.655E+00   -1.673E+00
    -1.691E+00   -1.709E+00   -1.728E+00   -1.746E+00   -1.764E+00   -1.782E+00   -1.800E+00   -1.819E+00   -1.837E+00   -1.855E+00
    -1.873E+00   -1.891E+00   -1.909E+00   -1.928E+00   -1.946E+00   -1.964E+00   -1.982E+00   -2.000E+00   -2.018E+00   -2.037E+00
    -2.055E+00   -2.073E+00   -2.091E+00   -2.109E+00   -2.127E+00   -2.146E+00   -2.164E+00   -2.182E+00   -2.200E+00   -2.218E+00
    -2.236E+00   -2.254E+00   -2.272E+00   -2.291E+00   -2.309E+00   -2.327E+00   -2.345E+00   -2.363E+00   -2.381E+00   -2.399E+00
    -2.417E+00   -2.435E+00   -2.454E+00   -2.472E+00   -2.490E+00   -2.508E+00   -2.526E+00   -2.544E+00   -2.562E+00   -2.580E+00
    -2.598E+00   -2.616E+00   -2.634E+00   -2.652E+00   -2.670E+00   -2.689E+00   -2.707E+00   -2.725E+00   -2.743E+00   -2.761E+00
    -2.779E+00   -2.797E+00   -2.815E+00   -2.833E+00   -2.851E+00   -2.869E+00   -2.887E+00   -2.905E+00   -2.923E+00   -2.941E+00
    -2.959E+00   -2.977E+00   -2.995E+00   -3.013E+00   -3.031E+00   -3.049E+00   -3.067E+00   -3.085E+00   -3.103E+00   -3.121E+00
    -3.139E+00   -3.157E+00   -3.175E+00   -3.193E+00   -3.211E+00   -3.229E+00   -3.247E+00   -3.265E+00   -3.283E+00   -3.301E+00
    -3.319E+00   -3.337E+00   -3.355E+00   -3.373E+00   -3.390E+00   -3.408E+00   -3.426E+00   -3.444E+00   -3.462E+00   -3.480E+00
    -3.498E+00   -3.516E+00   -3.534E+00   -3.552E+00   -3.570E+00   -3.588E+00   -3.605E+00   -3.623E+00
 Ala      Conc. = 5.75E+02
