 LCModel (Version 6.3-1L) Copyright: S.W. Provencher.          Ref.: Magn. Reson. Med. 30:672-679 (1993).                
 Slice#1 Row#7 Col#3  PD_05_press_2_raw_act
 36 lines in following concentration table = NCONC+1
    Conc.  %SD /Cr+PCr  Metabolite                                         
  222.496  99%   0.117 Ala                                                 
    0.000 999%   0.000 Asp                                                 
 1.17E+03  31%   0.618 Cr                                                  
  723.260  53%   0.382 PCr                                                 
    0.000 999%   0.000 GABA                                                
    0.000 999%   0.000 Glc                                                 
  980.994  44%   0.518 Gln                                                 
 2.09E+03  23%   1.105 Glu                                                 
  799.088   6%   0.422 GPC                                                 
    0.000 999%   0.000 PCh                                                 
  551.113  27%   0.291 GSH                                                 
 2.53E+03  19%   1.335 Ins                                                 
  336.518  70%   0.178 Lac                                                 
 4.15E+03   6%   2.188 NAA                                                 
  595.838  41%   0.315 NAAG                                                
   98.867  53% 5.2E-02 Scyllo                                              
  407.633  89%   0.215 Tau                                                 
  238.962  85%   0.126 -CrCH2                                              
  799.088   6%   0.422 GPC+PCh                                             
 4.74E+03   4%   2.503 NAA+NAAG                                            
 1.89E+03   6%   1.000 Cr+PCr                                              
 3.07E+03  21%   1.623 Glu+Gln                                             
 3.01E+03  44%   1.588 Lip13a                                              
    0.000 999%   0.000 Lip13b                                              
  641.927  92%   0.339 Lip09                                               
 4.46E+03  16%   2.353 MM09                                                
  351.867 109%   0.186 Lip20                                               
 7.60E+03  11%   4.011 MM20                                                
 1.87E+03  34%   0.985 MM12                                                
 6.59E+03  14%   3.476 MM14                                                
    0.000 999%   0.000 MM17                                                
 3.01E+03  44%   1.588 Lip13a+Lip13b                                       
 1.15E+04   7%   6.050 MM14+Lip13a+Lip13b+MM12                             
 5.10E+03   9%   2.692 MM09+Lip09                                          
 7.95E+03  10%   4.197 MM20+Lip20                                          
   6 lines in following misc. output table
  FWHM = 0.046 ppm    S/N =  12                                            
  Data shift = 0.015 ppm                                                   
  Ph: -15 deg      -0.6 deg/ppm                                            
  alphaB,S = 8.5E+01,   9.8E+01                                            
   14 spline knots.   Ns = 6(1)                                            
   2 inflections.     1 extrema                                            
  498 points on ppm-axis = NY
      4.000000     3.992357     3.984714     3.977070     3.969427     3.961784     3.954141     3.946497     3.938854     3.931211
      3.923568     3.915925     3.908281     3.900638     3.892995     3.885352     3.877708     3.870065     3.862422     3.854779
      3.847136     3.839492     3.831849     3.824206     3.816563     3.808919     3.801276     3.793633     3.785990     3.778347
      3.770703     3.763060     3.755417     3.747774     3.740130     3.732487     3.724844     3.717201     3.709558     3.701914
      3.694271     3.686628     3.678985     3.671341     3.663698     3.656055     3.648412     3.640769     3.633125     3.625482
      3.617839     3.610196     3.602552     3.594909     3.587266     3.579623     3.571980     3.564336     3.556693     3.549050
      3.541407     3.533763     3.526120     3.518477     3.510834     3.503191     3.495547     3.487904     3.480261     3.472618
      3.464974     3.457331     3.449688     3.442045     3.434402     3.426758     3.419115     3.411472     3.403829     3.396185
      3.388542     3.380899     3.373256     3.365613     3.357969     3.350326     3.342683     3.335040     3.327396     3.319753
      3.312110     3.304467     3.296824     3.289180     3.281537     3.273894     3.266251     3.258607     3.250964     3.243321
      3.235678     3.228034     3.220391     3.212748     3.205105     3.197462     3.189818     3.182175     3.174532     3.166889
      3.159245     3.151602     3.143959     3.136316     3.128673     3.121029     3.113386     3.105743     3.098100     3.090456
      3.082813     3.075170     3.067527     3.059884     3.052240     3.044597     3.036954     3.029311     3.021667     3.014024
      3.006381     2.998738     2.991095     2.983451     2.975808     2.968165     2.960522     2.952878     2.945235     2.937592
      2.929949     2.922306     2.914662     2.907019     2.899376     2.891733     2.884089     2.876446     2.868803     2.861160
      2.853517     2.845873     2.838230     2.830587     2.822944     2.815300     2.807657     2.800014     2.792371     2.784728
      2.777084     2.769441     2.761798     2.754155     2.746511     2.738868     2.731225     2.723582     2.715939     2.708295
      2.700652     2.693009     2.685366     2.677722     2.670079     2.662436     2.654793     2.647150     2.639506     2.631863
      2.624220     2.616577     2.608933     2.601290     2.593647     2.586004     2.578361     2.570717     2.563074     2.555431
      2.547788     2.540144     2.532501     2.524858     2.517215     2.509572     2.501928     2.494285     2.486642     2.478999
      2.471355     2.463712     2.456069     2.448426     2.440783     2.433139     2.425496     2.417853     2.410210     2.402566
      2.394923     2.387280     2.379637     2.371994     2.364350     2.356707     2.349064     2.341421     2.333777     2.326134
      2.318491     2.310848     2.303205     2.295561     2.287918     2.280275     2.272632     2.264988     2.257345     2.249702
      2.242059     2.234416     2.226772     2.219129     2.211486     2.203843     2.196199     2.188556     2.180913     2.173270
      2.165627     2.157983     2.150340     2.142697     2.135054     2.127410     2.119767     2.112124     2.104481     2.096838
      2.089194     2.081551     2.073908     2.066265     2.058621     2.050978     2.043335     2.035692     2.028049     2.020405
      2.012762     2.005119     1.997476     1.989833     1.982190     1.974546     1.966903     1.959260     1.951617     1.943974
      1.936331     1.928688     1.921045     1.913402     1.905759     1.898115     1.890472     1.882829     1.875186     1.867543
      1.859900     1.852257     1.844614     1.836971     1.829327     1.821684     1.814041     1.806398     1.798755     1.791112
      1.783469     1.775826     1.768183     1.760540     1.752896     1.745253     1.737610     1.729967     1.722324     1.714681
      1.707038     1.699395     1.691752     1.684108     1.676465     1.668822     1.661179     1.653536     1.645893     1.638250
      1.630607     1.622964     1.615321     1.607677     1.600034     1.592391     1.584748     1.577105     1.569462     1.561819
      1.554176     1.546533     1.538890     1.531246     1.523603     1.515960     1.508317     1.500674     1.493031     1.485388
      1.477745     1.470102     1.462458     1.454815     1.447172     1.439529     1.431886     1.424243     1.416600     1.408957
      1.401314     1.393671     1.386027     1.378384     1.370741     1.363098     1.355455     1.347812     1.340169     1.332526
      1.324883     1.317240     1.309596     1.301953     1.294310     1.286667     1.279024     1.271381     1.263738     1.256095
      1.248452     1.240808     1.233165     1.225522     1.217879     1.210236     1.202593     1.194950     1.187307     1.179664
      1.172021     1.164377     1.156734     1.149091     1.141448     1.133805     1.126162     1.118519     1.110876     1.103233
      1.095590     1.087946     1.080303     1.072660     1.065017     1.057374     1.049731     1.042088     1.034445     1.026802
      1.019158     1.011515     1.003872     0.996229     0.988586     0.980943     0.973300     0.965657     0.958014     0.950371
      0.942727     0.935084     0.927441     0.919798     0.912155     0.904512     0.896869     0.889226     0.881583     0.873940
      0.866296     0.858653     0.851010     0.843367     0.835724     0.828081     0.820438     0.812795     0.805152     0.797508
      0.789865     0.782222     0.774579     0.766936     0.759293     0.751650     0.744007     0.736364     0.728721     0.721077
      0.713434     0.705791     0.698148     0.690505     0.682862     0.675219     0.667576     0.659933     0.652290     0.644646
      0.637003     0.629360     0.621717     0.614074     0.606431     0.598788     0.591145     0.583502     0.575858     0.568215
      0.560572     0.552929     0.545286     0.537643     0.530000     0.522357     0.514714     0.507071     0.499427     0.491784
      0.484141     0.476498     0.468855     0.461212     0.453569     0.445925     0.438282     0.430639     0.422996     0.415353
      0.407710     0.400067     0.392424     0.384780     0.377137     0.369494     0.361851     0.354208     0.346565     0.338922
      0.331278     0.323635     0.315992     0.308349     0.300706     0.293063     0.285420     0.277777     0.270133     0.262490
      0.254847     0.247204     0.239561     0.231918     0.224275     0.216631     0.208988     0.201345
 NY phased data points follow
  -9.90435E+00 -3.26288E+00 -8.92453E-01  4.78436E+00  7.72158E+00  2.15452E+01  2.27936E+01  2.79215E+01  1.72623E+01  4.02338E+01
   4.65223E+01  4.19467E+01  3.86190E+01  2.41353E+01  1.80302E+01  1.65512E+01  2.00623E+01  1.65967E+01  1.11839E+01  1.05842E+01
   4.95610E+00  1.03829E+00  2.23522E+00  1.07304E+01  7.73450E+00  3.70965E+00  1.30286E+01  6.03769E+00  2.19793E+00  1.63285E+01
   1.16287E+01  1.65385E+01  1.22514E+01 -1.62056E+00  1.13585E+01  2.17083E+00  1.49619E+01  1.78938E+01  1.56585E+01  1.26515E+01
   1.75624E+00  1.90476E+01  1.14146E+01  1.16828E+01  2.62383E+01  2.57357E+01  2.39341E+01  2.28022E+01  1.87865E+01  1.41551E+01
   5.52756E+00  2.06334E+01  8.87966E+00  1.39824E+00  1.39599E+01  1.11460E+01  4.97796E+00  1.81884E+01  1.02911E+01  2.85710E+00
   1.15301E+01  7.21997E+00  9.98444E-01  1.09056E+00 -1.32675E+01  3.16233E+00  6.10519E+00 -5.00646E+00  4.84003E+00  2.92877E-01
   1.10020E-01 -1.19154E+00 -9.58767E+00 -7.89955E+00  8.73361E-01  1.59811E+00 -1.50508E+00  9.10704E-01 -6.51452E+00  3.87287E+00
   2.79120E-01 -7.45418E+00  7.32839E+00  8.18758E+00  6.59690E-01  1.40406E+00 -5.26462E+00 -5.77687E-03 -8.89529E+00  9.01262E+00
  -5.18826E-01  8.72197E+00 -1.43585E+00  8.56167E+00  1.31703E+01  4.17323E+00  9.02819E+00  1.10923E+01  1.60720E+01  2.37558E+01
   4.82744E+01  6.47808E+01  7.84235E+01  8.07320E+01  6.23717E+01  5.46376E+01  4.53535E+01  2.83601E+01  2.78557E+01  1.57479E+01
   1.95824E+01  9.44276E+00  1.03014E+01  9.78802E+00  9.06712E+00  3.73536E+00  7.01914E+00  5.77013E+00 -9.74223E-01  6.23856E+00
   5.16723E+00  2.80064E+00  1.90877E+01  2.95506E+01  3.79157E+01  5.31936E+01  7.46282E+01  7.05238E+01  6.85810E+01  5.23554E+01
   4.83546E+01  1.69228E+01  2.01145E+01  2.15045E+01  1.42992E+01  3.82985E+00  3.14915E+00  5.02266E+00  9.70517E+00  4.60497E+00
   4.83069E+00  9.98762E+00  9.37330E+00 -4.14837E+00  3.14121E+00  2.26597E+00 -3.29320E-01  8.18903E-01  7.17942E-01 -3.62008E+00
   1.35775E+00  1.51846E+01 -1.16192E+00 -3.30975E+00 -1.12871E+01  6.12614E+00  1.63017E+00  2.27516E+00 -3.38725E+00 -4.79503E-01
   1.96994E+00 -1.20966E+00 -4.73057E+00 -2.25566E-02 -4.95019E+00  1.63611E+00 -4.25749E+00 -7.86148E+00 -1.34754E+01 -1.62809E+01
  -1.86537E+01 -2.34079E+01 -1.61868E+01 -3.20274E+01 -4.16614E+01 -2.74434E+01 -3.19295E+01 -2.79744E+01 -3.68542E+01 -3.30866E+01
  -3.29622E+01 -1.81001E+01 -1.93282E+01 -1.61573E+01  9.07621E-01 -2.90044E+00 -2.07215E+01 -1.26942E+01 -1.09713E+01 -6.29611E+00
   4.36611E-01 -5.58231E+00 -4.32159E+00 -1.07019E+01 -2.85687E+01 -1.71016E+01 -3.38806E+01 -1.95220E+01 -2.80795E+01 -1.61725E+01
  -1.28950E+01 -2.31509E+01  7.56963E-01 -1.30411E+01  4.12924E+00  3.49185E-01 -2.68869E+00 -6.53847E+00 -2.97059E+00 -1.11876E+01
  -1.03619E+01 -3.14495E+00  1.22694E+01  9.78758E+00  1.55470E+01  1.07294E+01  2.58415E+01  1.71634E+01  6.22725E+00  9.80880E+00
  -5.45449E+00 -7.37557E+00 -1.88209E+01  2.73192E+00  7.15626E+00 -2.46131E+00  1.95499E+01  1.98275E+01  6.02023E+00  2.05294E+01
   1.74671E+01  1.27236E+01  1.23330E+01  7.43851E+00  5.24088E+00  1.48246E+01  1.68423E+01  4.78155E+00  1.49082E+01  1.94688E+01
   1.81484E+01  8.37402E+00  5.00601E+00  2.35287E+01  1.11226E+01  2.49432E+01  2.94150E+01  3.27290E+01  2.74468E+01  3.42365E+01
   2.62332E+01  2.98415E+01  3.88155E+01  5.27700E+01  6.65266E+01  8.10609E+01  9.90921E+01  1.19464E+02  1.46103E+02  1.85481E+02
   2.04310E+02  1.86693E+02  1.33742E+02  9.16495E+01  5.77795E+01  5.18910E+01  2.62883E+01  1.70654E+01  1.73191E+01  6.88486E+00
   1.46771E+01  4.93682E+00  1.45585E+00  1.34544E+01  1.34398E+01 -8.52350E+00  8.04127E+00  6.77040E+00  5.77862E+00 -5.02015E+00
   5.31886E-02 -8.26612E+00 -5.60924E-01  8.19765E+00 -5.32806E+00 -1.16807E+01  2.12793E+00 -1.33094E+01  1.93593E+00 -2.51772E+00
   1.34232E+00  4.20404E+00 -1.28423E+01 -6.21595E+00 -2.39277E+00  2.61864E+00 -8.37033E+00 -3.46410E+00 -3.49479E+00 -4.35290E+00
  -7.29107E+00  8.04992E+00 -2.22196E+00 -2.82142E+00  6.43787E-01  4.49895E+00 -6.99738E+00  1.07962E+01  1.42727E+00 -8.43544E+00
   1.11792E+01 -2.93670E+00 -1.15504E+01  2.89670E+00  1.80890E+00 -1.75261E+00 -4.09275E+00  6.38010E+00  1.20076E+01  1.08304E+01
   4.67364E+00  1.81979E+01  2.08967E+01  2.86340E+01  2.02042E+01  2.67088E+01  3.29048E+01  3.03902E+01  4.35481E+01  4.32265E+01
   3.86652E+01  3.65377E+01  3.92900E+01  3.41328E+01  3.53891E+01  3.92026E+01  3.94258E+01  5.28944E+01  3.69406E+01  5.58236E+01
   4.13908E+01  2.99837E+01  4.25803E+01  4.11814E+01  3.11257E+01  3.08639E+01  2.40598E+01  2.43961E+01  3.13291E+01  2.35341E+01
   1.53017E+01  1.48913E+01  1.90389E+01  1.48309E+01  1.79486E+01  2.31302E+01  2.69926E+01  2.13565E+01  1.79245E+01  3.50052E+01
   1.15145E+01  8.68155E+00  1.91454E+01  2.11663E+01  2.47459E+01  1.87295E+01  2.30685E+01  1.69029E+01  2.42046E+01  1.89211E+01
   2.04971E+01  1.92057E+01  3.45104E+00  1.51239E+01  1.69470E+01  1.06366E+01  1.89875E+01  6.35283E+00  5.90689E+00  1.43043E+01
   7.69035E+00  1.16085E+01  1.63321E+01  2.01445E+01  1.63073E+01  8.27885E+00  1.53524E+01  2.14269E+01  2.11393E+01  1.92141E+01
   1.14803E+01  2.07377E+01  1.84492E+01  1.89884E+01  1.97583E+01  2.32054E+01  1.72026E+01  2.48588E+01  2.59680E+01  2.83365E+01
   3.34748E+01  2.75067E+01  2.83975E+01  2.49792E+01  3.95383E+01  2.67538E+01  3.06677E+01  2.37731E+01  2.31307E+01  1.92334E+01
   3.13004E+01  1.93094E+01  1.07759E+01  1.71771E+01  1.08100E+01  1.48369E+01  1.61926E+01  1.01207E+01 -2.35204E+00  1.01811E+01
   8.13829E+00  1.24827E+01  1.61239E+01  1.27041E+01  1.68883E+01  1.40994E+00  5.72031E-01  6.21422E+00  7.18542E+00  8.08683E-01
   8.60910E+00  6.09817E+00 -6.50331E-01  1.01916E+01  3.56728E+00 -2.87974E+00  3.25325E+00  6.56628E-01  3.75138E+00 -8.48093E+00
  -2.81737E+00 -2.02834E-01  9.37888E+00  4.37121E+00 -3.59178E+00 -1.28421E+01  7.52644E-01 -1.67731E+00 -3.56613E+00 -6.80135E+00
   2.72851E+00 -6.14607E+00  5.81905E+00 -1.09403E+01 -8.36049E+00 -8.73180E-01 -2.64368E+00 -4.81681E+00  8.89683E-01  1.32628E+00
  -1.84555E+01 -6.89552E-01 -4.16869E+00 -7.89437E+00 -2.54967E+00 -7.72913E+00  2.77738E+00  3.29049E+00 -6.48476E+00 -2.63332E+00
  -8.34947E+00 -8.49321E-01 -6.35154E-01 -1.54888E+01  2.15265E-01 -6.39055E+00  8.02280E-01 -9.94412E-01 -1.05760E+00 -3.67676E+00
  -6.16687E+00  3.58950E+00 -9.17944E-01 -1.99041E+00 -7.89218E+00 -1.07546E+01 -4.01083E+00 -1.42412E+00 -1.07659E+01 -4.96657E+00
  -8.31953E+00 -5.39418E+00 -1.00042E+00 -1.47211E+00 -1.37588E+01 -1.13077E+01 -1.01587E+00 -6.15706E+00
 NY points of the fit to the data follow
   2.76436E+00  2.70613E+00  3.23491E+00  4.77191E+00  7.45345E+00  1.15664E+01  1.76366E+01  2.47682E+01  3.19890E+01  3.81889E+01
   4.18763E+01  4.16883E+01  3.73200E+01  3.01376E+01  2.24944E+01  1.62469E+01  1.19313E+01  9.03726E+00  6.84066E+00  5.38498E+00
   4.82926E+00  4.51559E+00  4.00671E+00  3.57291E+00  3.68989E+00  4.17645E+00  5.40044E+00  7.86849E+00  1.15057E+01  1.53452E+01
   1.80282E+01  1.88224E+01  1.76925E+01  1.51326E+01  1.18817E+01  8.32278E+00  4.92373E+00  2.54521E+00  1.59641E+00  1.63741E+00
   2.72611E+00  5.16944E+00  8.66678E+00  1.26573E+01  1.68918E+01  2.08720E+01  2.31865E+01  2.24286E+01  1.85122E+01  1.28382E+01
   7.48202E+00  3.73959E+00  1.64721E+00  7.43843E-01  8.20151E-01  1.94240E+00  3.74299E+00  5.62068E+00  7.11788E+00  7.78239E+00
   7.28060E+00  5.72865E+00  3.65808E+00  1.89574E+00  9.25588E-01  8.50971E-01  1.48822E+00  2.47355E+00  3.45770E+00  4.36103E+00
   5.15453E+00  5.64996E+00  5.73328E+00  5.44312E+00  4.89040E+00  4.15845E+00  3.25714E+00  2.25502E+00  1.30911E+00  7.62923E-01
   8.73865E-01  1.41155E+00  1.89545E+00  2.15635E+00  2.08774E+00  1.47788E+00  2.97077E-01 -1.13099E+00 -2.23808E+00 -2.53958E+00
  -1.95889E+00 -1.02266E+00 -2.44418E-01  2.89896E-01  7.19044E-01  1.25361E+00  2.65765E+00  7.60851E+00  1.71086E+01  2.98792E+01
   4.57556E+01  6.31836E+01  7.73914E+01  8.22526E+01  7.49895E+01  5.88460E+01  4.07749E+01  2.63082E+01  1.65251E+01  9.56769E+00
   4.22537E+00  1.24653E+00  3.96506E-01  2.04937E-01  2.00793E-01  2.82900E-01  4.51908E-01  7.17296E-01  1.14245E+00  1.89498E+00
   3.60480E+00  8.38606E+00  1.69997E+01  2.82716E+01  4.19775E+01  5.68278E+01  6.88952E+01  7.32123E+01  6.74982E+01  5.43972E+01
   3.96101E+01  2.75627E+01  1.89339E+01  1.20743E+01  6.08532E+00  2.08138E+00  4.34023E-01  1.55257E-01  7.18720E-01  1.61938E+00
   2.38804E+00  2.75072E+00  2.61513E+00  2.06797E+00  1.33755E+00  6.11904E-01 -4.05028E-02 -6.12801E-01 -1.16836E+00 -1.71307E+00
  -2.21880E+00 -2.68269E+00 -3.05945E+00 -3.27685E+00 -3.36416E+00 -3.55124E+00 -3.88341E+00 -4.44625E+00 -5.31729E+00 -6.26438E+00
  -7.02659E+00 -7.17724E+00 -6.56153E+00 -5.66624E+00 -5.31264E+00 -5.96429E+00 -7.35316E+00 -8.79668E+00 -9.83945E+00 -1.05543E+01
  -1.12510E+01 -1.20648E+01 -1.28606E+01 -1.36081E+01 -1.42725E+01 -1.46238E+01 -1.42844E+01 -1.33818E+01 -1.25801E+01 -1.24192E+01
  -1.27886E+01 -1.31944E+01 -1.30421E+01 -1.23839E+01 -1.16613E+01 -1.07620E+01 -9.07513E+00 -6.37634E+00 -3.15291E+00 -3.62491E-01
   1.26915E+00  1.56646E+00  7.16420E-01 -6.68010E-01 -2.09087E+00 -3.31153E+00 -4.04775E+00 -4.02070E+00 -3.00960E+00 -1.07184E+00
   1.50772E+00  4.13930E+00  6.15091E+00  6.92954E+00  5.82925E+00  2.97585E+00 -1.11468E+00 -5.76943E+00 -9.82697E+00 -1.21518E+01
  -1.18556E+01 -9.03193E+00 -4.40684E+00  1.13966E+00  6.43847E+00  9.97204E+00  1.03655E+01  7.36261E+00  2.20114E+00 -3.16938E+00
  -7.46229E+00 -9.90444E+00 -9.77579E+00 -6.88513E+00 -1.98929E+00  3.11034E+00  6.92813E+00  9.13862E+00  1.00860E+01  1.02032E+01
   9.77255E+00  9.42018E+00  9.74458E+00  1.07983E+01  1.22406E+01  1.38031E+01  1.52291E+01  1.61359E+01  1.64653E+01  1.62870E+01
   1.58266E+01  1.55226E+01  1.59322E+01  1.73195E+01  1.94525E+01  2.18419E+01  2.39047E+01  2.53569E+01  2.63760E+01  2.76500E+01
   3.01689E+01  3.38004E+01  3.85014E+01  4.51493E+01  5.86005E+01  7.91001E+01  1.02314E+02  1.28856E+02  1.58091E+02  1.82378E+02
   1.89629E+02  1.73325E+02  1.39326E+02  1.01728E+02  7.20317E+01  5.19595E+01  3.71012E+01  2.48720E+01  1.74767E+01  1.44949E+01
   1.26832E+01  1.13487E+01  1.03575E+01  9.54113E+00  8.69876E+00  7.73933E+00  6.67139E+00  5.59219E+00  4.59310E+00  3.70562E+00
   2.92656E+00  2.26131E+00  1.70989E+00  1.23316E+00  7.68951E-01  2.85958E-01 -1.90601E-01 -6.28681E-01 -1.01334E+00 -1.33672E+00
  -1.58567E+00 -1.76095E+00 -1.89130E+00 -2.01797E+00 -2.15762E+00 -2.30914E+00 -2.46315E+00 -2.60596E+00 -2.72347E+00 -2.80026E+00
  -2.82405E+00 -2.79856E+00 -2.73448E+00 -2.63797E+00 -2.50660E+00 -2.33231E+00 -2.10696E+00 -1.82180E+00 -1.46178E+00 -1.01112E+00
  -4.55209E-01  2.21066E-01  1.03265E+00  1.99521E+00  3.12480E+00  4.43642E+00  5.94221E+00  7.65145E+00  9.57139E+00  1.17106E+01
   1.40877E+01  1.67535E+01  1.96660E+01  2.26339E+01  2.55616E+01  2.82998E+01  3.05956E+01  3.22359E+01  3.32345E+01  3.39271E+01
   3.48102E+01  3.60281E+01  3.74973E+01  3.91180E+01  4.08097E+01  4.23831E+01  4.34513E+01  4.36633E+01  4.30572E+01  4.19353E+01
   4.06470E+01  3.94497E+01  3.82774E+01  3.69747E+01  3.55961E+01  3.39684E+01  3.17602E+01  2.87686E+01  2.52136E+01  2.18969E+01
   1.95206E+01  1.82798E+01  1.81035E+01  1.88149E+01  2.01396E+01  2.16161E+01  2.26199E+01  2.28112E+01  2.23974E+01  2.17636E+01
   2.11350E+01  2.05003E+01  1.98041E+01  1.91426E+01  1.85562E+01  1.79870E+01  1.74085E+01  1.68123E+01  1.61983E+01  1.55717E+01
   1.49410E+01  1.43166E+01  1.37101E+01  1.31338E+01  1.26006E+01  1.21237E+01  1.17160E+01  1.13899E+01  1.11563E+01  1.10254E+01
   1.10065E+01  1.11078E+01  1.13355E+01  1.16940E+01  1.21851E+01  1.28085E+01  1.35615E+01  1.44387E+01  1.54306E+01  1.65245E+01
   1.77038E+01  1.89490E+01  2.02371E+01  2.15424E+01  2.28362E+01  2.40883E+01  2.52677E+01  2.63445E+01  2.72897E+01  2.80773E+01
   2.86843E+01  2.90926E+01  2.92894E+01  2.92681E+01  2.90283E+01  2.85751E+01  2.79191E+01  2.70762E+01  2.60665E+01  2.49137E+01
   2.36434E+01  2.22820E+01  2.08558E+01  1.93905E+01  1.79103E+01  1.64371E+01  1.49896E+01  1.35836E+01  1.22315E+01  1.09433E+01
   9.72588E+00  8.58370E+00  7.51844E+00  6.53000E+00  5.61671E+00  4.77611E+00  4.00472E+00  3.29842E+00  2.65235E+00  2.06175E+00
   1.52192E+00  1.02865E+00  5.77644E-01  1.64804E-01 -2.13951E-01 -5.62042E-01 -8.82526E-01 -1.17791E+00 -1.45080E+00 -1.70355E+00
  -1.93846E+00 -2.15717E+00 -2.36115E+00 -2.55158E+00 -2.72990E+00 -2.89733E+00 -3.05508E+00 -3.20378E+00 -3.34411E+00 -3.47664E+00
  -3.60225E+00 -3.72160E+00 -3.83528E+00 -3.94344E+00 -4.04645E+00 -4.14463E+00 -4.23862E+00 -4.32876E+00 -4.41533E+00 -4.49827E+00
  -4.57784E+00 -4.65430E+00 -4.72813E+00 -4.79944E+00 -4.86830E+00 -4.93462E+00 -4.99865E+00 -5.06064E+00 -5.12092E+00 -5.17945E+00
  -5.23621E+00 -5.29111E+00 -5.34446E+00 -5.39644E+00 -5.44726E+00 -5.49675E+00 -5.54491E+00 -5.59171E+00 -5.63748E+00 -5.68234E+00
  -5.72639E+00 -5.76939E+00 -5.81138E+00 -5.85240E+00 -5.89277E+00 -5.93254E+00 -5.97169E+00 -6.00999E+00 -6.04755E+00 -6.08449E+00
  -6.12109E+00 -6.15727E+00 -6.19299E+00 -6.22806E+00 -6.26267E+00 -6.29697E+00 -6.33118E+00 -6.36514E+00
 NY background values follow
    -4.396E+00   -4.405E+00   -4.414E+00   -4.423E+00   -4.432E+00   -4.441E+00   -4.450E+00   -4.459E+00   -4.468E+00   -4.477E+00
    -4.486E+00   -4.495E+00   -4.504E+00   -4.513E+00   -4.522E+00   -4.531E+00   -4.540E+00   -4.549E+00   -4.558E+00   -4.567E+00
    -4.576E+00   -4.585E+00   -4.594E+00   -4.603E+00   -4.612E+00   -4.620E+00   -4.629E+00   -4.638E+00   -4.647E+00   -4.656E+00
    -4.665E+00   -4.674E+00   -4.683E+00   -4.692E+00   -4.701E+00   -4.710E+00   -4.719E+00   -4.728E+00   -4.737E+00   -4.746E+00
    -4.755E+00   -4.764E+00   -4.773E+00   -4.782E+00   -4.791E+00   -4.800E+00   -4.809E+00   -4.818E+00   -4.827E+00   -4.836E+00
    -4.845E+00   -4.854E+00   -4.862E+00   -4.871E+00   -4.880E+00   -4.889E+00   -4.898E+00   -4.907E+00   -4.916E+00   -4.925E+00
    -4.934E+00   -4.943E+00   -4.952E+00   -4.961E+00   -4.970E+00   -4.979E+00   -4.988E+00   -4.997E+00   -5.006E+00   -5.015E+00
    -5.024E+00   -5.033E+00   -5.041E+00   -5.050E+00   -5.059E+00   -5.068E+00   -5.077E+00   -5.086E+00   -5.095E+00   -5.104E+00
    -5.113E+00   -5.122E+00   -5.131E+00   -5.140E+00   -5.149E+00   -5.158E+00   -5.167E+00   -5.176E+00   -5.185E+00   -5.193E+00
    -5.202E+00   -5.211E+00   -5.220E+00   -5.229E+00   -5.238E+00   -5.247E+00   -5.256E+00   -5.265E+00   -5.274E+00   -5.283E+00
    -5.292E+00   -5.301E+00   -5.310E+00   -5.318E+00   -5.327E+00   -5.336E+00   -5.345E+00   -5.354E+00   -5.363E+00   -5.372E+00
    -5.381E+00   -5.390E+00   -5.399E+00   -5.408E+00   -5.417E+00   -5.425E+00   -5.434E+00   -5.443E+00   -5.452E+00   -5.461E+00
    -5.470E+00   -5.479E+00   -5.488E+00   -5.497E+00   -5.506E+00   -5.515E+00   -5.524E+00   -5.532E+00   -5.541E+00   -5.550E+00
    -5.559E+00   -5.568E+00   -5.577E+00   -5.586E+00   -5.595E+00   -5.604E+00   -5.613E+00   -5.621E+00   -5.630E+00   -5.639E+00
    -5.648E+00   -5.657E+00   -5.666E+00   -5.675E+00   -5.684E+00   -5.693E+00   -5.701E+00   -5.710E+00   -5.719E+00   -5.728E+00
    -5.737E+00   -5.746E+00   -5.755E+00   -5.764E+00   -5.772E+00   -5.781E+00   -5.790E+00   -5.799E+00   -5.808E+00   -5.817E+00
    -5.826E+00   -5.835E+00   -5.843E+00   -5.852E+00   -5.861E+00   -5.870E+00   -5.879E+00   -5.888E+00   -5.897E+00   -5.905E+00
    -5.914E+00   -5.923E+00   -5.932E+00   -5.941E+00   -5.950E+00   -5.959E+00   -5.967E+00   -5.976E+00   -5.985E+00   -5.994E+00
    -6.003E+00   -6.012E+00   -6.021E+00   -6.029E+00   -6.038E+00   -6.047E+00   -6.056E+00   -6.065E+00   -6.074E+00   -6.082E+00
    -6.091E+00   -6.100E+00   -6.109E+00   -6.118E+00   -6.127E+00   -6.135E+00   -6.144E+00   -6.153E+00   -6.162E+00   -6.171E+00
    -6.179E+00   -6.188E+00   -6.197E+00   -6.206E+00   -6.215E+00   -6.224E+00   -6.232E+00   -6.241E+00   -6.250E+00   -6.259E+00
    -6.268E+00   -6.276E+00   -6.285E+00   -6.294E+00   -6.303E+00   -6.312E+00   -6.320E+00   -6.329E+00   -6.338E+00   -6.347E+00
    -6.356E+00   -6.364E+00   -6.373E+00   -6.382E+00   -6.391E+00   -6.399E+00   -6.408E+00   -6.417E+00   -6.426E+00   -6.435E+00
    -6.443E+00   -6.452E+00   -6.461E+00   -6.470E+00   -6.478E+00   -6.487E+00   -6.496E+00   -6.505E+00   -6.513E+00   -6.522E+00
    -6.531E+00   -6.540E+00   -6.549E+00   -6.557E+00   -6.566E+00   -6.575E+00   -6.584E+00   -6.592E+00   -6.601E+00   -6.610E+00
    -6.619E+00   -6.627E+00   -6.636E+00   -6.645E+00   -6.653E+00   -6.662E+00   -6.671E+00   -6.680E+00   -6.688E+00   -6.697E+00
    -6.706E+00   -6.715E+00   -6.723E+00   -6.732E+00   -6.741E+00   -6.749E+00   -6.758E+00   -6.767E+00   -6.776E+00   -6.784E+00
    -6.793E+00   -6.802E+00   -6.810E+00   -6.819E+00   -6.828E+00   -6.837E+00   -6.845E+00   -6.854E+00   -6.863E+00   -6.871E+00
    -6.880E+00   -6.889E+00   -6.897E+00   -6.906E+00   -6.915E+00   -6.923E+00   -6.932E+00   -6.941E+00   -6.949E+00   -6.958E+00
    -6.967E+00   -6.975E+00   -6.984E+00   -6.993E+00   -7.002E+00   -7.010E+00   -7.019E+00   -7.027E+00   -7.036E+00   -7.045E+00
    -7.053E+00   -7.062E+00   -7.071E+00   -7.079E+00   -7.088E+00   -7.097E+00   -7.105E+00   -7.114E+00   -7.123E+00   -7.131E+00
    -7.140E+00   -7.149E+00   -7.157E+00   -7.166E+00   -7.174E+00   -7.183E+00   -7.192E+00   -7.200E+00   -7.209E+00   -7.218E+00
    -7.226E+00   -7.235E+00   -7.243E+00   -7.252E+00   -7.261E+00   -7.269E+00   -7.278E+00   -7.286E+00   -7.295E+00   -7.304E+00
    -7.312E+00   -7.321E+00   -7.329E+00   -7.338E+00   -7.347E+00   -7.355E+00   -7.364E+00   -7.372E+00   -7.381E+00   -7.390E+00
    -7.398E+00   -7.407E+00   -7.415E+00   -7.424E+00   -7.432E+00   -7.441E+00   -7.450E+00   -7.458E+00   -7.467E+00   -7.475E+00
    -7.484E+00   -7.492E+00   -7.501E+00   -7.510E+00   -7.518E+00   -7.527E+00   -7.535E+00   -7.544E+00   -7.552E+00   -7.561E+00
    -7.569E+00   -7.578E+00   -7.586E+00   -7.595E+00   -7.603E+00   -7.612E+00   -7.621E+00   -7.629E+00   -7.638E+00   -7.646E+00
    -7.655E+00   -7.663E+00   -7.672E+00   -7.680E+00   -7.689E+00   -7.697E+00   -7.706E+00   -7.714E+00   -7.723E+00   -7.731E+00
    -7.740E+00   -7.748E+00   -7.757E+00   -7.765E+00   -7.774E+00   -7.782E+00   -7.791E+00   -7.799E+00   -7.808E+00   -7.816E+00
    -7.825E+00   -7.833E+00   -7.842E+00   -7.850E+00   -7.858E+00   -7.867E+00   -7.875E+00   -7.884E+00   -7.892E+00   -7.901E+00
    -7.909E+00   -7.918E+00   -7.926E+00   -7.935E+00   -7.943E+00   -7.951E+00   -7.960E+00   -7.968E+00   -7.977E+00   -7.985E+00
    -7.994E+00   -8.002E+00   -8.011E+00   -8.019E+00   -8.027E+00   -8.036E+00   -8.044E+00   -8.053E+00   -8.061E+00   -8.069E+00
    -8.078E+00   -8.086E+00   -8.095E+00   -8.103E+00   -8.111E+00   -8.120E+00   -8.128E+00   -8.137E+00   -8.145E+00   -8.153E+00
    -8.162E+00   -8.170E+00   -8.179E+00   -8.187E+00   -8.195E+00   -8.204E+00   -8.212E+00   -8.220E+00   -8.229E+00   -8.237E+00
    -8.246E+00   -8.254E+00   -8.262E+00   -8.271E+00   -8.279E+00   -8.287E+00   -8.296E+00   -8.304E+00   -8.312E+00   -8.321E+00
    -8.329E+00   -8.337E+00   -8.346E+00   -8.354E+00   -8.362E+00   -8.371E+00   -8.379E+00   -8.387E+00   -8.396E+00   -8.404E+00
    -8.412E+00   -8.421E+00   -8.429E+00   -8.437E+00   -8.446E+00   -8.454E+00   -8.462E+00   -8.471E+00   -8.479E+00   -8.487E+00
    -8.495E+00   -8.504E+00   -8.512E+00   -8.520E+00   -8.529E+00   -8.537E+00   -8.545E+00   -8.553E+00   -8.562E+00   -8.570E+00
    -8.578E+00   -8.586E+00   -8.595E+00   -8.603E+00   -8.611E+00   -8.620E+00   -8.628E+00   -8.636E+00   -8.644E+00   -8.653E+00
    -8.661E+00   -8.669E+00   -8.677E+00   -8.685E+00   -8.694E+00   -8.702E+00   -8.710E+00   -8.718E+00
 Ala      Conc. = 2.22E+02
