 LCModel (Version 6.3-1L) Copyright: S.W. Provencher.          Ref.: Magn. Reson. Med. 30:672-679 (1993).                
 Slice#1 Row#1 Col#3  PD_05_press_2_raw_act
 36 lines in following concentration table = NCONC+1
    Conc.  %SD /Cr+PCr  Metabolite                                         
    0.000 999%   0.000 Ala                                                 
   26.899 133%   0.687 Asp                                                 
    0.000 999%   0.000 Cr                                                  
   39.151 265%   1.000 PCr                                                 
   17.865 120%   0.456 GABA                                                
   19.066 113%   0.487 Glc                                                 
  649.323  89%  16.585 Gln                                                 
    0.000 999%   0.000 Glu                                                 
    0.000 999%   0.000 GPC                                                 
    3.483 999% 8.9E-02 PCh                                                 
   70.243 228%   1.794 GSH                                                 
  129.080 366%   3.297 Ins                                                 
 1.58E+03  21%  40.302 Lac                                                 
  555.802  20%  14.196 NAA                                                 
    0.000 999%   0.000 NAAG                                                
    6.366 113%   0.163 Scyllo                                              
   30.374 117%   0.776 Tau                                                 
    5.066 459%   0.129 -CrCH2                                              
    3.483 999% 8.9E-02 GPC+PCh                                             
  555.802  20%  14.196 NAA+NAAG                                            
   39.151 265%   1.000 Cr+PCr                                              
  649.323  89%  16.585 Glu+Gln                                             
    0.000 999%   0.000 Lip13a                                              
    0.000 999%   0.000 Lip13b                                              
    0.000 999%   0.000 Lip09                                               
 1.07E-03 999% 2.7E-05 MM09                                                
    0.000 999%   0.000 Lip20                                               
    0.000 999%   0.000 MM20                                                
    0.000 999%   0.000 MM12                                                
 9.90E-03 999% 2.5E-04 MM14                                                
    0.000 999%   0.000 MM17                                                
    0.000 999%   0.000 Lip13a+Lip13b                                       
 9.90E-03 999% 2.5E-04 MM14+Lip13a+Lip13b+MM12                             
 1.07E-03 999% 2.7E-05 MM09+Lip09                                          
    0.000 999%   0.000 MM20+Lip20                                          
   6 lines in following misc. output table
  FWHM = 0.061 ppm    S/N =   1                                            
  Data shift = 0.038 ppm                                                   
  Ph: -42 deg     -49.4 deg/ppm                                            
  alphaB,S = 8.5E+01,   1.0E+02                                            
   14 spline knots.   Ns = 7(1)                                            
   2 inflections.     1 extrema                                            
  498 points on ppm-axis = NY
      4.000000     3.992357     3.984714     3.977070     3.969427     3.961784     3.954141     3.946497     3.938854     3.931211
      3.923568     3.915925     3.908281     3.900638     3.892995     3.885352     3.877708     3.870065     3.862422     3.854779
      3.847136     3.839492     3.831849     3.824206     3.816563     3.808919     3.801276     3.793633     3.785990     3.778347
      3.770703     3.763060     3.755417     3.747774     3.740130     3.732487     3.724844     3.717201     3.709558     3.701914
      3.694271     3.686628     3.678985     3.671341     3.663698     3.656055     3.648412     3.640769     3.633125     3.625482
      3.617839     3.610196     3.602552     3.594909     3.587266     3.579623     3.571980     3.564336     3.556693     3.549050
      3.541407     3.533763     3.526120     3.518477     3.510834     3.503191     3.495547     3.487904     3.480261     3.472618
      3.464974     3.457331     3.449688     3.442045     3.434402     3.426758     3.419115     3.411472     3.403829     3.396185
      3.388542     3.380899     3.373256     3.365613     3.357969     3.350326     3.342683     3.335040     3.327396     3.319753
      3.312110     3.304467     3.296824     3.289180     3.281537     3.273894     3.266251     3.258607     3.250964     3.243321
      3.235678     3.228034     3.220391     3.212748     3.205105     3.197462     3.189818     3.182175     3.174532     3.166889
      3.159245     3.151602     3.143959     3.136316     3.128673     3.121029     3.113386     3.105743     3.098100     3.090456
      3.082813     3.075170     3.067527     3.059884     3.052240     3.044597     3.036954     3.029311     3.021667     3.014024
      3.006381     2.998738     2.991095     2.983451     2.975808     2.968165     2.960522     2.952878     2.945235     2.937592
      2.929949     2.922306     2.914662     2.907019     2.899376     2.891733     2.884089     2.876446     2.868803     2.861160
      2.853517     2.845873     2.838230     2.830587     2.822944     2.815300     2.807657     2.800014     2.792371     2.784728
      2.777084     2.769441     2.761798     2.754155     2.746511     2.738868     2.731225     2.723582     2.715939     2.708295
      2.700652     2.693009     2.685366     2.677722     2.670079     2.662436     2.654793     2.647150     2.639506     2.631863
      2.624220     2.616577     2.608933     2.601290     2.593647     2.586004     2.578361     2.570717     2.563074     2.555431
      2.547788     2.540144     2.532501     2.524858     2.517215     2.509572     2.501928     2.494285     2.486642     2.478999
      2.471355     2.463712     2.456069     2.448426     2.440783     2.433139     2.425496     2.417853     2.410210     2.402566
      2.394923     2.387280     2.379637     2.371994     2.364350     2.356707     2.349064     2.341421     2.333777     2.326134
      2.318491     2.310848     2.303205     2.295561     2.287918     2.280275     2.272632     2.264988     2.257345     2.249702
      2.242059     2.234416     2.226772     2.219129     2.211486     2.203843     2.196199     2.188556     2.180913     2.173270
      2.165627     2.157983     2.150340     2.142697     2.135054     2.127410     2.119767     2.112124     2.104481     2.096838
      2.089194     2.081551     2.073908     2.066265     2.058621     2.050978     2.043335     2.035692     2.028049     2.020405
      2.012762     2.005119     1.997476     1.989833     1.982190     1.974546     1.966903     1.959260     1.951617     1.943974
      1.936331     1.928688     1.921045     1.913402     1.905759     1.898115     1.890472     1.882829     1.875186     1.867543
      1.859900     1.852257     1.844614     1.836971     1.829327     1.821684     1.814041     1.806398     1.798755     1.791112
      1.783469     1.775826     1.768183     1.760540     1.752896     1.745253     1.737610     1.729967     1.722324     1.714681
      1.707038     1.699395     1.691752     1.684108     1.676465     1.668822     1.661179     1.653536     1.645893     1.638250
      1.630607     1.622964     1.615321     1.607677     1.600034     1.592391     1.584748     1.577105     1.569462     1.561819
      1.554176     1.546533     1.538890     1.531246     1.523603     1.515960     1.508317     1.500674     1.493031     1.485388
      1.477745     1.470102     1.462458     1.454815     1.447172     1.439529     1.431886     1.424243     1.416600     1.408957
      1.401314     1.393671     1.386027     1.378384     1.370741     1.363098     1.355455     1.347812     1.340169     1.332526
      1.324883     1.317240     1.309596     1.301953     1.294310     1.286667     1.279024     1.271381     1.263738     1.256095
      1.248452     1.240808     1.233165     1.225522     1.217879     1.210236     1.202593     1.194950     1.187307     1.179664
      1.172021     1.164377     1.156734     1.149091     1.141448     1.133805     1.126162     1.118519     1.110876     1.103233
      1.095590     1.087946     1.080303     1.072660     1.065017     1.057374     1.049731     1.042088     1.034445     1.026802
      1.019158     1.011515     1.003872     0.996229     0.988586     0.980943     0.973300     0.965657     0.958014     0.950371
      0.942727     0.935084     0.927441     0.919798     0.912155     0.904512     0.896869     0.889226     0.881583     0.873940
      0.866296     0.858653     0.851010     0.843367     0.835724     0.828081     0.820438     0.812795     0.805152     0.797508
      0.789865     0.782222     0.774579     0.766936     0.759293     0.751650     0.744007     0.736364     0.728721     0.721077
      0.713434     0.705791     0.698148     0.690505     0.682862     0.675219     0.667576     0.659933     0.652290     0.644646
      0.637003     0.629360     0.621717     0.614074     0.606431     0.598788     0.591145     0.583502     0.575858     0.568215
      0.560572     0.552929     0.545286     0.537643     0.530000     0.522357     0.514714     0.507071     0.499427     0.491784
      0.484141     0.476498     0.468855     0.461212     0.453569     0.445925     0.438282     0.430639     0.422996     0.415353
      0.407710     0.400067     0.392424     0.384780     0.377137     0.369494     0.361851     0.354208     0.346565     0.338922
      0.331278     0.323635     0.315992     0.308349     0.300706     0.293063     0.285420     0.277777     0.270133     0.262490
      0.254847     0.247204     0.239561     0.231918     0.224275     0.216631     0.208988     0.201345
 NY phased data points follow
  -1.75558E+01 -6.60741E+00 -1.31220E+00 -2.28959E+00 -1.21054E+01 -2.29744E+01 -1.39810E+01  2.17126E+00  2.02899E+00 -1.36579E+01
  -8.58100E+00 -1.25842E+01 -8.06746E+00 -8.74774E+00  2.85225E+00 -1.08543E+01 -5.99998E+00 -1.30020E+01 -9.83603E+00 -1.37382E+01
  -2.31573E+01 -2.58783E+01 -1.24427E+01  7.49661E-01  5.84040E+00 -9.03135E+00 -7.90957E+00 -1.50758E+01  3.84505E+00 -2.35640E+01
  -1.22944E+01  1.18567E+01 -5.26689E+00  1.83548E-01 -3.97604E+00 -1.19242E+01 -1.62100E+01 -4.57092E+00 -8.44729E+00 -6.46390E+00
  -8.54362E+00 -1.33107E+01 -5.26789E+00 -3.52521E+00 -4.18833E+00 -6.28225E+00 -5.80316E+00 -5.20420E-01  7.01822E-01 -1.46402E+01
   4.12499E+00 -3.78986E+00 -9.63636E+00 -8.41720E+00  1.02574E+01 -1.54567E+01 -7.82068E-01 -8.35358E+00 -1.26562E+01 -1.45938E+01
  -1.81264E+01 -1.25236E+01 -7.54034E+00 -1.15650E+01 -1.77110E+00 -8.42259E+00 -6.25815E+00 -1.38343E+01  6.46300E+00 -6.14792E+00
  -9.38908E+00 -1.01943E+01 -4.55266E+00 -6.84587E+00 -7.52432E+00  2.34248E+00 -4.76438E+00  8.51647E+00 -4.69076E-01 -7.95321E+00
   1.20244E+00 -1.26279E+00 -1.05326E+01 -1.82534E+00 -2.13203E+01 -9.44542E+00 -2.42585E+00  1.75050E+00 -6.01347E-01 -1.14274E+01
  -2.47604E+00 -3.69993E+00 -1.16883E+00 -3.91468E+00 -9.20967E+00 -7.17607E+00 -1.55825E+01 -1.88029E+01  3.12915E+00 -8.60270E+00
  -2.02458E+01 -6.45114E+00  9.24886E-01  1.50519E+00 -5.13066E+00  3.59579E+00 -1.29336E+01 -1.13440E+01 -1.14323E+01  9.04797E-01
  -1.08397E+01 -1.15796E+01 -2.33463E+00 -1.34436E+01 -1.98563E+01 -1.23919E+01 -1.69862E+01 -8.69942E+00 -2.73272E+00 -1.64070E+00
  -7.01550E+00 -6.51099E+00 -7.34729E+00 -1.27034E+01 -6.69671E+00  2.74297E+00 -5.14467E+00 -1.19276E+01  8.72349E+00 -5.90480E+00
  -8.32975E+00  1.53509E+00 -1.72213E+00 -1.21705E+01 -8.23654E+00 -6.46796E+00 -7.55866E+00 -3.65449E+00  1.05712E+00 -1.51638E+01
  -9.35005E+00 -7.00205E+00 -1.38253E+01 -1.53360E+01 -6.19325E+00 -7.41010E+00 -1.00736E+01 -8.17016E-01 -4.60953E+00 -6.24879E+00
  -7.33727E+00  5.22999E+00  6.48098E+00 -1.10848E+01  1.01074E+01 -1.27833E+01 -2.69192E+00 -5.79090E+00  3.59344E+00 -3.35336E+00
   1.08534E+00 -6.44169E+00  1.00211E+00 -9.76915E+00  6.30913E+00  8.62362E+00 -4.29982E+00  4.68569E+00  1.65161E+00 -1.10937E+01
  -8.30844E+00 -5.02002E+00  8.51201E+00 -4.98588E+00 -6.72650E+00 -5.47054E+00 -1.54158E+01 -1.29592E+01 -1.34780E+01 -1.43348E+01
  -1.93234E+01 -7.32369E+00 -1.68983E+01 -1.59480E+00 -1.02447E+01 -1.39199E+01 -1.11586E+01 -1.30318E+01 -1.42949E+01 -2.96919E+00
  -1.02913E+01 -3.61059E+00 -4.46924E+00 -9.66705E+00 -3.00826E+00 -4.04705E-01 -9.46896E+00 -2.11297E+00  5.54432E+00 -6.43903E+00
  -5.63379E+00 -1.21635E+00  3.69175E+00  1.20236E+01 -1.54131E+01  6.63165E+00 -1.12481E+00 -1.70229E+01  5.32680E+00 -6.73080E+00
  -1.49650E+01 -5.99727E+00 -4.44922E+00 -8.73695E+00 -3.57462E+00  4.83131E-01 -1.70824E+01 -4.50644E+00  2.23948E+00 -7.96178E+00
  -7.28648E+00  2.27023E+00  1.36865E+01 -6.46934E+00  2.09181E+00 -4.78143E+00 -1.36319E+01 -3.23870E+00 -1.55997E+01 -4.84537E+00
   1.33931E-01 -1.10135E+01  1.41920E+01 -1.28665E+01 -4.05538E+00 -1.77390E+01  3.10764E+00 -1.37301E+01  6.99441E+00 -1.77160E+01
  -1.83905E+01  1.99178E+00 -1.66901E+01 -4.82178E+00 -1.76847E+01 -7.68495E+00 -6.58754E+00 -1.14044E+01 -6.01540E+00 -7.87981E+00
   4.09981E-01 -8.48991E+00 -8.87866E+00  6.09250E+00 -4.86390E+00 -2.76809E+00  9.58551E+00 -5.28746E+00  3.00854E+00  5.60145E+00
   1.81107E+01  2.42824E+01 -4.40259E-01  4.22536E+00  1.27494E+01  1.07060E+01  1.16143E+01 -6.17398E+00  4.23230E-01 -1.17119E+01
  -4.36328E+00 -7.10457E+00 -9.16262E+00 -2.24010E+00  2.85079E+00 -2.80091E+00 -1.53310E+00  1.02082E+01 -7.83916E+00 -7.28369E+00
  -5.30519E+00 -2.84142E-02  1.10921E+00  1.80346E+00 -1.24318E+01  2.48144E+00 -3.50967E-01 -1.14537E+00 -6.10530E-01  8.08749E+00
   5.30302E-01  1.19896E+01  5.04499E+00 -1.24820E+01  4.77921E+00 -1.54041E+01  9.07194E-01 -1.13316E+01  4.47823E+00 -1.42683E+01
  -1.56475E+00 -6.19433E+00 -1.19073E+01 -3.98293E+00 -3.68479E+00 -8.44516E+00 -6.46267E+00 -6.64219E+00 -5.29935E+00 -1.44241E+01
  -2.28714E+01 -5.69042E+00 -4.73206E+00 -4.15726E+00 -5.28988E+00  3.41977E-01 -1.32896E+01  2.00894E+00 -9.21009E+00 -4.22154E+00
  -1.45358E+01 -1.21426E+01 -4.20416E+00 -8.47110E+00 -8.35786E+00 -3.93420E-01 -1.28176E+01  2.03560E-01  9.18456E-01  1.04662E+01
   4.52098E+00  2.04734E+01  1.22540E+01  1.98915E+01  1.33759E+01  1.19235E+01  1.82058E+01 -2.47398E+00  1.01171E+01  9.50671E+00
   1.02473E+01  1.62513E+00  9.03875E+00  2.66938E+00  5.67455E+00  5.54616E+00  2.29462E+00 -4.57577E+00 -2.10715E+00 -2.81392E+00
  -9.47234E+00 -2.38158E+01 -2.30297E+01 -1.02096E+01 -1.81343E+01 -1.36779E+00  6.44788E-01 -1.43646E+00  6.88944E+00  9.16216E+00
   4.22796E+00  8.93735E+00 -8.06180E-01  1.67284E-01 -5.12229E+00  8.13352E+00 -8.54096E+00  4.78544E+00 -6.18589E-01 -5.87774E-01
  -1.01837E+00 -1.20546E+01  3.21556E+00 -1.03193E+01 -1.37548E+00 -1.05177E+01  6.93888E-02 -1.31093E+01 -6.74267E+00 -2.93148E+00
  -9.73641E+00 -9.56162E+00 -2.00100E+01 -8.42520E+00 -4.27527E+00 -8.29408E+00 -9.85451E-01  1.22758E+01  3.83423E+00 -2.79125E-01
  -4.26537E+00 -5.87875E+00  1.09250E+01  4.71963E+00  3.14535E+00  2.32510E+00  5.83538E-01  2.70402E+01 -2.61523E+00 -1.13233E+00
  -4.97974E+00 -4.39257E+00 -2.02968E+00 -1.04351E+01 -7.76657E+00 -6.40310E+00  4.14780E+00 -8.27753E+00 -6.78572E+00 -5.10094E+00
   2.62233E+00 -2.59770E+00 -7.14427E+00  2.11900E+00  1.88975E+00  4.71953E-01 -1.36138E+00 -1.25018E+00 -8.55059E+00  4.70512E+00
   4.19955E+00  5.50004E+00  1.16538E+01  1.95303E+00 -5.08543E+00 -1.31092E-01  2.85266E+00  9.87457E+00 -4.38575E+00  6.33736E+00
   2.74299E+00 -5.88610E+00 -2.55519E+00 -1.81363E+01  4.73976E+00  7.25624E+00 -6.63038E+00  3.28421E+00 -1.89203E+00  1.05311E+00
  -2.75787E+00 -3.90290E+00 -8.28133E+00  1.50500E+01 -2.55989E+00 -4.79583E+00 -5.53657E+00 -6.80843E+00 -9.43565E+00  1.67082E+00
   6.77147E-01 -1.18244E+01 -2.01517E+00  1.79305E+01 -1.49137E+01  1.76351E+00  4.48454E+00  8.11395E+00  2.36512E+00 -1.11003E+01
  -6.03272E+00 -1.30441E+00 -1.42655E+01 -1.18190E+01  3.89537E+00  2.99596E+00  4.70891E+00  5.40408E+00  3.12214E+00 -4.55342E+00
  -1.60560E+01 -4.28171E+00 -6.89460E+00 -5.33205E+00  1.72031E+00  6.40853E+00  9.66576E+00 -8.96146E+00 -3.11936E+00 -5.44723E+00
   9.32399E+00  4.59101E+00 -4.19334E+00 -4.23828E+00 -6.34115E+00 -3.23747E+00  5.33854E+00 -2.76014E+00  1.87262E+00  1.02155E+01
   2.37708E-01  4.55334E+00  6.93069E+00  1.66773E+01  2.70002E+00  1.27977E+01  8.58528E+00  2.51155E+00
 NY points of the fit to the data follow
  -8.39528E+00 -8.57308E+00 -8.51167E+00 -8.27913E+00 -7.95403E+00 -7.61357E+00 -7.34213E+00 -7.17027E+00 -7.04918E+00 -6.96148E+00
  -6.90967E+00 -6.89655E+00 -6.92070E+00 -6.97627E+00 -7.04919E+00 -7.11985E+00 -7.16824E+00 -7.17477E+00 -7.12004E+00 -7.04667E+00
  -7.00984E+00 -7.01801E+00 -7.06157E+00 -7.10081E+00 -7.11038E+00 -7.03544E+00 -6.84980E+00 -6.57605E+00 -6.22712E+00 -5.82466E+00
  -5.41757E+00 -5.07853E+00 -4.85686E+00 -4.80139E+00 -4.95326E+00 -5.32907E+00 -5.86882E+00 -6.44406E+00 -6.92546E+00 -7.21081E+00
  -7.26475E+00 -7.09390E+00 -6.80210E+00 -6.51221E+00 -6.27663E+00 -6.11508E+00 -6.02953E+00 -6.00366E+00 -6.00993E+00 -6.05174E+00
  -6.13703E+00 -6.26242E+00 -6.41102E+00 -6.55676E+00 -6.67426E+00 -6.73969E+00 -6.73897E+00 -6.68101E+00 -6.59801E+00 -6.51925E+00
  -6.45737E+00 -6.41786E+00 -6.40075E+00 -6.40463E+00 -6.42477E+00 -6.44853E+00 -6.46686E+00 -6.47379E+00 -6.45791E+00 -6.41309E+00
  -6.34863E+00 -6.27826E+00 -6.21502E+00 -6.16688E+00 -6.13706E+00 -6.12413E+00 -6.12602E+00 -6.14153E+00 -6.16461E+00 -6.18338E+00
  -6.19235E+00 -6.19325E+00 -6.19070E+00 -6.18478E+00 -6.17382E+00 -6.16300E+00 -6.16426E+00 -6.18372E+00 -6.21931E+00 -6.26310E+00
  -6.30597E+00 -6.33967E+00 -6.35698E+00 -6.35706E+00 -6.33980E+00 -6.30639E+00 -6.26746E+00 -6.23107E+00 -6.19987E+00 -6.17040E+00
  -6.13957E+00 -6.10479E+00 -6.06954E+00 -6.03867E+00 -6.01482E+00 -5.99832E+00 -5.99011E+00 -5.99067E+00 -5.99899E+00 -6.01534E+00
  -6.03453E+00 -6.04874E+00 -6.05265E+00 -6.04909E+00 -6.04482E+00 -6.04095E+00 -6.03861E+00 -6.03641E+00 -6.03124E+00 -6.00844E+00
  -5.93391E+00 -5.80912E+00 -5.65105E+00 -5.46632E+00 -5.25911E+00 -5.04299E+00 -4.83810E+00 -4.66748E+00 -4.56183E+00 -4.54046E+00
  -4.60488E+00 -4.74825E+00 -4.95050E+00 -5.17889E+00 -5.39688E+00 -5.56423E+00 -5.66231E+00 -5.71543E+00 -5.73628E+00 -5.72054E+00
  -5.66853E+00 -5.58738E+00 -5.48787E+00 -5.39085E+00 -5.32252E+00 -5.29302E+00 -5.29921E+00 -5.33093E+00 -5.37210E+00 -5.40862E+00
  -5.43406E+00 -5.44642E+00 -5.45061E+00 -5.45092E+00 -5.46122E+00 -5.48665E+00 -5.52099E+00 -5.55743E+00 -5.58449E+00 -5.60512E+00
  -5.62484E+00 -5.63749E+00 -5.63570E+00 -5.61963E+00 -5.59596E+00 -5.57189E+00 -5.55550E+00 -5.55581E+00 -5.58380E+00 -5.65616E+00
  -5.77619E+00 -5.90378E+00 -6.00602E+00 -6.07315E+00 -6.11436E+00 -6.14447E+00 -6.15797E+00 -6.14562E+00 -6.11192E+00 -6.06895E+00
  -6.02917E+00 -5.98827E+00 -5.93240E+00 -5.86024E+00 -5.77369E+00 -5.66799E+00 -5.52948E+00 -5.35710E+00 -5.17047E+00 -5.00958E+00
  -4.90919E+00 -4.88414E+00 -4.93265E+00 -5.04632E+00 -5.18867E+00 -5.30340E+00 -5.33854E+00 -5.23848E+00 -4.95275E+00 -4.49262E+00
  -3.92305E+00 -3.34300E+00 -2.89355E+00 -2.74985E+00 -2.93752E+00 -3.39809E+00 -4.10180E+00 -4.98407E+00 -5.89663E+00 -6.65921E+00
  -7.11477E+00 -7.18477E+00 -6.88176E+00 -6.26963E+00 -5.44400E+00 -4.55370E+00 -3.74775E+00 -3.13730E+00 -2.79485E+00 -2.70686E+00
  -2.72279E+00 -2.74751E+00 -2.78985E+00 -2.84550E+00 -2.90720E+00 -2.98463E+00 -3.07724E+00 -3.17998E+00 -3.31176E+00 -3.52048E+00
  -3.77535E+00 -4.01008E+00 -4.19291E+00 -4.29967E+00 -4.28611E+00 -4.14382E+00 -3.92404E+00 -3.65291E+00 -3.37049E+00 -3.14347E+00
  -3.03735E+00 -3.09577E+00 -3.33330E+00 -3.72918E+00 -4.22973E+00 -4.74638E+00 -5.12473E+00 -5.25816E+00 -5.12122E+00 -4.73192E+00
  -4.16154E+00 -3.52917E+00 -2.88936E+00 -1.93354E+00 -3.87050E-01  1.49129E+00  3.52080E+00  5.65901E+00  7.82647E+00  9.80582E+00
   1.12893E+01  1.19835E+01  1.17273E+01  1.05252E+01  8.49270E+00  5.86406E+00  3.00196E+00  3.32548E-01 -1.71160E+00 -2.79262E+00
  -3.09717E+00 -3.17971E+00 -3.20951E+00 -3.21621E+00 -3.20949E+00 -3.19558E+00 -3.17870E+00 -3.16183E+00 -3.14711E+00 -3.13488E+00
  -3.12400E+00 -3.11339E+00 -3.10167E+00 -3.08725E+00 -3.06914E+00 -3.04659E+00 -3.02007E+00 -2.99139E+00 -2.96194E+00 -2.93266E+00
  -2.90466E+00 -2.87862E+00 -2.85451E+00 -2.83190E+00 -2.80993E+00 -2.78786E+00 -2.76537E+00 -2.74221E+00 -2.71794E+00 -2.69240E+00
  -2.66578E+00 -2.63819E+00 -2.60968E+00 -2.58045E+00 -2.55045E+00 -2.51961E+00 -2.48789E+00 -2.45527E+00 -2.42169E+00 -2.38707E+00
  -2.35131E+00 -2.31434E+00 -2.27607E+00 -2.23639E+00 -2.19503E+00 -2.15172E+00 -2.10619E+00 -2.05822E+00 -2.00755E+00 -1.95386E+00
  -1.89671E+00 -1.83558E+00 -1.76989E+00 -1.69899E+00 -1.62212E+00 -1.53830E+00 -1.44626E+00 -1.34442E+00 -1.23090E+00 -1.10335E+00
  -9.58726E-01 -7.92957E-01 -6.00488E-01 -3.73702E-01 -1.01868E-01  2.30834E-01  6.49241E-01  1.19576E+00  1.95318E+00  3.11822E+00
   4.94596E+00  6.90182E+00  8.37997E+00  9.20334E+00  9.22939E+00  8.15457E+00  5.62394E+00  1.66196E+00 -2.80192E+00 -7.04623E+00
  -1.06388E+01 -1.30684E+01 -1.37383E+01 -1.22844E+01 -8.78585E+00 -3.78286E+00  1.66338E+00  6.09281E+00  8.84788E+00  9.91004E+00
   9.41704E+00  7.69047E+00  5.27023E+00  2.96372E+00  1.50458E+00  6.78040E-01  1.43083E-01 -2.32466E-01 -5.08402E-01 -7.17369E-01
  -8.79120E-01 -1.00634E+00 -1.10747E+00 -1.18840E+00 -1.25342E+00 -1.30582E+00 -1.34812E+00 -1.38220E+00 -1.40943E+00 -1.43089E+00
  -1.44749E+00 -1.46004E+00 -1.46920E+00 -1.47547E+00 -1.47918E+00 -1.48062E+00 -1.48011E+00 -1.47795E+00 -1.47439E+00 -1.46956E+00
  -1.46357E+00 -1.45651E+00 -1.44854E+00 -1.43981E+00 -1.43042E+00 -1.42038E+00 -1.40973E+00 -1.39853E+00 -1.38687E+00 -1.37483E+00
  -1.36244E+00 -1.34968E+00 -1.33657E+00 -1.32315E+00 -1.30950E+00 -1.29564E+00 -1.28158E+00 -1.26728E+00 -1.25278E+00 -1.23810E+00
  -1.22329E+00 -1.20837E+00 -1.19332E+00 -1.17811E+00 -1.16278E+00 -1.14735E+00 -1.13185E+00 -1.11629E+00 -1.10062E+00 -1.08485E+00
  -1.06900E+00 -1.05311E+00 -1.03718E+00 -1.02119E+00 -1.00513E+00 -9.88996E-01 -9.72822E-01 -9.56631E-01 -9.40417E-01 -9.24157E-01
  -9.07838E-01 -8.91478E-01 -8.75102E-01 -8.58722E-01 -8.42319E-01 -8.25874E-01 -8.09383E-01 -7.92871E-01 -7.76357E-01 -7.59841E-01
  -7.43300E-01 -7.26720E-01 -7.10110E-01 -6.93494E-01 -6.76884E-01 -6.60268E-01 -6.43625E-01 -6.26951E-01 -6.10262E-01 -5.93578E-01
  -5.76900E-01 -5.60212E-01 -5.43496E-01 -5.26757E-01 -5.10014E-01 -4.93280E-01 -4.76547E-01 -4.59795E-01 -4.43017E-01 -4.26223E-01
  -4.09432E-01 -3.92648E-01 -3.75854E-01 -3.59036E-01 -3.42192E-01 -3.25339E-01 -3.08489E-01 -2.91639E-01 -2.74772E-01 -2.57879E-01
  -2.40966E-01 -2.24050E-01 -2.07136E-01 -1.90213E-01 -1.73263E-01 -1.56284E-01 -1.39287E-01 -1.22284E-01 -1.05274E-01 -8.82394E-02
  -7.11685E-02 -5.40648E-02 -3.69400E-02 -1.98003E-02 -2.63434E-03  1.45741E-02  3.18332E-02  4.91359E-02  6.64739E-02  8.38501E-02
   1.01282E-01  1.18786E-01  1.36366E-01  1.54018E-01  1.71743E-01  1.89556E-01  2.07480E-01  2.25537E-01
 NY background values follow
    -7.931E+00   -7.915E+00   -7.899E+00   -7.884E+00   -7.868E+00   -7.852E+00   -7.837E+00   -7.821E+00   -7.805E+00   -7.789E+00
    -7.774E+00   -7.758E+00   -7.742E+00   -7.726E+00   -7.711E+00   -7.695E+00   -7.679E+00   -7.663E+00   -7.648E+00   -7.632E+00
    -7.616E+00   -7.600E+00   -7.584E+00   -7.569E+00   -7.553E+00   -7.537E+00   -7.521E+00   -7.505E+00   -7.489E+00   -7.473E+00
    -7.458E+00   -7.442E+00   -7.426E+00   -7.410E+00   -7.394E+00   -7.378E+00   -7.362E+00   -7.346E+00   -7.330E+00   -7.314E+00
    -7.298E+00   -7.282E+00   -7.266E+00   -7.250E+00   -7.234E+00   -7.218E+00   -7.202E+00   -7.187E+00   -7.170E+00   -7.154E+00
    -7.138E+00   -7.122E+00   -7.106E+00   -7.090E+00   -7.074E+00   -7.058E+00   -7.042E+00   -7.026E+00   -7.010E+00   -6.994E+00
    -6.978E+00   -6.962E+00   -6.946E+00   -6.930E+00   -6.914E+00   -6.897E+00   -6.881E+00   -6.865E+00   -6.849E+00   -6.833E+00
    -6.817E+00   -6.801E+00   -6.784E+00   -6.768E+00   -6.752E+00   -6.736E+00   -6.720E+00   -6.704E+00   -6.687E+00   -6.671E+00
    -6.655E+00   -6.639E+00   -6.623E+00   -6.606E+00   -6.590E+00   -6.574E+00   -6.558E+00   -6.541E+00   -6.525E+00   -6.509E+00
    -6.493E+00   -6.476E+00   -6.460E+00   -6.444E+00   -6.427E+00   -6.411E+00   -6.395E+00   -6.379E+00   -6.362E+00   -6.346E+00
    -6.330E+00   -6.313E+00   -6.297E+00   -6.281E+00   -6.264E+00   -6.248E+00   -6.232E+00   -6.215E+00   -6.199E+00   -6.182E+00
    -6.166E+00   -6.150E+00   -6.133E+00   -6.117E+00   -6.101E+00   -6.084E+00   -6.068E+00   -6.051E+00   -6.035E+00   -6.019E+00
    -6.002E+00   -5.986E+00   -5.969E+00   -5.953E+00   -5.936E+00   -5.920E+00   -5.903E+00   -5.887E+00   -5.871E+00   -5.854E+00
    -5.838E+00   -5.821E+00   -5.805E+00   -5.788E+00   -5.772E+00   -5.755E+00   -5.739E+00   -5.722E+00   -5.706E+00   -5.689E+00
    -5.673E+00   -5.656E+00   -5.640E+00   -5.623E+00   -5.607E+00   -5.590E+00   -5.574E+00   -5.557E+00   -5.540E+00   -5.524E+00
    -5.507E+00   -5.491E+00   -5.474E+00   -5.458E+00   -5.441E+00   -5.424E+00   -5.408E+00   -5.391E+00   -5.375E+00   -5.358E+00
    -5.342E+00   -5.325E+00   -5.308E+00   -5.292E+00   -5.275E+00   -5.259E+00   -5.242E+00   -5.225E+00   -5.209E+00   -5.192E+00
    -5.175E+00   -5.159E+00   -5.142E+00   -5.125E+00   -5.109E+00   -5.092E+00   -5.076E+00   -5.059E+00   -5.042E+00   -5.026E+00
    -5.009E+00   -4.992E+00   -4.976E+00   -4.959E+00   -4.942E+00   -4.925E+00   -4.909E+00   -4.892E+00   -4.875E+00   -4.859E+00
    -4.842E+00   -4.825E+00   -4.809E+00   -4.792E+00   -4.775E+00   -4.758E+00   -4.742E+00   -4.725E+00   -4.708E+00   -4.692E+00
    -4.675E+00   -4.658E+00   -4.641E+00   -4.625E+00   -4.608E+00   -4.591E+00   -4.574E+00   -4.558E+00   -4.541E+00   -4.524E+00
    -4.507E+00   -4.491E+00   -4.474E+00   -4.457E+00   -4.440E+00   -4.424E+00   -4.407E+00   -4.390E+00   -4.373E+00   -4.357E+00
    -4.340E+00   -4.323E+00   -4.306E+00   -4.289E+00   -4.273E+00   -4.256E+00   -4.239E+00   -4.222E+00   -4.206E+00   -4.189E+00
    -4.172E+00   -4.155E+00   -4.138E+00   -4.122E+00   -4.105E+00   -4.088E+00   -4.071E+00   -4.054E+00   -4.038E+00   -4.021E+00
    -4.004E+00   -3.987E+00   -3.970E+00   -3.953E+00   -3.937E+00   -3.920E+00   -3.903E+00   -3.886E+00   -3.869E+00   -3.853E+00
    -3.836E+00   -3.819E+00   -3.802E+00   -3.785E+00   -3.768E+00   -3.752E+00   -3.735E+00   -3.718E+00   -3.701E+00   -3.684E+00
    -3.667E+00   -3.650E+00   -3.634E+00   -3.617E+00   -3.600E+00   -3.583E+00   -3.566E+00   -3.549E+00   -3.533E+00   -3.516E+00
    -3.499E+00   -3.482E+00   -3.465E+00   -3.448E+00   -3.431E+00   -3.415E+00   -3.398E+00   -3.381E+00   -3.364E+00   -3.347E+00
    -3.330E+00   -3.313E+00   -3.297E+00   -3.280E+00   -3.263E+00   -3.246E+00   -3.229E+00   -3.212E+00   -3.195E+00   -3.179E+00
    -3.162E+00   -3.145E+00   -3.128E+00   -3.111E+00   -3.094E+00   -3.077E+00   -3.060E+00   -3.044E+00   -3.027E+00   -3.010E+00
    -2.993E+00   -2.976E+00   -2.959E+00   -2.942E+00   -2.926E+00   -2.909E+00   -2.892E+00   -2.875E+00   -2.858E+00   -2.841E+00
    -2.824E+00   -2.808E+00   -2.791E+00   -2.774E+00   -2.757E+00   -2.740E+00   -2.723E+00   -2.706E+00   -2.689E+00   -2.673E+00
    -2.656E+00   -2.639E+00   -2.622E+00   -2.605E+00   -2.588E+00   -2.571E+00   -2.555E+00   -2.538E+00   -2.521E+00   -2.504E+00
    -2.487E+00   -2.470E+00   -2.453E+00   -2.437E+00   -2.420E+00   -2.403E+00   -2.386E+00   -2.369E+00   -2.352E+00   -2.336E+00
    -2.319E+00   -2.302E+00   -2.285E+00   -2.268E+00   -2.251E+00   -2.234E+00   -2.218E+00   -2.201E+00   -2.184E+00   -2.167E+00
    -2.150E+00   -2.133E+00   -2.117E+00   -2.100E+00   -2.083E+00   -2.066E+00   -2.049E+00   -2.032E+00   -2.016E+00   -1.999E+00
    -1.982E+00   -1.965E+00   -1.948E+00   -1.932E+00   -1.915E+00   -1.898E+00   -1.881E+00   -1.864E+00   -1.848E+00   -1.831E+00
    -1.814E+00   -1.797E+00   -1.780E+00   -1.764E+00   -1.747E+00   -1.730E+00   -1.713E+00   -1.696E+00   -1.680E+00   -1.663E+00
    -1.646E+00   -1.629E+00   -1.612E+00   -1.596E+00   -1.579E+00   -1.562E+00   -1.545E+00   -1.529E+00   -1.512E+00   -1.495E+00
    -1.478E+00   -1.462E+00   -1.445E+00   -1.428E+00   -1.411E+00   -1.395E+00   -1.378E+00   -1.361E+00   -1.344E+00   -1.328E+00
    -1.311E+00   -1.294E+00   -1.277E+00   -1.261E+00   -1.244E+00   -1.227E+00   -1.210E+00   -1.194E+00   -1.177E+00   -1.160E+00
    -1.144E+00   -1.127E+00   -1.110E+00   -1.094E+00   -1.077E+00   -1.060E+00   -1.043E+00   -1.027E+00   -1.010E+00   -9.934E-01
    -9.767E-01   -9.600E-01   -9.434E-01   -9.267E-01   -9.100E-01   -8.934E-01   -8.767E-01   -8.601E-01   -8.434E-01   -8.268E-01
    -8.101E-01   -7.935E-01   -7.768E-01   -7.602E-01   -7.436E-01   -7.269E-01   -7.103E-01   -6.937E-01   -6.771E-01   -6.605E-01
    -6.439E-01   -6.272E-01   -6.106E-01   -5.940E-01   -5.775E-01   -5.609E-01   -5.443E-01   -5.277E-01   -5.111E-01   -4.945E-01
    -4.780E-01   -4.614E-01   -4.448E-01   -4.283E-01   -4.117E-01   -3.952E-01   -3.786E-01   -3.621E-01   -3.455E-01   -3.290E-01
    -3.125E-01   -2.960E-01   -2.794E-01   -2.629E-01   -2.464E-01   -2.299E-01   -2.134E-01   -1.969E-01   -1.804E-01   -1.639E-01
    -1.474E-01   -1.309E-01   -1.145E-01   -9.799E-02   -8.152E-02   -6.505E-02   -4.859E-02   -3.214E-02   -1.569E-02    7.546E-04
     1.719E-02    3.363E-02    5.006E-02    6.649E-02    8.291E-02    9.932E-02    1.157E-01    1.321E-01    1.485E-01    1.649E-01
     1.813E-01    1.977E-01    2.141E-01    2.305E-01    2.468E-01    2.632E-01    2.796E-01    2.959E-01
 Asp      Conc. = 2.69E+01
