 LCModel (Version 6.3-1L) Copyright: S.W. Provencher.          Ref.: Magn. Reson. Med. 30:672-679 (1993).                
 Slice#2 Row#8 Col#5  PD_05_press_2_raw_act
 36 lines in following concentration table = NCONC+1
    Conc.  %SD /Cr+PCr  Metabolite                                         
  264.299  92% 6.8E-02 Ala                                                 
    0.000 999%   0.000 Asp                                                 
  436.416 122%   0.113 Cr                                                  
 3.44E+03  16%   0.887 PCr                                                 
    0.000 999%   0.000 GABA                                                
    0.000 999%   0.000 Glc                                                 
 2.01E+03  25%   0.520 Gln                                                 
 3.87E+03  15%   0.999 Glu                                                 
 1.50E+03   4%   0.386 GPC                                                 
    0.000 999%   0.000 PCh                                                 
 1.13E+03  15%   0.291 GSH                                                 
 3.55E+03  16%   0.917 Ins                                                 
  362.626  74% 9.4E-02 Lac                                                 
 7.04E+03   4%   1.817 NAA                                                 
  367.003  85% 9.5E-02 NAAG                                                
  454.939  15%   0.117 Scyllo                                              
 1.26E+03  39%   0.324 Tau                                                 
  892.882  28%   0.231 -CrCH2                                              
 1.50E+03   4%   0.386 GPC+PCh                                             
 7.40E+03   3%   1.912 NAA+NAAG                                            
 3.87E+03   3%   1.000 Cr+PCr                                              
 5.88E+03  14%   1.519 Glu+Gln                                             
  565.327 122%   0.146 Lip13a                                              
    0.000 999%   0.000 Lip13b                                              
    0.000 999%   0.000 Lip09                                               
 3.65E+03  13%   0.944 MM09                                                
    0.000 999%   0.000 Lip20                                               
 6.34E+03  14%   1.636 MM20                                                
 1.85E+03  22%   0.478 MM12                                                
 1.05E+03  67%   0.272 MM14                                                
 2.93E+03  21%   0.757 MM17                                                
  565.327 122%   0.146 Lip13a+Lip13b                                       
 3.47E+03  24%   0.896 MM14+Lip13a+Lip13b+MM12                             
 3.65E+03  13%   0.944 MM09+Lip09                                          
 6.34E+03  14%   1.636 MM20+Lip20                                          
   6 lines in following misc. output table
  FWHM = 0.054 ppm    S/N =  16                                            
  Data shift = 0.000 ppm                                                   
  Ph: -45 deg     -17.2 deg/ppm                                            
  alphaB,S = 1.8E+00,   1.4E+02                                            
   14 spline knots.   Ns = 7(1)                                            
  (12) 3 infls.   ( 5) 1 extrs.                                            
  498 points on ppm-axis = NY
      4.000000     3.992357     3.984714     3.977070     3.969427     3.961784     3.954141     3.946497     3.938854     3.931211
      3.923568     3.915925     3.908281     3.900638     3.892995     3.885352     3.877708     3.870065     3.862422     3.854779
      3.847136     3.839492     3.831849     3.824206     3.816563     3.808919     3.801276     3.793633     3.785990     3.778347
      3.770703     3.763060     3.755417     3.747774     3.740130     3.732487     3.724844     3.717201     3.709558     3.701914
      3.694271     3.686628     3.678985     3.671341     3.663698     3.656055     3.648412     3.640769     3.633125     3.625482
      3.617839     3.610196     3.602552     3.594909     3.587266     3.579623     3.571980     3.564336     3.556693     3.549050
      3.541407     3.533763     3.526120     3.518477     3.510834     3.503191     3.495547     3.487904     3.480261     3.472618
      3.464974     3.457331     3.449688     3.442045     3.434402     3.426758     3.419115     3.411472     3.403829     3.396185
      3.388542     3.380899     3.373256     3.365613     3.357969     3.350326     3.342683     3.335040     3.327396     3.319753
      3.312110     3.304467     3.296824     3.289180     3.281537     3.273894     3.266251     3.258607     3.250964     3.243321
      3.235678     3.228034     3.220391     3.212748     3.205105     3.197462     3.189818     3.182175     3.174532     3.166889
      3.159245     3.151602     3.143959     3.136316     3.128673     3.121029     3.113386     3.105743     3.098100     3.090456
      3.082813     3.075170     3.067527     3.059884     3.052240     3.044597     3.036954     3.029311     3.021667     3.014024
      3.006381     2.998738     2.991095     2.983451     2.975808     2.968165     2.960522     2.952878     2.945235     2.937592
      2.929949     2.922306     2.914662     2.907019     2.899376     2.891733     2.884089     2.876446     2.868803     2.861160
      2.853517     2.845873     2.838230     2.830587     2.822944     2.815300     2.807657     2.800014     2.792371     2.784728
      2.777084     2.769441     2.761798     2.754155     2.746511     2.738868     2.731225     2.723582     2.715939     2.708295
      2.700652     2.693009     2.685366     2.677722     2.670079     2.662436     2.654793     2.647150     2.639506     2.631863
      2.624220     2.616577     2.608933     2.601290     2.593647     2.586004     2.578361     2.570717     2.563074     2.555431
      2.547788     2.540144     2.532501     2.524858     2.517215     2.509572     2.501928     2.494285     2.486642     2.478999
      2.471355     2.463712     2.456069     2.448426     2.440783     2.433139     2.425496     2.417853     2.410210     2.402566
      2.394923     2.387280     2.379637     2.371994     2.364350     2.356707     2.349064     2.341421     2.333777     2.326134
      2.318491     2.310848     2.303205     2.295561     2.287918     2.280275     2.272632     2.264988     2.257345     2.249702
      2.242059     2.234416     2.226772     2.219129     2.211486     2.203843     2.196199     2.188556     2.180913     2.173270
      2.165627     2.157983     2.150340     2.142697     2.135054     2.127410     2.119767     2.112124     2.104481     2.096838
      2.089194     2.081551     2.073908     2.066265     2.058621     2.050978     2.043335     2.035692     2.028049     2.020405
      2.012762     2.005119     1.997476     1.989833     1.982190     1.974546     1.966903     1.959260     1.951617     1.943974
      1.936331     1.928688     1.921045     1.913402     1.905759     1.898115     1.890472     1.882829     1.875186     1.867543
      1.859900     1.852257     1.844614     1.836971     1.829327     1.821684     1.814041     1.806398     1.798755     1.791112
      1.783469     1.775826     1.768183     1.760540     1.752896     1.745253     1.737610     1.729967     1.722324     1.714681
      1.707038     1.699395     1.691752     1.684108     1.676465     1.668822     1.661179     1.653536     1.645893     1.638250
      1.630607     1.622964     1.615321     1.607677     1.600034     1.592391     1.584748     1.577105     1.569462     1.561819
      1.554176     1.546533     1.538890     1.531246     1.523603     1.515960     1.508317     1.500674     1.493031     1.485388
      1.477745     1.470102     1.462458     1.454815     1.447172     1.439529     1.431886     1.424243     1.416600     1.408957
      1.401314     1.393671     1.386027     1.378384     1.370741     1.363098     1.355455     1.347812     1.340169     1.332526
      1.324883     1.317240     1.309596     1.301953     1.294310     1.286667     1.279024     1.271381     1.263738     1.256095
      1.248452     1.240808     1.233165     1.225522     1.217879     1.210236     1.202593     1.194950     1.187307     1.179664
      1.172021     1.164377     1.156734     1.149091     1.141448     1.133805     1.126162     1.118519     1.110876     1.103233
      1.095590     1.087946     1.080303     1.072660     1.065017     1.057374     1.049731     1.042088     1.034445     1.026802
      1.019158     1.011515     1.003872     0.996229     0.988586     0.980943     0.973300     0.965657     0.958014     0.950371
      0.942727     0.935084     0.927441     0.919798     0.912155     0.904512     0.896869     0.889226     0.881583     0.873940
      0.866296     0.858653     0.851010     0.843367     0.835724     0.828081     0.820438     0.812795     0.805152     0.797508
      0.789865     0.782222     0.774579     0.766936     0.759293     0.751650     0.744007     0.736364     0.728721     0.721077
      0.713434     0.705791     0.698148     0.690505     0.682862     0.675219     0.667576     0.659933     0.652290     0.644646
      0.637003     0.629360     0.621717     0.614074     0.606431     0.598788     0.591145     0.583502     0.575858     0.568215
      0.560572     0.552929     0.545286     0.537643     0.530000     0.522357     0.514714     0.507071     0.499427     0.491784
      0.484141     0.476498     0.468855     0.461212     0.453569     0.445925     0.438282     0.430639     0.422996     0.415353
      0.407710     0.400067     0.392424     0.384780     0.377137     0.369494     0.361851     0.354208     0.346565     0.338922
      0.331278     0.323635     0.315992     0.308349     0.300706     0.293063     0.285420     0.277777     0.270133     0.262490
      0.254847     0.247204     0.239561     0.231918     0.224275     0.216631     0.208988     0.201345
 NY phased data points follow
  -6.82079E+01 -7.23935E+01 -6.89444E+01 -4.67836E+01 -5.00129E+01 -3.08384E+01 -1.81538E+01 -1.03663E+01  3.72572E+00  1.10491E+01
   1.29835E+01  1.19868E+01 -7.57473E+00 -1.29850E+01 -2.83074E+01 -3.32981E+01 -3.81488E+01 -4.74105E+01 -5.80620E+01 -5.63265E+01
  -4.47482E+01 -4.53408E+01 -5.69347E+01 -5.56571E+01 -5.48274E+01 -4.80399E+01 -3.57067E+01 -4.16350E+01 -3.70351E+01 -2.44339E+01
  -2.09316E+01 -2.06021E+01 -2.93266E+01 -1.98361E+01 -3.70272E+01 -3.35811E+01 -2.80626E+01 -3.54925E+01 -3.95898E+01 -2.33779E+01
  -3.41278E+01 -2.78360E+01 -2.63394E+01 -2.73874E+01 -1.92533E+01 -2.29830E+01 -7.95014E+00 -4.18456E+00 -2.02178E+01 -1.29466E+01
  -2.23411E+01 -3.03988E+01 -3.68018E+01 -3.17708E+01 -3.87007E+01 -3.21615E+01 -2.87812E+01 -2.71031E+01 -2.99918E+01 -3.18232E+01
  -3.62223E+01 -3.54289E+01 -4.66108E+01 -4.44605E+01 -3.90696E+01 -3.91177E+01 -4.92056E+01 -4.01896E+01 -4.26384E+01 -2.14012E+01
  -2.83680E+01 -2.66306E+01 -3.23386E+01 -2.01061E+01 -2.84489E+01 -3.04330E+01 -2.60208E+01 -3.24559E+01 -3.42326E+01 -2.89287E+01
  -3.10007E+01 -2.17828E+01 -2.48017E+01 -2.96205E+01 -2.25188E+01 -1.91250E+01 -1.45270E+01 -1.92460E+01 -8.07209E+00 -1.04095E+01
  -6.27150E+00 -4.60474E+00 -1.27427E+01 -9.89132E+00 -4.86419E+00 -9.72723E+00 -7.45562E+00  1.31405E+01  1.35379E+01  4.07489E+01
   5.70465E+01  8.54149E+01  9.09285E+01  1.02594E+02  1.07669E+02  8.90336E+01  5.97467E+01  3.12475E+01  1.15909E+01  5.14929E+00
  -7.09364E+00  4.46049E+00 -8.13915E+00 -8.06930E+00 -7.16788E+00 -3.52492E+00 -1.44954E+01 -1.86069E+01 -8.96831E+00 -6.80285E+00
  -5.72112E+00  1.47092E+01  1.41108E+01  2.97422E+01  4.90207E+01  9.09823E+01  9.65382E+01  1.04041E+02  1.13037E+02  8.53074E+01
   6.30409E+01  3.82551E+01  1.60769E+01  4.12629E+00 -2.47182E+00 -8.88725E-01 -1.80230E+01 -8.60393E+00 -2.28742E+01 -1.67624E+01
  -2.63306E+01 -1.08336E+01 -2.14997E+01 -2.14907E+01 -1.28798E+01 -1.23543E+01 -9.15479E+00 -9.76969E+00 -1.82882E+01 -1.27051E+01
  -1.28788E+01 -1.16522E+01 -1.58244E+01 -2.30344E+01 -2.01082E+01 -2.08493E+01 -2.36234E+01 -1.26845E+01 -1.34806E+01 -1.69982E+01
  -2.52097E+01 -1.88988E+01 -2.34730E+01 -1.70036E+01 -1.76570E+01 -1.36209E+01 -6.75168E+00 -2.44412E+01 -2.68868E+01 -1.90888E+01
  -2.62827E+01 -3.53872E+01 -3.50505E+01 -3.51496E+01 -3.44501E+01 -4.04615E+01 -3.48175E+01 -3.33197E+01 -4.18737E+01 -3.83721E+01
  -3.87104E+01 -3.16027E+01 -3.70883E+01 -2.33607E+01 -2.51648E+01 -2.20222E+01 -1.83524E+01 -1.94464E+01 -1.19119E+01 -2.56994E+00
   9.07881E+00  1.06869E+01 -1.73763E+00  1.32330E+01  2.65787E+00  3.68532E+00 -1.04623E+01 -4.19564E+00 -9.07181E+00 -7.02609E+00
   1.58220E-01  1.29160E+01  4.12919E+00  3.96766E+00  4.20149E+00 -2.23993E-01  1.29988E+01  1.96424E-01 -1.14940E+01 -1.02918E+01
  -1.67355E+01  7.04671E-02  6.26178E+00  1.01527E+01  1.68787E+01  3.76175E+01  3.80459E+01  2.97447E+01  2.95605E+01  2.05102E+01
   1.42236E+00  3.34963E+00 -1.37278E+01 -2.59049E+00 -3.30684E+00  7.60610E+00  1.53341E+01  1.32133E+01  2.14723E+01  1.43425E+01
   1.68458E+01  1.24749E+01  8.56450E+00  1.48460E+01  1.80418E+01  1.49623E+01  1.55653E+01  1.71859E+01  1.23835E+01  9.88251E+00
   1.10136E+00  4.70044E+00  6.28587E+00  2.48058E+00  8.35462E+00  1.83431E+01  3.03620E+01  3.48001E+01  2.99533E+01  3.66823E+01
   3.45771E+01  4.30361E+01  4.52285E+01  4.91836E+01  6.90890E+01  9.36368E+01  1.09757E+02  1.43890E+02  1.79881E+02  2.09800E+02
   2.54727E+02  2.65916E+02  2.38871E+02  2.05806E+02  1.56555E+02  1.22390E+02  7.93641E+01  6.82750E+01  4.52201E+01  5.14888E+01
   3.24895E+01  3.18745E+01  2.06038E+01  2.37765E+01  2.19395E+01  2.01973E+01  1.35794E+01  2.49301E+01  1.74883E+01  2.06130E+01
   2.21011E+01  1.93586E+01  1.13428E+01  1.20812E+01  2.42410E+01  1.61336E+01  8.93629E+00  1.20967E+01  7.18280E+00  1.94973E+01
   1.94704E+01  2.31338E+01  2.27033E+01  2.62345E+01  1.52278E+01  3.12030E+01  1.39801E+01  1.58412E+01  2.00286E+01  2.39145E+01
   2.02097E+01  2.00842E+01  2.52087E+01  3.51296E+01  1.80778E+01  2.75587E+01  2.85129E+01  3.19368E+01  1.76188E+01  2.55299E+01
   3.66962E+01  3.46330E+01  3.00795E+01  3.95577E+01  3.75083E+01  3.75160E+01  2.55431E+01  4.18603E+01  3.70468E+01  2.89243E+01
   2.33055E+01  3.63369E+01  2.68007E+01  3.19174E+01  2.56620E+01  3.36516E+01  2.13421E+01  2.91036E+01  2.52063E+01  2.70658E+01
   1.86793E+01  1.95419E+01  1.83692E+01  2.96225E+01  2.00143E+01  2.21891E+01  2.49991E+01  3.38894E+01  2.57928E+01  2.60091E+01
   2.94113E+01  2.41785E+01  2.55319E+01  2.26273E+01  2.09083E+01  1.64945E+01  1.57849E+01  3.23709E+01  2.79352E+01  2.68882E+01
   1.90047E+01  1.26257E+01  1.92825E+01  2.34493E+01  1.99335E+01  2.68701E+01  2.09109E+01  3.73852E+01  2.53443E+01  3.02898E+01
   3.27436E+01  2.99334E+01  3.09971E+01  3.47387E+01  3.23066E+01  2.97200E+01  3.09966E+01  3.27767E+01  3.25976E+01  4.02398E+01
   2.88999E+01  2.92993E+01  3.67161E+01  3.51378E+01  2.99520E+01  3.54408E+01  2.81441E+01  3.95609E+01  3.41426E+01  3.94441E+01
   2.11551E+01  2.76507E+01  3.22399E+01  1.91903E+01  2.13925E+01  2.06287E+01  2.44006E+01  2.89823E+01  2.49184E+01  2.30587E+01
   2.47036E+01  2.93453E+01  2.81747E+01  3.10062E+01  2.18548E+01  3.88178E+01  3.44885E+01  4.08076E+01  3.40951E+01  4.84981E+01
   4.03516E+01  4.74304E+01  3.42965E+01  4.61619E+01  3.91238E+01  4.54007E+01  3.87457E+01  4.28280E+01  4.76160E+01  4.94316E+01
   3.81258E+01  5.38611E+01  3.59044E+01  4.47900E+01  3.89042E+01  4.26023E+01  3.12311E+01  2.68574E+01  3.50416E+01  3.23550E+01
   2.70372E+01  2.86923E+01  2.58707E+01  3.00954E+01  2.48298E+01  2.23691E+01  2.04976E+01  2.26090E+01  2.49855E+01  2.38153E+01
   1.49217E+01  2.60796E+01  2.01185E+01  2.95402E+01  2.54660E+01  2.26700E+01  1.63128E+01  2.25398E+01  2.46509E+01  2.41541E+01
   2.24134E+01  1.61969E+01  2.74586E+01  1.63834E+01  2.96590E+01  1.87565E+01  2.49834E+01  1.19120E+01  7.91715E+00  1.90456E+01
   2.09281E+01  1.65365E+01  1.53617E+01  1.67533E+01  2.45418E+01  2.30560E+01  1.78796E+01  5.93562E+00  1.26758E+01  1.79052E+01
   1.05179E+01  2.49200E+01  2.11051E+01  6.83079E+00  1.95239E+01  1.85716E+01  1.50605E+01  1.18648E+01  1.17591E+01  1.70364E+01
   2.31699E+01  1.10364E+01  2.10955E+01  2.57690E+01  1.71333E+01  1.63969E+01  2.25289E+01  2.24257E+01  6.98553E+00  1.75780E+01
   1.92210E+01  2.21534E+01  6.63060E+00  1.98627E+01  1.57457E+01  9.39039E+00  1.44719E+01  8.54718E+00  1.75502E+01  3.19967E+01
   1.43932E+01  1.83463E+01  1.88138E+01  1.08936E+01  1.56218E+01  1.65444E+01  1.82582E+01  1.55018E+01
 NY points of the fit to the data follow
  -5.90511E+01 -5.83530E+01 -5.43940E+01 -4.81463E+01 -4.07758E+01 -3.17453E+01 -2.06843E+01 -8.40169E+00  2.97018E+00  1.05215E+01
   1.17730E+01  6.18576E+00 -4.14312E+00 -1.57654E+01 -2.57841E+01 -3.29916E+01 -3.81586E+01 -4.24639E+01 -4.49924E+01 -4.62623E+01
  -4.70095E+01 -4.76279E+01 -4.81842E+01 -4.77478E+01 -4.66000E+01 -4.51228E+01 -4.25848E+01 -3.82347E+01 -3.22325E+01 -2.58138E+01
  -2.04058E+01 -1.73603E+01 -1.76181E+01 -2.07451E+01 -2.55452E+01 -3.07451E+01 -3.52987E+01 -3.93036E+01 -4.24948E+01 -4.31386E+01
  -4.09796E+01 -3.72928E+01 -3.30796E+01 -2.83506E+01 -2.31871E+01 -1.84716E+01 -1.51674E+01 -1.42732E+01 -1.64926E+01 -2.13192E+01
  -2.73549E+01 -3.27758E+01 -3.62048E+01 -3.77766E+01 -3.82269E+01 -3.77698E+01 -3.62878E+01 -3.42041E+01 -3.22371E+01 -3.07993E+01
  -3.02158E+01 -3.07227E+01 -3.20353E+01 -3.35687E+01 -3.45477E+01 -3.45435E+01 -3.37821E+01 -3.26641E+01 -3.13145E+01 -2.98027E+01
  -2.84295E+01 -2.74279E+01 -2.67247E+01 -2.62698E+01 -2.61219E+01 -2.62397E+01 -2.67054E+01 -2.77498E+01 -2.91831E+01 -3.06240E+01
  -3.10104E+01 -2.94860E+01 -2.69891E+01 -2.42909E+01 -2.11994E+01 -1.74354E+01 -1.35090E+01 -1.03914E+01 -8.95766E+00 -9.68262E+00
  -1.24014E+01 -1.59674E+01 -1.90114E+01 -2.09725E+01 -2.16058E+01 -1.92141E+01 -1.05229E+01  2.46041E+00  1.74720E+01  3.59266E+01
   5.82639E+01  8.17724E+01  1.00922E+02  1.09440E+02  1.03646E+02  8.50808E+01  5.98129E+01  3.51255E+01  1.58806E+01  2.49466E+00
  -7.82435E+00 -1.59160E+01 -1.97010E+01 -2.10416E+01 -2.16108E+01 -2.17862E+01 -2.17339E+01 -2.13522E+01 -2.03425E+01 -1.69493E+01
  -7.66211E+00  4.77438E+00  1.83497E+01  3.51935E+01  5.64161E+01  7.95368E+01  9.91401E+01  1.08948E+02  1.04698E+02  8.74958E+01
   6.35796E+01  4.01805E+01  2.18254E+01  8.85364E+00 -1.74909E+00 -1.10195E+01 -1.58854E+01 -1.76350E+01 -1.76963E+01 -1.64976E+01
  -1.47107E+01 -1.30869E+01 -1.20136E+01 -1.15921E+01 -1.18381E+01 -1.24734E+01 -1.31892E+01 -1.38825E+01 -1.44939E+01 -1.50084E+01
  -1.54271E+01 -1.57059E+01 -1.58816E+01 -1.59698E+01 -1.61321E+01 -1.63906E+01 -1.65832E+01 -1.67524E+01 -1.69792E+01 -1.74607E+01
  -1.82586E+01 -1.89063E+01 -1.89082E+01 -1.82196E+01 -1.72674E+01 -1.66717E+01 -1.69199E+01 -1.80498E+01 -1.96198E+01 -2.11377E+01
  -2.24810E+01 -2.34388E+01 -2.41442E+01 -2.49598E+01 -2.58626E+01 -2.65790E+01 -2.66875E+01 -2.59989E+01 -2.48738E+01 -2.38550E+01
  -2.33942E+01 -2.33958E+01 -2.31954E+01 -2.24248E+01 -2.10686E+01 -1.93198E+01 -1.73117E+01 -1.46076E+01 -1.10238E+01 -6.91375E+00
  -3.20563E+00 -1.01953E+00 -5.57618E-01 -1.29312E+00 -2.50698E+00 -3.53155E+00 -3.98835E+00 -3.30495E+00 -1.33561E+00  1.45720E+00
   4.63561E+00  7.53146E+00  9.38588E+00  9.86225E+00  8.81768E+00  5.96089E+00  1.27895E+00 -4.42521E+00 -9.43677E+00 -1.20349E+01
  -1.14238E+01 -8.45660E+00 -3.88027E+00  2.09012E+00  8.58596E+00  1.41071E+01  1.70282E+01  1.64202E+01  1.23337E+01  5.57664E+00
  -2.00446E+00 -8.25020E+00 -1.16909E+01 -1.16082E+01 -8.21192E+00 -2.34165E+00  4.69474E+00  1.07082E+01  1.43621E+01  1.58542E+01
   1.62688E+01  1.62771E+01  1.60188E+01  1.61849E+01  1.73771E+01  1.93225E+01  2.14468E+01  2.30722E+01  2.36041E+01  2.27505E+01
   2.04233E+01  1.73131E+01  1.49315E+01  1.43563E+01  1.55895E+01  1.82353E+01  2.17739E+01  2.53812E+01  2.84078E+01  3.11000E+01
   3.35310E+01  3.58904E+01  3.94547E+01  4.89554E+01  6.87617E+01  9.23401E+01  1.17157E+02  1.46888E+02  1.82697E+02  2.19667E+02
   2.48209E+02  2.57915E+02  2.43061E+02  2.07176E+02  1.61726E+02  1.19334E+02  8.70793E+01  6.44913E+01  4.64120E+01  3.25962E+01
   2.66427E+01  2.41852E+01  2.27811E+01  2.19744E+01  2.15518E+01  2.11976E+01  2.07859E+01  2.02636E+01  1.96298E+01  1.89615E+01
   1.83515E+01  1.78267E+01  1.73876E+01  1.70629E+01  1.68605E+01  1.67436E+01  1.66707E+01  1.66323E+01  1.66482E+01  1.67410E+01
   1.69106E+01  1.71655E+01  1.75134E+01  1.79513E+01  1.84671E+01  1.90534E+01  1.97092E+01  2.04386E+01  2.12415E+01  2.21149E+01
   2.30525E+01  2.40469E+01  2.50802E+01  2.61285E+01  2.71642E+01  2.81607E+01  2.90947E+01  2.99456E+01  3.06923E+01  3.13200E+01
   3.18162E+01  3.21714E+01  3.23812E+01  3.24483E+01  3.23798E+01  3.21883E+01  3.18916E+01  3.15146E+01  3.10910E+01  3.06759E+01
   3.03449E+01  3.00159E+01  2.95963E+01  2.91555E+01  2.87106E+01  2.81473E+01  2.72995E+01  2.60550E+01  2.45521E+01  2.30959E+01
   2.18892E+01  2.11292E+01  2.09678E+01  2.14092E+01  2.23001E+01  2.34338E+01  2.46267E+01  2.55820E+01  2.61068E+01  2.63166E+01
   2.64866E+01  2.67240E+01  2.68939E+01  2.69863E+01  2.70808E+01  2.71225E+01  2.68258E+01  2.59751E+01  2.47201E+01  2.33814E+01
   2.22302E+01  2.16198E+01  2.18294E+01  2.28826E+01  2.45356E+01  2.64281E+01  2.82736E+01  2.97378E+01  3.05439E+01  3.08101E+01
   3.07959E+01  3.07249E+01  3.06479E+01  3.04762E+01  3.02851E+01  3.01590E+01  3.00347E+01  2.98793E+01  2.96809E+01  2.94369E+01
   2.91494E+01  2.88243E+01  2.84696E+01  2.80959E+01  2.77143E+01  2.73374E+01  2.69771E+01  2.66457E+01  2.63549E+01  2.61163E+01
   2.59404E+01  2.58371E+01  2.58150E+01  2.58823E+01  2.60458E+01  2.63122E+01  2.66863E+01  2.71721E+01  2.77717E+01  2.84857E+01
   2.93123E+01  3.02475E+01  3.12839E+01  3.24110E+01  3.36139E+01  3.48748E+01  3.61718E+01  3.74799E+01  3.87706E+01  4.00139E+01
   4.11780E+01  4.22321E+01  4.31463E+01  4.38939E+01  4.44518E+01  4.48024E+01  4.49341E+01  4.48425E+01  4.45297E+01  4.40048E+01
   4.32829E+01  4.23847E+01  4.13351E+01  4.01623E+01  3.88959E+01  3.75658E+01  3.62008E+01  3.48280E+01  3.34713E+01  3.21518E+01
   3.08861E+01  2.96872E+01  2.85641E+01  2.75227E+01  2.65655E+01  2.56927E+01  2.49021E+01  2.41898E+01  2.35508E+01  2.29798E+01
   2.24707E+01  2.20177E+01  2.16147E+01  2.12562E+01  2.09367E+01  2.06518E+01  2.03972E+01  2.01692E+01  1.99641E+01  1.97792E+01
   1.96118E+01  1.94601E+01  1.93220E+01  1.91958E+01  1.90801E+01  1.89737E+01  1.88756E+01  1.87849E+01  1.87008E+01  1.86227E+01
   1.85496E+01  1.84815E+01  1.84176E+01  1.83578E+01  1.83015E+01  1.82485E+01  1.81983E+01  1.81509E+01  1.81061E+01  1.80636E+01
   1.80232E+01  1.79847E+01  1.79479E+01  1.79128E+01  1.78793E+01  1.78474E+01  1.78167E+01  1.77872E+01  1.77588E+01  1.77316E+01
   1.77054E+01  1.76802E+01  1.76558E+01  1.76323E+01  1.76095E+01  1.75876E+01  1.75664E+01  1.75460E+01  1.75260E+01  1.75066E+01
   1.74878E+01  1.74697E+01  1.74521E+01  1.74350E+01  1.74182E+01  1.74020E+01  1.73862E+01  1.73709E+01  1.73560E+01  1.73415E+01
   1.73272E+01  1.73135E+01  1.73001E+01  1.72872E+01  1.72745E+01  1.72622E+01  1.72501E+01  1.72386E+01
 NY background values follow
    -6.974E+01   -6.936E+01   -6.898E+01   -6.860E+01   -6.822E+01   -6.784E+01   -6.746E+01   -6.708E+01   -6.670E+01   -6.632E+01
    -6.594E+01   -6.557E+01   -6.519E+01   -6.481E+01   -6.443E+01   -6.405E+01   -6.367E+01   -6.329E+01   -6.291E+01   -6.254E+01
    -6.216E+01   -6.178E+01   -6.140E+01   -6.103E+01   -6.065E+01   -6.027E+01   -5.990E+01   -5.952E+01   -5.914E+01   -5.877E+01
    -5.839E+01   -5.802E+01   -5.764E+01   -5.727E+01   -5.689E+01   -5.652E+01   -5.615E+01   -5.578E+01   -5.540E+01   -5.503E+01
    -5.466E+01   -5.429E+01   -5.392E+01   -5.355E+01   -5.318E+01   -5.281E+01   -5.244E+01   -5.207E+01   -5.170E+01   -5.134E+01
    -5.097E+01   -5.061E+01   -5.024E+01   -4.988E+01   -4.951E+01   -4.915E+01   -4.879E+01   -4.842E+01   -4.806E+01   -4.770E+01
    -4.734E+01   -4.698E+01   -4.663E+01   -4.627E+01   -4.591E+01   -4.556E+01   -4.520E+01   -4.485E+01   -4.449E+01   -4.414E+01
    -4.379E+01   -4.344E+01   -4.309E+01   -4.274E+01   -4.239E+01   -4.204E+01   -4.170E+01   -4.135E+01   -4.101E+01   -4.067E+01
    -4.032E+01   -3.998E+01   -3.964E+01   -3.931E+01   -3.897E+01   -3.863E+01   -3.830E+01   -3.796E+01   -3.763E+01   -3.730E+01
    -3.697E+01   -3.664E+01   -3.631E+01   -3.598E+01   -3.566E+01   -3.533E+01   -3.501E+01   -3.469E+01   -3.437E+01   -3.405E+01
    -3.373E+01   -3.341E+01   -3.309E+01   -3.278E+01   -3.247E+01   -3.215E+01   -3.184E+01   -3.153E+01   -3.122E+01   -3.091E+01
    -3.061E+01   -3.030E+01   -3.000E+01   -2.969E+01   -2.939E+01   -2.909E+01   -2.879E+01   -2.849E+01   -2.819E+01   -2.790E+01
    -2.760E+01   -2.731E+01   -2.701E+01   -2.672E+01   -2.643E+01   -2.614E+01   -2.585E+01   -2.556E+01   -2.527E+01   -2.499E+01
    -2.470E+01   -2.442E+01   -2.414E+01   -2.386E+01   -2.358E+01   -2.330E+01   -2.302E+01   -2.274E+01   -2.246E+01   -2.219E+01
    -2.191E+01   -2.164E+01   -2.137E+01   -2.110E+01   -2.083E+01   -2.056E+01   -2.029E+01   -2.002E+01   -1.976E+01   -1.949E+01
    -1.923E+01   -1.896E+01   -1.870E+01   -1.844E+01   -1.818E+01   -1.792E+01   -1.766E+01   -1.740E+01   -1.714E+01   -1.689E+01
    -1.663E+01   -1.637E+01   -1.612E+01   -1.587E+01   -1.562E+01   -1.536E+01   -1.511E+01   -1.486E+01   -1.461E+01   -1.437E+01
    -1.412E+01   -1.387E+01   -1.363E+01   -1.338E+01   -1.314E+01   -1.289E+01   -1.265E+01   -1.241E+01   -1.216E+01   -1.192E+01
    -1.168E+01   -1.144E+01   -1.120E+01   -1.097E+01   -1.073E+01   -1.049E+01   -1.026E+01   -1.002E+01   -9.785E+00   -9.551E+00
    -9.318E+00   -9.086E+00   -8.855E+00   -8.624E+00   -8.394E+00   -8.165E+00   -7.937E+00   -7.710E+00   -7.484E+00   -7.259E+00
    -7.035E+00   -6.811E+00   -6.589E+00   -6.368E+00   -6.147E+00   -5.928E+00   -5.710E+00   -5.493E+00   -5.276E+00   -5.061E+00
    -4.847E+00   -4.635E+00   -4.423E+00   -4.212E+00   -4.003E+00   -3.795E+00   -3.588E+00   -3.382E+00   -3.177E+00   -2.974E+00
    -2.771E+00   -2.571E+00   -2.371E+00   -2.173E+00   -1.976E+00   -1.780E+00   -1.585E+00   -1.392E+00   -1.201E+00   -1.010E+00
    -8.215E-01   -6.338E-01   -4.475E-01   -2.624E-01   -7.873E-02    1.037E-01    2.848E-01    4.646E-01    6.432E-01    8.204E-01
     9.964E-01    1.171E+00    1.345E+00    1.517E+00    1.688E+00    1.857E+00    2.026E+00    2.193E+00    2.359E+00    2.524E+00
     2.687E+00    2.850E+00    3.011E+00    3.171E+00    3.330E+00    3.487E+00    3.644E+00    3.799E+00    3.953E+00    4.106E+00
     4.258E+00    4.408E+00    4.558E+00    4.706E+00    4.853E+00    5.000E+00    5.145E+00    5.288E+00    5.431E+00    5.573E+00
     5.713E+00    5.853E+00    5.991E+00    6.129E+00    6.265E+00    6.400E+00    6.534E+00    6.667E+00    6.799E+00    6.930E+00
     7.060E+00    7.188E+00    7.316E+00    7.443E+00    7.568E+00    7.693E+00    7.816E+00    7.938E+00    8.060E+00    8.180E+00
     8.299E+00    8.417E+00    8.534E+00    8.651E+00    8.766E+00    8.880E+00    8.993E+00    9.104E+00    9.215E+00    9.325E+00
     9.434E+00    9.542E+00    9.648E+00    9.754E+00    9.859E+00    9.962E+00    1.006E+01    1.017E+01    1.027E+01    1.037E+01
     1.047E+01    1.056E+01    1.066E+01    1.075E+01    1.085E+01    1.094E+01    1.104E+01    1.113E+01    1.122E+01    1.131E+01
     1.140E+01    1.148E+01    1.157E+01    1.165E+01    1.174E+01    1.182E+01    1.191E+01    1.199E+01    1.207E+01    1.215E+01
     1.223E+01    1.230E+01    1.238E+01    1.246E+01    1.253E+01    1.260E+01    1.268E+01    1.275E+01    1.282E+01    1.289E+01
     1.296E+01    1.303E+01    1.310E+01    1.316E+01    1.323E+01    1.329E+01    1.336E+01    1.342E+01    1.348E+01    1.354E+01
     1.360E+01    1.366E+01    1.372E+01    1.378E+01    1.383E+01    1.389E+01    1.394E+01    1.400E+01    1.405E+01    1.410E+01
     1.415E+01    1.421E+01    1.426E+01    1.430E+01    1.435E+01    1.440E+01    1.445E+01    1.449E+01    1.454E+01    1.458E+01
     1.462E+01    1.466E+01    1.471E+01    1.475E+01    1.479E+01    1.483E+01    1.486E+01    1.490E+01    1.494E+01    1.498E+01
     1.501E+01    1.505E+01    1.508E+01    1.511E+01    1.515E+01    1.518E+01    1.521E+01    1.524E+01    1.527E+01    1.530E+01
     1.533E+01    1.536E+01    1.538E+01    1.541E+01    1.544E+01    1.546E+01    1.549E+01    1.551E+01    1.554E+01    1.556E+01
     1.558E+01    1.560E+01    1.562E+01    1.565E+01    1.567E+01    1.569E+01    1.571E+01    1.572E+01    1.574E+01    1.576E+01
     1.578E+01    1.580E+01    1.581E+01    1.583E+01    1.584E+01    1.586E+01    1.587E+01    1.589E+01    1.590E+01    1.591E+01
     1.593E+01    1.594E+01    1.595E+01    1.596E+01    1.597E+01    1.598E+01    1.600E+01    1.601E+01    1.602E+01    1.602E+01
     1.603E+01    1.604E+01    1.605E+01    1.606E+01    1.607E+01    1.607E+01    1.608E+01    1.609E+01    1.610E+01    1.610E+01
     1.611E+01    1.611E+01    1.612E+01    1.612E+01    1.613E+01    1.613E+01    1.614E+01    1.614E+01    1.615E+01    1.615E+01
     1.616E+01    1.616E+01    1.616E+01    1.617E+01    1.617E+01    1.617E+01    1.618E+01    1.618E+01    1.618E+01    1.618E+01
     1.619E+01    1.619E+01    1.619E+01    1.619E+01    1.619E+01    1.620E+01    1.620E+01    1.620E+01    1.620E+01    1.620E+01
     1.620E+01    1.620E+01    1.620E+01    1.621E+01    1.621E+01    1.621E+01    1.621E+01    1.621E+01    1.621E+01    1.621E+01
     1.621E+01    1.621E+01    1.621E+01    1.621E+01    1.621E+01    1.621E+01    1.621E+01    1.621E+01    1.621E+01    1.621E+01
     1.621E+01    1.622E+01    1.622E+01    1.622E+01    1.622E+01    1.622E+01    1.622E+01    1.622E+01
 Ala      Conc. = 2.64E+02
