 LCModel (Version 6.3-1L) Copyright: S.W. Provencher.          Ref.: Magn. Reson. Med. 30:672-679 (1993).                
 Slice#3 Row#6 Col#6  PD_05_press_2_raw_act
 36 lines in following concentration table = NCONC+1
    Conc.  %SD /Cr+PCr  Metabolite                                         
  711.497  55%   0.256 Ala                                                 
  422.309 114%   0.152 Asp                                                 
 1.18E+03  63%   0.423 Cr                                                  
 1.60E+03  47%   0.577 PCr                                                 
  149.856 211% 5.4E-02 GABA                                                
  420.894  73%   0.151 Glc                                                 
  774.845 108%   0.279 Gln                                                 
 2.25E+03  43%   0.810 Glu                                                 
 1.04E+03  42%   0.374 GPC                                                 
   10.960 999% 3.9E-03 PCh                                                 
 1.19E+03  21%   0.429 GSH                                                 
 3.71E+03  25%   1.334 Ins                                                 
  902.215  49%   0.325 Lac                                                 
 3.95E+03   5%   1.420 NAA                                                 
    0.000 999%   0.000 NAAG                                                
  304.550  24%   0.110 Scyllo                                              
 1.20E+03  40%   0.432 Tau                                                 
  707.553  49%   0.255 -CrCH2                                              
 1.05E+03   7%   0.378 GPC+PCh                                             
 3.95E+03   5%   1.420 NAA+NAAG                                            
 2.78E+03   6%   1.000 Cr+PCr                                              
 3.03E+03  48%   1.089 Glu+Gln                                             
    0.000 999%   0.000 Lip13a                                              
  173.394 176% 6.2E-02 Lip13b                                              
   45.875 202% 1.7E-02 Lip09                                               
 2.06E+03  21%   0.739 MM09                                                
   25.712 215% 9.3E-03 Lip20                                               
 3.56E+03  23%   1.280 MM20                                                
  549.225  51%   0.198 MM12                                                
  583.476 113%   0.210 MM14                                                
 1.19E+03  41%   0.427 MM17                                                
  173.394 176% 6.2E-02 Lip13a+Lip13b                                       
 1.31E+03  63%   0.470 MM14+Lip13a+Lip13b+MM12                             
 2.10E+03  21%   0.756 MM09+Lip09                                          
 3.58E+03  23%   1.289 MM20+Lip20                                          
   6 lines in following misc. output table
  FWHM = 0.061 ppm    S/N =   6                                            
  Data shift = 0.015 ppm                                                   
  Ph: -59 deg     -17.6 deg/ppm                                            
  alphaB,S = 9.8E-01,   5.1E+01                                            
   14 spline knots.   Ns = 8(1)                                            
  (10) 6 infls.   (13) 1 extrs.                                            
  498 points on ppm-axis = NY
      4.000000     3.992357     3.984714     3.977070     3.969427     3.961784     3.954141     3.946497     3.938854     3.931211
      3.923568     3.915925     3.908281     3.900638     3.892995     3.885352     3.877708     3.870065     3.862422     3.854779
      3.847136     3.839492     3.831849     3.824206     3.816563     3.808919     3.801276     3.793633     3.785990     3.778347
      3.770703     3.763060     3.755417     3.747774     3.740130     3.732487     3.724844     3.717201     3.709558     3.701914
      3.694271     3.686628     3.678985     3.671341     3.663698     3.656055     3.648412     3.640769     3.633125     3.625482
      3.617839     3.610196     3.602552     3.594909     3.587266     3.579623     3.571980     3.564336     3.556693     3.549050
      3.541407     3.533763     3.526120     3.518477     3.510834     3.503191     3.495547     3.487904     3.480261     3.472618
      3.464974     3.457331     3.449688     3.442045     3.434402     3.426758     3.419115     3.411472     3.403829     3.396185
      3.388542     3.380899     3.373256     3.365613     3.357969     3.350326     3.342683     3.335040     3.327396     3.319753
      3.312110     3.304467     3.296824     3.289180     3.281537     3.273894     3.266251     3.258607     3.250964     3.243321
      3.235678     3.228034     3.220391     3.212748     3.205105     3.197462     3.189818     3.182175     3.174532     3.166889
      3.159245     3.151602     3.143959     3.136316     3.128673     3.121029     3.113386     3.105743     3.098100     3.090456
      3.082813     3.075170     3.067527     3.059884     3.052240     3.044597     3.036954     3.029311     3.021667     3.014024
      3.006381     2.998738     2.991095     2.983451     2.975808     2.968165     2.960522     2.952878     2.945235     2.937592
      2.929949     2.922306     2.914662     2.907019     2.899376     2.891733     2.884089     2.876446     2.868803     2.861160
      2.853517     2.845873     2.838230     2.830587     2.822944     2.815300     2.807657     2.800014     2.792371     2.784728
      2.777084     2.769441     2.761798     2.754155     2.746511     2.738868     2.731225     2.723582     2.715939     2.708295
      2.700652     2.693009     2.685366     2.677722     2.670079     2.662436     2.654793     2.647150     2.639506     2.631863
      2.624220     2.616577     2.608933     2.601290     2.593647     2.586004     2.578361     2.570717     2.563074     2.555431
      2.547788     2.540144     2.532501     2.524858     2.517215     2.509572     2.501928     2.494285     2.486642     2.478999
      2.471355     2.463712     2.456069     2.448426     2.440783     2.433139     2.425496     2.417853     2.410210     2.402566
      2.394923     2.387280     2.379637     2.371994     2.364350     2.356707     2.349064     2.341421     2.333777     2.326134
      2.318491     2.310848     2.303205     2.295561     2.287918     2.280275     2.272632     2.264988     2.257345     2.249702
      2.242059     2.234416     2.226772     2.219129     2.211486     2.203843     2.196199     2.188556     2.180913     2.173270
      2.165627     2.157983     2.150340     2.142697     2.135054     2.127410     2.119767     2.112124     2.104481     2.096838
      2.089194     2.081551     2.073908     2.066265     2.058621     2.050978     2.043335     2.035692     2.028049     2.020405
      2.012762     2.005119     1.997476     1.989833     1.982190     1.974546     1.966903     1.959260     1.951617     1.943974
      1.936331     1.928688     1.921045     1.913402     1.905759     1.898115     1.890472     1.882829     1.875186     1.867543
      1.859900     1.852257     1.844614     1.836971     1.829327     1.821684     1.814041     1.806398     1.798755     1.791112
      1.783469     1.775826     1.768183     1.760540     1.752896     1.745253     1.737610     1.729967     1.722324     1.714681
      1.707038     1.699395     1.691752     1.684108     1.676465     1.668822     1.661179     1.653536     1.645893     1.638250
      1.630607     1.622964     1.615321     1.607677     1.600034     1.592391     1.584748     1.577105     1.569462     1.561819
      1.554176     1.546533     1.538890     1.531246     1.523603     1.515960     1.508317     1.500674     1.493031     1.485388
      1.477745     1.470102     1.462458     1.454815     1.447172     1.439529     1.431886     1.424243     1.416600     1.408957
      1.401314     1.393671     1.386027     1.378384     1.370741     1.363098     1.355455     1.347812     1.340169     1.332526
      1.324883     1.317240     1.309596     1.301953     1.294310     1.286667     1.279024     1.271381     1.263738     1.256095
      1.248452     1.240808     1.233165     1.225522     1.217879     1.210236     1.202593     1.194950     1.187307     1.179664
      1.172021     1.164377     1.156734     1.149091     1.141448     1.133805     1.126162     1.118519     1.110876     1.103233
      1.095590     1.087946     1.080303     1.072660     1.065017     1.057374     1.049731     1.042088     1.034445     1.026802
      1.019158     1.011515     1.003872     0.996229     0.988586     0.980943     0.973300     0.965657     0.958014     0.950371
      0.942727     0.935084     0.927441     0.919798     0.912155     0.904512     0.896869     0.889226     0.881583     0.873940
      0.866296     0.858653     0.851010     0.843367     0.835724     0.828081     0.820438     0.812795     0.805152     0.797508
      0.789865     0.782222     0.774579     0.766936     0.759293     0.751650     0.744007     0.736364     0.728721     0.721077
      0.713434     0.705791     0.698148     0.690505     0.682862     0.675219     0.667576     0.659933     0.652290     0.644646
      0.637003     0.629360     0.621717     0.614074     0.606431     0.598788     0.591145     0.583502     0.575858     0.568215
      0.560572     0.552929     0.545286     0.537643     0.530000     0.522357     0.514714     0.507071     0.499427     0.491784
      0.484141     0.476498     0.468855     0.461212     0.453569     0.445925     0.438282     0.430639     0.422996     0.415353
      0.407710     0.400067     0.392424     0.384780     0.377137     0.369494     0.361851     0.354208     0.346565     0.338922
      0.331278     0.323635     0.315992     0.308349     0.300706     0.293063     0.285420     0.277777     0.270133     0.262490
      0.254847     0.247204     0.239561     0.231918     0.224275     0.216631     0.208988     0.201345
 NY phased data points follow
  -2.53503E+02 -2.48347E+02 -2.60891E+02 -2.40174E+02 -2.11292E+02 -2.08232E+02 -1.96681E+02 -1.99939E+02 -1.81207E+02 -1.58293E+02
  -1.76209E+02 -1.62731E+02 -1.74576E+02 -1.80421E+02 -1.71775E+02 -1.97312E+02 -1.92008E+02 -2.11921E+02 -1.99046E+02 -2.19267E+02
  -2.01644E+02 -1.92699E+02 -1.87071E+02 -1.82948E+02 -1.76755E+02 -1.70037E+02 -1.72645E+02 -1.74196E+02 -1.63942E+02 -1.58805E+02
  -1.56531E+02 -1.55559E+02 -1.58385E+02 -1.49274E+02 -1.59210E+02 -1.53873E+02 -1.49618E+02 -1.42740E+02 -1.48623E+02 -1.62371E+02
  -1.43336E+02 -1.43045E+02 -1.38260E+02 -1.53463E+02 -1.48539E+02 -1.51981E+02 -1.33453E+02 -1.31675E+02 -1.19540E+02 -1.35440E+02
  -1.32290E+02 -1.28910E+02 -1.31800E+02 -1.35046E+02 -1.30834E+02 -1.39605E+02 -1.27171E+02 -1.28889E+02 -1.15418E+02 -1.28517E+02
  -1.31186E+02 -1.21860E+02 -1.24574E+02 -1.45936E+02 -1.34738E+02 -1.05322E+02 -1.29619E+02 -1.16447E+02 -1.14871E+02 -1.22220E+02
  -1.18908E+02 -1.12616E+02 -1.10298E+02 -1.00626E+02 -1.13745E+02 -1.20986E+02 -1.11915E+02 -1.02700E+02 -1.05161E+02 -1.08175E+02
  -9.84850E+01 -1.10875E+02 -9.99152E+01 -9.75151E+01 -9.74575E+01 -9.21479E+01 -1.01357E+02 -8.73857E+01 -9.53543E+01 -9.55948E+01
  -8.09723E+01 -9.21371E+01 -6.79144E+01 -8.27075E+01 -9.38140E+01 -7.43983E+01 -7.15856E+01 -7.90764E+01 -6.25783E+01 -4.92121E+01
  -2.53383E+01 -2.69434E+01 -1.36882E+01  3.49862E-01 -8.04111E+00 -9.16485E+00 -3.31055E+01 -4.95696E+01 -5.89719E+01 -4.73963E+01
  -6.45423E+01 -7.57630E+01 -6.01598E+01 -6.54814E+01 -6.38143E+01 -6.77529E+01 -6.33611E+01 -7.60589E+01 -7.33763E+01 -6.60489E+01
  -6.18918E+01 -4.53400E+01 -2.74613E+01 -2.69187E+01 -1.40503E+01 -1.08115E+01 -7.26129E+00  9.30574E+00  1.83359E+01 -9.84865E+00
  -7.13570E+00 -2.57360E+01 -2.35855E+01 -3.41972E+01 -5.05765E+01 -5.22513E+01 -6.46870E+01 -6.21659E+01 -6.09722E+01 -6.43726E+01
  -5.88679E+01 -6.81478E+01 -6.28723E+01 -5.60952E+01 -5.34684E+01 -7.10042E+01 -6.40477E+01 -7.14206E+01 -4.99498E+01 -6.43920E+01
  -6.59690E+01 -5.83391E+01 -5.97540E+01 -6.38221E+01 -5.65127E+01 -6.06752E+01 -5.74592E+01 -4.33928E+01 -4.92097E+01 -6.11777E+01
  -4.86532E+01 -5.52998E+01 -5.26962E+01 -5.27545E+01 -5.73290E+01 -4.03917E+01 -4.68494E+01 -2.87584E+01 -3.60054E+01 -4.54625E+01
  -2.99293E+01 -4.91938E+01 -5.80690E+01 -5.79060E+01 -6.50082E+01 -6.00082E+01 -4.83263E+01 -6.95167E+01 -5.47697E+01 -5.78248E+01
  -4.62074E+01 -6.29080E+01 -4.46364E+01 -5.85755E+01 -5.69228E+01 -3.54043E+01 -2.70416E+01 -4.60462E+01 -3.64929E+01 -3.05804E+01
  -1.48761E+01 -2.63368E+01 -2.69898E+01 -1.96179E+01 -2.91505E+01 -3.02098E+01 -2.55309E+01 -1.77745E+01 -2.25795E+01 -2.55995E+01
  -2.39815E+01 -2.65970E+01 -3.73066E+01 -2.45035E+01 -2.23762E+01 -9.24061E+00 -2.85618E+01 -3.49035E+01 -2.83994E+01 -2.01174E+01
  -1.94145E+01 -1.88248E+01 -6.17654E+00 -1.11404E+01 -9.25982E+00 -1.36630E+01 -1.67566E+01 -6.17366E+00  1.77432E+00  3.00251E+00
  -9.93393E+00 -2.58254E+01 -9.10553E+00 -8.91299E+00 -2.16562E+01 -1.44378E+01  2.28331E+00 -9.01326E+00 -2.91401E+00 -1.69509E+00
  -7.11192E+00  4.46191E-01  7.68397E+00  8.12939E+00  1.91698E+01  7.20834E+00 -3.57614E-01 -9.27613E+00  7.74223E+00 -1.21984E+01
  -1.68506E+00  1.33470E+01  1.58555E+01  2.10339E+01 -9.20199E-01  1.86508E+00  6.81639E-01  2.90868E+00  1.42454E+01  7.62378E+00
   1.62633E+01  1.08222E+01  1.82148E+01  3.54342E+01  2.98111E+01  3.59450E+01  6.03542E+01  9.02726E+01  9.84490E+01  1.06579E+02
   1.17354E+02  1.25488E+02  1.06645E+02  1.06022E+02  8.01418E+01  5.57181E+01  5.56518E+01  2.84783E+01  2.67357E+01  1.88974E+01
   2.96973E+01  6.14179E+00  1.23738E+01  1.75083E+01  1.51033E+00  2.53558E+01  1.70599E+01  1.17651E+01 -8.55276E+00  8.76554E+00
   1.24527E+01  2.08464E+01  1.62808E+01  1.24515E+01  3.64244E+00  1.00897E+01  1.92063E+01 -9.91506E+00  5.31148E+00  1.18326E+01
   1.92821E+01  4.75151E+00  9.11286E+00  2.19426E+01  1.62744E+01  5.87900E+00  8.30487E+00  1.82821E+01  1.75973E+01  1.58779E+01
   1.18681E+01  4.55884E+00  1.01236E+01  1.81561E+01  1.53195E+01  2.43133E+01  1.69408E+01  1.11040E+01  2.59948E+01  3.58846E+01
   1.30225E+01  1.42177E+01  1.00339E+01  2.12980E+01  3.19240E+01  3.04443E+01  3.19937E+01  2.06992E+01  1.70322E+01  3.03665E+01
   3.59711E+01  2.33590E+01  2.96115E+01  2.34616E+01  2.21413E+01  1.56350E+01  6.96162E+00  1.44189E+01  2.23679E+01 -2.18286E-01
   6.51281E+00  1.94843E+01  2.02237E+01  1.35021E+01  2.40528E+01  1.49858E+01  1.65727E+01  1.74801E+01  1.85425E+01  1.66907E+01
   1.47212E+01  1.83550E+01  2.50393E+01  2.78016E+01  4.35131E+01  4.62512E+01  3.27174E+01  3.60217E+01  1.91660E+01  2.11341E+01
   9.06380E+00  1.94634E+01  3.42022E+00  2.43828E+01  3.11895E+01  2.37718E+01  3.27595E+01  2.39489E+01  1.71595E+01  2.95842E+01
   2.36909E+01  1.99893E+01  1.62802E+01  2.90252E+01  2.99667E+01  2.14646E+01  2.18705E+01  2.72270E+01  2.23416E+01  3.19195E+01
   1.33910E+01  6.53844E+00  1.32109E+01  2.69758E+01  2.49278E+01  2.51682E+01  3.17856E+01  1.58375E+01  1.34961E+01  2.37553E+01
   2.72366E+01  2.13283E+01  2.95161E+01  1.93351E+01  1.07352E+01  2.38080E+01  3.50413E+01  3.09510E+01  1.63131E+01  4.57718E+01
   2.76225E+01  2.60343E+01  2.37672E+01  2.63094E+01  2.54727E+01  3.64668E+01  3.74254E+01  2.80049E+01  2.39177E+01  3.14361E+01
   2.80268E+01  3.41447E+01  2.69836E+01  3.15043E+01  4.84643E+01  4.55188E+01  4.28255E+01  4.00472E+01  3.19886E+01  4.13255E+01
   3.06269E+01  4.85422E+01  3.43519E+01  3.47719E+01  2.92324E+01  3.67091E+01  3.79461E+01  4.10148E+01  3.30732E+01  4.60719E+01
   3.71060E+01  2.90300E+01  4.33185E+01  2.04308E+01  1.52075E+01  2.03047E+01  2.18228E+01  1.98636E+01  3.42859E+01  1.81957E+01
   2.76178E+01  2.41119E+01  4.01049E+01  1.89703E+01  3.72033E+01  1.75487E+01  3.60359E+01  3.71432E+01  4.17043E+01  2.32099E+01
   4.65893E+01  2.65034E+01  3.66932E+01  3.19126E+01  2.61415E+01  1.46067E+01  1.02349E+01  1.33947E+01  1.34035E+01  3.19443E+01
   3.30103E+01  2.98817E+01  2.39806E+01  3.18445E+01  2.97588E+01  3.37296E+01  3.49345E+01  2.25182E+01  2.58722E+01  2.38030E+01
   2.46911E+01  2.57494E+01  1.88358E+01  1.56157E+01  1.44411E+01  3.03805E+01  2.55053E+01  1.83928E+01  1.95777E+01  1.94145E+01
   3.54634E+01  7.03210E+00  3.25332E+01  1.30384E+01  3.52201E+01  1.46629E+01  1.65056E+01  3.46095E+01  2.30688E+01  3.00467E+01
   2.93884E+01  3.05900E+01  4.76937E+01  2.83913E+01  2.99800E+01  2.13701E+01  3.18591E+01  3.10283E+01  3.10257E+01  1.65869E+01
   3.12765E+01  2.97275E+01  3.43792E+01  3.51159E+01  4.13828E+01  3.00110E+01  1.92425E+01  2.77494E+01
 NY points of the fit to the data follow
  -2.26796E+02 -2.25583E+02 -2.22763E+02 -2.18603E+02 -2.13334E+02 -2.06517E+02 -1.98486E+02 -1.90651E+02 -1.83877E+02 -1.78066E+02
  -1.73613E+02 -1.71686E+02 -1.73071E+02 -1.77007E+02 -1.81480E+02 -1.84983E+02 -1.87434E+02 -1.89423E+02 -1.91456E+02 -1.92921E+02
  -1.93253E+02 -1.92088E+02 -1.89533E+02 -1.86848E+02 -1.84020E+02 -1.79904E+02 -1.74751E+02 -1.69719E+02 -1.65158E+02 -1.60265E+02
  -1.55503E+02 -1.52729E+02 -1.52301E+02 -1.53440E+02 -1.55160E+02 -1.56587E+02 -1.58154E+02 -1.59957E+02 -1.61152E+02 -1.61086E+02
  -1.59422E+02 -1.56548E+02 -1.52189E+02 -1.46855E+02 -1.42028E+02 -1.38163E+02 -1.34912E+02 -1.32418E+02 -1.31734E+02 -1.33441E+02
  -1.36407E+02 -1.38860E+02 -1.39981E+02 -1.40042E+02 -1.39592E+02 -1.38708E+02 -1.37201E+02 -1.35095E+02 -1.32709E+02 -1.30459E+02
  -1.28702E+02 -1.27512E+02 -1.26962E+02 -1.26701E+02 -1.26160E+02 -1.25152E+02 -1.23664E+02 -1.21784E+02 -1.19703E+02 -1.17675E+02
  -1.15692E+02 -1.13441E+02 -1.11208E+02 -1.09575E+02 -1.08506E+02 -1.07745E+02 -1.07238E+02 -1.06977E+02 -1.06802E+02 -1.06285E+02
  -1.05551E+02 -1.04079E+02 -1.01719E+02 -9.93125E+01 -9.75669E+01 -9.62920E+01 -9.49638E+01 -9.39225E+01 -9.38124E+01 -9.46143E+01
  -9.55705E+01 -9.58029E+01 -9.52905E+01 -9.45835E+01 -9.27378E+01 -8.76347E+01 -8.08135E+01 -7.18401E+01 -5.88862E+01 -4.39328E+01
  -3.10209E+01 -2.11374E+01 -1.24333E+01 -6.10815E+00 -6.73069E+00 -1.53214E+01 -2.83011E+01 -4.07435E+01 -4.95687E+01 -5.65595E+01
  -6.38683E+01 -7.09198E+01 -7.63717E+01 -7.83217E+01 -7.83742E+01 -7.79933E+01 -7.73623E+01 -7.63291E+01 -7.38483E+01 -6.84060E+01
  -6.16123E+01 -5.31315E+01 -4.10391E+01 -2.70721E+01 -1.48333E+01 -5.10085E+00  3.65449E+00  9.76696E+00  9.01250E+00  8.96139E-01
  -1.12885E+01 -2.30974E+01 -3.18123E+01 -3.91367E+01 -4.69356E+01 -5.45897E+01 -6.04594E+01 -6.25376E+01 -6.21924E+01 -6.08889E+01
  -5.93148E+01 -5.78266E+01 -5.66592E+01 -5.58844E+01 -5.53209E+01 -5.49351E+01 -5.47162E+01 -5.46685E+01 -5.48152E+01 -5.50190E+01
  -5.51543E+01 -5.51349E+01 -5.49416E+01 -5.47379E+01 -5.45399E+01 -5.43097E+01 -5.41022E+01 -5.39073E+01 -5.37010E+01 -5.34333E+01
  -5.30647E+01 -5.26239E+01 -5.20767E+01 -5.13464E+01 -5.04418E+01 -4.95704E+01 -4.90442E+01 -4.88990E+01 -4.89249E+01 -4.89466E+01
  -4.88013E+01 -4.87331E+01 -4.88893E+01 -4.90401E+01 -4.89924E+01 -4.87199E+01 -4.84258E+01 -4.80809E+01 -4.74245E+01 -4.65890E+01
  -4.58871E+01 -4.53976E+01 -4.48896E+01 -4.38806E+01 -4.22230E+01 -4.02000E+01 -3.81402E+01 -3.60930E+01 -3.37813E+01 -3.13129E+01
  -2.91857E+01 -2.77484E+01 -2.72357E+01 -2.74843E+01 -2.78862E+01 -2.79803E+01 -2.76029E+01 -2.69152E+01 -2.59001E+01 -2.42798E+01
  -2.21686E+01 -1.99696E+01 -1.82869E+01 -1.72765E+01 -1.68026E+01 -1.71097E+01 -1.81808E+01 -1.95244E+01 -2.06618E+01 -2.12886E+01
  -2.12767E+01 -2.01175E+01 -1.79313E+01 -1.55537E+01 -1.35038E+01 -1.19583E+01 -1.09097E+01 -1.08470E+01 -1.23313E+01 -1.45571E+01
  -1.63573E+01 -1.71592E+01 -1.71168E+01 -1.65211E+01 -1.50197E+01 -1.25393E+01 -9.78878E+00 -7.52466E+00 -5.98034E+00 -4.57106E+00
  -3.08260E+00 -1.85627E+00 -7.55376E-01  5.34560E-01  1.89346E+00  2.85988E+00  3.31159E+00  3.53417E+00  3.49825E+00  3.01219E+00
   2.45778E+00  2.29706E+00  2.62934E+00  3.41501E+00  4.62962E+00  6.28539E+00  8.09029E+00  9.74617E+00  1.11226E+01  1.22699E+01
   1.34598E+01  1.51582E+01  1.94377E+01  2.74699E+01  3.66026E+01  4.86751E+01  6.56071E+01  8.33642E+01  9.73436E+01  1.08070E+02
   1.17494E+02  1.21625E+02  1.14879E+02  9.87163E+01  7.91625E+01  6.24228E+01  5.04540E+01  3.97034E+01  2.86295E+01  1.86591E+01
   1.19189E+01  9.75882E+00  9.22085E+00  9.11217E+00  9.20776E+00  9.37495E+00  9.46799E+00  9.47259E+00  9.42126E+00  9.35636E+00
   9.29099E+00  9.23992E+00  9.22120E+00  9.25035E+00  9.34713E+00  9.51583E+00  9.73861E+00  1.00035E+01  1.03026E+01  1.06299E+01
   1.09866E+01  1.13660E+01  1.17697E+01  1.21995E+01  1.26549E+01  1.31387E+01  1.36516E+01  1.41879E+01  1.47417E+01  1.53052E+01
   1.58706E+01  1.64280E+01  1.69678E+01  1.74826E+01  1.79634E+01  1.84016E+01  1.87903E+01  1.91255E+01  1.94062E+01  1.96334E+01
   1.98094E+01  1.99387E+01  2.00288E+01  2.00907E+01  2.01391E+01  2.01918E+01  2.02734E+01  2.04220E+01  2.07163E+01  2.12480E+01
   2.17662E+01  2.22093E+01  2.27247E+01  2.30067E+01  2.26410E+01  2.16577E+01  2.03338E+01  1.88208E+01  1.69141E+01  1.47334E+01
   1.32103E+01  1.30913E+01  1.41920E+01  1.57066E+01  1.73916E+01  1.95896E+01  2.20726E+01  2.42650E+01  2.57157E+01  2.66017E+01
   2.73895E+01  2.80530E+01  2.86380E+01  2.89303E+01  2.83545E+01  2.69354E+01  2.51931E+01  2.34485E+01  2.13778E+01  1.86844E+01
   1.64237E+01  1.57427E+01  1.66820E+01  1.83925E+01  2.02674E+01  2.25470E+01  2.50393E+01  2.70330E+01  2.80872E+01  2.80599E+01
   2.76201E+01  2.72258E+01  2.66979E+01  2.59044E+01  2.49110E+01  2.40303E+01  2.35202E+01  2.32162E+01  2.30219E+01  2.28962E+01
   2.28172E+01  2.27718E+01  2.27523E+01  2.27541E+01  2.27750E+01  2.28145E+01  2.28732E+01  2.29526E+01  2.30550E+01  2.31825E+01
   2.33379E+01  2.35241E+01  2.37444E+01  2.40020E+01  2.43006E+01  2.46435E+01  2.50340E+01  2.54755E+01  2.59707E+01  2.65218E+01
   2.71299E+01  2.77949E+01  2.85151E+01  2.92869E+01  3.01047E+01  3.09602E+01  3.18428E+01  3.27391E+01  3.36338E+01  3.45095E+01
   3.53474E+01  3.61277E+01  3.68309E+01  3.74385E+01  3.79338E+01  3.83029E+01  3.85353E+01  3.86248E+01  3.85695E+01  3.83724E+01
   3.80409E+01  3.75865E+01  3.70240E+01  3.63710E+01  3.56470E+01  3.48722E+01  3.40668E+01  3.32499E+01  3.24391E+01  3.16497E+01
   3.08947E+01  3.01839E+01  2.95250E+01  2.89224E+01  2.83788E+01  2.78943E+01  2.74678E+01  2.70967E+01  2.67774E+01  2.65058E+01
   2.62775E+01  2.60878E+01  2.59325E+01  2.58074E+01  2.57084E+01  2.56321E+01  2.55753E+01  2.55353E+01  2.55096E+01  2.54963E+01
   2.54934E+01  2.54994E+01  2.55131E+01  2.55334E+01  2.55594E+01  2.55904E+01  2.56255E+01  2.56643E+01  2.57064E+01  2.57512E+01
   2.57986E+01  2.58481E+01  2.58996E+01  2.59527E+01  2.60073E+01  2.60634E+01  2.61208E+01  2.61792E+01  2.62386E+01  2.62989E+01
   2.63601E+01  2.64222E+01  2.64849E+01  2.65483E+01  2.66124E+01  2.66770E+01  2.67422E+01  2.68080E+01  2.68743E+01  2.69410E+01
   2.70083E+01  2.70760E+01  2.71443E+01  2.72130E+01  2.72822E+01  2.73517E+01  2.74218E+01  2.74924E+01  2.75634E+01  2.76349E+01
   2.77069E+01  2.77793E+01  2.78523E+01  2.79259E+01  2.80000E+01  2.80746E+01  2.81497E+01  2.82255E+01  2.83019E+01  2.83791E+01
   2.84569E+01  2.85354E+01  2.86146E+01  2.86947E+01  2.87757E+01  2.88576E+01  2.89405E+01  2.90244E+01
 NY background values follow
    -2.375E+02   -2.358E+02   -2.342E+02   -2.325E+02   -2.309E+02   -2.292E+02   -2.276E+02   -2.259E+02   -2.243E+02   -2.226E+02
    -2.210E+02   -2.193E+02   -2.177E+02   -2.161E+02   -2.144E+02   -2.128E+02   -2.111E+02   -2.095E+02   -2.079E+02   -2.062E+02
    -2.046E+02   -2.030E+02   -2.014E+02   -1.998E+02   -1.982E+02   -1.965E+02   -1.949E+02   -1.933E+02   -1.917E+02   -1.902E+02
    -1.886E+02   -1.870E+02   -1.854E+02   -1.838E+02   -1.823E+02   -1.807E+02   -1.792E+02   -1.776E+02   -1.761E+02   -1.746E+02
    -1.730E+02   -1.715E+02   -1.700E+02   -1.685E+02   -1.670E+02   -1.655E+02   -1.640E+02   -1.625E+02   -1.611E+02   -1.596E+02
    -1.582E+02   -1.567E+02   -1.553E+02   -1.539E+02   -1.525E+02   -1.510E+02   -1.496E+02   -1.483E+02   -1.469E+02   -1.455E+02
    -1.441E+02   -1.428E+02   -1.414E+02   -1.401E+02   -1.388E+02   -1.374E+02   -1.361E+02   -1.348E+02   -1.335E+02   -1.322E+02
    -1.310E+02   -1.297E+02   -1.284E+02   -1.272E+02   -1.260E+02   -1.247E+02   -1.235E+02   -1.223E+02   -1.211E+02   -1.199E+02
    -1.187E+02   -1.176E+02   -1.164E+02   -1.152E+02   -1.141E+02   -1.130E+02   -1.119E+02   -1.107E+02   -1.096E+02   -1.086E+02
    -1.075E+02   -1.064E+02   -1.053E+02   -1.043E+02   -1.033E+02   -1.022E+02   -1.012E+02   -1.002E+02   -9.920E+01   -9.821E+01
    -9.723E+01   -9.626E+01   -9.529E+01   -9.434E+01   -9.340E+01   -9.246E+01   -9.153E+01   -9.062E+01   -8.971E+01   -8.880E+01
    -8.791E+01   -8.703E+01   -8.615E+01   -8.528E+01   -8.442E+01   -8.356E+01   -8.272E+01   -8.188E+01   -8.104E+01   -8.022E+01
    -7.940E+01   -7.859E+01   -7.778E+01   -7.699E+01   -7.619E+01   -7.541E+01   -7.463E+01   -7.386E+01   -7.309E+01   -7.233E+01
    -7.158E+01   -7.083E+01   -7.008E+01   -6.934E+01   -6.861E+01   -6.788E+01   -6.716E+01   -6.644E+01   -6.573E+01   -6.502E+01
    -6.432E+01   -6.362E+01   -6.292E+01   -6.223E+01   -6.155E+01   -6.087E+01   -6.019E+01   -5.952E+01   -5.885E+01   -5.818E+01
    -5.752E+01   -5.686E+01   -5.621E+01   -5.556E+01   -5.491E+01   -5.427E+01   -5.363E+01   -5.299E+01   -5.236E+01   -5.173E+01
    -5.110E+01   -5.048E+01   -4.985E+01   -4.924E+01   -4.862E+01   -4.801E+01   -4.739E+01   -4.678E+01   -4.618E+01   -4.557E+01
    -4.497E+01   -4.437E+01   -4.377E+01   -4.317E+01   -4.258E+01   -4.199E+01   -4.139E+01   -4.080E+01   -4.022E+01   -3.963E+01
    -3.904E+01   -3.846E+01   -3.787E+01   -3.729E+01   -3.671E+01   -3.613E+01   -3.555E+01   -3.497E+01   -3.440E+01   -3.382E+01
    -3.325E+01   -3.268E+01   -3.211E+01   -3.155E+01   -3.098E+01   -3.042E+01   -2.986E+01   -2.930E+01   -2.874E+01   -2.819E+01
    -2.764E+01   -2.709E+01   -2.654E+01   -2.600E+01   -2.546E+01   -2.492E+01   -2.438E+01   -2.385E+01   -2.332E+01   -2.279E+01
    -2.227E+01   -2.175E+01   -2.123E+01   -2.072E+01   -2.021E+01   -1.970E+01   -1.920E+01   -1.870E+01   -1.820E+01   -1.771E+01
    -1.722E+01   -1.674E+01   -1.626E+01   -1.578E+01   -1.531E+01   -1.484E+01   -1.437E+01   -1.391E+01   -1.346E+01   -1.301E+01
    -1.256E+01   -1.212E+01   -1.168E+01   -1.124E+01   -1.081E+01   -1.039E+01   -9.966E+00   -9.549E+00   -9.135E+00   -8.726E+00
    -8.320E+00   -7.919E+00   -7.521E+00   -7.128E+00   -6.739E+00   -6.354E+00   -5.973E+00   -5.595E+00   -5.222E+00   -4.853E+00
    -4.487E+00   -4.126E+00   -3.768E+00   -3.414E+00   -3.065E+00   -2.719E+00   -2.376E+00   -2.038E+00   -1.703E+00   -1.372E+00
    -1.045E+00   -7.221E-01   -4.024E-01   -8.653E-02    2.257E-01    5.342E-01    8.391E-01    1.140E+00    1.438E+00    1.732E+00
     2.022E+00    2.309E+00    2.592E+00    2.872E+00    3.148E+00    3.421E+00    3.691E+00    3.957E+00    4.219E+00    4.478E+00
     4.734E+00    4.987E+00    5.236E+00    5.483E+00    5.726E+00    5.965E+00    6.202E+00    6.436E+00    6.667E+00    6.894E+00
     7.119E+00    7.341E+00    7.559E+00    7.775E+00    7.988E+00    8.198E+00    8.406E+00    8.610E+00    8.812E+00    9.012E+00
     9.208E+00    9.402E+00    9.593E+00    9.782E+00    9.968E+00    1.015E+01    1.033E+01    1.051E+01    1.069E+01    1.086E+01
     1.103E+01    1.120E+01    1.137E+01    1.154E+01    1.170E+01    1.186E+01    1.202E+01    1.217E+01    1.233E+01    1.248E+01
     1.263E+01    1.278E+01    1.292E+01    1.307E+01    1.321E+01    1.335E+01    1.349E+01    1.363E+01    1.376E+01    1.390E+01
     1.403E+01    1.416E+01    1.429E+01    1.442E+01    1.455E+01    1.467E+01    1.480E+01    1.492E+01    1.504E+01    1.516E+01
     1.528E+01    1.540E+01    1.552E+01    1.564E+01    1.575E+01    1.587E+01    1.598E+01    1.610E+01    1.621E+01    1.632E+01
     1.644E+01    1.655E+01    1.666E+01    1.677E+01    1.688E+01    1.699E+01    1.710E+01    1.721E+01    1.732E+01    1.742E+01
     1.753E+01    1.764E+01    1.775E+01    1.786E+01    1.797E+01    1.808E+01    1.818E+01    1.829E+01    1.840E+01    1.851E+01
     1.862E+01    1.872E+01    1.883E+01    1.894E+01    1.905E+01    1.915E+01    1.926E+01    1.937E+01    1.947E+01    1.958E+01
     1.968E+01    1.979E+01    1.990E+01    2.000E+01    2.011E+01    2.021E+01    2.031E+01    2.042E+01    2.052E+01    2.062E+01
     2.073E+01    2.083E+01    2.093E+01    2.103E+01    2.113E+01    2.123E+01    2.133E+01    2.143E+01    2.153E+01    2.163E+01
     2.173E+01    2.183E+01    2.192E+01    2.202E+01    2.212E+01    2.221E+01    2.231E+01    2.240E+01    2.249E+01    2.259E+01
     2.268E+01    2.277E+01    2.286E+01    2.295E+01    2.304E+01    2.313E+01    2.322E+01    2.331E+01    2.340E+01    2.348E+01
     2.357E+01    2.366E+01    2.374E+01    2.383E+01    2.391E+01    2.400E+01    2.408E+01    2.416E+01    2.425E+01    2.433E+01
     2.441E+01    2.449E+01    2.458E+01    2.466E+01    2.474E+01    2.482E+01    2.490E+01    2.498E+01    2.505E+01    2.513E+01
     2.521E+01    2.529E+01    2.537E+01    2.544E+01    2.552E+01    2.560E+01    2.567E+01    2.575E+01    2.582E+01    2.590E+01
     2.598E+01    2.605E+01    2.612E+01    2.620E+01    2.627E+01    2.635E+01    2.642E+01    2.649E+01    2.657E+01    2.664E+01
     2.671E+01    2.679E+01    2.686E+01    2.693E+01    2.700E+01    2.708E+01    2.715E+01    2.722E+01    2.730E+01    2.737E+01
     2.744E+01    2.751E+01    2.759E+01    2.766E+01    2.773E+01    2.780E+01    2.788E+01    2.795E+01    2.802E+01    2.810E+01
     2.817E+01    2.824E+01    2.832E+01    2.839E+01    2.847E+01    2.854E+01    2.862E+01    2.869E+01    2.877E+01    2.884E+01
     2.892E+01    2.899E+01    2.907E+01    2.915E+01    2.923E+01    2.930E+01    2.938E+01    2.946E+01
 Ala      Conc. = 7.11E+02
