 LCModel (Version 6.3-1L) Copyright: S.W. Provencher.          Ref.: Magn. Reson. Med. 30:672-679 (1993).                
 Slice#2 Row#1 Col#4  PD_05_press_2_raw_act
 36 lines in following concentration table = NCONC+1
    Conc.  %SD /Cr+PCr  Metabolite                                         
    0.000 999%   0.000 Ala                                                 
   12.390  89%   2.144 Asp                                                 
    0.000 999%   0.000 Cr                                                  
    5.779 999%   1.000 PCr                                                 
    7.412  89%   1.283 GABA                                                
    7.509  88%   1.299 Glc                                                 
  469.076  94%  81.174 Gln                                                 
    0.000 999%   0.000 Glu                                                 
   80.882  48%  13.997 GPC                                                 
    0.000 999%   0.000 PCh                                                 
  189.677  80%  32.824 GSH                                                 
  901.981  49% 156.088 Ins                                                 
  374.893  67%  64.875 Lac                                                 
    0.000 999%   0.000 NAA                                                 
    0.000 999%   0.000 NAAG                                                
    2.501  88%   0.433 Scyllo                                              
   12.492  88%   2.162 Tau                                                 
    0.524 999% 9.1E-02 -CrCH2                                              
   80.882  48%  13.997 GPC+PCh                                             
    0.000 999%   0.000 NAA+NAAG                                            
    5.779 999%   1.000 Cr+PCr                                              
  469.076  94%  81.174 Glu+Gln                                             
 2.21E+03  25% 382.493 Lip13a                                              
    0.000 999%   0.000 Lip13b                                              
  590.332  26% 102.157 Lip09                                               
 1.02E-02 999% 1.8E-03 MM09                                                
  312.047  30%  54.000 Lip20                                               
    0.000 999%   0.000 MM20                                                
 3.47E-03 999% 6.0E-04 MM12                                                
 3.06E-02 999% 5.3E-03 MM14                                                
 1.53E-02 999% 2.7E-03 MM17                                                
 2.21E+03  25% 382.493 Lip13a+Lip13b                                       
 2.21E+03  25% 382.499 MM14+Lip13a+Lip13b+MM12                             
  590.342  26% 102.159 MM09+Lip09                                          
  312.047  30%  54.000 MM20+Lip20                                          
   6 lines in following misc. output table
  FWHM = 0.046 ppm    S/N =   1                                            
  Data shift = 0.099 ppm                                                   
  Ph:-153 deg     -19.3 deg/ppm                                            
  alphaB,S = 8.5E+01,   2.6E+01                                            
   14 spline knots.   Ns = 5(1)                                            
   2 inflections.     1 extrema                                            
  498 points on ppm-axis = NY
      4.000000     3.992357     3.984714     3.977070     3.969427     3.961784     3.954141     3.946497     3.938854     3.931211
      3.923568     3.915925     3.908281     3.900638     3.892995     3.885352     3.877708     3.870065     3.862422     3.854779
      3.847136     3.839492     3.831849     3.824206     3.816563     3.808919     3.801276     3.793633     3.785990     3.778347
      3.770703     3.763060     3.755417     3.747774     3.740130     3.732487     3.724844     3.717201     3.709558     3.701914
      3.694271     3.686628     3.678985     3.671341     3.663698     3.656055     3.648412     3.640769     3.633125     3.625482
      3.617839     3.610196     3.602552     3.594909     3.587266     3.579623     3.571980     3.564336     3.556693     3.549050
      3.541407     3.533763     3.526120     3.518477     3.510834     3.503191     3.495547     3.487904     3.480261     3.472618
      3.464974     3.457331     3.449688     3.442045     3.434402     3.426758     3.419115     3.411472     3.403829     3.396185
      3.388542     3.380899     3.373256     3.365613     3.357969     3.350326     3.342683     3.335040     3.327396     3.319753
      3.312110     3.304467     3.296824     3.289180     3.281537     3.273894     3.266251     3.258607     3.250964     3.243321
      3.235678     3.228034     3.220391     3.212748     3.205105     3.197462     3.189818     3.182175     3.174532     3.166889
      3.159245     3.151602     3.143959     3.136316     3.128673     3.121029     3.113386     3.105743     3.098100     3.090456
      3.082813     3.075170     3.067527     3.059884     3.052240     3.044597     3.036954     3.029311     3.021667     3.014024
      3.006381     2.998738     2.991095     2.983451     2.975808     2.968165     2.960522     2.952878     2.945235     2.937592
      2.929949     2.922306     2.914662     2.907019     2.899376     2.891733     2.884089     2.876446     2.868803     2.861160
      2.853517     2.845873     2.838230     2.830587     2.822944     2.815300     2.807657     2.800014     2.792371     2.784728
      2.777084     2.769441     2.761798     2.754155     2.746511     2.738868     2.731225     2.723582     2.715939     2.708295
      2.700652     2.693009     2.685366     2.677722     2.670079     2.662436     2.654793     2.647150     2.639506     2.631863
      2.624220     2.616577     2.608933     2.601290     2.593647     2.586004     2.578361     2.570717     2.563074     2.555431
      2.547788     2.540144     2.532501     2.524858     2.517215     2.509572     2.501928     2.494285     2.486642     2.478999
      2.471355     2.463712     2.456069     2.448426     2.440783     2.433139     2.425496     2.417853     2.410210     2.402566
      2.394923     2.387280     2.379637     2.371994     2.364350     2.356707     2.349064     2.341421     2.333777     2.326134
      2.318491     2.310848     2.303205     2.295561     2.287918     2.280275     2.272632     2.264988     2.257345     2.249702
      2.242059     2.234416     2.226772     2.219129     2.211486     2.203843     2.196199     2.188556     2.180913     2.173270
      2.165627     2.157983     2.150340     2.142697     2.135054     2.127410     2.119767     2.112124     2.104481     2.096838
      2.089194     2.081551     2.073908     2.066265     2.058621     2.050978     2.043335     2.035692     2.028049     2.020405
      2.012762     2.005119     1.997476     1.989833     1.982190     1.974546     1.966903     1.959260     1.951617     1.943974
      1.936331     1.928688     1.921045     1.913402     1.905759     1.898115     1.890472     1.882829     1.875186     1.867543
      1.859900     1.852257     1.844614     1.836971     1.829327     1.821684     1.814041     1.806398     1.798755     1.791112
      1.783469     1.775826     1.768183     1.760540     1.752896     1.745253     1.737610     1.729967     1.722324     1.714681
      1.707038     1.699395     1.691752     1.684108     1.676465     1.668822     1.661179     1.653536     1.645893     1.638250
      1.630607     1.622964     1.615321     1.607677     1.600034     1.592391     1.584748     1.577105     1.569462     1.561819
      1.554176     1.546533     1.538890     1.531246     1.523603     1.515960     1.508317     1.500674     1.493031     1.485388
      1.477745     1.470102     1.462458     1.454815     1.447172     1.439529     1.431886     1.424243     1.416600     1.408957
      1.401314     1.393671     1.386027     1.378384     1.370741     1.363098     1.355455     1.347812     1.340169     1.332526
      1.324883     1.317240     1.309596     1.301953     1.294310     1.286667     1.279024     1.271381     1.263738     1.256095
      1.248452     1.240808     1.233165     1.225522     1.217879     1.210236     1.202593     1.194950     1.187307     1.179664
      1.172021     1.164377     1.156734     1.149091     1.141448     1.133805     1.126162     1.118519     1.110876     1.103233
      1.095590     1.087946     1.080303     1.072660     1.065017     1.057374     1.049731     1.042088     1.034445     1.026802
      1.019158     1.011515     1.003872     0.996229     0.988586     0.980943     0.973300     0.965657     0.958014     0.950371
      0.942727     0.935084     0.927441     0.919798     0.912155     0.904512     0.896869     0.889226     0.881583     0.873940
      0.866296     0.858653     0.851010     0.843367     0.835724     0.828081     0.820438     0.812795     0.805152     0.797508
      0.789865     0.782222     0.774579     0.766936     0.759293     0.751650     0.744007     0.736364     0.728721     0.721077
      0.713434     0.705791     0.698148     0.690505     0.682862     0.675219     0.667576     0.659933     0.652290     0.644646
      0.637003     0.629360     0.621717     0.614074     0.606431     0.598788     0.591145     0.583502     0.575858     0.568215
      0.560572     0.552929     0.545286     0.537643     0.530000     0.522357     0.514714     0.507071     0.499427     0.491784
      0.484141     0.476498     0.468855     0.461212     0.453569     0.445925     0.438282     0.430639     0.422996     0.415353
      0.407710     0.400067     0.392424     0.384780     0.377137     0.369494     0.361851     0.354208     0.346565     0.338922
      0.331278     0.323635     0.315992     0.308349     0.300706     0.293063     0.285420     0.277777     0.270133     0.262490
      0.254847     0.247204     0.239561     0.231918     0.224275     0.216631     0.208988     0.201345
 NY phased data points follow
  -1.72148E+00  1.92278E+01  2.82117E+00  7.07967E+00  3.51184E-01  1.83086E+01 -6.11438E+00 -1.36985E+01 -1.54346E+00  6.98227E+00
   8.22909E+00  5.13077E+00  1.37088E+01  1.65243E+01  8.73962E-01 -8.23407E+00 -4.86704E+00  9.37169E+00  1.11515E+01  6.59294E+00
   9.00394E+00 -1.14467E+01  1.78515E+01  1.40438E+01  6.57360E+00  5.50194E+00  1.00658E+01  1.24491E+01  1.32850E+01  8.46841E+00
   7.27958E+00  3.58907E+00  1.14307E+01  1.45746E+01 -4.96231E+00  5.48095E+00  8.71453E+00  8.43322E+00  7.01465E+00  1.42975E+01
   5.34383E+00  9.15784E+00  2.51183E+00  1.62235E+01 -6.21667E+00  1.77961E+00 -9.38558E+00  1.06912E+01  3.51697E+00 -1.14965E+00
   5.39633E+00  1.47501E+01  1.30332E+01 -7.80495E-02  5.13390E+00  6.20642E+00  6.08900E+00  1.07243E+01 -3.92891E+00  4.09223E+00
  -1.55185E+00  7.09401E+00  6.88056E+00 -2.60969E+00 -5.62968E+00  5.49943E+00  3.00409E+00  1.28266E+01  6.05003E+00 -1.36191E+00
   9.89721E+00  3.10927E+00  5.46025E+00  3.36656E+00  2.98716E+00  2.40007E+00 -1.35305E+00  1.50402E+01 -1.16802E+01  4.80231E+00
   1.92861E+00  6.80176E+00  1.18570E+01  4.24210E+00  9.89214E+00  1.74925E+01 -5.18173E+00  3.69850E+00 -8.45486E-01 -9.10151E+00
   9.01813E+00  1.56242E-01 -1.36616E+01 -9.24253E+00 -8.73126E+00  4.58815E+00  1.21104E+01  8.43507E+00 -1.67256E+00  1.79465E+00
   4.64563E+00  1.56293E+01 -4.12897E+00  7.05443E+00  9.50004E+00 -4.63520E+00  1.20923E+01  1.66235E+01 -1.83663E+00  2.63643E+00
   8.60273E+00  1.35395E+01  1.02815E+01  2.08127E+01 -7.05881E+00  4.57201E+00 -9.38741E+00  7.53150E+00 -7.12590E+00 -7.63223E+00
   1.52733E+00  3.81630E+00 -9.71060E+00  3.69663E+00  1.96279E+01  5.20566E+00 -5.61833E+00 -3.16309E+00  1.86627E+00  2.11219E+00
  -1.04305E+01 -5.71848E-01  8.51729E+00 -6.80693E+00  1.19220E+00  1.38796E+01 -5.21573E+00  5.64405E+00  5.98717E+00  2.25099E-01
  -1.19710E+01  1.17500E+01 -1.93906E+00 -4.74716E+00  2.71268E+00  1.21547E+00 -3.63470E+00 -6.52770E+00 -7.41487E+00 -6.17034E+00
  -1.07460E+01  7.82290E+00  5.39998E+00 -9.93847E-01 -6.17646E+00  1.83531E+01 -9.59342E+00 -1.10280E+01  4.72859E+00 -7.26273E+00
   5.05880E+00  5.61802E+00  7.62811E+00 -2.41961E+00  8.58715E+00 -3.67804E-01 -5.14305E-01  6.44656E+00 -1.78153E+00 -2.00316E-01
   2.84755E+00  2.57536E+00 -7.53916E+00  4.64833E+00 -4.77600E+00 -4.15513E+00 -1.28216E+01 -1.77923E+01 -5.00653E+00 -3.44786E+00
   8.24364E+00  6.60916E+00 -5.83263E+00  9.78950E+00  4.42171E-01  9.90195E+00  2.07944E+00 -5.78633E+00  1.00287E+01 -7.52785E+00
   9.94324E+00 -4.15896E-01  1.21511E+01 -5.37583E+00 -1.21340E+01  5.18660E+00 -4.75365E+00 -9.20770E-01  1.31476E+00  1.14154E+01
   1.00532E+01  3.83153E+00  4.89764E+00  2.21342E+00  9.32469E+00 -3.85432E-01  1.17493E+01 -2.21729E+00  1.25352E+01 -6.29878E+00
   9.29208E+00 -3.74494E+00 -1.40545E+00  9.91325E+00 -1.19622E+01  5.14541E+00  6.54858E+00  1.18467E+00 -6.29847E+00  5.81521E+00
  -7.55693E+00 -2.79454E+00  8.24168E+00  1.09929E+00 -1.83883E+01  1.15716E+01  9.89989E+00 -1.01333E+00 -7.85242E+00 -8.31436E+00
  -1.50455E+01  8.27906E-01  8.17053E+00 -8.40042E+00  1.19923E+00  9.55410E-01 -1.50501E+01 -1.63701E+00  9.13847E+00  1.78664E+01
   7.28938E+00  5.68529E+00 -1.58319E+00 -6.79820E+00 -2.00362E+00 -5.55859E+00  2.22442E+00 -1.44003E+01 -8.67327E+00 -1.43373E+01
  -1.55592E+01 -6.80448E+00 -2.32104E+00 -1.18996E+01 -1.36465E+00 -1.32562E-01 -1.98956E+01 -8.73578E+00 -9.53342E+00 -1.22045E+01
  -5.30251E+00 -1.58866E+01  2.44896E+00 -2.47073E+00  1.10320E+01 -4.06878E+00 -2.08440E+01 -3.80022E+00  1.04177E+00 -1.92778E+01
   2.22864E+00 -4.67643E-01 -3.11818E+00 -7.35805E+00  1.15944E+01 -7.61418E+00  1.08331E+00  5.84941E+00 -4.37338E-01  1.98413E+00
   1.27199E+00  9.89600E-01  6.78477E-01 -2.30145E+01 -2.23195E+00  1.74446E+00 -4.77826E+00  1.17790E+01  6.27286E+00 -6.19688E+00
  -5.90727E+00  1.20460E+00  1.45301E+00 -1.88458E+00 -5.79681E+00  9.24418E+00 -3.30802E+00  1.10494E+01 -7.90118E+00  6.86639E+00
   1.43851E+01  3.27174E+00  2.00900E+01  4.97311E-01 -6.74164E+00 -7.03546E+00  2.94584E+00  4.36202E+00  1.24619E+01 -1.37395E+00
   1.93218E+00  8.90401E+00  1.84122E+01 -1.09981E+01 -1.26454E+01  7.71678E+00  5.49534E+00 -2.26725E+00  2.63125E+00  2.77276E+00
   1.43937E+01  7.54695E+00 -6.65902E+00  6.82040E+00  6.02936E+00 -3.44641E+00  1.61234E+01  8.97113E+00 -2.90578E+00  1.19882E+01
   7.17030E+00  2.17483E+01 -1.47074E+01  1.95153E+01  1.32705E+01  1.20932E+01  1.90572E+01  1.43491E+00 -8.26233E+00 -8.37798E+00
   3.56717E-01  6.72594E+00  1.13796E+01 -7.42222E+00  4.43284E+00  1.08065E+01  1.35822E+01  2.44783E+00  1.64240E+01  3.35055E+01
  -5.13432E-01  1.99697E+01  7.59572E+00 -1.45929E-01 -1.05310E+00  5.85259E+00  1.49928E+01 -1.46495E+00  1.10659E+01  2.25098E+00
   1.53574E+01  1.96124E+01  5.58705E+00  1.09783E+01  1.69514E+01  1.43355E+01  7.62515E+00  8.70285E+00  1.01612E+01  5.18626E+00
   1.17100E+01 -1.40487E+00 -1.90686E-01  5.17583E+00 -1.96865E+00  7.73718E+00  1.35336E+01  9.69115E+00 -7.36592E+00  1.30066E+01
   3.69481E+00 -2.56600E+00  2.81543E+00 -4.35925E+00 -3.63135E-01 -3.24045E+00 -4.04061E+00  6.57673E+00  5.62178E+00 -4.58564E-01
  -1.20476E+00 -2.42231E+00  9.83065E+00 -6.28509E-01  1.04019E+01  9.98475E+00  1.17846E+01  6.15500E+00  1.46897E+01  1.92578E+00
   2.09375E+01  1.53689E+01  1.57574E+01  1.44525E+00 -1.07876E+01 -4.41950E+00  7.63655E+00 -1.41590E+00  2.06389E-01 -3.97207E+00
   9.86329E+00  1.80712E+00  3.90338E+00 -6.95368E+00  7.12949E+00 -6.05419E+00  3.21974E+00 -4.07006E+00  1.81265E-01 -1.08173E+01
  -5.30424E+00 -9.27498E-01  4.21467E+00 -1.26751E+00  7.48061E+00 -1.31693E+01 -2.07660E+00 -1.66315E+00 -6.23791E+00 -8.58344E+00
  -7.40016E+00  4.92035E+00  1.00201E+01  7.46823E+00  1.12259E+01  7.72306E+00 -4.16277E+00  1.81143E+00 -2.18225E+00 -1.04375E+01
  -5.37549E+00 -8.31284E+00  8.32589E+00  5.06442E+00 -2.62260E+00 -1.96759E+00  2.11097E+01  2.52979E+00 -1.08663E+01  7.18275E+00
   2.21602E+01  9.89815E+00 -9.42990E-01  2.70347E+00 -6.16714E+00  9.83635E-01  1.10428E+00 -6.06079E+00 -1.03535E+01  8.67326E-01
   4.83525E+00  1.06668E+01  8.07298E-01  6.58969E+00  5.26298E+00  9.08557E+00  5.86104E+00 -4.39561E+00 -4.27623E+00 -1.41715E+00
  -6.20099E-01 -2.24253E+00 -1.02355E+01 -3.51665E+00  2.01423E+00 -1.21777E+01 -2.18071E+00  1.38683E+00 -1.12029E-01  1.25681E+00
  -7.59062E+00 -6.06569E+00 -1.29382E+01 -6.77793E+00  9.16828E+00  5.09303E+00 -5.25800E+00  5.89144E+00  4.55168E+00 -2.90069E-01
  -1.03776E+01  3.49904E+00 -7.50162E+00  1.32391E+00  1.09354E+01  1.46241E+00  1.06107E+01  3.57898E+00
 NY points of the fit to the data follow
   4.36433E+00  3.57976E+00  2.89570E+00  2.58501E+00  2.59409E+00  2.65267E+00  2.69477E+00  2.74753E+00  2.80549E+00  2.85469E+00
   2.88399E+00  2.88671E+00  2.86702E+00  2.83744E+00  2.81263E+00  2.81234E+00  2.84280E+00  2.87824E+00  2.91438E+00  2.95247E+00
   2.98163E+00  2.95608E+00  2.86385E+00  2.73378E+00  2.63696E+00  2.71840E+00  2.99390E+00  3.49228E+00  4.23217E+00  5.19825E+00
   6.34279E+00  7.51126E+00  8.49113E+00  8.84313E+00  8.21120E+00  6.66089E+00  4.82752E+00  3.56510E+00  2.84865E+00  2.63047E+00
   2.71715E+00  2.82855E+00  2.92776E+00  3.13277E+00  3.63001E+00  4.55358E+00  5.83601E+00  7.12452E+00  8.19036E+00  8.90737E+00
   9.07854E+00  8.38823E+00  6.64804E+00  4.19077E+00  2.02729E+00  1.10932E+00  1.31822E+00  2.01961E+00  2.80196E+00  3.55014E+00
   4.18907E+00  4.63897E+00  4.85829E+00  4.82065E+00  4.45687E+00  3.72803E+00  2.88208E+00  2.32429E+00  2.19541E+00  2.49671E+00
   3.02859E+00  3.58141E+00  4.01565E+00  4.24835E+00  4.29593E+00  4.21636E+00  4.01123E+00  3.68448E+00  3.27797E+00  2.99353E+00
   2.85589E+00  2.77040E+00  2.66531E+00  2.48964E+00  2.20876E+00  1.81941E+00  1.34413E+00  8.12317E-01  2.69041E-01 -2.13228E-01
  -5.45861E-01 -6.06511E-01 -2.72948E-01  4.20348E-01  1.19772E+00  1.80095E+00  2.12253E+00  2.28859E+00  2.59305E+00  3.09253E+00
   3.75015E+00  4.57672E+00  5.57060E+00  6.72786E+00  7.88590E+00  8.61057E+00  8.48348E+00  7.16589E+00  4.82109E+00  2.49507E+00
   1.45156E+00  1.23318E+00  1.15919E+00  1.14300E+00  1.14603E+00  1.14726E+00  1.13262E+00  1.09904E+00  1.04930E+00  9.93147E-01
   9.42883E-01  9.09203E-01  9.04267E-01  9.32636E-01  1.00371E+00  1.11627E+00  1.25011E+00  1.38286E+00  1.52664E+00  1.68407E+00
   1.81527E+00  1.89571E+00  1.92003E+00  1.88108E+00  1.79254E+00  1.63024E+00  1.37647E+00  1.05086E+00  7.04784E-01  4.93679E-01
   6.16534E-01  1.07281E+00  1.61140E+00  2.04979E+00  2.28770E+00  2.27100E+00  2.07610E+00  1.82024E+00  1.60465E+00  1.49414E+00
   1.42394E+00  1.36575E+00  1.31129E+00  1.25699E+00  1.20294E+00  1.16072E+00  1.14593E+00  1.15008E+00  1.16472E+00  1.18452E+00
   1.19785E+00  1.18820E+00  1.15216E+00  1.11283E+00  1.08293E+00  1.05989E+00  1.03985E+00  1.02121E+00  1.00812E+00  1.00270E+00
   1.00198E+00  9.98757E-01  9.85384E-01  9.58335E-01  9.22627E-01  8.79766E-01  8.27013E-01  7.62602E-01  6.89693E-01  6.21890E-01
   5.64950E-01  5.15327E-01  4.63909E-01  4.08832E-01  3.59655E-01  3.34707E-01  3.54997E-01  4.34948E-01  5.69031E-01  7.38392E-01
   9.28501E-01  1.08510E+00  1.09830E+00  9.10927E-01  5.28040E-01 -2.26665E-02 -6.26165E-01 -1.08077E+00 -1.20715E+00 -9.30906E-01
  -2.84413E-01  6.22060E-01  1.66697E+00  2.55921E+00  2.97602E+00  2.75816E+00  2.05390E+00  1.06520E+00  3.97692E-02 -8.29362E-01
  -1.49503E+00 -1.88065E+00 -1.77750E+00 -1.14508E+00 -6.73852E-02  1.20899E+00  2.17273E+00  2.41790E+00  2.29779E+00  2.21351E+00
   2.16712E+00  2.11845E+00  2.07446E+00  2.04216E+00  2.01771E+00  1.99110E+00  1.94059E+00  1.84337E+00  1.70382E+00  1.53906E+00
   1.35527E+00  1.12592E+00  8.85888E-01  7.02308E-01  6.18421E-01  6.80353E-01  9.26641E-01  1.29628E+00  1.60666E+00  1.78937E+00
   1.94227E+00  2.04730E+00  1.86462E+00  1.24040E+00  4.95459E-01 -1.27314E-01 -6.15272E-01 -7.91113E-01 -4.86644E-01  9.81424E-02
   6.24921E-01  1.05658E+00  1.40628E+00  1.67082E+00  1.81452E+00  1.80498E+00  1.62397E+00  1.35936E+00  1.13275E+00  9.63874E-01
   8.49052E-01  8.01451E-01  8.22848E-01  8.82518E-01  9.49568E-01  1.01083E+00  1.02059E+00  9.99110E-01  9.66138E-01  9.26581E-01
   8.81684E-01  8.35661E-01  7.93735E-01  7.56400E-01  7.23902E-01  6.96964E-01  6.72858E-01  6.48777E-01  6.25205E-01  6.02261E-01
   5.79273E-01  5.55641E-01  5.31999E-01  5.11732E-01  4.96795E-01  4.85984E-01  4.78723E-01  4.75574E-01  4.75299E-01  4.76070E-01
   4.76716E-01  4.76388E-01  4.75643E-01  4.75325E-01  4.75242E-01  4.75305E-01  4.76301E-01  4.78821E-01  4.82446E-01  4.87313E-01
   4.93972E-01  5.02185E-01  5.11732E-01  5.22563E-01  5.34784E-01  5.48559E-01  5.64034E-01  5.81299E-01  6.00437E-01  6.21555E-01
   6.44740E-01  6.70051E-01  6.97684E-01  7.27993E-01  7.61196E-01  7.97658E-01  8.37825E-01  8.82130E-01  9.30975E-01  9.84805E-01
   1.04420E+00  1.10990E+00  1.18276E+00  1.26361E+00  1.35336E+00  1.45303E+00  1.56389E+00  1.68741E+00  1.82517E+00  1.97875E+00
   2.14986E+00  2.34044E+00  2.55269E+00  2.78906E+00  3.05207E+00  3.34437E+00  3.66909E+00  4.03026E+00  4.43349E+00  4.88726E+00
   5.40642E+00  6.02340E+00  6.81994E+00  7.82306E+00  8.82930E+00  9.70176E+00  1.03286E+01  1.06193E+01  1.04610E+01  9.69676E+00
   8.34618E+00  6.63798E+00  4.88811E+00  3.81353E+00  4.21939E+00  5.99630E+00  8.02238E+00  9.98832E+00  1.17669E+01  1.29910E+01
   1.31228E+01  1.19930E+01  1.04428E+01  9.39613E+00  8.65262E+00  8.03043E+00  7.46951E+00  6.94711E+00  6.45434E+00  5.98808E+00
   5.54767E+00  5.13349E+00  4.74649E+00  4.38777E+00  4.05830E+00  3.75856E+00  3.48857E+00  3.24800E+00  3.03644E+00  2.85342E+00
   2.69834E+00  2.57040E+00  2.46869E+00  2.39233E+00  2.34056E+00  2.31273E+00  2.30807E+00  2.32566E+00  2.36440E+00  2.42314E+00
   2.50054E+00  2.59501E+00  2.70452E+00  2.82656E+00  2.95823E+00  3.09631E+00  3.23726E+00  3.37722E+00  3.51201E+00  3.63733E+00
   3.74896E+00  3.84300E+00  3.91590E+00  3.96460E+00  3.98665E+00  3.98035E+00  3.94493E+00  3.88055E+00  3.78821E+00  3.66966E+00
   3.52733E+00  3.36427E+00  3.18400E+00  2.99035E+00  2.78718E+00  2.57826E+00  2.36715E+00  2.15713E+00  1.95113E+00  1.75164E+00
   1.56059E+00  1.37940E+00  1.20906E+00  1.05018E+00  9.03022E-01  7.67528E-01  6.43338E-01  5.29892E-01  4.26537E-01  3.32580E-01
   2.47287E-01  1.69879E-01  9.95553E-02  3.55594E-02 -2.27724E-02 -7.60248E-02 -1.24744E-01 -1.69462E-01 -2.10672E-01 -2.48784E-01
  -2.84124E-01 -3.16967E-01 -3.47584E-01 -3.76245E-01 -4.03188E-01 -4.28585E-01 -4.52560E-01 -4.75229E-01 -4.96732E-01 -5.17213E-01
  -5.36779E-01 -5.55493E-01 -5.73398E-01 -5.90554E-01 -6.07047E-01 -6.22959E-01 -6.38332E-01 -6.53178E-01 -6.67516E-01 -6.81391E-01
  -6.94868E-01 -7.07990E-01 -7.20764E-01 -7.33185E-01 -7.45265E-01 -7.57047E-01 -7.68576E-01 -7.79869E-01 -7.90916E-01 -8.01710E-01
  -8.12273E-01 -8.22646E-01 -8.32854E-01 -8.42894E-01 -8.52747E-01 -8.62413E-01 -8.71920E-01 -8.81301E-01 -8.90566E-01 -8.99697E-01
  -9.08679E-01 -9.17525E-01 -9.26264E-01 -9.34918E-01 -9.43479E-01 -9.51927E-01 -9.60256E-01 -9.68486E-01 -9.76645E-01 -9.84740E-01
  -9.92752E-01 -1.00066E+00 -1.00848E+00 -1.01623E+00 -1.02393E+00 -1.03156E+00 -1.03912E+00 -1.04658E+00
 NY background values follow
     1.567E+00    1.562E+00    1.556E+00    1.551E+00    1.545E+00    1.540E+00    1.534E+00    1.529E+00    1.523E+00    1.518E+00
     1.512E+00    1.507E+00    1.501E+00    1.496E+00    1.490E+00    1.485E+00    1.479E+00    1.474E+00    1.468E+00    1.463E+00
     1.457E+00    1.452E+00    1.446E+00    1.441E+00    1.435E+00    1.430E+00    1.424E+00    1.419E+00    1.413E+00    1.408E+00
     1.402E+00    1.397E+00    1.391E+00    1.386E+00    1.380E+00    1.375E+00    1.369E+00    1.364E+00    1.358E+00    1.353E+00
     1.347E+00    1.342E+00    1.336E+00    1.331E+00    1.325E+00    1.320E+00    1.314E+00    1.309E+00    1.303E+00    1.298E+00
     1.292E+00    1.287E+00    1.281E+00    1.276E+00    1.270E+00    1.264E+00    1.259E+00    1.253E+00    1.248E+00    1.242E+00
     1.237E+00    1.231E+00    1.226E+00    1.220E+00    1.215E+00    1.209E+00    1.204E+00    1.198E+00    1.193E+00    1.187E+00
     1.182E+00    1.176E+00    1.171E+00    1.165E+00    1.160E+00    1.154E+00    1.149E+00    1.143E+00    1.138E+00    1.132E+00
     1.127E+00    1.121E+00    1.116E+00    1.110E+00    1.105E+00    1.099E+00    1.094E+00    1.088E+00    1.083E+00    1.077E+00
     1.072E+00    1.066E+00    1.061E+00    1.055E+00    1.050E+00    1.044E+00    1.039E+00    1.033E+00    1.028E+00    1.022E+00
     1.017E+00    1.011E+00    1.006E+00    1.000E+00    9.945E-01    9.890E-01    9.835E-01    9.780E-01    9.725E-01    9.670E-01
     9.615E-01    9.560E-01    9.505E-01    9.450E-01    9.395E-01    9.339E-01    9.284E-01    9.229E-01    9.174E-01    9.119E-01
     9.064E-01    9.009E-01    8.954E-01    8.899E-01    8.844E-01    8.789E-01    8.733E-01    8.678E-01    8.623E-01    8.568E-01
     8.513E-01    8.458E-01    8.403E-01    8.348E-01    8.293E-01    8.238E-01    8.183E-01    8.128E-01    8.072E-01    8.017E-01
     7.962E-01    7.907E-01    7.852E-01    7.797E-01    7.742E-01    7.687E-01    7.632E-01    7.577E-01    7.522E-01    7.467E-01
     7.411E-01    7.356E-01    7.301E-01    7.246E-01    7.191E-01    7.136E-01    7.081E-01    7.026E-01    6.971E-01    6.916E-01
     6.861E-01    6.806E-01    6.750E-01    6.695E-01    6.640E-01    6.585E-01    6.530E-01    6.475E-01    6.420E-01    6.365E-01
     6.310E-01    6.255E-01    6.200E-01    6.145E-01    6.089E-01    6.034E-01    5.979E-01    5.924E-01    5.869E-01    5.814E-01
     5.759E-01    5.704E-01    5.649E-01    5.594E-01    5.539E-01    5.484E-01    5.429E-01    5.373E-01    5.318E-01    5.263E-01
     5.208E-01    5.153E-01    5.098E-01    5.043E-01    4.988E-01    4.933E-01    4.878E-01    4.823E-01    4.768E-01    4.712E-01
     4.657E-01    4.602E-01    4.547E-01    4.492E-01    4.437E-01    4.382E-01    4.327E-01    4.272E-01    4.217E-01    4.162E-01
     4.107E-01    4.052E-01    3.997E-01    3.941E-01    3.886E-01    3.831E-01    3.776E-01    3.721E-01    3.666E-01    3.611E-01
     3.556E-01    3.501E-01    3.446E-01    3.391E-01    3.336E-01    3.281E-01    3.225E-01    3.170E-01    3.115E-01    3.060E-01
     3.005E-01    2.950E-01    2.895E-01    2.840E-01    2.785E-01    2.730E-01    2.675E-01    2.620E-01    2.565E-01    2.510E-01
     2.455E-01    2.399E-01    2.344E-01    2.289E-01    2.234E-01    2.179E-01    2.124E-01    2.069E-01    2.014E-01    1.959E-01
     1.904E-01    1.849E-01    1.794E-01    1.739E-01    1.684E-01    1.628E-01    1.573E-01    1.518E-01    1.463E-01    1.408E-01
     1.353E-01    1.298E-01    1.243E-01    1.188E-01    1.133E-01    1.078E-01    1.023E-01    9.677E-02    9.127E-02    8.576E-02
     8.025E-02    7.475E-02    6.924E-02    6.373E-02    5.823E-02    5.272E-02    4.722E-02    4.171E-02    3.620E-02    3.070E-02
     2.519E-02    1.968E-02    1.418E-02    8.673E-03    3.167E-03   -2.339E-03   -7.845E-03   -1.335E-02   -1.886E-02   -2.436E-02
    -2.987E-02   -3.538E-02   -4.088E-02   -4.639E-02   -5.189E-02   -5.740E-02   -6.290E-02   -6.841E-02   -7.392E-02   -7.942E-02
    -8.493E-02   -9.043E-02   -9.594E-02   -1.014E-01   -1.070E-01   -1.125E-01   -1.180E-01   -1.235E-01   -1.290E-01   -1.345E-01
    -1.400E-01   -1.455E-01   -1.510E-01   -1.565E-01   -1.620E-01   -1.675E-01   -1.730E-01   -1.785E-01   -1.840E-01   -1.895E-01
    -1.950E-01   -2.005E-01   -2.061E-01   -2.116E-01   -2.171E-01   -2.226E-01   -2.281E-01   -2.336E-01   -2.391E-01   -2.446E-01
    -2.501E-01   -2.556E-01   -2.611E-01   -2.666E-01   -2.721E-01   -2.776E-01   -2.831E-01   -2.886E-01   -2.941E-01   -2.996E-01
    -3.052E-01   -3.107E-01   -3.162E-01   -3.217E-01   -3.272E-01   -3.327E-01   -3.382E-01   -3.437E-01   -3.492E-01   -3.547E-01
    -3.602E-01   -3.657E-01   -3.712E-01   -3.767E-01   -3.822E-01   -3.877E-01   -3.932E-01   -3.987E-01   -4.042E-01   -4.098E-01
    -4.153E-01   -4.208E-01   -4.263E-01   -4.318E-01   -4.373E-01   -4.428E-01   -4.483E-01   -4.538E-01   -4.593E-01   -4.648E-01
    -4.703E-01   -4.758E-01   -4.813E-01   -4.868E-01   -4.923E-01   -4.978E-01   -5.033E-01   -5.088E-01   -5.144E-01   -5.199E-01
    -5.254E-01   -5.309E-01   -5.364E-01   -5.419E-01   -5.474E-01   -5.529E-01   -5.584E-01   -5.639E-01   -5.694E-01   -5.749E-01
    -5.804E-01   -5.859E-01   -5.914E-01   -5.969E-01   -6.024E-01   -6.079E-01   -6.134E-01   -6.189E-01   -6.245E-01   -6.300E-01
    -6.355E-01   -6.410E-01   -6.465E-01   -6.520E-01   -6.575E-01   -6.630E-01   -6.685E-01   -6.740E-01   -6.795E-01   -6.850E-01
    -6.905E-01   -6.960E-01   -7.015E-01   -7.070E-01   -7.125E-01   -7.180E-01   -7.235E-01   -7.290E-01   -7.346E-01   -7.401E-01
    -7.456E-01   -7.511E-01   -7.566E-01   -7.621E-01   -7.676E-01   -7.731E-01   -7.786E-01   -7.841E-01   -7.896E-01   -7.951E-01
    -8.006E-01   -8.061E-01   -8.116E-01   -8.171E-01   -8.226E-01   -8.281E-01   -8.336E-01   -8.391E-01   -8.447E-01   -8.502E-01
    -8.557E-01   -8.612E-01   -8.667E-01   -8.722E-01   -8.777E-01   -8.832E-01   -8.887E-01   -8.942E-01   -8.997E-01   -9.052E-01
    -9.107E-01   -9.162E-01   -9.217E-01   -9.272E-01   -9.327E-01   -9.382E-01   -9.437E-01   -9.492E-01   -9.547E-01   -9.603E-01
    -9.658E-01   -9.713E-01   -9.768E-01   -9.823E-01   -9.878E-01   -9.933E-01   -9.988E-01   -1.004E+00   -1.010E+00   -1.015E+00
    -1.021E+00   -1.026E+00   -1.032E+00   -1.037E+00   -1.043E+00   -1.048E+00   -1.054E+00   -1.059E+00   -1.065E+00   -1.070E+00
    -1.076E+00   -1.081E+00   -1.087E+00   -1.092E+00   -1.098E+00   -1.103E+00   -1.109E+00   -1.114E+00   -1.120E+00   -1.125E+00
    -1.131E+00   -1.136E+00   -1.142E+00   -1.147E+00   -1.153E+00   -1.158E+00   -1.164E+00   -1.169E+00
 Asp      Conc. = 1.24E+01
