 LCModel (Version 6.3-1L) Copyright: S.W. Provencher.          Ref.: Magn. Reson. Med. 30:672-679 (1993).                
 Slice#3 Row#4 Col#8  PD_05_press_2_raw_act
 36 lines in following concentration table = NCONC+1
    Conc.  %SD /Cr+PCr  Metabolite                                         
    0.000 999%   0.000 Ala                                                 
  174.127 269% 6.0E-02 Asp                                                 
  228.235 255% 7.8E-02 Cr                                                  
 2.69E+03  23%   0.922 PCr                                                 
   48.346 625% 1.7E-02 GABA                                                
  336.349  92%   0.115 Glc                                                 
  762.749  65%   0.262 Gln                                                 
 2.82E+03  21%   0.967 Glu                                                 
  976.175  50%   0.335 GPC                                                 
  216.274 226% 7.4E-02 PCh                                                 
  653.378  27%   0.224 GSH                                                 
 1.45E+03  41%   0.497 Ins                                                 
  257.518 103% 8.8E-02 Lac                                                 
 3.34E+03   7%   1.146 NAA                                                 
  727.544  34%   0.250 NAAG                                                
  207.628  30% 7.1E-02 Scyllo                                              
  416.473 110%   0.143 Tau                                                 
 1.12E+03  27%   0.384 -CrCH2                                              
 1.19E+03   5%   0.409 GPC+PCh                                             
 4.07E+03   5%   1.396 NAA+NAAG                                            
 2.91E+03   5%   1.000 Cr+PCr                                              
 3.58E+03  22%   1.229 Glu+Gln                                             
 3.37E+03  34%   1.156 Lip13a                                              
    0.000 999%   0.000 Lip13b                                              
  396.073 146%   0.136 Lip09                                               
 2.15E+03  30%   0.738 MM09                                                
  569.807  72%   0.196 Lip20                                               
 4.46E+03  21%   1.530 MM20                                                
  763.452  54%   0.262 MM12                                                
 2.97E+03  30%   1.018 MM14                                                
 2.10E+03  29%   0.721 MM17                                                
 3.37E+03  34%   1.156 Lip13a+Lip13b                                       
 7.10E+03  15%   2.436 MM14+Lip13a+Lip13b+MM12                             
 2.54E+03  18%   0.873 MM09+Lip09                                          
 5.03E+03  18%   1.725 MM20+Lip20                                          
   6 lines in following misc. output table
  FWHM = 0.046 ppm    S/N =   8                                            
  Data shift = 0.038 ppm                                                   
  Ph: -59 deg     -14.5 deg/ppm                                            
  alphaB,S = 2.7E+00,   4.7E+01                                            
   14 spline knots.   Ns = 6(1)                                            
  ( 5) 2 infls.   ( 3) 1 extrs.                                            
  498 points on ppm-axis = NY
      4.000000     3.992357     3.984714     3.977070     3.969427     3.961784     3.954141     3.946497     3.938854     3.931211
      3.923568     3.915925     3.908281     3.900638     3.892995     3.885352     3.877708     3.870065     3.862422     3.854779
      3.847136     3.839492     3.831849     3.824206     3.816563     3.808919     3.801276     3.793633     3.785990     3.778347
      3.770703     3.763060     3.755417     3.747774     3.740130     3.732487     3.724844     3.717201     3.709558     3.701914
      3.694271     3.686628     3.678985     3.671341     3.663698     3.656055     3.648412     3.640769     3.633125     3.625482
      3.617839     3.610196     3.602552     3.594909     3.587266     3.579623     3.571980     3.564336     3.556693     3.549050
      3.541407     3.533763     3.526120     3.518477     3.510834     3.503191     3.495547     3.487904     3.480261     3.472618
      3.464974     3.457331     3.449688     3.442045     3.434402     3.426758     3.419115     3.411472     3.403829     3.396185
      3.388542     3.380899     3.373256     3.365613     3.357969     3.350326     3.342683     3.335040     3.327396     3.319753
      3.312110     3.304467     3.296824     3.289180     3.281537     3.273894     3.266251     3.258607     3.250964     3.243321
      3.235678     3.228034     3.220391     3.212748     3.205105     3.197462     3.189818     3.182175     3.174532     3.166889
      3.159245     3.151602     3.143959     3.136316     3.128673     3.121029     3.113386     3.105743     3.098100     3.090456
      3.082813     3.075170     3.067527     3.059884     3.052240     3.044597     3.036954     3.029311     3.021667     3.014024
      3.006381     2.998738     2.991095     2.983451     2.975808     2.968165     2.960522     2.952878     2.945235     2.937592
      2.929949     2.922306     2.914662     2.907019     2.899376     2.891733     2.884089     2.876446     2.868803     2.861160
      2.853517     2.845873     2.838230     2.830587     2.822944     2.815300     2.807657     2.800014     2.792371     2.784728
      2.777084     2.769441     2.761798     2.754155     2.746511     2.738868     2.731225     2.723582     2.715939     2.708295
      2.700652     2.693009     2.685366     2.677722     2.670079     2.662436     2.654793     2.647150     2.639506     2.631863
      2.624220     2.616577     2.608933     2.601290     2.593647     2.586004     2.578361     2.570717     2.563074     2.555431
      2.547788     2.540144     2.532501     2.524858     2.517215     2.509572     2.501928     2.494285     2.486642     2.478999
      2.471355     2.463712     2.456069     2.448426     2.440783     2.433139     2.425496     2.417853     2.410210     2.402566
      2.394923     2.387280     2.379637     2.371994     2.364350     2.356707     2.349064     2.341421     2.333777     2.326134
      2.318491     2.310848     2.303205     2.295561     2.287918     2.280275     2.272632     2.264988     2.257345     2.249702
      2.242059     2.234416     2.226772     2.219129     2.211486     2.203843     2.196199     2.188556     2.180913     2.173270
      2.165627     2.157983     2.150340     2.142697     2.135054     2.127410     2.119767     2.112124     2.104481     2.096838
      2.089194     2.081551     2.073908     2.066265     2.058621     2.050978     2.043335     2.035692     2.028049     2.020405
      2.012762     2.005119     1.997476     1.989833     1.982190     1.974546     1.966903     1.959260     1.951617     1.943974
      1.936331     1.928688     1.921045     1.913402     1.905759     1.898115     1.890472     1.882829     1.875186     1.867543
      1.859900     1.852257     1.844614     1.836971     1.829327     1.821684     1.814041     1.806398     1.798755     1.791112
      1.783469     1.775826     1.768183     1.760540     1.752896     1.745253     1.737610     1.729967     1.722324     1.714681
      1.707038     1.699395     1.691752     1.684108     1.676465     1.668822     1.661179     1.653536     1.645893     1.638250
      1.630607     1.622964     1.615321     1.607677     1.600034     1.592391     1.584748     1.577105     1.569462     1.561819
      1.554176     1.546533     1.538890     1.531246     1.523603     1.515960     1.508317     1.500674     1.493031     1.485388
      1.477745     1.470102     1.462458     1.454815     1.447172     1.439529     1.431886     1.424243     1.416600     1.408957
      1.401314     1.393671     1.386027     1.378384     1.370741     1.363098     1.355455     1.347812     1.340169     1.332526
      1.324883     1.317240     1.309596     1.301953     1.294310     1.286667     1.279024     1.271381     1.263738     1.256095
      1.248452     1.240808     1.233165     1.225522     1.217879     1.210236     1.202593     1.194950     1.187307     1.179664
      1.172021     1.164377     1.156734     1.149091     1.141448     1.133805     1.126162     1.118519     1.110876     1.103233
      1.095590     1.087946     1.080303     1.072660     1.065017     1.057374     1.049731     1.042088     1.034445     1.026802
      1.019158     1.011515     1.003872     0.996229     0.988586     0.980943     0.973300     0.965657     0.958014     0.950371
      0.942727     0.935084     0.927441     0.919798     0.912155     0.904512     0.896869     0.889226     0.881583     0.873940
      0.866296     0.858653     0.851010     0.843367     0.835724     0.828081     0.820438     0.812795     0.805152     0.797508
      0.789865     0.782222     0.774579     0.766936     0.759293     0.751650     0.744007     0.736364     0.728721     0.721077
      0.713434     0.705791     0.698148     0.690505     0.682862     0.675219     0.667576     0.659933     0.652290     0.644646
      0.637003     0.629360     0.621717     0.614074     0.606431     0.598788     0.591145     0.583502     0.575858     0.568215
      0.560572     0.552929     0.545286     0.537643     0.530000     0.522357     0.514714     0.507071     0.499427     0.491784
      0.484141     0.476498     0.468855     0.461212     0.453569     0.445925     0.438282     0.430639     0.422996     0.415353
      0.407710     0.400067     0.392424     0.384780     0.377137     0.369494     0.361851     0.354208     0.346565     0.338922
      0.331278     0.323635     0.315992     0.308349     0.300706     0.293063     0.285420     0.277777     0.270133     0.262490
      0.254847     0.247204     0.239561     0.231918     0.224275     0.216631     0.208988     0.201345
 NY phased data points follow
  -1.10616E+02 -1.18027E+02 -1.05272E+02 -9.21551E+01 -9.34921E+01 -8.41345E+01 -4.87312E+01 -6.54010E+01 -4.81112E+01 -3.46819E+01
  -3.11914E+01 -4.29814E+01 -3.49176E+01 -6.19000E+01 -5.38159E+01 -9.24337E+01 -7.94689E+01 -1.09108E+02 -8.14720E+01 -8.14642E+01
  -7.77939E+01 -7.27105E+01 -7.01652E+01 -7.59254E+01 -7.22523E+01 -8.36728E+01 -7.72186E+01 -6.97066E+01 -6.47343E+01 -6.30524E+01
  -4.37918E+01 -5.62368E+01 -5.70341E+01 -7.86027E+01 -7.46492E+01 -7.41939E+01 -6.46982E+01 -6.97051E+01 -4.92887E+01 -6.62161E+01
  -5.30287E+01 -6.49800E+01 -5.13352E+01 -6.38841E+01 -5.98656E+01 -5.91126E+01 -4.39721E+01 -4.50277E+01 -3.98848E+01 -4.18837E+01
  -4.02201E+01 -7.16741E+01 -4.17984E+01 -4.93490E+01 -4.52459E+01 -5.32553E+01 -5.42703E+01 -4.94927E+01 -5.51365E+01 -6.72434E+01
  -6.25236E+01 -5.76042E+01 -7.02663E+01 -7.33041E+01 -6.18801E+01 -7.51631E+01 -6.17183E+01 -7.13097E+01 -6.43159E+01 -6.95727E+01
  -5.31713E+01 -6.24595E+01 -5.37743E+01 -5.43836E+01 -5.32909E+01 -5.25546E+01 -4.51151E+01 -5.84109E+01 -4.85821E+01 -4.94108E+01
  -1.78136E+01 -5.37635E+01 -4.10587E+01 -5.00748E+01 -3.42835E+01 -3.95564E+01 -3.66187E+01 -4.69597E+01 -3.81551E+01 -5.02682E+01
  -5.00126E+01 -4.81259E+01 -3.68661E+01 -3.42367E+01 -2.43208E+01 -3.20249E+01 -2.98278E+01 -1.49179E+01 -7.75663E+00 -3.29937E+00
   3.99458E+01  6.71101E+01  7.38957E+01  7.56064E+01  6.86395E+01  4.06096E+01  1.66325E+01 -4.55059E+00 -6.46780E+00 -2.87519E+01
  -3.45112E+01 -3.91269E+01 -2.58780E+01 -4.15899E+01 -2.66062E+01 -4.00277E+01 -2.27545E+01 -2.48624E+01 -2.60378E+01 -2.97056E+01
  -1.70800E+01 -1.99210E+01 -9.04137E+00 -6.80049E+00  3.56342E+01  6.39000E+01  6.12882E+01  6.96007E+01  6.32902E+01  5.26110E+01
   2.21121E+01  8.84396E+00 -1.16825E+00 -2.39643E+01 -2.02756E+01 -1.35833E+01 -2.37690E+01 -2.78130E+01 -2.53522E+01 -2.86743E+01
  -2.38585E+01 -2.01125E+01 -2.88300E+01 -2.43201E+01 -1.12786E+01 -2.56607E+01 -2.36157E+01 -3.09583E+01 -3.01815E+01 -2.52669E+01
  -2.77295E+01 -3.41894E+01 -1.32187E+01 -3.75915E+01 -3.33900E+01 -3.46095E+01 -3.71322E+01 -2.44357E+01 -3.53502E+01 -1.76271E+01
  -3.24255E+01 -2.66063E+01 -2.34239E+01 -3.20681E+01 -2.61556E+01 -3.29297E+01 -1.69196E+01 -1.13569E+01 -5.61365E+00 -2.96516E+01
  -2.76085E+01 -4.14426E+01 -2.64876E+01 -3.07483E+01 -2.91651E+01 -3.83225E+01 -4.22402E+01 -4.20363E+01 -3.22792E+01 -3.09178E+01
  -3.24507E+01 -3.55071E+01 -3.37376E+01 -3.16570E+01 -4.06833E+01 -4.19350E+01 -3.36030E+01 -1.83477E+01 -1.20324E+01 -1.13607E+01
  -1.54487E+01 -1.60966E+00 -1.15641E+01 -2.18144E+01 -7.45650E+00 -1.40460E+01 -1.79173E+01 -2.35925E+01 -6.41074E+00 -1.75862E+01
  -5.26436E+00 -5.72550E+00 -2.57854E+00 -1.11397E+01 -2.51582E+00 -2.39402E+00 -1.31284E+01 -2.07113E+01 -1.24667E+01 -1.26402E+01
  -1.78276E+01 -6.62821E+00 -7.20796E+00 -5.49378E+00  3.90322E+00  2.17923E+01  1.87731E+01  1.72697E+00  1.06548E+01 -7.27901E+00
  -2.38589E+01 -2.26368E+01 -1.73635E+01 -2.18430E+01 -1.24963E+01 -9.63504E+00  1.06553E+01  9.47480E+00  6.11814E+00 -1.12145E+00
  -1.58147E+00  7.66142E+00  6.97868E+00 -1.29706E+01  1.58755E+01  1.81761E+01  2.10562E+01  1.01205E+01  1.16086E+01 -2.14571E+00
  -2.30649E+00  4.73862E-01  8.92717E+00 -5.73288E+00  3.41246E-01  7.20844E+00  1.80205E+01  1.57272E+01  2.03687E+01  6.58976E+00
   2.81665E+01  2.56447E+01  3.69438E+01  4.44566E+01  5.59021E+01  5.90403E+01  7.82247E+01  9.99502E+01  1.24163E+02  1.41037E+02
   1.45770E+02  1.29777E+02  1.21407E+02  9.05092E+01  6.29825E+01  4.04613E+01  3.07368E+01  1.40015E+01  1.97312E+01  2.24418E+01
   9.34798E+00  1.86071E+01  9.38136E+00  9.13040E+00  1.33763E+01  2.12908E+01  1.09123E+00  1.05149E+01  2.30263E+00 -4.91929E+00
   3.20333E+00  7.22106E+00 -4.70319E+00 -1.22329E+01  4.50057E+00  2.71912E-01  7.74427E+00  8.24749E+00  1.51368E+01  8.72652E+00
   4.07418E+00  4.48135E+00  9.63711E+00  4.09635E+00 -2.96468E+00 -2.35340E+00  3.53780E+00 -4.21153E+00  9.08900E+00 -3.41081E-01
   1.39421E+00  1.22625E+01  4.59338E+00  1.92330E+01  2.17614E+01  1.26766E+01  1.80701E+01  2.16948E+01  2.15822E+01  2.64538E+01
   4.07911E+01  2.78140E+01  2.60321E+01  3.43364E+01  2.72748E+01  2.86730E+01  1.91995E+01  2.87245E+01  3.59407E+01  3.61069E+01
   3.28778E+01  2.09785E+01  3.76206E+01  2.78974E+01  2.41262E+01  4.29052E+01  4.73554E+01  5.14020E+01  3.77911E+01  4.59115E+01
   2.29512E+01  3.02393E+01  2.69883E+01  2.85110E+01  3.66528E+01  3.75437E+01  2.46413E+01  3.11808E+01  3.13386E+01  2.28169E+01
   1.70550E+01  2.35609E+01  3.16764E+01  3.55878E+01  2.77356E+01  4.38005E+01  4.25440E+01  5.23391E+01  3.07263E+01  4.75497E+01
   2.86912E+01  3.54236E+01  2.83729E+01  2.39799E+01  2.93847E+01  3.43849E+01  4.19022E+01  2.73347E+01  4.92649E+01  4.07924E+01
   1.20421E+01  3.94460E+01  4.30586E+01  1.66041E+01  3.82912E+01  2.34631E+01  2.47027E+01  3.04323E+01  3.97249E+01  3.95061E+01
   2.11618E+01  3.31397E+01  3.86443E+01  2.77095E+01  4.43759E+01  2.48319E+01  2.48681E+01  2.87381E+01  1.54807E+01  2.54506E+01
   3.47054E+01  2.27479E+01  3.29601E+01  2.62770E+01  1.72700E+01  3.51457E+01  2.32202E+01  3.16694E+01  3.04143E+01  3.16485E+01
   3.65105E+01  2.59228E+01  3.56941E+01  2.73478E+01  2.62148E+01  3.02213E+01  2.45420E+01  3.88629E+01  3.34706E+01  3.18097E+01
   3.10675E+01  3.73656E+01  3.40825E+01  2.57253E+01  3.26217E+01  3.01278E+01  5.40434E+01  3.06783E+01  3.45923E+01  4.33274E+01
   3.00343E+01  2.78892E+01  3.44403E+01  3.14248E+01  2.47394E+01  2.93631E+01  4.15324E+01  2.26932E+01  3.35069E+01  3.83814E+01
   3.54812E+01  2.53363E+01  4.28873E+01  2.18039E+01  1.59494E+01  2.39563E+01  3.12319E+01  3.15209E+01  1.68967E+01  2.89572E+01
   2.30502E+01  3.18229E+01  2.46879E+01  1.53706E+01  3.81120E+01  1.70622E+01  2.85785E+01  3.17386E+01  1.84137E+01  3.14447E+01
   3.31608E+01  2.79900E+01  2.18086E+01  3.71998E+01  2.42702E+01  3.02972E+01  3.80081E+01  2.42582E+01  3.48637E+01  3.59944E+01
   3.35426E+01  2.82544E+01  2.83546E+01  1.11194E+01  2.30554E+01  2.51338E+01  1.78455E+01  1.79718E+01  3.81145E+01  1.99559E+01
   3.65209E+01  3.44901E+01  2.16469E+01  2.37778E+01  2.22321E+01  2.71417E+01  1.71470E+01  2.10598E+01  2.48798E+01  2.69455E+01
   1.60935E+01  3.32557E+01  2.49012E+01  1.42850E+01  2.00157E+01  3.00772E+01  4.36403E+01  2.48920E+01  2.70925E+01  2.51978E+01
   3.31062E+01  2.20703E+01  2.00495E+01  2.41734E+01  2.38008E+01  1.73273E+01  2.57678E+01  2.44028E+01  3.41435E+01  3.06308E+01
   2.23828E+01  2.42713E+01  2.95079E+01  2.45293E+01  3.09078E+01  2.55816E+01  1.96497E+01  3.69632E+01
 NY points of the fit to the data follow
  -8.95381E+01 -8.90715E+01 -8.85257E+01 -8.57730E+01 -8.10777E+01 -7.53755E+01 -6.58760E+01 -5.39246E+01 -4.38827E+01 -3.81322E+01
  -3.69291E+01 -4.03888E+01 -4.78780E+01 -5.64817E+01 -6.34745E+01 -6.87053E+01 -7.24434E+01 -7.44874E+01 -7.53177E+01 -7.55750E+01
  -7.55192E+01 -7.53259E+01 -7.53210E+01 -7.51172E+01 -7.42178E+01 -7.32985E+01 -7.12763E+01 -6.73632E+01 -6.26124E+01 -5.81959E+01
  -5.47058E+01 -5.26343E+01 -5.28873E+01 -5.54925E+01 -5.91079E+01 -6.28310E+01 -6.60972E+01 -6.81948E+01 -6.89109E+01 -6.84020E+01
  -6.70085E+01 -6.52856E+01 -6.33295E+01 -6.10391E+01 -5.83942E+01 -5.57324E+01 -5.34852E+01 -5.21799E+01 -5.22124E+01 -5.35569E+01
  -5.57277E+01 -5.81028E+01 -6.01664E+01 -6.14893E+01 -6.19918E+01 -6.18791E+01 -6.11662E+01 -6.00330E+01 -5.87977E+01 -5.77993E+01
  -5.72426E+01 -5.71939E+01 -5.76245E+01 -5.82215E+01 -5.86964E+01 -5.88735E+01 -5.85743E+01 -5.79618E+01 -5.71618E+01 -5.60888E+01
  -5.48569E+01 -5.37116E+01 -5.25922E+01 -5.15348E+01 -5.08436E+01 -5.06816E+01 -5.08876E+01 -5.13242E+01 -5.18296E+01 -5.19467E+01
  -5.09639E+01 -4.92827E+01 -4.69070E+01 -4.36796E+01 -4.07503E+01 -3.93686E+01 -3.96255E+01 -4.11242E+01 -4.34696E+01 -4.60122E+01
  -4.78686E+01 -4.87664E+01 -4.89726E+01 -4.85505E+01 -4.75312E+01 -4.55644E+01 -4.02360E+01 -2.88129E+01 -1.32355E+01  9.39974E+00
   3.83217E+01  6.36311E+01  7.72174E+01  7.75584E+01  6.57206E+01  4.40911E+01  1.87667E+01 -2.91150E+00 -1.85240E+01 -2.90961E+01
  -3.51159E+01 -3.74613E+01 -3.81272E+01 -3.82620E+01 -3.81904E+01 -3.79934E+01 -3.77087E+01 -3.73485E+01 -3.67994E+01 -3.57775E+01
  -3.28982E+01 -2.43305E+01 -1.19951E+01  5.54092E+00  3.02098E+01  5.42620E+01  6.89473E+01  7.21425E+01  6.48108E+01  4.82837E+01
   2.69456E+01  7.53817E+00 -7.06320E+00 -1.78192E+01 -2.51229E+01 -2.89553E+01 -3.05896E+01 -3.09739E+01 -3.02806E+01 -2.89585E+01
  -2.75480E+01 -2.64138E+01 -2.57509E+01 -2.55795E+01 -2.57876E+01 -2.61730E+01 -2.65492E+01 -2.68670E+01 -2.71590E+01 -2.74136E+01
  -2.76041E+01 -2.77911E+01 -2.79156E+01 -2.78486E+01 -2.76182E+01 -2.73897E+01 -2.72155E+01 -2.72381E+01 -2.76493E+01 -2.81832E+01
  -2.85487E+01 -2.85304E+01 -2.80270E+01 -2.73216E+01 -2.67882E+01 -2.66113E+01 -2.68352E+01 -2.73579E+01 -2.79179E+01 -2.83146E+01
  -2.85960E+01 -2.88913E+01 -2.91756E+01 -2.96063E+01 -3.00058E+01 -3.00697E+01 -2.97200E+01 -2.91350E+01 -2.85692E+01 -2.81308E+01
  -2.77471E+01 -2.74437E+01 -2.70673E+01 -2.64502E+01 -2.56395E+01 -2.43897E+01 -2.24330E+01 -1.99163E+01 -1.71392E+01 -1.45223E+01
  -1.26797E+01 -1.19591E+01 -1.24008E+01 -1.34771E+01 -1.47609E+01 -1.58703E+01 -1.62665E+01 -1.56664E+01 -1.40931E+01 -1.19123E+01
  -9.39429E+00 -6.88825E+00 -4.97650E+00 -4.22449E+00 -5.10137E+00 -7.23449E+00 -1.05192E+01 -1.45011E+01 -1.77213E+01 -1.91594E+01
  -1.82501E+01 -1.52121E+01 -1.01425E+01 -3.65174E+00  2.05485E+00  5.09085E+00  4.72554E+00  1.04983E+00 -5.13526E+00 -1.24866E+01
  -1.89711E+01 -2.22895E+01 -2.17748E+01 -1.80730E+01 -1.21772E+01 -5.62842E+00 -2.70790E-02  3.59670E+00  5.04501E+00  4.98613E+00
   4.29996E+00  3.84018E+00  3.98740E+00  4.91681E+00  6.62501E+00  8.49657E+00  9.67272E+00  9.75607E+00  9.02060E+00  7.56577E+00
   5.80462E+00  4.71668E+00  5.13068E+00  6.86924E+00  9.36800E+00  1.21803E+01  1.47194E+01  1.64515E+01  1.73756E+01  1.84569E+01
   2.10714E+01  2.48719E+01  3.05533E+01  3.88949E+01  5.08473E+01  6.58499E+01  8.12633E+01  1.01966E+02  1.25051E+02  1.40355E+02
   1.43467E+02  1.35371E+02  1.16883E+02  9.07619E+01  6.41667E+01  4.33793E+01  2.86401E+01  1.85529E+01  1.30409E+01  1.08560E+01
   9.88249E+00  9.46471E+00  9.40676E+00  9.44979E+00  9.40935E+00  9.22319E+00  8.87830E+00  8.39412E+00  7.86266E+00  7.40298E+00
   7.08817E+00  6.90620E+00  6.82757E+00  6.82563E+00  6.85114E+00  6.85296E+00  6.83914E+00  6.83185E+00  6.86313E+00  6.96487E+00
   7.15416E+00  7.42255E+00  7.75047E+00  8.11393E+00  8.50580E+00  8.91564E+00  9.35686E+00  9.86398E+00  1.04649E+01  1.11747E+01
   1.20068E+01  1.29612E+01  1.40268E+01  1.51826E+01  1.64141E+01  1.77080E+01  1.90490E+01  2.04186E+01  2.17997E+01  2.31694E+01
   2.45032E+01  2.57745E+01  2.69596E+01  2.80362E+01  2.89876E+01  2.98011E+01  3.04715E+01  3.09985E+01  3.13891E+01  3.16540E+01
   3.18102E+01  3.18762E+01  3.18740E+01  3.18246E+01  3.17494E+01  3.16662E+01  3.15911E+01  3.15351E+01  3.15070E+01  3.15103E+01
   3.15471E+01  3.16149E+01  3.17114E+01  3.18320E+01  3.19735E+01  3.21326E+01  3.23090E+01  3.25041E+01  3.27250E+01  3.29858E+01
   3.33208E+01  3.38067E+01  3.44026E+01  3.49460E+01  3.55029E+01  3.57871E+01  3.54444E+01  3.45194E+01  3.32627E+01  3.20174E+01
   3.10802E+01  3.06683E+01  3.11207E+01  3.23121E+01  3.37660E+01  3.51149E+01  3.61210E+01  3.65878E+01  3.64593E+01  3.59048E+01
   3.51906E+01  3.44313E+01  3.36610E+01  3.29386E+01  3.22781E+01  3.16397E+01  3.10082E+01  3.03816E+01  2.97646E+01  2.91629E+01
   2.85841E+01  2.80348E+01  2.75227E+01  2.70533E+01  2.66332E+01  2.62667E+01  2.59589E+01  2.57128E+01  2.55323E+01  2.54192E+01
   2.53763E+01  2.54048E+01  2.55066E+01  2.56818E+01  2.59318E+01  2.62556E+01  2.66531E+01  2.71220E+01  2.76601E+01  2.82627E+01
   2.89249E+01  2.96388E+01  3.03959E+01  3.11847E+01  3.19930E+01  3.28057E+01  3.36075E+01  3.43809E+01  3.51091E+01  3.57741E+01
   3.63601E+01  3.68513E+01  3.72354E+01  3.75016E+01  3.76435E+01  3.76572E+01  3.75435E+01  3.73060E+01  3.69528E+01  3.64940E+01
   3.59436E+01  3.53159E+01  3.46283E+01  3.38969E+01  3.31392E+01  3.23705E+01  3.16062E+01  3.08585E+01  3.01390E+01  2.94560E+01
   2.88169E+01  2.82256E+01  2.76855E+01  2.71973E+01  2.67612E+01  2.63752E+01  2.60376E+01  2.57449E+01  2.54944E+01  2.52821E+01
   2.51049E+01  2.49587E+01  2.48409E+01  2.47477E+01  2.46768E+01  2.46250E+01  2.45906E+01  2.45709E+01  2.45646E+01  2.45695E+01
   2.45848E+01  2.46088E+01  2.46409E+01  2.46795E+01  2.47246E+01  2.47747E+01  2.48299E+01  2.48890E+01  2.49522E+01  2.50185E+01
   2.50880E+01  2.51600E+01  2.52347E+01  2.53113E+01  2.53901E+01  2.54705E+01  2.55527E+01  2.56362E+01  2.57213E+01  2.58073E+01
   2.58947E+01  2.59829E+01  2.60722E+01  2.61622E+01  2.62533E+01  2.63448E+01  2.64373E+01  2.65301E+01  2.66238E+01  2.67178E+01
   2.68126E+01  2.69077E+01  2.70034E+01  2.70994E+01  2.71960E+01  2.72928E+01  2.73903E+01  2.74878E+01  2.75860E+01  2.76843E+01
   2.77832E+01  2.78821E+01  2.79817E+01  2.80814E+01  2.81817E+01  2.82820E+01  2.83830E+01  2.84841E+01  2.85858E+01  2.86876E+01
   2.87901E+01  2.88928E+01  2.89962E+01  2.90997E+01  2.92041E+01  2.93087E+01  2.94142E+01  2.95200E+01
 NY background values follow
    -9.294E+01   -9.247E+01   -9.200E+01   -9.153E+01   -9.107E+01   -9.060E+01   -9.013E+01   -8.966E+01   -8.919E+01   -8.872E+01
    -8.825E+01   -8.778E+01   -8.731E+01   -8.684E+01   -8.637E+01   -8.590E+01   -8.543E+01   -8.496E+01   -8.449E+01   -8.402E+01
    -8.355E+01   -8.309E+01   -8.262E+01   -8.215E+01   -8.168E+01   -8.122E+01   -8.075E+01   -8.028E+01   -7.982E+01   -7.935E+01
    -7.889E+01   -7.842E+01   -7.796E+01   -7.749E+01   -7.703E+01   -7.656E+01   -7.610E+01   -7.564E+01   -7.518E+01   -7.472E+01
    -7.426E+01   -7.380E+01   -7.334E+01   -7.288E+01   -7.242E+01   -7.196E+01   -7.151E+01   -7.105E+01   -7.060E+01   -7.014E+01
    -6.969E+01   -6.923E+01   -6.878E+01   -6.833E+01   -6.788E+01   -6.743E+01   -6.698E+01   -6.653E+01   -6.609E+01   -6.564E+01
    -6.519E+01   -6.475E+01   -6.431E+01   -6.386E+01   -6.342E+01   -6.298E+01   -6.254E+01   -6.211E+01   -6.167E+01   -6.123E+01
    -6.080E+01   -6.036E+01   -5.993E+01   -5.950E+01   -5.907E+01   -5.864E+01   -5.821E+01   -5.779E+01   -5.736E+01   -5.694E+01
    -5.651E+01   -5.609E+01   -5.567E+01   -5.525E+01   -5.484E+01   -5.442E+01   -5.401E+01   -5.359E+01   -5.318E+01   -5.277E+01
    -5.236E+01   -5.196E+01   -5.155E+01   -5.115E+01   -5.074E+01   -5.034E+01   -4.994E+01   -4.955E+01   -4.915E+01   -4.875E+01
    -4.836E+01   -4.797E+01   -4.758E+01   -4.719E+01   -4.680E+01   -4.642E+01   -4.603E+01   -4.565E+01   -4.527E+01   -4.489E+01
    -4.451E+01   -4.414E+01   -4.376E+01   -4.339E+01   -4.302E+01   -4.265E+01   -4.228E+01   -4.191E+01   -4.155E+01   -4.118E+01
    -4.082E+01   -4.046E+01   -4.010E+01   -3.974E+01   -3.939E+01   -3.903E+01   -3.868E+01   -3.833E+01   -3.798E+01   -3.763E+01
    -3.729E+01   -3.694E+01   -3.660E+01   -3.626E+01   -3.592E+01   -3.558E+01   -3.525E+01   -3.491E+01   -3.458E+01   -3.425E+01
    -3.392E+01   -3.359E+01   -3.326E+01   -3.294E+01   -3.261E+01   -3.229E+01   -3.197E+01   -3.165E+01   -3.134E+01   -3.102E+01
    -3.071E+01   -3.039E+01   -3.008E+01   -2.977E+01   -2.946E+01   -2.916E+01   -2.885E+01   -2.855E+01   -2.824E+01   -2.794E+01
    -2.764E+01   -2.734E+01   -2.705E+01   -2.675E+01   -2.646E+01   -2.616E+01   -2.587E+01   -2.558E+01   -2.529E+01   -2.500E+01
    -2.472E+01   -2.443E+01   -2.415E+01   -2.386E+01   -2.358E+01   -2.330E+01   -2.302E+01   -2.274E+01   -2.247E+01   -2.219E+01
    -2.191E+01   -2.164E+01   -2.137E+01   -2.110E+01   -2.083E+01   -2.056E+01   -2.029E+01   -2.002E+01   -1.976E+01   -1.949E+01
    -1.923E+01   -1.897E+01   -1.871E+01   -1.845E+01   -1.819E+01   -1.793E+01   -1.767E+01   -1.742E+01   -1.716E+01   -1.691E+01
    -1.665E+01   -1.640E+01   -1.615E+01   -1.590E+01   -1.566E+01   -1.541E+01   -1.516E+01   -1.492E+01   -1.467E+01   -1.443E+01
    -1.419E+01   -1.395E+01   -1.371E+01   -1.347E+01   -1.323E+01   -1.300E+01   -1.276E+01   -1.253E+01   -1.229E+01   -1.206E+01
    -1.183E+01   -1.160E+01   -1.137E+01   -1.114E+01   -1.091E+01   -1.069E+01   -1.046E+01   -1.024E+01   -1.002E+01   -9.794E+00
    -9.573E+00   -9.353E+00   -9.134E+00   -8.916E+00   -8.698E+00   -8.482E+00   -8.267E+00   -8.052E+00   -7.839E+00   -7.626E+00
    -7.414E+00   -7.204E+00   -6.994E+00   -6.784E+00   -6.576E+00   -6.369E+00   -6.162E+00   -5.956E+00   -5.751E+00   -5.547E+00
    -5.343E+00   -5.140E+00   -4.938E+00   -4.737E+00   -4.536E+00   -4.336E+00   -4.137E+00   -3.939E+00   -3.741E+00   -3.544E+00
    -3.348E+00   -3.152E+00   -2.957E+00   -2.762E+00   -2.568E+00   -2.375E+00   -2.182E+00   -1.990E+00   -1.799E+00   -1.608E+00
    -1.417E+00   -1.227E+00   -1.038E+00   -8.493E-01   -6.610E-01   -4.732E-01   -2.860E-01   -9.929E-02    8.690E-02    2.726E-01
     4.577E-01    6.424E-01    8.265E-01    1.010E+00    1.193E+00    1.376E+00    1.558E+00    1.739E+00    1.921E+00    2.101E+00
     2.281E+00    2.461E+00    2.640E+00    2.818E+00    2.997E+00    3.174E+00    3.351E+00    3.528E+00    3.704E+00    3.880E+00
     4.055E+00    4.230E+00    4.404E+00    4.578E+00    4.751E+00    4.924E+00    5.096E+00    5.268E+00    5.439E+00    5.610E+00
     5.781E+00    5.950E+00    6.120E+00    6.289E+00    6.458E+00    6.626E+00    6.794E+00    6.961E+00    7.128E+00    7.294E+00
     7.460E+00    7.625E+00    7.790E+00    7.955E+00    8.119E+00    8.282E+00    8.445E+00    8.608E+00    8.770E+00    8.932E+00
     9.093E+00    9.254E+00    9.414E+00    9.574E+00    9.733E+00    9.892E+00    1.005E+01    1.021E+01    1.037E+01    1.052E+01
     1.068E+01    1.084E+01    1.099E+01    1.115E+01    1.130E+01    1.145E+01    1.161E+01    1.176E+01    1.191E+01    1.207E+01
     1.222E+01    1.237E+01    1.252E+01    1.267E+01    1.282E+01    1.297E+01    1.312E+01    1.326E+01    1.341E+01    1.356E+01
     1.371E+01    1.385E+01    1.400E+01    1.414E+01    1.429E+01    1.443E+01    1.457E+01    1.472E+01    1.486E+01    1.500E+01
     1.514E+01    1.528E+01    1.542E+01    1.556E+01    1.570E+01    1.584E+01    1.598E+01    1.612E+01    1.626E+01    1.639E+01
     1.653E+01    1.667E+01    1.680E+01    1.694E+01    1.707E+01    1.721E+01    1.734E+01    1.748E+01    1.761E+01    1.774E+01
     1.787E+01    1.800E+01    1.814E+01    1.827E+01    1.840E+01    1.853E+01    1.866E+01    1.879E+01    1.892E+01    1.904E+01
     1.917E+01    1.930E+01    1.943E+01    1.955E+01    1.968E+01    1.981E+01    1.993E+01    2.006E+01    2.018E+01    2.031E+01
     2.043E+01    2.055E+01    2.068E+01    2.080E+01    2.092E+01    2.104E+01    2.117E+01    2.129E+01    2.141E+01    2.153E+01
     2.165E+01    2.177E+01    2.189E+01    2.201E+01    2.213E+01    2.224E+01    2.236E+01    2.248E+01    2.260E+01    2.271E+01
     2.283E+01    2.295E+01    2.306E+01    2.318E+01    2.330E+01    2.341E+01    2.352E+01    2.364E+01    2.375E+01    2.387E+01
     2.398E+01    2.409E+01    2.421E+01    2.432E+01    2.443E+01    2.454E+01    2.465E+01    2.477E+01    2.488E+01    2.499E+01
     2.510E+01    2.521E+01    2.532E+01    2.543E+01    2.554E+01    2.565E+01    2.575E+01    2.586E+01    2.597E+01    2.608E+01
     2.619E+01    2.629E+01    2.640E+01    2.651E+01    2.661E+01    2.672E+01    2.683E+01    2.693E+01    2.704E+01    2.715E+01
     2.725E+01    2.736E+01    2.746E+01    2.757E+01    2.767E+01    2.778E+01    2.788E+01    2.799E+01    2.809E+01    2.820E+01
     2.830E+01    2.841E+01    2.851E+01    2.861E+01    2.872E+01    2.882E+01    2.893E+01    2.903E+01    2.913E+01    2.924E+01
     2.934E+01    2.945E+01    2.955E+01    2.966E+01    2.976E+01    2.986E+01    2.997E+01    3.007E+01
 Asp      Conc. = 1.74E+02
