 LCModel (Version 6.3-1L) Copyright: S.W. Provencher.          Ref.: Magn. Reson. Med. 30:672-679 (1993).                
 Slice#3 Row#8 Col#2  PD_05_press_2_raw_act
 36 lines in following concentration table = NCONC+1
    Conc.  %SD /Cr+PCr  Metabolite                                         
    0.000 999%   0.000 Ala                                                 
  269.542  78%   0.242 Asp                                                 
 1.04E+03  25%   0.932 Cr                                                  
   75.253 363% 6.8E-02 PCr                                                 
  154.123  87%   0.138 GABA                                                
   14.217 930% 1.3E-02 Glc                                                 
  392.124  85%   0.352 Gln                                                 
 1.91E+03  21%   1.710 Glu                                                 
  300.588   9%   0.270 GPC                                                 
    0.000 999%   0.000 PCh                                                 
  756.692  15%   0.679 GSH                                                 
  196.057 212%   0.176 Ins                                                 
    0.000 999%   0.000 Lac                                                 
 2.09E+03   4%   1.880 NAA                                                 
    0.000 999%   0.000 NAAG                                                
   48.821  67% 4.4E-02 Scyllo                                              
    0.000 999%   0.000 Tau                                                 
  369.576  41%   0.332 -CrCH2                                              
  300.588   9%   0.270 GPC+PCh                                             
 2.09E+03   4%   1.880 NAA+NAAG                                            
 1.11E+03   7%   1.000 Cr+PCr                                              
 2.30E+03  24%   2.062 Glu+Gln                                             
  121.678 239%   0.109 Lip13a                                              
    0.000 999%   0.000 Lip13b                                              
    0.000 999%   0.000 Lip09                                               
 1.77E+03  16%   1.592 MM09                                                
   26.858 291% 2.4E-02 Lip20                                               
 2.80E+03  15%   2.514 MM20                                                
  539.494  19%   0.484 MM12                                                
 1.75E+03  12%   1.569 MM14                                                
  528.344  36%   0.474 MM17                                                
  121.678 239%   0.109 Lip13a+Lip13b                                       
 2.41E+03  16%   2.162 MM14+Lip13a+Lip13b+MM12                             
 1.77E+03  16%   1.592 MM09+Lip09                                          
 2.83E+03  15%   2.538 MM20+Lip20                                          
   6 lines in following misc. output table
  FWHM = 0.054 ppm    S/N =   8                                            
  Data shift =-0.008 ppm                                                   
  Ph: -20 deg     -12.3 deg/ppm                                            
  alphaB,S = 4.9E-01,   1.1E+02                                            
   14 spline knots.   Ns = 7(1)                                            
  ( 5) 4 infls.   ( 1) 1 extrs.                                            
  498 points on ppm-axis = NY
      4.000000     3.992357     3.984714     3.977070     3.969427     3.961784     3.954141     3.946497     3.938854     3.931211
      3.923568     3.915925     3.908281     3.900638     3.892995     3.885352     3.877708     3.870065     3.862422     3.854779
      3.847136     3.839492     3.831849     3.824206     3.816563     3.808919     3.801276     3.793633     3.785990     3.778347
      3.770703     3.763060     3.755417     3.747774     3.740130     3.732487     3.724844     3.717201     3.709558     3.701914
      3.694271     3.686628     3.678985     3.671341     3.663698     3.656055     3.648412     3.640769     3.633125     3.625482
      3.617839     3.610196     3.602552     3.594909     3.587266     3.579623     3.571980     3.564336     3.556693     3.549050
      3.541407     3.533763     3.526120     3.518477     3.510834     3.503191     3.495547     3.487904     3.480261     3.472618
      3.464974     3.457331     3.449688     3.442045     3.434402     3.426758     3.419115     3.411472     3.403829     3.396185
      3.388542     3.380899     3.373256     3.365613     3.357969     3.350326     3.342683     3.335040     3.327396     3.319753
      3.312110     3.304467     3.296824     3.289180     3.281537     3.273894     3.266251     3.258607     3.250964     3.243321
      3.235678     3.228034     3.220391     3.212748     3.205105     3.197462     3.189818     3.182175     3.174532     3.166889
      3.159245     3.151602     3.143959     3.136316     3.128673     3.121029     3.113386     3.105743     3.098100     3.090456
      3.082813     3.075170     3.067527     3.059884     3.052240     3.044597     3.036954     3.029311     3.021667     3.014024
      3.006381     2.998738     2.991095     2.983451     2.975808     2.968165     2.960522     2.952878     2.945235     2.937592
      2.929949     2.922306     2.914662     2.907019     2.899376     2.891733     2.884089     2.876446     2.868803     2.861160
      2.853517     2.845873     2.838230     2.830587     2.822944     2.815300     2.807657     2.800014     2.792371     2.784728
      2.777084     2.769441     2.761798     2.754155     2.746511     2.738868     2.731225     2.723582     2.715939     2.708295
      2.700652     2.693009     2.685366     2.677722     2.670079     2.662436     2.654793     2.647150     2.639506     2.631863
      2.624220     2.616577     2.608933     2.601290     2.593647     2.586004     2.578361     2.570717     2.563074     2.555431
      2.547788     2.540144     2.532501     2.524858     2.517215     2.509572     2.501928     2.494285     2.486642     2.478999
      2.471355     2.463712     2.456069     2.448426     2.440783     2.433139     2.425496     2.417853     2.410210     2.402566
      2.394923     2.387280     2.379637     2.371994     2.364350     2.356707     2.349064     2.341421     2.333777     2.326134
      2.318491     2.310848     2.303205     2.295561     2.287918     2.280275     2.272632     2.264988     2.257345     2.249702
      2.242059     2.234416     2.226772     2.219129     2.211486     2.203843     2.196199     2.188556     2.180913     2.173270
      2.165627     2.157983     2.150340     2.142697     2.135054     2.127410     2.119767     2.112124     2.104481     2.096838
      2.089194     2.081551     2.073908     2.066265     2.058621     2.050978     2.043335     2.035692     2.028049     2.020405
      2.012762     2.005119     1.997476     1.989833     1.982190     1.974546     1.966903     1.959260     1.951617     1.943974
      1.936331     1.928688     1.921045     1.913402     1.905759     1.898115     1.890472     1.882829     1.875186     1.867543
      1.859900     1.852257     1.844614     1.836971     1.829327     1.821684     1.814041     1.806398     1.798755     1.791112
      1.783469     1.775826     1.768183     1.760540     1.752896     1.745253     1.737610     1.729967     1.722324     1.714681
      1.707038     1.699395     1.691752     1.684108     1.676465     1.668822     1.661179     1.653536     1.645893     1.638250
      1.630607     1.622964     1.615321     1.607677     1.600034     1.592391     1.584748     1.577105     1.569462     1.561819
      1.554176     1.546533     1.538890     1.531246     1.523603     1.515960     1.508317     1.500674     1.493031     1.485388
      1.477745     1.470102     1.462458     1.454815     1.447172     1.439529     1.431886     1.424243     1.416600     1.408957
      1.401314     1.393671     1.386027     1.378384     1.370741     1.363098     1.355455     1.347812     1.340169     1.332526
      1.324883     1.317240     1.309596     1.301953     1.294310     1.286667     1.279024     1.271381     1.263738     1.256095
      1.248452     1.240808     1.233165     1.225522     1.217879     1.210236     1.202593     1.194950     1.187307     1.179664
      1.172021     1.164377     1.156734     1.149091     1.141448     1.133805     1.126162     1.118519     1.110876     1.103233
      1.095590     1.087946     1.080303     1.072660     1.065017     1.057374     1.049731     1.042088     1.034445     1.026802
      1.019158     1.011515     1.003872     0.996229     0.988586     0.980943     0.973300     0.965657     0.958014     0.950371
      0.942727     0.935084     0.927441     0.919798     0.912155     0.904512     0.896869     0.889226     0.881583     0.873940
      0.866296     0.858653     0.851010     0.843367     0.835724     0.828081     0.820438     0.812795     0.805152     0.797508
      0.789865     0.782222     0.774579     0.766936     0.759293     0.751650     0.744007     0.736364     0.728721     0.721077
      0.713434     0.705791     0.698148     0.690505     0.682862     0.675219     0.667576     0.659933     0.652290     0.644646
      0.637003     0.629360     0.621717     0.614074     0.606431     0.598788     0.591145     0.583502     0.575858     0.568215
      0.560572     0.552929     0.545286     0.537643     0.530000     0.522357     0.514714     0.507071     0.499427     0.491784
      0.484141     0.476498     0.468855     0.461212     0.453569     0.445925     0.438282     0.430639     0.422996     0.415353
      0.407710     0.400067     0.392424     0.384780     0.377137     0.369494     0.361851     0.354208     0.346565     0.338922
      0.331278     0.323635     0.315992     0.308349     0.300706     0.293063     0.285420     0.277777     0.270133     0.262490
      0.254847     0.247204     0.239561     0.231918     0.224275     0.216631     0.208988     0.201345
 NY phased data points follow
  -3.09790E+02 -3.00277E+02 -3.00327E+02 -2.95182E+02 -2.86288E+02 -2.75825E+02 -2.76027E+02 -2.58366E+02 -2.65568E+02 -2.59492E+02
  -2.44508E+02 -2.42315E+02 -2.43170E+02 -2.37607E+02 -2.40963E+02 -2.43258E+02 -2.48939E+02 -2.40392E+02 -2.42665E+02 -2.31303E+02
  -2.29395E+02 -2.25851E+02 -2.26054E+02 -2.27134E+02 -2.19700E+02 -2.13597E+02 -2.12600E+02 -2.04801E+02 -2.06239E+02 -1.99271E+02
  -1.99278E+02 -1.92228E+02 -1.94545E+02 -1.95850E+02 -1.91823E+02 -1.93414E+02 -1.89857E+02 -1.82829E+02 -1.81107E+02 -1.82595E+02
  -1.83507E+02 -1.82316E+02 -1.78040E+02 -1.72129E+02 -1.78533E+02 -1.74217E+02 -1.72602E+02 -1.65342E+02 -1.71661E+02 -1.69730E+02
  -1.67176E+02 -1.61275E+02 -1.67245E+02 -1.63928E+02 -1.64067E+02 -1.61638E+02 -1.62115E+02 -1.60718E+02 -1.57349E+02 -1.54379E+02
  -1.49849E+02 -1.57817E+02 -1.62602E+02 -1.54538E+02 -1.55263E+02 -1.56148E+02 -1.53463E+02 -1.47979E+02 -1.52268E+02 -1.46652E+02
  -1.46113E+02 -1.46248E+02 -1.45301E+02 -1.38296E+02 -1.41493E+02 -1.33952E+02 -1.31480E+02 -1.33413E+02 -1.43080E+02 -1.39328E+02
  -1.32957E+02 -1.31063E+02 -1.27831E+02 -1.26318E+02 -1.27367E+02 -1.24576E+02 -1.21352E+02 -1.16573E+02 -1.19575E+02 -1.21650E+02
  -1.20258E+02 -1.21160E+02 -1.12195E+02 -1.12497E+02 -1.12917E+02 -1.09332E+02 -1.01450E+02 -9.66902E+01 -1.02926E+02 -1.01326E+02
  -9.74631E+01 -8.78181E+01 -8.42993E+01 -8.12240E+01 -8.40697E+01 -8.69667E+01 -9.06808E+01 -9.32187E+01 -8.78179E+01 -9.53143E+01
  -1.01754E+02 -9.37477E+01 -1.00585E+02 -9.75437E+01 -9.80164E+01 -9.31940E+01 -9.70778E+01 -9.62133E+01 -9.58183E+01 -8.71887E+01
  -9.39036E+01 -7.95833E+01 -8.30516E+01 -7.41858E+01 -7.05938E+01 -6.54194E+01 -5.85385E+01 -4.41043E+01 -4.81896E+01 -5.33612E+01
  -6.43847E+01 -6.38587E+01 -7.28301E+01 -7.61613E+01 -7.82001E+01 -7.35570E+01 -8.15820E+01 -8.38601E+01 -8.09660E+01 -8.59393E+01
  -8.44927E+01 -7.50916E+01 -7.75305E+01 -7.52358E+01 -7.58021E+01 -7.76631E+01 -7.78785E+01 -7.70287E+01 -7.80713E+01 -7.31721E+01
  -7.93205E+01 -7.26456E+01 -7.56878E+01 -7.70942E+01 -7.88471E+01 -7.99443E+01 -7.45120E+01 -7.46515E+01 -8.07818E+01 -7.08976E+01
  -7.63369E+01 -7.59928E+01 -7.91051E+01 -7.61058E+01 -7.05302E+01 -7.29103E+01 -6.66650E+01 -6.35547E+01 -6.26453E+01 -7.24580E+01
  -6.96142E+01 -6.48891E+01 -6.42849E+01 -6.19905E+01 -7.33224E+01 -6.96896E+01 -7.63185E+01 -6.84354E+01 -6.78903E+01 -7.25020E+01
  -6.88940E+01 -7.25735E+01 -6.61751E+01 -6.95839E+01 -7.10818E+01 -6.32220E+01 -6.44395E+01 -7.27245E+01 -5.87708E+01 -6.42443E+01
  -5.24198E+01 -5.90343E+01 -6.10201E+01 -5.54878E+01 -5.63661E+01 -4.72224E+01 -5.26885E+01 -4.85632E+01 -5.75926E+01 -5.46389E+01
  -5.62377E+01 -5.28762E+01 -5.19637E+01 -4.75550E+01 -5.27525E+01 -5.44555E+01 -5.32634E+01 -5.14866E+01 -5.61461E+01 -5.29380E+01
  -5.80220E+01 -4.77738E+01 -5.21452E+01 -4.42078E+01 -4.61025E+01 -3.94226E+01 -3.92346E+01 -3.92055E+01 -5.25133E+01 -3.87655E+01
  -4.93052E+01 -4.84339E+01 -5.08699E+01 -4.90114E+01 -4.46912E+01 -4.42727E+01 -4.22243E+01 -3.85080E+01 -3.42691E+01 -3.46448E+01
  -3.70740E+01 -3.70127E+01 -4.10235E+01 -2.92081E+01 -3.81758E+01 -3.17009E+01 -3.16340E+01 -3.66995E+01 -3.13440E+01 -3.58532E+01
  -3.31167E+01 -3.11502E+01 -3.32780E+01 -2.66771E+01 -3.11126E+01 -2.92244E+01 -2.74952E+01 -1.99080E+01 -2.51589E+01 -9.14349E+00
  -2.17850E+01 -2.13433E+01 -2.14618E+01 -1.33221E+01 -9.18826E+00 -4.22996E+00  5.01884E+00  9.82790E+00  1.90045E+01  4.45302E+01
   4.39640E+01  4.11599E+01  3.31834E+01  1.82504E+01  3.64998E+00 -3.68296E+00 -1.78301E+01 -8.95092E+00 -2.54107E+01 -1.91735E+01
  -2.85371E+01 -2.51662E+01 -2.84971E+01 -2.00725E+01 -2.15681E+01 -2.84064E+01 -2.24368E+01 -3.12716E+01 -2.48390E+01 -1.59157E+01
  -2.74074E+01 -2.50998E+01 -3.14882E+01 -2.65355E+01 -2.47726E+01 -2.87047E+01 -2.86958E+01 -2.16065E+01 -3.16613E+01 -2.75253E+01
  -2.85355E+01 -3.15330E+01 -3.34498E+01 -2.93949E+01 -2.48682E+01 -2.42971E+01 -2.45529E+01 -2.17224E+01 -2.80193E+01 -2.61033E+01
  -2.91881E+01 -2.26352E+01 -1.79419E+01 -2.42280E+01 -2.47543E+01 -2.48626E+01 -2.35950E+01 -2.97964E+01 -2.49100E+01 -2.86090E+01
  -2.57817E+01 -1.66675E+01 -2.19395E+01 -1.83459E+01 -1.92204E+01 -2.44226E+01 -1.89632E+01 -2.64847E+01 -2.14653E+01 -2.06905E+01
  -2.16852E+01 -1.66974E+01 -2.18157E+01 -2.64531E+01 -2.11486E+01 -1.82353E+01 -1.46721E+01 -1.68552E+01 -7.77054E+00 -1.25051E+01
  -9.18322E+00 -9.42197E+00 -9.82624E+00 -7.87225E-01 -5.14171E+00 -3.19918E+00 -4.12168E+00  3.34822E+00 -1.93067E+00 -3.34895E+00
  -6.76037E+00 -3.83138E-01  7.32821E-01 -9.29385E+00 -7.98501E+00 -6.01207E+00 -1.35873E+01 -7.34277E+00 -3.22363E+00 -3.07534E+00
  -4.81491E+00 -6.25186E+00 -7.93151E+00 -6.61139E+00 -1.43633E+01 -1.57771E+01 -1.63522E+01 -7.51678E+00 -1.24579E+01 -1.16848E+01
  -1.70539E+01 -9.18159E+00 -7.10630E+00 -7.24547E+00 -1.18185E+01 -1.15679E+01 -9.48469E+00 -9.06000E+00 -1.78619E+01 -1.46662E+01
  -5.22999E+00  3.89782E+00 -5.69163E+00 -2.09485E-01 -3.19056E+00  3.05091E-01 -8.32577E-01 -5.57985E+00 -5.08428E+00 -2.50665E+00
  -1.33325E+00 -7.07931E+00  2.52290E+00 -6.76293E+00 -9.38947E+00 -8.87475E+00 -1.04731E+01 -6.72864E+00 -3.18846E+00 -6.31011E+00
  -8.90894E+00 -6.00841E-01 -6.11423E+00 -3.04413E-01  1.43514E-01 -2.98645E-01 -5.21689E-01 -3.36775E+00  1.71165E+00  2.43649E+00
  -3.60080E+00  2.45413E+00  3.71830E-01 -4.35170E+00 -7.40925E-01 -1.96597E-01 -9.43415E-01 -1.16629E+00 -5.02426E+00 -5.80604E-01
   2.24710E+00  4.72092E-01 -1.94220E+00  1.57514E+00 -5.14709E+00  3.07535E+00  3.13856E-01 -1.90618E-01 -7.57593E-01  8.57436E-01
   3.14931E+00  1.19056E+00 -1.26775E+00 -2.42241E+00 -9.58651E-01 -6.12827E+00 -1.97343E+00  5.18443E+00  7.71140E-01  2.94891E+00
   2.48684E+00 -1.56011E+00 -4.17145E+00 -1.57695E+00 -5.12650E-02  3.97318E+00 -1.71214E+00 -8.56088E-01 -2.83581E+00  9.77767E-01
   3.38589E+00  1.99484E+00 -3.38878E+00 -3.82755E+00  1.53698E-01  1.19093E+00  5.66303E+00  3.28040E+00 -3.20177E-01  1.59582E+00
   2.95911E+00 -1.59751E+00  3.79787E+00 -1.89530E+00 -2.16733E+00  2.06883E+00  5.37692E+00 -5.49255E+00  4.52777E+00  7.85779E+00
   1.61280E+00 -4.85472E-01  3.03970E-01 -2.75013E+00 -3.90436E+00  1.49733E+00  3.21842E+00 -2.74367E-01  4.58089E+00 -1.62849E+00
   2.63672E+00  7.70462E+00 -1.21715E+00  2.37611E+00  2.88504E+00 -2.49785E-01  3.00448E+00  4.98226E+00  3.44496E+00  8.47819E+00
   1.65709E+00 -7.99596E-01  2.06530E+00 -4.41671E-02 -6.21104E+00 -3.65736E+00  1.80138E+00 -3.83048E+00  7.35947E+00  9.35658E+00
  -2.14009E+00  4.59483E+00  2.26696E+00  1.61420E+00  6.53627E+00  5.29967E+00  4.18186E+00  1.90526E+00
 NY points of the fit to the data follow
  -2.92789E+02 -2.90091E+02 -2.87716E+02 -2.85214E+02 -2.81469E+02 -2.76535E+02 -2.71836E+02 -2.67651E+02 -2.63012E+02 -2.56999E+02
  -2.50095E+02 -2.44027E+02 -2.40230E+02 -2.38884E+02 -2.39055E+02 -2.39481E+02 -2.39308E+02 -2.38572E+02 -2.37775E+02 -2.36955E+02
  -2.35444E+02 -2.33290E+02 -2.30905E+02 -2.27570E+02 -2.23534E+02 -2.19489E+02 -2.15384E+02 -2.10748E+02 -2.05340E+02 -1.99896E+02
  -1.95446E+02 -1.92638E+02 -1.91552E+02 -1.91767E+02 -1.92634E+02 -1.93526E+02 -1.94009E+02 -1.94126E+02 -1.93694E+02 -1.92071E+02
  -1.89577E+02 -1.86877E+02 -1.84270E+02 -1.81844E+02 -1.79578E+02 -1.77506E+02 -1.75578E+02 -1.73802E+02 -1.72215E+02 -1.70776E+02
  -1.69447E+02 -1.68179E+02 -1.66880E+02 -1.65541E+02 -1.64171E+02 -1.62751E+02 -1.61303E+02 -1.59845E+02 -1.58380E+02 -1.56910E+02
  -1.55469E+02 -1.54085E+02 -1.52769E+02 -1.51503E+02 -1.50248E+02 -1.48963E+02 -1.47644E+02 -1.46314E+02 -1.44983E+02 -1.43655E+02
  -1.42338E+02 -1.41042E+02 -1.39785E+02 -1.38572E+02 -1.37400E+02 -1.36258E+02 -1.35134E+02 -1.34014E+02 -1.32875E+02 -1.31613E+02
  -1.30210E+02 -1.28823E+02 -1.27496E+02 -1.26151E+02 -1.24723E+02 -1.23286E+02 -1.22031E+02 -1.21094E+02 -1.20446E+02 -1.19939E+02
  -1.19410E+02 -1.18761E+02 -1.17976E+02 -1.17082E+02 -1.16001E+02 -1.13962E+02 -1.10114E+02 -1.05762E+02 -1.01761E+02 -9.76676E+01
  -9.27567E+01 -8.72669E+01 -8.27819E+01 -8.09728E+01 -8.22429E+01 -8.56688E+01 -8.97627E+01 -9.32872E+01 -9.57471E+01 -9.73905E+01
  -9.87378E+01 -9.96061E+01 -9.94135E+01 -9.87764E+01 -9.80443E+01 -9.72573E+01 -9.64432E+01 -9.56029E+01 -9.46540E+01 -9.31539E+01
  -8.95870E+01 -8.44016E+01 -7.93509E+01 -7.45182E+01 -6.89178E+01 -6.21225E+01 -5.54222E+01 -5.12027E+01 -5.11014E+01 -5.47441E+01
  -6.02940E+01 -6.58285E+01 -7.02819E+01 -7.37246E+01 -7.69378E+01 -8.00967E+01 -8.20283E+01 -8.24667E+01 -8.19550E+01 -8.07339E+01
  -7.92236E+01 -7.78798E+01 -7.68767E+01 -7.61911E+01 -7.58317E+01 -7.57081E+01 -7.57107E+01 -7.58088E+01 -7.59465E+01 -7.60453E+01
  -7.60623E+01 -7.59582E+01 -7.57936E+01 -7.56212E+01 -7.55052E+01 -7.53726E+01 -7.51658E+01 -7.49122E+01 -7.46363E+01 -7.44708E+01
  -7.43733E+01 -7.41379E+01 -7.36313E+01 -7.29129E+01 -7.21981E+01 -7.16719E+01 -7.13723E+01 -7.12233E+01 -7.11265E+01 -7.10872E+01
  -7.10992E+01 -7.10084E+01 -7.08471E+01 -7.07335E+01 -7.07240E+01 -7.07039E+01 -7.04371E+01 -6.98742E+01 -6.92521E+01 -6.88210E+01
  -6.86304E+01 -6.84099E+01 -6.78900E+01 -6.70500E+01 -6.60201E+01 -6.49496E+01 -6.37982E+01 -6.23622E+01 -6.05915E+01 -5.87050E+01
  -5.71616E+01 -5.63878E+01 -5.62637E+01 -5.64587E+01 -5.67587E+01 -5.70531E+01 -5.72043E+01 -5.68980E+01 -5.59822E+01 -5.45389E+01
  -5.28167E+01 -5.11136E+01 -4.96472E+01 -4.87903E+01 -4.85731E+01 -4.88538E+01 -4.96387E+01 -5.07584E+01 -5.17142E+01 -5.18703E+01
  -5.11130E+01 -4.98562E+01 -4.81501E+01 -4.59009E+01 -4.34203E+01 -4.15943E+01 -4.13058E+01 -4.24903E+01 -4.44458E+01 -4.68525E+01
  -4.92131E+01 -5.08489E+01 -5.12084E+01 -5.00278E+01 -4.77008E+01 -4.47878E+01 -4.18536E+01 -3.95140E+01 -3.80003E+01 -3.71999E+01
  -3.66283E+01 -3.59513E+01 -3.52294E+01 -3.44109E+01 -3.33890E+01 -3.22928E+01 -3.15047E+01 -3.12437E+01 -3.14310E+01 -3.18279E+01
  -3.23551E+01 -3.27889E+01 -3.26919E+01 -3.18435E+01 -3.03936E+01 -2.87270E+01 -2.70662E+01 -2.56009E+01 -2.45802E+01 -2.40362E+01
  -2.37017E+01 -2.32076E+01 -2.18863E+01 -1.70434E+01 -8.63649E+00 -3.85067E-01  6.82181E+00  1.48107E+01  2.49311E+01  3.52064E+01
   4.12287E+01  3.99290E+01  3.17919E+01  1.98472E+01  7.65682E+00 -2.41317E+00 -9.89616E+00 -1.59154E+01 -2.13994E+01 -2.49086E+01
  -2.60633E+01 -2.65062E+01 -2.66558E+01 -2.65819E+01 -2.64061E+01 -2.62852E+01 -2.62561E+01 -2.63320E+01 -2.64998E+01 -2.67187E+01
  -2.69375E+01 -2.71336E+01 -2.72791E+01 -2.73398E+01 -2.73169E+01 -2.72332E+01 -2.71089E+01 -2.69651E+01 -2.68095E+01 -2.66434E+01
  -2.64753E+01 -2.63018E+01 -2.61191E+01 -2.59288E+01 -2.57287E+01 -2.55150E+01 -2.52887E+01 -2.50549E+01 -2.48180E+01 -2.45807E+01
  -2.43476E+01 -2.41227E+01 -2.39071E+01 -2.37041E+01 -2.35155E+01 -2.33418E+01 -2.31824E+01 -2.30353E+01 -2.28969E+01 -2.27624E+01
  -2.26268E+01 -2.24845E+01 -2.23287E+01 -2.21517E+01 -2.19453E+01 -2.17009E+01 -2.14097E+01 -2.10636E+01 -2.06553E+01 -2.01783E+01
  -1.96272E+01 -1.89982E+01 -1.82899E+01 -1.75033E+01 -1.66425E+01 -1.57142E+01 -1.47282E+01 -1.36973E+01 -1.26377E+01 -1.15682E+01
  -1.05093E+01 -9.48271E+00 -8.51018E+00 -7.61321E+00 -6.81177E+00 -6.12328E+00 -5.56146E+00 -5.13563E+00 -4.85042E+00 -4.70572E+00
  -4.69657E+00 -4.81331E+00 -5.04195E+00 -5.36510E+00 -5.76305E+00 -6.21494E+00 -6.69956E+00 -7.19622E+00 -7.68550E+00 -8.15031E+00
  -8.57652E+00 -8.95332E+00 -9.27311E+00 -9.53138E+00 -9.72648E+00 -9.85961E+00 -9.93436E+00 -9.95622E+00 -9.93178E+00 -9.86828E+00
  -9.77322E+00 -9.65421E+00 -9.51855E+00 -9.37265E+00 -9.22155E+00 -9.06930E+00 -8.91888E+00 -8.77250E+00 -8.63139E+00 -8.49586E+00
  -8.36516E+00 -8.23788E+00 -8.11207E+00 -7.98558E+00 -7.85587E+00 -7.72008E+00 -7.57508E+00 -7.41780E+00 -7.24531E+00 -7.05499E+00
  -6.84427E+00 -6.61076E+00 -6.35223E+00 -6.06696E+00 -5.75378E+00 -5.41208E+00 -5.04167E+00 -4.64292E+00 -4.21689E+00 -3.76560E+00
  -3.29202E+00 -2.80001E+00 -2.29416E+00 -1.77992E+00 -1.26354E+00 -7.52207E-01 -2.53615E-01  2.24252E-01  6.73519E-01  1.08650E+00
   1.45596E+00  1.77530E+00  2.03910E+00  2.24333E+00  2.38567E+00  2.46536E+00  2.48328E+00  2.44186E+00  2.34505E+00  2.19800E+00
   2.00709E+00  1.77943E+00  1.52268E+00  1.24469E+00  9.53430E-01  6.56638E-01  3.61533E-01  7.44222E-02 -1.99263E-01 -4.55054E-01
  -6.89260E-01 -8.99155E-01 -1.08292E+00 -1.23973E+00 -1.36944E+00 -1.47250E+00 -1.54966E+00 -1.60211E+00 -1.63137E+00 -1.63928E+00
  -1.62771E+00 -1.59851E+00 -1.55337E+00 -1.49407E+00 -1.42236E+00 -1.33999E+00 -1.24848E+00 -1.14919E+00 -1.04328E+00 -9.31977E-01
  -8.16433E-01 -6.97770E-01 -5.76846E-01 -4.54439E-01 -3.31221E-01 -2.07992E-01 -8.54817E-02  3.56133E-02  1.54826E-01  2.71682E-01
   3.85736E-01  4.96388E-01  6.03139E-01  7.05650E-01  8.04054E-01  8.98444E-01  9.88901E-01  1.07537E+00  1.15792E+00  1.23667E+00
   1.31188E+00  1.38365E+00  1.45210E+00  1.51722E+00  1.57918E+00  1.63819E+00  1.69450E+00  1.74822E+00  1.79946E+00  1.84828E+00
   1.89491E+00  1.93959E+00  1.98258E+00  2.02395E+00  2.06382E+00  2.10231E+00  2.13971E+00  2.17626E+00  2.21217E+00  2.24749E+00
   2.28238E+00  2.31702E+00  2.35172E+00  2.38670E+00  2.42214E+00  2.45809E+00  2.49476E+00  2.53236E+00  2.57123E+00  2.61153E+00
   2.65343E+00  2.69699E+00  2.74248E+00  2.79016E+00  2.84034E+00  2.89315E+00  2.94874E+00  3.00726E+00
 NY background values follow
    -2.933E+02   -2.905E+02   -2.878E+02   -2.850E+02   -2.822E+02   -2.794E+02   -2.767E+02   -2.739E+02   -2.712E+02   -2.684E+02
    -2.657E+02   -2.630E+02   -2.603E+02   -2.576E+02   -2.550E+02   -2.523E+02   -2.497E+02   -2.470E+02   -2.444E+02   -2.418E+02
    -2.393E+02   -2.367E+02   -2.342E+02   -2.317E+02   -2.292E+02   -2.267E+02   -2.242E+02   -2.218E+02   -2.194E+02   -2.170E+02
    -2.146E+02   -2.123E+02   -2.099E+02   -2.076E+02   -2.054E+02   -2.031E+02   -2.009E+02   -1.987E+02   -1.965E+02   -1.944E+02
    -1.923E+02   -1.902E+02   -1.882E+02   -1.862E+02   -1.842E+02   -1.822E+02   -1.803E+02   -1.784E+02   -1.766E+02   -1.748E+02
    -1.730E+02   -1.712E+02   -1.695E+02   -1.678E+02   -1.661E+02   -1.645E+02   -1.629E+02   -1.613E+02   -1.597E+02   -1.582E+02
    -1.567E+02   -1.552E+02   -1.537E+02   -1.523E+02   -1.509E+02   -1.495E+02   -1.481E+02   -1.468E+02   -1.454E+02   -1.441E+02
    -1.428E+02   -1.416E+02   -1.403E+02   -1.391E+02   -1.379E+02   -1.367E+02   -1.356E+02   -1.344E+02   -1.333E+02   -1.321E+02
    -1.310E+02   -1.299E+02   -1.289E+02   -1.278E+02   -1.268E+02   -1.257E+02   -1.247E+02   -1.237E+02   -1.227E+02   -1.217E+02
    -1.207E+02   -1.197E+02   -1.188E+02   -1.178E+02   -1.169E+02   -1.159E+02   -1.150E+02   -1.141E+02   -1.132E+02   -1.123E+02
    -1.114E+02   -1.105E+02   -1.096E+02   -1.088E+02   -1.079E+02   -1.071E+02   -1.062E+02   -1.054E+02   -1.046E+02   -1.038E+02
    -1.030E+02   -1.022E+02   -1.014E+02   -1.006E+02   -9.985E+01   -9.909E+01   -9.834E+01   -9.760E+01   -9.687E+01   -9.615E+01
    -9.544E+01   -9.473E+01   -9.404E+01   -9.335E+01   -9.267E+01   -9.200E+01   -9.134E+01   -9.068E+01   -9.004E+01   -8.940E+01
    -8.877E+01   -8.815E+01   -8.754E+01   -8.694E+01   -8.635E+01   -8.576E+01   -8.518E+01   -8.461E+01   -8.405E+01   -8.350E+01
    -8.295E+01   -8.241E+01   -8.188E+01   -8.135E+01   -8.083E+01   -8.032E+01   -7.982E+01   -7.932E+01   -7.882E+01   -7.833E+01
    -7.785E+01   -7.737E+01   -7.690E+01   -7.643E+01   -7.596E+01   -7.550E+01   -7.505E+01   -7.460E+01   -7.415E+01   -7.370E+01
    -7.326E+01   -7.282E+01   -7.238E+01   -7.195E+01   -7.152E+01   -7.109E+01   -7.066E+01   -7.023E+01   -6.981E+01   -6.938E+01
    -6.896E+01   -6.854E+01   -6.811E+01   -6.769E+01   -6.727E+01   -6.685E+01   -6.643E+01   -6.600E+01   -6.558E+01   -6.515E+01
    -6.473E+01   -6.430E+01   -6.387E+01   -6.344E+01   -6.301E+01   -6.257E+01   -6.214E+01   -6.170E+01   -6.127E+01   -6.083E+01
    -6.039E+01   -5.995E+01   -5.952E+01   -5.908E+01   -5.864E+01   -5.820E+01   -5.776E+01   -5.732E+01   -5.688E+01   -5.644E+01
    -5.600E+01   -5.557E+01   -5.513E+01   -5.470E+01   -5.426E+01   -5.383E+01   -5.340E+01   -5.297E+01   -5.254E+01   -5.211E+01
    -5.168E+01   -5.126E+01   -5.084E+01   -5.042E+01   -5.000E+01   -4.959E+01   -4.918E+01   -4.877E+01   -4.836E+01   -4.796E+01
    -4.756E+01   -4.716E+01   -4.676E+01   -4.637E+01   -4.598E+01   -4.560E+01   -4.522E+01   -4.484E+01   -4.447E+01   -4.410E+01
    -4.374E+01   -4.338E+01   -4.302E+01   -4.266E+01   -4.232E+01   -4.197E+01   -4.163E+01   -4.129E+01   -4.096E+01   -4.063E+01
    -4.031E+01   -3.998E+01   -3.967E+01   -3.936E+01   -3.905E+01   -3.874E+01   -3.844E+01   -3.815E+01   -3.786E+01   -3.757E+01
    -3.729E+01   -3.701E+01   -3.673E+01   -3.646E+01   -3.620E+01   -3.593E+01   -3.568E+01   -3.543E+01   -3.518E+01   -3.493E+01
    -3.469E+01   -3.446E+01   -3.423E+01   -3.400E+01   -3.378E+01   -3.357E+01   -3.335E+01   -3.315E+01   -3.294E+01   -3.275E+01
    -3.255E+01   -3.236E+01   -3.218E+01   -3.200E+01   -3.183E+01   -3.165E+01   -3.149E+01   -3.132E+01   -3.116E+01   -3.100E+01
    -3.085E+01   -3.070E+01   -3.055E+01   -3.040E+01   -3.025E+01   -3.011E+01   -2.997E+01   -2.983E+01   -2.969E+01   -2.955E+01
    -2.941E+01   -2.927E+01   -2.913E+01   -2.899E+01   -2.885E+01   -2.871E+01   -2.857E+01   -2.842E+01   -2.828E+01   -2.813E+01
    -2.799E+01   -2.784E+01   -2.768E+01   -2.753E+01   -2.737E+01   -2.721E+01   -2.705E+01   -2.688E+01   -2.671E+01   -2.653E+01
    -2.635E+01   -2.617E+01   -2.598E+01   -2.579E+01   -2.559E+01   -2.539E+01   -2.518E+01   -2.496E+01   -2.474E+01   -2.451E+01
    -2.428E+01   -2.404E+01   -2.380E+01   -2.356E+01   -2.331E+01   -2.305E+01   -2.280E+01   -2.254E+01   -2.227E+01   -2.201E+01
    -2.174E+01   -2.147E+01   -2.120E+01   -2.092E+01   -2.065E+01   -2.037E+01   -2.010E+01   -1.982E+01   -1.955E+01   -1.927E+01
    -1.899E+01   -1.872E+01   -1.845E+01   -1.817E+01   -1.790E+01   -1.763E+01   -1.737E+01   -1.710E+01   -1.684E+01   -1.659E+01
    -1.633E+01   -1.608E+01   -1.583E+01   -1.559E+01   -1.535E+01   -1.512E+01   -1.489E+01   -1.467E+01   -1.445E+01   -1.424E+01
    -1.404E+01   -1.384E+01   -1.365E+01   -1.346E+01   -1.328E+01   -1.311E+01   -1.295E+01   -1.279E+01   -1.263E+01   -1.248E+01
    -1.234E+01   -1.220E+01   -1.206E+01   -1.193E+01   -1.180E+01   -1.168E+01   -1.156E+01   -1.144E+01   -1.132E+01   -1.121E+01
    -1.110E+01   -1.099E+01   -1.088E+01   -1.078E+01   -1.067E+01   -1.057E+01   -1.047E+01   -1.037E+01   -1.026E+01   -1.016E+01
    -1.006E+01   -9.954E+00   -9.849E+00   -9.743E+00   -9.635E+00   -9.525E+00   -9.414E+00   -9.300E+00   -9.183E+00   -9.063E+00
    -8.941E+00   -8.815E+00   -8.685E+00   -8.551E+00   -8.413E+00   -8.270E+00   -8.123E+00   -7.970E+00   -7.813E+00   -7.651E+00
    -7.484E+00   -7.312E+00   -7.137E+00   -6.957E+00   -6.774E+00   -6.588E+00   -6.399E+00   -6.206E+00   -6.011E+00   -5.814E+00
    -5.615E+00   -5.414E+00   -5.211E+00   -5.007E+00   -4.801E+00   -4.595E+00   -4.388E+00   -4.181E+00   -3.974E+00   -3.767E+00
    -3.560E+00   -3.354E+00   -3.149E+00   -2.945E+00   -2.743E+00   -2.542E+00   -2.343E+00   -2.146E+00   -1.952E+00   -1.760E+00
    -1.571E+00   -1.386E+00   -1.203E+00   -1.025E+00   -8.501E-01   -6.795E-01   -5.134E-01   -3.519E-01   -1.954E-01   -4.398E-02
     1.020E-01    2.423E-01    3.768E-01    5.051E-01    6.276E-01    7.445E-01    8.558E-01    9.619E-01    1.063E+00    1.159E+00
     1.251E+00    1.337E+00    1.420E+00    1.499E+00    1.574E+00    1.645E+00    1.712E+00    1.777E+00    1.838E+00    1.896E+00
     1.952E+00    2.005E+00    2.056E+00    2.105E+00    2.152E+00    2.198E+00    2.241E+00    2.284E+00    2.326E+00    2.366E+00
     2.406E+00    2.446E+00    2.485E+00    2.524E+00    2.564E+00    2.603E+00    2.643E+00    2.684E+00    2.726E+00    2.769E+00
     2.813E+00    2.859E+00    2.906E+00    2.956E+00    3.007E+00    3.061E+00    3.117E+00    3.176E+00
 Asp      Conc. = 2.70E+02
