 LCModel (Version 6.3-1L) Copyright: S.W. Provencher.          Ref.: Magn. Reson. Med. 30:672-679 (1993).                
 Slice#1 Row#7 Col#9  PD_05_press_2_raw_act
 36 lines in following concentration table = NCONC+1
    Conc.  %SD /Cr+PCr  Metabolite                                         
  303.735  54%   0.288 Ala                                                 
    0.000 999%   0.000 Asp                                                 
  690.879  36%   0.655 Cr                                                  
  363.641  73%   0.345 PCr                                                 
   99.101 180% 9.4E-02 GABA                                                
  306.451  60%   0.291 Glc                                                 
  556.423  60%   0.528 Gln                                                 
 1.99E+03  20%   1.890 Glu                                                 
  524.092   7%   0.497 GPC                                                 
    0.000 999%   0.000 PCh                                                 
  538.593  22%   0.511 GSH                                                 
 2.18E+03  18%   2.070 Ins                                                 
  764.975  25%   0.725 Lac                                                 
 2.61E+03   8%   2.473 NAA                                                 
  832.337  25%   0.789 NAAG                                                
   95.132  42% 9.0E-02 Scyllo                                              
  226.934 114%   0.215 Tau                                                 
  126.565 120%   0.120 -CrCH2                                              
  524.092   7%   0.497 GPC+PCh                                             
 3.44E+03   4%   3.263 NAA+NAAG                                            
 1.05E+03   9%   1.000 Cr+PCr                                              
 2.55E+03  21%   2.417 Glu+Gln                                             
 1.26E+03  64%   1.191 Lip13a                                              
    0.000 999%   0.000 Lip13b                                              
  405.313  76%   0.384 Lip09                                               
 2.53E+03  17%   2.400 MM09                                                
  159.161 122%   0.151 Lip20                                               
 2.47E+03  25%   2.341 MM20                                                
  693.346  62%   0.657 MM12                                                
 1.20E+03  45%   1.133 MM14                                                
    0.000 999%   0.000 MM17                                                
 1.26E+03  64%   1.191 Lip13a+Lip13b                                       
 3.14E+03  17%   2.982 MM14+Lip13a+Lip13b+MM12                             
 2.94E+03  11%   2.785 MM09+Lip09                                          
 2.63E+03  23%   2.491 MM20+Lip20                                          
   6 lines in following misc. output table
  FWHM = 0.038 ppm    S/N =   9                                            
  Data shift = 0.008 ppm                                                   
  Ph:   0 deg      13.4 deg/ppm                                            
  alphaB,S = 1.1E+01,   1.3E+01                                            
   14 spline knots.   Ns = 6(1)                                            
  ( 7) 3 infls.   ( 7) 1 extrs.                                            
  498 points on ppm-axis = NY
      4.000000     3.992357     3.984714     3.977070     3.969427     3.961784     3.954141     3.946497     3.938854     3.931211
      3.923568     3.915925     3.908281     3.900638     3.892995     3.885352     3.877708     3.870065     3.862422     3.854779
      3.847136     3.839492     3.831849     3.824206     3.816563     3.808919     3.801276     3.793633     3.785990     3.778347
      3.770703     3.763060     3.755417     3.747774     3.740130     3.732487     3.724844     3.717201     3.709558     3.701914
      3.694271     3.686628     3.678985     3.671341     3.663698     3.656055     3.648412     3.640769     3.633125     3.625482
      3.617839     3.610196     3.602552     3.594909     3.587266     3.579623     3.571980     3.564336     3.556693     3.549050
      3.541407     3.533763     3.526120     3.518477     3.510834     3.503191     3.495547     3.487904     3.480261     3.472618
      3.464974     3.457331     3.449688     3.442045     3.434402     3.426758     3.419115     3.411472     3.403829     3.396185
      3.388542     3.380899     3.373256     3.365613     3.357969     3.350326     3.342683     3.335040     3.327396     3.319753
      3.312110     3.304467     3.296824     3.289180     3.281537     3.273894     3.266251     3.258607     3.250964     3.243321
      3.235678     3.228034     3.220391     3.212748     3.205105     3.197462     3.189818     3.182175     3.174532     3.166889
      3.159245     3.151602     3.143959     3.136316     3.128673     3.121029     3.113386     3.105743     3.098100     3.090456
      3.082813     3.075170     3.067527     3.059884     3.052240     3.044597     3.036954     3.029311     3.021667     3.014024
      3.006381     2.998738     2.991095     2.983451     2.975808     2.968165     2.960522     2.952878     2.945235     2.937592
      2.929949     2.922306     2.914662     2.907019     2.899376     2.891733     2.884089     2.876446     2.868803     2.861160
      2.853517     2.845873     2.838230     2.830587     2.822944     2.815300     2.807657     2.800014     2.792371     2.784728
      2.777084     2.769441     2.761798     2.754155     2.746511     2.738868     2.731225     2.723582     2.715939     2.708295
      2.700652     2.693009     2.685366     2.677722     2.670079     2.662436     2.654793     2.647150     2.639506     2.631863
      2.624220     2.616577     2.608933     2.601290     2.593647     2.586004     2.578361     2.570717     2.563074     2.555431
      2.547788     2.540144     2.532501     2.524858     2.517215     2.509572     2.501928     2.494285     2.486642     2.478999
      2.471355     2.463712     2.456069     2.448426     2.440783     2.433139     2.425496     2.417853     2.410210     2.402566
      2.394923     2.387280     2.379637     2.371994     2.364350     2.356707     2.349064     2.341421     2.333777     2.326134
      2.318491     2.310848     2.303205     2.295561     2.287918     2.280275     2.272632     2.264988     2.257345     2.249702
      2.242059     2.234416     2.226772     2.219129     2.211486     2.203843     2.196199     2.188556     2.180913     2.173270
      2.165627     2.157983     2.150340     2.142697     2.135054     2.127410     2.119767     2.112124     2.104481     2.096838
      2.089194     2.081551     2.073908     2.066265     2.058621     2.050978     2.043335     2.035692     2.028049     2.020405
      2.012762     2.005119     1.997476     1.989833     1.982190     1.974546     1.966903     1.959260     1.951617     1.943974
      1.936331     1.928688     1.921045     1.913402     1.905759     1.898115     1.890472     1.882829     1.875186     1.867543
      1.859900     1.852257     1.844614     1.836971     1.829327     1.821684     1.814041     1.806398     1.798755     1.791112
      1.783469     1.775826     1.768183     1.760540     1.752896     1.745253     1.737610     1.729967     1.722324     1.714681
      1.707038     1.699395     1.691752     1.684108     1.676465     1.668822     1.661179     1.653536     1.645893     1.638250
      1.630607     1.622964     1.615321     1.607677     1.600034     1.592391     1.584748     1.577105     1.569462     1.561819
      1.554176     1.546533     1.538890     1.531246     1.523603     1.515960     1.508317     1.500674     1.493031     1.485388
      1.477745     1.470102     1.462458     1.454815     1.447172     1.439529     1.431886     1.424243     1.416600     1.408957
      1.401314     1.393671     1.386027     1.378384     1.370741     1.363098     1.355455     1.347812     1.340169     1.332526
      1.324883     1.317240     1.309596     1.301953     1.294310     1.286667     1.279024     1.271381     1.263738     1.256095
      1.248452     1.240808     1.233165     1.225522     1.217879     1.210236     1.202593     1.194950     1.187307     1.179664
      1.172021     1.164377     1.156734     1.149091     1.141448     1.133805     1.126162     1.118519     1.110876     1.103233
      1.095590     1.087946     1.080303     1.072660     1.065017     1.057374     1.049731     1.042088     1.034445     1.026802
      1.019158     1.011515     1.003872     0.996229     0.988586     0.980943     0.973300     0.965657     0.958014     0.950371
      0.942727     0.935084     0.927441     0.919798     0.912155     0.904512     0.896869     0.889226     0.881583     0.873940
      0.866296     0.858653     0.851010     0.843367     0.835724     0.828081     0.820438     0.812795     0.805152     0.797508
      0.789865     0.782222     0.774579     0.766936     0.759293     0.751650     0.744007     0.736364     0.728721     0.721077
      0.713434     0.705791     0.698148     0.690505     0.682862     0.675219     0.667576     0.659933     0.652290     0.644646
      0.637003     0.629360     0.621717     0.614074     0.606431     0.598788     0.591145     0.583502     0.575858     0.568215
      0.560572     0.552929     0.545286     0.537643     0.530000     0.522357     0.514714     0.507071     0.499427     0.491784
      0.484141     0.476498     0.468855     0.461212     0.453569     0.445925     0.438282     0.430639     0.422996     0.415353
      0.407710     0.400067     0.392424     0.384780     0.377137     0.369494     0.361851     0.354208     0.346565     0.338922
      0.331278     0.323635     0.315992     0.308349     0.300706     0.293063     0.285420     0.277777     0.270133     0.262490
      0.254847     0.247204     0.239561     0.231918     0.224275     0.216631     0.208988     0.201345
 NY phased data points follow
   2.40433E+01  3.03663E+01  1.70222E+01  2.39834E+01  2.29552E+01  1.95078E+01  2.35418E+01  2.50538E+01  1.63438E+01  3.89849E+01
   3.22427E+01  4.14536E+01  3.24978E+01  3.25140E+01  1.84639E+01  3.38118E+01  1.77128E+01  2.89904E+01  1.43654E+01  1.91589E+01
   1.86797E+01  3.08693E+01  3.33222E+01  2.07880E+01  1.57399E+01  2.74485E+01  2.11742E+01  2.40357E+01  1.82910E+01  1.56823E+01
   2.37335E+01  3.49563E+01  2.19922E+01  2.50945E+01  2.49460E+01  2.84399E+01  1.67688E+01  2.20624E+01  1.85331E+01  1.55911E+01
   1.03179E+01  2.24248E+01  1.62360E+01  1.81801E+01  2.26798E+01  2.68943E+01  2.38309E+01  3.44001E+01  1.81846E+01  3.20596E+01
   2.68369E+01  2.63323E+01  2.48933E+01  2.35737E+01  2.11442E+01  1.49948E+01  1.60309E+01  1.47123E+01  1.98601E+01  2.30450E+01
   1.83955E+01  2.23739E+01  1.65901E-01  2.24877E+01  4.65259E+00  6.95112E+00  1.16183E+00  1.07486E+01  1.07481E+01  1.55092E+00
   1.06118E+01  1.95909E+01  3.58427E+00  1.20002E+01  1.29563E+01  1.93559E+01  1.86596E+01  1.22233E+01  9.53202E+00  1.18305E+01
   3.00247E+00  1.29662E+01  2.89427E+00  1.37614E+01  1.39984E+01  1.20110E+01  1.83199E+01  7.04149E+00  1.33417E+01  9.88143E+00
   9.38200E+00  1.50391E+01 -1.45271E+00  1.03968E+01  8.45742E-01  1.62792E+01  7.68068E+00  1.26636E+01  1.79767E+01  1.62433E+01
   2.81174E+01  3.60644E+01  5.17026E+01  7.41654E+01  6.13667E+01  5.13014E+01  3.46612E+01  3.34959E+01  2.32674E+01  1.99428E+01
   6.02552E+00  1.35912E+01  1.49113E+01  1.38352E+01  2.31633E+00  7.43902E+00  1.11404E+01  9.79531E+00  8.53507E+00  1.16244E+01
   9.68505E+00  6.68952E+00  7.05911E+00  1.51441E+01  7.97767E+00  3.41140E+01  4.35806E+01  4.47158E+01  5.09442E+01  4.70800E+01
   3.57402E+01  2.46914E+01  1.23020E+01  1.37115E+01  1.82246E+01  8.52664E+00 -8.00193E-01  1.04177E+01 -2.93198E-01  6.11623E+00
   3.50579E+00  1.12607E+01  8.78495E+00  8.98888E+00  1.01030E+01  5.99155E+00  8.78934E+00  4.47195E+00  6.17583E+00  5.80501E+00
   1.90395E+00  7.37720E+00 -2.52605E+00  1.05183E+01  7.25713E+00  8.19511E+00  1.36974E+00  4.29094E+00  3.79229E+00  7.54346E+00
   7.94657E+00  9.83603E+00  6.72401E+00  6.46709E+00  9.31156E+00 -2.10561E+00  5.76462E+00  1.88930E+00 -7.92673E-02 -4.97530E+00
  -1.18886E+01 -1.69414E+00 -2.35720E+01 -8.44875E+00 -1.71074E+01 -1.16520E+01 -8.92582E+00 -7.63848E+00 -2.23141E+01 -7.91592E+00
  -1.27486E+01 -1.08886E+01 -4.03331E+00 -6.90184E+00  8.22272E+00 -5.44196E+00 -1.91932E+00 -9.72574E+00 -1.08865E+01  3.83238E+00
   5.08253E+00  1.79198E+00  2.65809E+00 -3.61712E+00 -7.72617E-01  1.95842E+00 -1.27269E+01 -7.96641E+00  2.38939E+00 -4.89223E+00
  -8.93599E+00  8.00430E+00  2.34900E-01  1.34241E+01 -4.71305E+00  5.99985E+00 -1.72625E+00  5.20234E-01 -6.53949E+00  6.03648E+00
   2.28128E+00  3.26864E-01  5.36534E+00  1.04885E+01  1.59668E+01  1.76748E+01  8.90389E+00  2.29473E+01  1.59432E+01  2.57123E+00
   1.57520E+00 -1.45862E+01 -6.73105E+00 -6.66530E-01  1.14219E+00 -5.41746E-01  1.03308E+01  5.42525E+00  9.27392E+00  6.06171E+00
   1.64332E+01  1.49394E+01  1.11266E+01  4.47122E+00  4.59651E+00  7.54674E+00  8.43369E+00  1.26841E+01  1.23217E+01  1.68442E+01
   1.44444E+01  1.06908E+00  5.86572E+00  1.24645E+00 -1.86139E-01  1.33007E+01  1.07474E+01  1.89938E+01  2.31307E+01  1.35700E+01
   1.51638E+01  1.71464E+01  2.34326E+01  2.98493E+01  4.38629E+01  5.91580E+01  6.45432E+01  7.84675E+01  9.33787E+01  1.03417E+02
   1.25661E+02  1.36941E+02  1.00070E+02  8.13265E+01  4.21826E+01  2.16340E+01  6.52660E+00  1.03129E+01  3.45469E+00  1.50608E+01
   2.37801E+00  3.43883E+00  7.48154E+00  1.06444E+00  6.80558E+00  7.45710E-01 -6.30735E+00 -3.50977E+00 -3.17702E-01 -7.72427E-01
   6.25529E-01 -4.70122E+00  8.96247E-01 -5.87167E-01  1.45946E+01  6.92567E-01 -7.28903E-01  9.95983E-01  6.65879E+00  1.32260E-01
   3.87330E-01  5.47496E+00  8.02402E+00 -9.63662E-01 -5.63080E+00  4.04984E+00 -6.62915E-01 -8.64289E+00 -6.18846E-01 -1.02590E+01
  -3.07146E+00  5.00586E+00  1.88060E+00 -2.70678E+00 -3.42393E-01  2.46231E+00 -1.67043E+00 -2.18738E+00  1.25306E+01  1.38461E+01
   2.22837E+00  4.11803E+00 -1.06835E+01 -1.32138E+01 -2.49055E+00 -6.56855E+00 -1.66803E+01 -6.33219E+00 -1.27697E+01 -1.56325E+00
   8.75325E-01 -8.92476E+00 -4.41049E+00  6.63183E+00  3.27761E+00 -3.02423E+00  3.31807E+00  3.61325E+00 -1.10680E+01  1.45912E+00
  -1.39445E+00  7.01392E-01 -6.21860E+00  3.73127E+00  5.27908E+00  9.17556E+00  2.00771E+01  8.33366E+00  1.59842E+01  4.25237E+00
   1.40625E+01  1.42822E+01  1.99120E+01  2.16024E+01  1.66725E+01  2.22006E+01  1.85377E+01  2.24555E+01  1.21126E+01  1.22068E+01
  -9.78184E-01 -2.32648E+00 -1.36881E+00  6.70249E+00 -6.55024E+00  1.21826E+01  4.74647E+00  1.31331E+01  3.34087E+00  1.53730E+01
   1.43405E+01  9.18431E+00  1.50714E+01  1.98611E+01  2.19909E+01  5.45436E+00  6.29995E-01 -3.28508E+00  9.90991E+00  5.64588E+00
   3.04187E+00  1.07441E+00  4.23238E+00  4.58110E+00  1.35742E+01  4.42421E+00  2.23890E+00  2.34668E+00 -4.46152E+00 -4.18535E+00
   5.46675E+00  1.70363E-01  8.14480E+00  1.59153E+01  1.18617E+01  8.99329E+00  4.02753E+00  1.70135E+01  4.53068E+00  9.11218E+00
   3.35483E-01  1.13703E+01  2.35938E+00  1.44208E+01  1.31853E+01  1.94601E+01  1.29303E+01  2.10613E+01  1.20814E+01  2.42282E+01
   1.11320E+01  1.19751E+01  1.39177E+01  2.72782E+01  1.38362E+01  1.64412E+01  1.50445E+01  2.56485E+01  2.37006E+01  1.57696E+01
   9.16535E+00  1.22197E+01  3.24248E+00  1.19655E+00  7.58588E+00  1.10639E+01  5.91953E+00  2.41421E+00  1.08460E+01  6.84150E+00
   9.68497E+00  5.01174E+00  8.91872E+00  2.88538E+00  5.98574E+00 -4.45105E+00  1.02034E+01  7.25610E+00  2.95534E+00  7.97670E+00
   9.71947E-01  5.92760E+00 -8.21127E-01 -7.85704E+00 -1.55168E+00 -3.05856E+00 -5.46011E+00 -3.77579E+00 -9.95304E-01  3.17655E+00
   5.06375E+00 -7.05995E-01  4.57314E+00  5.71298E+00  6.60109E+00 -4.09424E-01  8.50101E-01  3.27039E+00 -8.66991E+00 -7.60206E+00
   1.43229E+00  1.53131E-01 -8.95718E+00 -3.16157E+00 -9.59285E+00 -2.09445E+00 -4.02791E+00 -1.26462E+01 -2.86258E+00 -1.08469E+01
  -8.46789E+00  2.32693E+00 -3.50872E+00 -2.89967E+00 -9.26417E+00 -6.20424E+00 -5.15595E+00 -2.89777E+00 -4.88473E+00 -1.03650E+00
   2.81826E+00 -2.61969E+00  9.35941E-01 -1.17821E+00 -1.34020E-01  2.18953E+00  4.52835E+00  7.58521E-01 -1.35457E+00 -1.53308E+01
  -3.87988E+00 -1.22340E+01 -1.32182E-02  2.52230E+00 -3.19367E+00 -4.74286E+00  5.62026E+00 -5.81488E+00 -2.13051E+00  6.51207E+00
  -8.17756E+00 -7.94755E+00 -5.53832E+00 -5.39939E+00 -9.63429E+00 -8.25103E-01  7.14942E-01 -5.21409E+00
 NY points of the fit to the data follow
   1.58261E+01  1.52289E+01  1.54715E+01  1.63413E+01  1.74731E+01  1.92361E+01  2.21925E+01  2.45336E+01  2.73007E+01  3.16458E+01
   3.51341E+01  3.70902E+01  3.71091E+01  3.32426E+01  2.72479E+01  2.24482E+01  1.87465E+01  1.66469E+01  1.58282E+01  1.53010E+01
   1.54164E+01  1.57581E+01  1.58475E+01  1.61462E+01  1.70095E+01  1.68392E+01  1.63479E+01  1.75126E+01  1.98399E+01  2.35559E+01
   2.84329E+01  3.12871E+01  3.08706E+01  2.86213E+01  2.49567E+01  2.06092E+01  1.67949E+01  1.41959E+01  1.29354E+01  1.24451E+01
   1.28447E+01  1.39959E+01  1.54200E+01  1.70248E+01  1.89321E+01  2.17904E+01  2.56937E+01  2.95097E+01  3.12463E+01  2.91534E+01
   2.38429E+01  1.78947E+01  1.32420E+01  1.07787E+01  1.02298E+01  1.04337E+01  1.12616E+01  1.25525E+01  1.39935E+01  1.57533E+01
   1.73148E+01  1.76776E+01  1.66359E+01  1.46416E+01  1.23711E+01  1.08231E+01  1.05131E+01  1.09829E+01  1.18074E+01  1.29869E+01
   1.41762E+01  1.50046E+01  1.58333E+01  1.64041E+01  1.62459E+01  1.58485E+01  1.52535E+01  1.42284E+01  1.31593E+01  1.23581E+01
   1.21203E+01  1.20394E+01  1.18688E+01  1.22999E+01  1.30457E+01  1.34234E+01  1.32437E+01  1.17081E+01  8.89262E+00  6.65346E+00
   5.91328E+00  6.39785E+00  7.57840E+00  8.77596E+00  9.74637E+00  1.07578E+01  1.24258E+01  1.65353E+01  1.99574E+01  2.14375E+01
   2.84530E+01  4.04553E+01  5.32572E+01  6.51442E+01  6.74546E+01  5.58286E+01  4.00675E+01  2.67539E+01  1.66476E+01  1.16905E+01
   8.85680E+00  6.82660E+00  6.46537E+00  6.50096E+00  6.59355E+00  6.69815E+00  6.81264E+00  6.88260E+00  6.99872E+00  7.26751E+00
   8.05692E+00  1.07440E+01  1.39533E+01  1.58710E+01  2.09522E+01  2.97823E+01  3.90752E+01  4.78345E+01  5.08855E+01  4.39927E+01
   3.32403E+01  2.41679E+01  1.69282E+01  1.28195E+01  9.99274E+00  6.61927E+00  4.28901E+00  3.11807E+00  2.97165E+00  4.03789E+00
   5.70365E+00  7.09476E+00  7.97852E+00  8.10093E+00  7.50725E+00  6.79984E+00  6.14405E+00  5.60513E+00  5.20883E+00  4.85843E+00
   4.59280E+00  4.24493E+00  3.84452E+00  3.48904E+00  3.06755E+00  2.74864E+00  3.04680E+00  3.43116E+00  3.34002E+00  2.90113E+00
   1.69311E+00  5.39933E-01  6.15294E-01  1.33754E+00  1.98888E+00  2.29491E+00  1.49057E+00  1.21621E-02 -1.02508E+00 -1.83410E+00
  -2.32557E+00 -2.11005E+00 -1.85295E+00 -2.30649E+00 -3.15456E+00 -4.08898E+00 -4.48747E+00 -3.75595E+00 -2.59691E+00 -2.16988E+00
  -2.56199E+00 -3.20587E+00 -3.13910E+00 -2.32982E+00 -1.64737E+00 -1.02831E+00 -3.77242E-01  6.65177E-01  2.78615E+00  5.54364E+00
   7.74388E+00  8.92935E+00  8.69632E+00  7.54667E+00  6.05949E+00  4.26372E+00  2.90369E+00  2.27583E+00  2.30325E+00  3.29482E+00
   5.37326E+00  7.45170E+00  9.13932E+00  1.02856E+01  1.01253E+01  9.06028E+00  6.72355E+00  2.96388E+00 -4.27288E-01 -2.79549E+00
  -3.76471E+00 -2.96742E+00 -6.12331E-01  3.30874E+00  8.33375E+00  1.27220E+01  1.46969E+01  1.33272E+01  8.87672E+00  3.27338E+00
  -2.57477E+00 -7.19486E+00 -9.28267E+00 -8.49431E+00 -4.10928E+00  1.70697E+00  6.36155E+00  9.48865E+00  1.07166E+01  1.02297E+01
   9.08756E+00  7.78570E+00  6.91430E+00  7.18087E+00  8.35120E+00  9.86671E+00  1.11366E+01  1.17718E+01  1.18628E+01  1.07570E+01
   8.54035E+00  6.28045E+00  4.78055E+00  4.58340E+00  6.00025E+00  8.53303E+00  1.09622E+01  1.27134E+01  1.35281E+01  1.43098E+01
   1.63572E+01  1.73613E+01  1.94998E+01  2.74701E+01  4.32576E+01  5.71318E+01  6.57023E+01  7.83142E+01  9.28198E+01  1.08876E+02
   1.25909E+02  1.26880E+02  1.03977E+02  7.50113E+01  5.02004E+01  3.12273E+01  2.15494E+01  1.49137E+01  9.97616E+00  7.99643E+00
   6.92710E+00  6.28063E+00  6.02081E+00  6.08911E+00  6.19934E+00  6.10439E+00  5.70871E+00  5.11130E+00  4.43915E+00  3.84025E+00
   3.37255E+00  3.00948E+00  2.77519E+00  2.67774E+00  2.59458E+00  2.45389E+00  2.29509E+00  2.08195E+00  1.82317E+00  1.61114E+00
   1.45190E+00  1.36266E+00  1.36885E+00  1.37443E+00  1.33510E+00  1.25955E+00  1.12436E+00  9.63601E-01  8.04260E-01  6.47953E-01
   5.50725E-01  5.21489E-01  5.17589E-01  5.30088E-01  5.41015E-01  5.38746E-01  5.38006E-01  5.35667E-01  5.34862E-01  5.44240E-01
   5.65976E-01  6.01405E-01  6.52405E-01  7.20411E-01  8.08445E-01  9.22469E-01  1.06942E+00  1.25744E+00  1.50021E+00  1.82668E+00
   2.31359E+00  2.95642E+00  3.31243E+00  3.82507E+00  4.81251E+00  5.55181E+00  5.80715E+00  5.28686E+00  3.54224E+00  1.78115E+00
   8.04281E-01  1.96109E-01  6.02712E-01  2.01639E+00  3.99905E+00  6.85650E+00  9.60918E+00  1.11155E+01  1.17850E+01  1.20652E+01
   1.23192E+01  1.32170E+01  1.39855E+01  1.41149E+01  1.53975E+01  1.72418E+01  1.79040E+01  1.71175E+01  1.35316E+01  7.81614E+00
   2.88592E+00 -7.43792E-01 -2.29580E+00 -7.99261E-01  2.48149E+00  7.53575E+00  1.31141E+01  1.58809E+01  1.60853E+01  1.50774E+01
   1.33284E+01  1.19238E+01  1.08104E+01  9.67927E+00  8.84248E+00  8.18262E+00  7.61536E+00  7.10640E+00  6.63908E+00  6.20529E+00
   5.80203E+00  5.42956E+00  5.08955E+00  4.78430E+00  4.51641E+00  4.28949E+00  4.10790E+00  3.97657E+00  3.90011E+00  3.88288E+00
   3.92921E+00  4.04382E+00  4.23146E+00  4.49641E+00  4.84173E+00  5.26939E+00  5.78021E+00  6.37388E+00  7.04814E+00  7.79821E+00
   8.61624E+00  9.49174E+00  1.04116E+01  1.13603E+01  1.23197E+01  1.32692E+01  1.41865E+01  1.50487E+01  1.58334E+01  1.65194E+01
   1.70871E+01  1.75199E+01  1.78043E+01  1.79319E+01  1.78989E+01  1.77065E+01  1.73599E+01  1.68690E+01  1.62470E+01  1.55109E+01
   1.46797E+01  1.37736E+01  1.28127E+01  1.18168E+01  1.08048E+01  9.79386E+00  8.79916E+00  7.83315E+00  6.90551E+00  6.02365E+00
   5.19283E+00  4.41643E+00  3.69575E+00  3.03041E+00  2.41866E+00  1.85816E+00  1.34607E+00  8.79221E-01  4.53909E-01  6.62992E-02
  -2.87403E-01 -6.10461E-01 -9.05889E-01 -1.17649E+00 -1.42517E+00 -1.65452E+00 -1.86680E+00 -2.06369E+00 -2.24675E+00 -2.41744E+00
  -2.57734E+00 -2.72770E+00 -2.86952E+00 -3.00340E+00 -3.13007E+00 -3.25030E+00 -3.36494E+00 -3.47455E+00 -3.57948E+00 -3.67990E+00
  -3.77624E+00 -3.86897E+00 -3.95860E+00 -4.04528E+00 -4.12911E+00 -4.21012E+00 -4.28865E+00 -4.36503E+00 -4.43956E+00 -4.51218E+00
  -4.58291E+00 -4.65178E+00 -4.71913E+00 -4.78516E+00 -4.85000E+00 -4.91347E+00 -4.97560E+00 -5.03648E+00 -5.09643E+00 -5.15555E+00
  -5.21383E+00 -5.27108E+00 -5.32736E+00 -5.38283E+00 -5.43774E+00 -5.49207E+00 -5.54574E+00 -5.59860E+00 -5.65080E+00 -5.70252E+00
  -5.75394E+00 -5.80492E+00 -5.85538E+00 -5.90523E+00 -5.95468E+00 -6.00390E+00 -6.05296E+00 -6.10168E+00 -6.14998E+00 -6.19788E+00
  -6.24565E+00 -6.29338E+00 -6.34106E+00 -6.38848E+00 -6.43565E+00 -6.48268E+00 -6.52985E+00 -6.57716E+00
 NY background values follow
     8.595E+00    8.560E+00    8.526E+00    8.492E+00    8.458E+00    8.423E+00    8.389E+00    8.355E+00    8.321E+00    8.286E+00
     8.252E+00    8.218E+00    8.183E+00    8.149E+00    8.114E+00    8.080E+00    8.046E+00    8.011E+00    7.977E+00    7.942E+00
     7.908E+00    7.873E+00    7.839E+00    7.804E+00    7.770E+00    7.735E+00    7.701E+00    7.666E+00    7.632E+00    7.597E+00
     7.562E+00    7.528E+00    7.493E+00    7.459E+00    7.424E+00    7.389E+00    7.355E+00    7.320E+00    7.285E+00    7.251E+00
     7.216E+00    7.181E+00    7.146E+00    7.112E+00    7.077E+00    7.042E+00    7.007E+00    6.973E+00    6.938E+00    6.903E+00
     6.868E+00    6.833E+00    6.799E+00    6.764E+00    6.729E+00    6.694E+00    6.659E+00    6.624E+00    6.589E+00    6.555E+00
     6.520E+00    6.485E+00    6.450E+00    6.415E+00    6.380E+00    6.345E+00    6.310E+00    6.275E+00    6.240E+00    6.205E+00
     6.170E+00    6.135E+00    6.100E+00    6.065E+00    6.030E+00    5.995E+00    5.960E+00    5.925E+00    5.890E+00    5.855E+00
     5.820E+00    5.785E+00    5.750E+00    5.715E+00    5.680E+00    5.645E+00    5.610E+00    5.575E+00    5.540E+00    5.505E+00
     5.470E+00    5.434E+00    5.399E+00    5.364E+00    5.329E+00    5.294E+00    5.259E+00    5.224E+00    5.189E+00    5.154E+00
     5.119E+00    5.083E+00    5.048E+00    5.013E+00    4.978E+00    4.943E+00    4.908E+00    4.873E+00    4.837E+00    4.802E+00
     4.767E+00    4.732E+00    4.697E+00    4.662E+00    4.627E+00    4.592E+00    4.556E+00    4.521E+00    4.486E+00    4.451E+00
     4.416E+00    4.381E+00    4.345E+00    4.310E+00    4.275E+00    4.240E+00    4.205E+00    4.170E+00    4.135E+00    4.099E+00
     4.064E+00    4.029E+00    3.994E+00    3.959E+00    3.924E+00    3.889E+00    3.853E+00    3.818E+00    3.783E+00    3.748E+00
     3.713E+00    3.678E+00    3.643E+00    3.608E+00    3.572E+00    3.537E+00    3.502E+00    3.467E+00    3.432E+00    3.397E+00
     3.362E+00    3.327E+00    3.292E+00    3.256E+00    3.221E+00    3.186E+00    3.151E+00    3.116E+00    3.081E+00    3.046E+00
     3.011E+00    2.976E+00    2.941E+00    2.906E+00    2.871E+00    2.836E+00    2.801E+00    2.766E+00    2.731E+00    2.696E+00
     2.661E+00    2.626E+00    2.591E+00    2.556E+00    2.521E+00    2.486E+00    2.451E+00    2.416E+00    2.381E+00    2.346E+00
     2.311E+00    2.276E+00    2.241E+00    2.206E+00    2.172E+00    2.137E+00    2.102E+00    2.067E+00    2.032E+00    1.997E+00
     1.962E+00    1.928E+00    1.893E+00    1.858E+00    1.823E+00    1.788E+00    1.754E+00    1.719E+00    1.684E+00    1.649E+00
     1.615E+00    1.580E+00    1.545E+00    1.511E+00    1.476E+00    1.441E+00    1.406E+00    1.372E+00    1.337E+00    1.302E+00
     1.268E+00    1.233E+00    1.199E+00    1.164E+00    1.129E+00    1.095E+00    1.060E+00    1.026E+00    9.911E-01    9.566E-01
     9.220E-01    8.875E-01    8.530E-01    8.185E-01    7.840E-01    7.496E-01    7.151E-01    6.806E-01    6.462E-01    6.118E-01
     5.774E-01    5.430E-01    5.086E-01    4.742E-01    4.398E-01    4.054E-01    3.711E-01    3.368E-01    3.024E-01    2.681E-01
     2.338E-01    1.995E-01    1.653E-01    1.310E-01    9.676E-02    6.252E-02    2.830E-02   -5.911E-03   -4.011E-02   -7.429E-02
    -1.085E-01   -1.426E-01   -1.768E-01   -2.109E-01   -2.450E-01   -2.791E-01   -3.132E-01   -3.473E-01   -3.814E-01   -4.154E-01
    -4.495E-01   -4.835E-01   -5.175E-01   -5.515E-01   -5.855E-01   -6.195E-01   -6.534E-01   -6.874E-01   -7.213E-01   -7.552E-01
    -7.891E-01   -8.230E-01   -8.569E-01   -8.907E-01   -9.246E-01   -9.584E-01   -9.922E-01   -1.026E+00   -1.060E+00   -1.094E+00
    -1.127E+00   -1.161E+00   -1.195E+00   -1.228E+00   -1.262E+00   -1.296E+00   -1.330E+00   -1.363E+00   -1.397E+00   -1.430E+00
    -1.464E+00   -1.498E+00   -1.531E+00   -1.565E+00   -1.598E+00   -1.632E+00   -1.665E+00   -1.699E+00   -1.732E+00   -1.766E+00
    -1.799E+00   -1.833E+00   -1.866E+00   -1.900E+00   -1.933E+00   -1.966E+00   -2.000E+00   -2.033E+00   -2.066E+00   -2.100E+00
    -2.133E+00   -2.166E+00   -2.200E+00   -2.233E+00   -2.266E+00   -2.299E+00   -2.332E+00   -2.366E+00   -2.399E+00   -2.432E+00
    -2.465E+00   -2.498E+00   -2.531E+00   -2.564E+00   -2.598E+00   -2.631E+00   -2.664E+00   -2.697E+00   -2.730E+00   -2.763E+00
    -2.796E+00   -2.829E+00   -2.862E+00   -2.895E+00   -2.928E+00   -2.960E+00   -2.993E+00   -3.026E+00   -3.059E+00   -3.092E+00
    -3.125E+00   -3.158E+00   -3.190E+00   -3.223E+00   -3.256E+00   -3.289E+00   -3.321E+00   -3.354E+00   -3.387E+00   -3.420E+00
    -3.452E+00   -3.485E+00   -3.518E+00   -3.550E+00   -3.583E+00   -3.615E+00   -3.648E+00   -3.681E+00   -3.713E+00   -3.746E+00
    -3.778E+00   -3.811E+00   -3.843E+00   -3.876E+00   -3.908E+00   -3.941E+00   -3.973E+00   -4.006E+00   -4.038E+00   -4.070E+00
    -4.103E+00   -4.135E+00   -4.168E+00   -4.200E+00   -4.232E+00   -4.265E+00   -4.297E+00   -4.329E+00   -4.361E+00   -4.394E+00
    -4.426E+00   -4.458E+00   -4.490E+00   -4.523E+00   -4.555E+00   -4.587E+00   -4.619E+00   -4.651E+00   -4.683E+00   -4.715E+00
    -4.748E+00   -4.780E+00   -4.812E+00   -4.844E+00   -4.876E+00   -4.908E+00   -4.940E+00   -4.972E+00   -5.004E+00   -5.036E+00
    -5.068E+00   -5.100E+00   -5.132E+00   -5.164E+00   -5.196E+00   -5.227E+00   -5.259E+00   -5.291E+00   -5.323E+00   -5.355E+00
    -5.387E+00   -5.419E+00   -5.450E+00   -5.482E+00   -5.514E+00   -5.546E+00   -5.577E+00   -5.609E+00   -5.641E+00   -5.673E+00
    -5.704E+00   -5.736E+00   -5.768E+00   -5.799E+00   -5.831E+00   -5.863E+00   -5.894E+00   -5.926E+00   -5.957E+00   -5.989E+00
    -6.021E+00   -6.052E+00   -6.084E+00   -6.115E+00   -6.147E+00   -6.178E+00   -6.210E+00   -6.241E+00   -6.273E+00   -6.304E+00
    -6.335E+00   -6.367E+00   -6.398E+00   -6.430E+00   -6.461E+00   -6.492E+00   -6.524E+00   -6.555E+00   -6.586E+00   -6.618E+00
    -6.649E+00   -6.680E+00   -6.712E+00   -6.743E+00   -6.774E+00   -6.805E+00   -6.837E+00   -6.868E+00   -6.899E+00   -6.930E+00
    -6.961E+00   -6.993E+00   -7.024E+00   -7.055E+00   -7.086E+00   -7.117E+00   -7.148E+00   -7.179E+00   -7.210E+00   -7.242E+00
    -7.273E+00   -7.304E+00   -7.335E+00   -7.366E+00   -7.397E+00   -7.428E+00   -7.459E+00   -7.490E+00   -7.520E+00   -7.551E+00
    -7.582E+00   -7.613E+00   -7.644E+00   -7.675E+00   -7.706E+00   -7.737E+00   -7.768E+00   -7.798E+00   -7.829E+00   -7.860E+00
    -7.891E+00   -7.922E+00   -7.952E+00   -7.983E+00   -8.014E+00   -8.044E+00   -8.075E+00   -8.106E+00
 Ala      Conc. = 3.04E+02
