 LCModel (Version 6.3-1L) Copyright: S.W. Provencher.          Ref.: Magn. Reson. Med. 30:672-679 (1993).                
 Slice#2 Row#11 Col#6  PD_05_press_2_raw_act
 36 lines in following concentration table = NCONC+1
    Conc.  %SD /Cr+PCr  Metabolite                                         
    0.000 999%   0.000 Ala                                                 
   70.448 159%   0.133 Asp                                                 
    0.000 999%   0.000 Cr                                                  
  528.021  14%   1.000 PCr                                                 
   60.087 114%   0.114 GABA                                                
   67.858 100%   0.129 Glc                                                 
  363.072 102%   0.688 Gln                                                 
  379.993 109%   0.720 Glu                                                 
    0.000 999%   0.000 GPC                                                 
  189.317  14%   0.359 PCh                                                 
  264.015  39%   0.500 GSH                                                 
 1.45E+03  25%   2.754 Ins                                                 
    0.000 999%   0.000 Lac                                                 
  721.194  11%   1.366 NAA                                                 
    0.000 999%   0.000 NAAG                                                
   69.030  30%   0.131 Scyllo                                              
  214.580  52%   0.406 Tau                                                 
  888.053  15%   1.682 -CrCH2                                              
  189.317  14%   0.359 GPC+PCh                                             
  721.194  11%   1.366 NAA+NAAG                                            
  528.021  14%   1.000 Cr+PCr                                              
  743.065  86%   1.407 Glu+Gln                                             
 1.34E+03  29%   2.543 Lip13a                                              
    0.000 999%   0.000 Lip13b                                              
  325.691  41%   0.617 Lip09                                               
  520.526  35%   0.986 MM09                                                
  206.771  40%   0.392 Lip20                                               
 1.01E+03  30%   1.905 MM20                                                
  153.830  59%   0.291 MM12                                                
  912.614  25%   1.728 MM14                                                
    0.000 999%   0.000 MM17                                                
 1.34E+03  29%   2.543 Lip13a+Lip13b                                       
 2.41E+03  15%   4.563 MM14+Lip13a+Lip13b+MM12                             
  846.217  22%   1.603 MM09+Lip09                                          
 1.21E+03  25%   2.296 MM20+Lip20                                          
   6 lines in following misc. output table
  FWHM = 0.069 ppm    S/N =   3                                            
  Data shift = 0.008 ppm                                                   
  Ph: -41 deg     -12.7 deg/ppm                                            
  alphaB,S = 7.5E-01,   2.6E+01                                            
   14 spline knots.   Ns = 7(1)                                            
  (14) 7 infls.   (15) 3 extrs.                                            
  498 points on ppm-axis = NY
      4.000000     3.992357     3.984714     3.977070     3.969427     3.961784     3.954141     3.946497     3.938854     3.931211
      3.923568     3.915925     3.908281     3.900638     3.892995     3.885352     3.877708     3.870065     3.862422     3.854779
      3.847136     3.839492     3.831849     3.824206     3.816563     3.808919     3.801276     3.793633     3.785990     3.778347
      3.770703     3.763060     3.755417     3.747774     3.740130     3.732487     3.724844     3.717201     3.709558     3.701914
      3.694271     3.686628     3.678985     3.671341     3.663698     3.656055     3.648412     3.640769     3.633125     3.625482
      3.617839     3.610196     3.602552     3.594909     3.587266     3.579623     3.571980     3.564336     3.556693     3.549050
      3.541407     3.533763     3.526120     3.518477     3.510834     3.503191     3.495547     3.487904     3.480261     3.472618
      3.464974     3.457331     3.449688     3.442045     3.434402     3.426758     3.419115     3.411472     3.403829     3.396185
      3.388542     3.380899     3.373256     3.365613     3.357969     3.350326     3.342683     3.335040     3.327396     3.319753
      3.312110     3.304467     3.296824     3.289180     3.281537     3.273894     3.266251     3.258607     3.250964     3.243321
      3.235678     3.228034     3.220391     3.212748     3.205105     3.197462     3.189818     3.182175     3.174532     3.166889
      3.159245     3.151602     3.143959     3.136316     3.128673     3.121029     3.113386     3.105743     3.098100     3.090456
      3.082813     3.075170     3.067527     3.059884     3.052240     3.044597     3.036954     3.029311     3.021667     3.014024
      3.006381     2.998738     2.991095     2.983451     2.975808     2.968165     2.960522     2.952878     2.945235     2.937592
      2.929949     2.922306     2.914662     2.907019     2.899376     2.891733     2.884089     2.876446     2.868803     2.861160
      2.853517     2.845873     2.838230     2.830587     2.822944     2.815300     2.807657     2.800014     2.792371     2.784728
      2.777084     2.769441     2.761798     2.754155     2.746511     2.738868     2.731225     2.723582     2.715939     2.708295
      2.700652     2.693009     2.685366     2.677722     2.670079     2.662436     2.654793     2.647150     2.639506     2.631863
      2.624220     2.616577     2.608933     2.601290     2.593647     2.586004     2.578361     2.570717     2.563074     2.555431
      2.547788     2.540144     2.532501     2.524858     2.517215     2.509572     2.501928     2.494285     2.486642     2.478999
      2.471355     2.463712     2.456069     2.448426     2.440783     2.433139     2.425496     2.417853     2.410210     2.402566
      2.394923     2.387280     2.379637     2.371994     2.364350     2.356707     2.349064     2.341421     2.333777     2.326134
      2.318491     2.310848     2.303205     2.295561     2.287918     2.280275     2.272632     2.264988     2.257345     2.249702
      2.242059     2.234416     2.226772     2.219129     2.211486     2.203843     2.196199     2.188556     2.180913     2.173270
      2.165627     2.157983     2.150340     2.142697     2.135054     2.127410     2.119767     2.112124     2.104481     2.096838
      2.089194     2.081551     2.073908     2.066265     2.058621     2.050978     2.043335     2.035692     2.028049     2.020405
      2.012762     2.005119     1.997476     1.989833     1.982190     1.974546     1.966903     1.959260     1.951617     1.943974
      1.936331     1.928688     1.921045     1.913402     1.905759     1.898115     1.890472     1.882829     1.875186     1.867543
      1.859900     1.852257     1.844614     1.836971     1.829327     1.821684     1.814041     1.806398     1.798755     1.791112
      1.783469     1.775826     1.768183     1.760540     1.752896     1.745253     1.737610     1.729967     1.722324     1.714681
      1.707038     1.699395     1.691752     1.684108     1.676465     1.668822     1.661179     1.653536     1.645893     1.638250
      1.630607     1.622964     1.615321     1.607677     1.600034     1.592391     1.584748     1.577105     1.569462     1.561819
      1.554176     1.546533     1.538890     1.531246     1.523603     1.515960     1.508317     1.500674     1.493031     1.485388
      1.477745     1.470102     1.462458     1.454815     1.447172     1.439529     1.431886     1.424243     1.416600     1.408957
      1.401314     1.393671     1.386027     1.378384     1.370741     1.363098     1.355455     1.347812     1.340169     1.332526
      1.324883     1.317240     1.309596     1.301953     1.294310     1.286667     1.279024     1.271381     1.263738     1.256095
      1.248452     1.240808     1.233165     1.225522     1.217879     1.210236     1.202593     1.194950     1.187307     1.179664
      1.172021     1.164377     1.156734     1.149091     1.141448     1.133805     1.126162     1.118519     1.110876     1.103233
      1.095590     1.087946     1.080303     1.072660     1.065017     1.057374     1.049731     1.042088     1.034445     1.026802
      1.019158     1.011515     1.003872     0.996229     0.988586     0.980943     0.973300     0.965657     0.958014     0.950371
      0.942727     0.935084     0.927441     0.919798     0.912155     0.904512     0.896869     0.889226     0.881583     0.873940
      0.866296     0.858653     0.851010     0.843367     0.835724     0.828081     0.820438     0.812795     0.805152     0.797508
      0.789865     0.782222     0.774579     0.766936     0.759293     0.751650     0.744007     0.736364     0.728721     0.721077
      0.713434     0.705791     0.698148     0.690505     0.682862     0.675219     0.667576     0.659933     0.652290     0.644646
      0.637003     0.629360     0.621717     0.614074     0.606431     0.598788     0.591145     0.583502     0.575858     0.568215
      0.560572     0.552929     0.545286     0.537643     0.530000     0.522357     0.514714     0.507071     0.499427     0.491784
      0.484141     0.476498     0.468855     0.461212     0.453569     0.445925     0.438282     0.430639     0.422996     0.415353
      0.407710     0.400067     0.392424     0.384780     0.377137     0.369494     0.361851     0.354208     0.346565     0.338922
      0.331278     0.323635     0.315992     0.308349     0.300706     0.293063     0.285420     0.277777     0.270133     0.262490
      0.254847     0.247204     0.239561     0.231918     0.224275     0.216631     0.208988     0.201345
 NY phased data points follow
  -1.31205E+02 -1.29768E+02 -1.24424E+02 -1.24603E+02 -1.20463E+02 -1.19048E+02 -1.18038E+02 -1.14282E+02 -1.11059E+02 -1.13178E+02
  -1.12505E+02 -1.12735E+02 -9.93579E+01 -1.13666E+02 -1.07788E+02 -1.08951E+02 -1.05921E+02 -1.04733E+02 -1.06388E+02 -1.09304E+02
  -1.04133E+02 -1.02384E+02 -1.00023E+02 -9.97558E+01 -9.44742E+01 -9.97792E+01 -8.58516E+01 -9.11958E+01 -8.92598E+01 -8.47140E+01
  -8.52168E+01 -8.63547E+01 -8.22084E+01 -8.32192E+01 -8.60092E+01 -8.22472E+01 -8.23876E+01 -8.52553E+01 -7.89737E+01 -8.25321E+01
  -7.65024E+01 -7.88973E+01 -7.60498E+01 -7.15644E+01 -7.15350E+01 -8.14584E+01 -7.56401E+01 -7.73443E+01 -7.50134E+01 -7.62920E+01
  -7.00050E+01 -7.91426E+01 -7.05906E+01 -8.03528E+01 -7.11582E+01 -7.46562E+01 -7.31088E+01 -7.04516E+01 -6.43946E+01 -7.00302E+01
  -6.93729E+01 -6.87993E+01 -7.44090E+01 -7.05888E+01 -6.87733E+01 -6.54809E+01 -6.73777E+01 -6.47546E+01 -5.89201E+01 -6.79800E+01
  -6.12308E+01 -7.22290E+01 -5.80455E+01 -5.89239E+01 -5.47223E+01 -6.34954E+01 -5.05457E+01 -6.28428E+01 -5.88686E+01 -6.42667E+01
  -5.28549E+01 -5.89919E+01 -4.97880E+01 -5.86879E+01 -5.29577E+01 -4.69260E+01 -5.22960E+01 -5.40766E+01 -5.45102E+01 -5.10058E+01
  -4.80642E+01 -5.30924E+01 -5.11910E+01 -5.75259E+01 -5.00607E+01 -5.36707E+01 -4.04746E+01 -5.08216E+01 -4.26516E+01 -3.88268E+01
  -3.60979E+01 -4.44854E+01 -3.85664E+01 -4.01586E+01 -3.96898E+01 -3.79543E+01 -3.97863E+01 -4.41922E+01 -4.15793E+01 -4.50221E+01
  -3.61370E+01 -4.64969E+01 -4.59040E+01 -4.43578E+01 -3.98716E+01 -4.44205E+01 -4.14680E+01 -3.73236E+01 -4.16395E+01 -4.33595E+01
  -3.77494E+01 -3.91638E+01 -3.63150E+01 -3.01722E+01 -2.76525E+01 -2.42368E+01 -2.67278E+01 -2.55792E+01 -2.85420E+01 -3.14732E+01
  -3.13810E+01 -3.24847E+01 -3.72579E+01 -3.52856E+01 -4.25849E+01 -4.33029E+01 -3.92934E+01 -4.26191E+01 -3.51845E+01 -4.34682E+01
  -3.16839E+01 -3.76564E+01 -3.51743E+01 -4.07982E+01 -4.06603E+01 -4.08765E+01 -3.86882E+01 -4.13883E+01 -3.90436E+01 -3.93872E+01
  -2.79668E+01 -4.10339E+01 -3.04331E+01 -4.43568E+01 -3.46313E+01 -3.09862E+01 -3.01974E+01 -2.83583E+01 -3.19346E+01 -3.19551E+01
  -3.16328E+01 -3.48264E+01 -3.02240E+01 -3.20344E+01 -3.65549E+01 -2.71787E+01 -3.63206E+01 -2.66764E+01 -2.97157E+01 -3.73620E+01
  -3.17150E+01 -2.57660E+01 -3.44868E+01 -2.98070E+01 -3.16380E+01 -3.50703E+01 -3.11396E+01 -3.06230E+01 -2.55253E+01 -3.29331E+01
  -3.11121E+01 -3.02575E+01 -2.95292E+01 -3.31545E+01 -3.60737E+01 -3.27307E+01 -2.13244E+01 -2.57111E+01 -2.69497E+01 -2.40225E+01
  -2.79354E+01 -2.88273E+01 -3.19007E+01 -1.95663E+01 -2.26345E+01 -2.50062E+01 -2.65851E+01 -2.57463E+01 -2.51317E+01 -2.40239E+01
  -2.54286E+01 -1.97810E+01 -2.07838E+01 -2.20781E+01 -2.23683E+01 -2.34349E+01 -1.70490E+01 -2.35833E+01 -2.65866E+01 -2.42684E+01
  -2.52570E+01 -2.87816E+01 -2.13096E+01 -2.29939E+01 -1.95134E+01 -1.79543E+01 -2.65093E+01 -1.91266E+01 -1.77803E+01 -1.81524E+01
  -2.25027E+01 -2.39774E+01 -1.73170E+01 -2.60038E+01 -1.77957E+01 -1.57122E+01 -1.16594E+01 -1.70060E+01 -1.37766E+01 -1.29645E+01
  -1.42660E+01 -2.07438E+01 -1.75090E+01 -1.58598E+01 -1.19423E+01 -1.13814E+01 -5.97117E+00 -1.69976E+01 -1.06895E+01 -1.84605E+01
  -1.16748E+01 -1.44883E+01 -1.72258E+01 -1.51546E+01 -1.01282E+01 -7.82204E+00 -1.43392E+01 -1.27299E+01 -1.01304E+01 -1.69900E+01
  -1.30346E+01 -1.26002E+01 -1.23772E+01 -9.35118E+00 -2.06875E+00  6.36405E-01 -1.65343E+00 -9.09995E-01  1.09219E+01  6.13006E+00
   8.57682E+00  1.19122E+00  7.44272E+00 -4.93934E+00 -5.63668E+00 -9.74510E+00 -1.48187E+01 -9.73174E+00 -8.78073E+00 -4.97158E+00
  -1.57393E+01 -1.33300E+01 -1.15191E+01 -1.66153E+01 -7.90093E+00 -1.56865E+01 -1.64914E+01 -1.08576E+01 -1.23279E+01 -1.13689E+01
  -1.07493E+01 -2.15067E+01 -9.20000E+00 -9.32619E+00 -1.86547E+01 -1.82998E+01 -3.59494E+00 -1.47596E+01 -9.22865E+00 -1.32153E+01
  -1.18183E+01 -1.55801E+01 -9.93340E+00 -1.68052E+01 -1.07435E+01 -1.90372E+01 -1.69748E+01 -1.69209E+01 -1.84226E+01 -2.17058E+01
  -1.69101E+01 -1.96971E+01 -9.05805E+00 -1.58202E+01 -9.42367E+00 -8.65970E+00 -1.54942E+01 -1.44441E+01 -1.02956E+01 -1.80067E+01
  -1.88388E+01 -1.52103E+01 -1.60855E+01 -1.81009E+01 -1.71237E+01 -1.75367E+01 -1.64958E+01 -1.51429E+01 -1.27487E+01 -1.47492E+01
  -1.26449E+01 -1.94601E+01 -9.42143E+00 -1.29927E+01 -5.90448E+00 -5.79148E+00 -6.37929E-01 -4.03454E+00 -6.58424E+00 -1.23428E+01
  -3.53696E+00 -7.21688E+00 -1.28958E+01 -5.00256E+00  2.00022E-01  1.27465E+00 -6.37195E+00  4.37953E+00 -2.44793E+00 -9.30338E-01
   1.17020E+00  4.99508E-01 -1.63784E+00 -5.75480E+00 -4.62112E-01 -4.70479E+00  2.16141E+00 -2.92840E+00  4.09796E+00  2.72395E+00
  -3.48815E+00 -5.30521E-01  8.56886E-01  2.67008E+00 -5.61876E+00  1.14098E+00 -3.68221E+00 -4.58787E+00 -4.22917E+00 -3.25920E+00
  -9.77068E+00 -3.12940E+00 -3.63873E+00 -8.73712E+00 -4.86184E+00 -5.86107E+00 -7.58090E+00 -2.02444E+00 -9.63365E-01 -6.17130E+00
  -3.33955E+00 -8.28325E+00 -9.71149E+00 -9.05943E+00 -6.93841E+00 -7.19130E+00 -8.18411E+00 -2.94930E+00 -5.17871E+00 -6.19401E+00
  -3.22542E+00 -2.93545E+00 -6.96496E+00 -6.03409E+00 -8.49445E+00  8.99920E-01 -5.52198E+00 -4.02933E-01 -3.41643E+00  4.14902E-01
  -9.17157E+00 -5.46722E-01 -3.28870E+00 -2.67688E+00 -5.12778E+00 -2.59377E+00 -4.27864E+00 -8.76193E+00 -7.96065E+00 -5.59195E+00
  -7.16827E+00  1.10379E+00 -4.25695E+00 -3.52815E-01 -6.51266E+00 -3.75866E-01 -1.32162E+00 -7.55181E+00 -5.94542E+00 -2.70341E+00
  -7.11223E+00 -7.46183E+00 -1.07024E+00 -4.36064E+00  1.58310E+00 -3.20971E+00 -6.44208E+00 -9.16635E-01 -7.64052E+00  1.83460E+00
  -5.13773E-01  3.06773E+00 -5.97858E-01 -1.18617E+01 -3.71929E+00  2.93672E-01  5.20130E-02 -5.67419E+00 -7.38503E+00 -3.11975E+00
  -3.92086E+00 -9.16290E+00 -4.44971E+00 -5.49176E+00 -2.60451E+00  2.03737E-03 -5.63425E-01 -1.78961E+00  2.16600E+00 -4.43025E+00
   2.93829E-01 -6.67510E+00 -1.93699E+00 -6.91615E+00 -6.92143E+00 -5.40856E+00 -4.00725E+00 -7.25700E+00 -5.89583E+00 -4.49240E+00
  -6.02186E+00 -4.66542E+00 -5.26222E+00 -3.86152E+00 -5.48415E+00 -4.16997E+00 -3.76937E+00 -2.47456E+00 -1.90077E+00 -7.80607E+00
  -4.23861E+00 -1.00100E+01 -6.98278E+00  5.47840E-01 -7.38635E+00 -2.00719E-01 -3.88044E+00 -5.48761E+00 -3.40526E+00  5.67214E+00
  -3.17079E+00 -3.23662E+00 -8.02285E+00 -6.78042E+00 -7.52370E-03 -2.55492E+00 -1.79709E+00 -1.29700E+00 -1.15377E+01 -5.18053E+00
   2.03329E+00 -2.18351E-01  2.87949E+00 -5.51773E+00 -1.54735E+00  2.21512E-01  6.15067E-01 -2.16907E+00 -5.43434E+00 -4.61347E+00
  -2.03278E+00 -4.93787E+00 -2.48959E+00 -8.52305E-01 -2.44871E+00  7.56579E-01 -4.82804E+00 -3.91702E+00
 NY points of the fit to the data follow
  -1.16363E+02 -1.19250E+02 -1.19930E+02 -1.19471E+02 -1.19513E+02 -1.19304E+02 -1.17981E+02 -1.15850E+02 -1.13994E+02 -1.12723E+02
  -1.10810E+02 -1.07883E+02 -1.05702E+02 -1.05621E+02 -1.05761E+02 -1.04202E+02 -1.02213E+02 -1.01630E+02 -1.01234E+02 -1.00482E+02
  -9.97306E+01 -9.90775E+01 -9.82458E+01 -9.67037E+01 -9.47427E+01 -9.30057E+01 -9.12262E+01 -8.94320E+01 -8.78407E+01 -8.67832E+01
  -8.60552E+01 -8.55026E+01 -8.53207E+01 -8.56209E+01 -8.62436E+01 -8.66948E+01 -8.66946E+01 -8.65360E+01 -8.63270E+01 -8.53730E+01
  -8.32386E+01 -8.08370E+01 -7.87903E+01 -7.70757E+01 -7.57047E+01 -7.49409E+01 -7.47873E+01 -7.49990E+01 -7.52619E+01 -7.55932E+01
  -7.63707E+01 -7.71643E+01 -7.68629E+01 -7.55443E+01 -7.41461E+01 -7.32675E+01 -7.24931E+01 -7.15651E+01 -7.07498E+01 -7.01769E+01
  -6.96657E+01 -6.92206E+01 -6.88069E+01 -6.85501E+01 -6.80588E+01 -6.72077E+01 -6.62921E+01 -6.54646E+01 -6.45478E+01 -6.35935E+01
  -6.28166E+01 -6.22390E+01 -6.17143E+01 -6.12499E+01 -6.09323E+01 -6.07617E+01 -6.05601E+01 -6.02139E+01 -5.97256E+01 -5.91391E+01
  -5.85063E+01 -5.81251E+01 -5.77866E+01 -5.74535E+01 -5.71793E+01 -5.69777E+01 -5.67956E+01 -5.64957E+01 -5.60618E+01 -5.56633E+01
  -5.54699E+01 -5.50951E+01 -5.43436E+01 -5.37176E+01 -5.33313E+01 -5.24094E+01 -4.94389E+01 -4.58557E+01 -4.32956E+01 -4.11391E+01
  -3.90761E+01 -3.75764E+01 -3.72535E+01 -3.78395E+01 -3.84554E+01 -3.91859E+01 -4.09444E+01 -4.34228E+01 -4.49110E+01 -4.49622E+01
  -4.50171E+01 -4.58672E+01 -4.64310E+01 -4.63041E+01 -4.59761E+01 -4.55916E+01 -4.51953E+01 -4.47220E+01 -4.40421E+01 -4.26103E+01
  -3.91655E+01 -3.56713E+01 -3.31927E+01 -3.09339E+01 -2.88178E+01 -2.75373E+01 -2.74101E+01 -2.79023E+01 -2.84948E+01 -2.96437E+01
  -3.19454E+01 -3.47495E+01 -3.63420E+01 -3.66164E+01 -3.71226E+01 -3.81761E+01 -3.86027E+01 -3.84230E+01 -3.80689E+01 -3.75478E+01
  -3.69872E+01 -3.65564E+01 -3.62421E+01 -3.59643E+01 -3.57568E+01 -3.56088E+01 -3.54674E+01 -3.53193E+01 -3.51896E+01 -3.50721E+01
  -3.49503E+01 -3.47738E+01 -3.45700E+01 -3.43851E+01 -3.42623E+01 -3.41476E+01 -3.39898E+01 -3.38078E+01 -3.35562E+01 -3.33031E+01
  -3.30772E+01 -3.28400E+01 -3.26029E+01 -3.23848E+01 -3.21710E+01 -3.19516E+01 -3.17545E+01 -3.16272E+01 -3.15567E+01 -3.15206E+01
  -3.14624E+01 -3.12905E+01 -3.11157E+01 -3.09943E+01 -3.08870E+01 -3.07315E+01 -3.05063E+01 -3.02745E+01 -3.00831E+01 -2.99018E+01
  -2.97066E+01 -2.95033E+01 -2.92654E+01 -2.89187E+01 -2.83590E+01 -2.76668E+01 -2.70307E+01 -2.65418E+01 -2.61285E+01 -2.57515E+01
  -2.54877E+01 -2.54946E+01 -2.56161E+01 -2.56729E+01 -2.56189E+01 -2.54216E+01 -2.50508E+01 -2.44680E+01 -2.37520E+01 -2.30916E+01
  -2.25761E+01 -2.21472E+01 -2.18911E+01 -2.21551E+01 -2.26526E+01 -2.29863E+01 -2.32692E+01 -2.35018E+01 -2.34769E+01 -2.30043E+01
  -2.23650E+01 -2.17800E+01 -2.11795E+01 -2.05190E+01 -2.00075E+01 -1.99744E+01 -2.02551E+01 -2.03168E+01 -2.01581E+01 -2.01885E+01
  -2.02209E+01 -1.98964E+01 -1.93544E+01 -1.89165E+01 -1.86771E+01 -1.84273E+01 -1.80461E+01 -1.77325E+01 -1.76340E+01 -1.76390E+01
  -1.73731E+01 -1.68309E+01 -1.64098E+01 -1.61540E+01 -1.57931E+01 -1.53439E+01 -1.51886E+01 -1.52984E+01 -1.54176E+01 -1.53267E+01
  -1.51956E+01 -1.51962E+01 -1.51809E+01 -1.49302E+01 -1.45166E+01 -1.41769E+01 -1.38173E+01 -1.32853E+01 -1.27600E+01 -1.23752E+01
  -1.20028E+01 -1.14922E+01 -1.06111E+01 -7.81784E+00 -3.17338E+00  1.10053E-01  2.49472E+00  4.79010E+00  6.44506E+00  6.53150E+00
   5.20926E+00  3.52658E+00  1.83257E+00 -9.53096E-01 -5.02360E+00 -8.46058E+00 -9.69582E+00 -1.02214E+01 -1.17808E+01 -1.34656E+01
  -1.39569E+01 -1.40639E+01 -1.41124E+01 -1.41222E+01 -1.41246E+01 -1.41490E+01 -1.41875E+01 -1.42409E+01 -1.42977E+01 -1.43443E+01
  -1.43763E+01 -1.44021E+01 -1.44138E+01 -1.44061E+01 -1.43878E+01 -1.43629E+01 -1.43282E+01 -1.42894E+01 -1.42475E+01 -1.42064E+01
  -1.41669E+01 -1.41237E+01 -1.40752E+01 -1.40277E+01 -1.39794E+01 -1.39264E+01 -1.38677E+01 -1.38069E+01 -1.37423E+01 -1.36740E+01
  -1.36024E+01 -1.35289E+01 -1.34511E+01 -1.33706E+01 -1.32862E+01 -1.31982E+01 -1.31054E+01 -1.30082E+01 -1.29047E+01 -1.27945E+01
  -1.26758E+01 -1.25484E+01 -1.24099E+01 -1.22595E+01 -1.20947E+01 -1.19141E+01 -1.17152E+01 -1.14969E+01 -1.12563E+01 -1.09924E+01
  -1.07030E+01 -1.03875E+01 -1.00445E+01 -9.67462E+00 -9.27763E+00 -8.85558E+00 -8.40979E+00 -7.94406E+00 -7.46156E+00 -6.96772E+00
  -6.46713E+00 -5.96631E+00 -5.47066E+00 -4.98716E+00 -4.52123E+00 -4.07925E+00 -3.66549E+00 -3.28484E+00 -2.93982E+00 -2.63335E+00
  -2.36592E+00 -2.13833E+00 -1.94909E+00 -1.79742E+00 -1.68067E+00 -1.59726E+00 -1.54420E+00 -1.51990E+00 -1.52168E+00 -1.54855E+00
  -1.59866E+00 -1.67185E+00 -1.76691E+00 -1.88411E+00 -2.02246E+00 -2.18222E+00 -2.36215E+00 -2.56190E+00 -2.77940E+00 -3.01329E+00
  -3.26053E+00 -3.51886E+00 -3.78443E+00 -4.05430E+00 -4.32413E+00 -4.59074E+00 -4.84990E+00 -5.09879E+00 -5.33372E+00 -5.55250E+00
  -5.75218E+00 -5.93139E+00 -6.08810E+00 -6.22178E+00 -6.33115E+00 -6.41627E+00 -6.47635E+00 -6.51191E+00 -6.52253E+00 -6.50894E+00
  -6.47085E+00 -6.40900E+00 -6.32316E+00 -6.21418E+00 -6.08196E+00 -5.92752E+00 -5.75102E+00 -5.55381E+00 -5.33658E+00 -5.10142E+00
  -4.84984E+00 -4.58482E+00 -4.30887E+00 -4.02596E+00 -3.73968E+00 -3.45500E+00 -3.17631E+00 -2.90913E+00 -2.65808E+00 -2.42862E+00
  -2.22499E+00 -2.05184E+00 -1.91219E+00 -1.80909E+00 -1.74371E+00 -1.71708E+00 -1.72830E+00 -1.77628E+00 -1.85806E+00 -1.97071E+00
  -2.10977E+00 -2.27115E+00 -2.44964E+00 -2.64077E+00 -2.83929E+00 -3.04102E+00 -3.24140E+00 -3.43717E+00 -3.62483E+00 -3.80224E+00
  -3.96706E+00 -4.11827E+00 -4.25467E+00 -4.37625E+00 -4.48266E+00 -4.57455E+00 -4.65212E+00 -4.71648E+00 -4.76815E+00 -4.80846E+00
  -4.83803E+00 -4.85816E+00 -4.86945E+00 -4.87314E+00 -4.86974E+00 -4.86039E+00 -4.84544E+00 -4.82584E+00 -4.80183E+00 -4.77427E+00
  -4.74329E+00 -4.70962E+00 -4.67328E+00 -4.63488E+00 -4.59439E+00 -4.55237E+00 -4.50873E+00 -4.46398E+00 -4.41794E+00 -4.37105E+00
  -4.32316E+00 -4.27469E+00 -4.22547E+00 -4.17584E+00 -4.12558E+00 -4.07502E+00 -4.02397E+00 -3.97275E+00 -3.92114E+00 -3.86941E+00
  -3.81732E+00 -3.76517E+00 -3.71274E+00 -3.66032E+00 -3.60766E+00 -3.55500E+00 -3.50212E+00 -3.44928E+00 -3.39627E+00 -3.34333E+00
  -3.29021E+00 -3.23714E+00 -3.18391E+00 -3.13075E+00 -3.07745E+00 -3.02424E+00 -2.97086E+00 -2.91754E+00 -2.86406E+00 -2.81067E+00
  -2.75713E+00 -2.70365E+00 -2.64999E+00 -2.59636E+00 -2.54258E+00 -2.48883E+00 -2.43492E+00 -2.38100E+00 -2.32688E+00 -2.27274E+00
  -2.21841E+00 -2.16405E+00 -2.10945E+00 -2.05478E+00 -1.99983E+00 -1.94478E+00 -1.88944E+00 -1.83396E+00
 NY background values follow
    -1.165E+02   -1.158E+02   -1.150E+02   -1.143E+02   -1.135E+02   -1.128E+02   -1.121E+02   -1.113E+02   -1.106E+02   -1.098E+02
    -1.091E+02   -1.084E+02   -1.076E+02   -1.069E+02   -1.061E+02   -1.054E+02   -1.047E+02   -1.039E+02   -1.032E+02   -1.025E+02
    -1.017E+02   -1.010E+02   -1.003E+02   -9.955E+01   -9.882E+01   -9.809E+01   -9.737E+01   -9.665E+01   -9.592E+01   -9.521E+01
    -9.449E+01   -9.377E+01   -9.306E+01   -9.235E+01   -9.164E+01   -9.093E+01   -9.023E+01   -8.953E+01   -8.883E+01   -8.813E+01
    -8.744E+01   -8.675E+01   -8.606E+01   -8.538E+01   -8.470E+01   -8.402E+01   -8.334E+01   -8.267E+01   -8.200E+01   -8.133E+01
    -8.067E+01   -8.001E+01   -7.936E+01   -7.871E+01   -7.806E+01   -7.741E+01   -7.677E+01   -7.613E+01   -7.550E+01   -7.487E+01
    -7.424E+01   -7.362E+01   -7.300E+01   -7.239E+01   -7.178E+01   -7.117E+01   -7.057E+01   -6.997E+01   -6.938E+01   -6.879E+01
    -6.820E+01   -6.762E+01   -6.704E+01   -6.647E+01   -6.590E+01   -6.534E+01   -6.478E+01   -6.422E+01   -6.367E+01   -6.313E+01
    -6.258E+01   -6.205E+01   -6.152E+01   -6.099E+01   -6.047E+01   -5.995E+01   -5.944E+01   -5.893E+01   -5.843E+01   -5.793E+01
    -5.744E+01   -5.695E+01   -5.647E+01   -5.599E+01   -5.552E+01   -5.506E+01   -5.459E+01   -5.414E+01   -5.368E+01   -5.324E+01
    -5.279E+01   -5.236E+01   -5.192E+01   -5.149E+01   -5.107E+01   -5.065E+01   -5.024E+01   -4.982E+01   -4.942E+01   -4.902E+01
    -4.862E+01   -4.822E+01   -4.783E+01   -4.745E+01   -4.707E+01   -4.669E+01   -4.632E+01   -4.595E+01   -4.558E+01   -4.522E+01
    -4.486E+01   -4.451E+01   -4.416E+01   -4.381E+01   -4.346E+01   -4.312E+01   -4.279E+01   -4.245E+01   -4.212E+01   -4.180E+01
    -4.147E+01   -4.115E+01   -4.084E+01   -4.052E+01   -4.021E+01   -3.990E+01   -3.960E+01   -3.929E+01   -3.900E+01   -3.870E+01
    -3.840E+01   -3.811E+01   -3.783E+01   -3.754E+01   -3.726E+01   -3.698E+01   -3.670E+01   -3.642E+01   -3.615E+01   -3.588E+01
    -3.561E+01   -3.535E+01   -3.509E+01   -3.483E+01   -3.457E+01   -3.431E+01   -3.406E+01   -3.381E+01   -3.356E+01   -3.331E+01
    -3.307E+01   -3.283E+01   -3.259E+01   -3.235E+01   -3.211E+01   -3.188E+01   -3.165E+01   -3.141E+01   -3.119E+01   -3.096E+01
    -3.073E+01   -3.051E+01   -3.029E+01   -3.007E+01   -2.985E+01   -2.964E+01   -2.942E+01   -2.921E+01   -2.900E+01   -2.879E+01
    -2.858E+01   -2.837E+01   -2.816E+01   -2.796E+01   -2.776E+01   -2.755E+01   -2.735E+01   -2.716E+01   -2.696E+01   -2.676E+01
    -2.657E+01   -2.638E+01   -2.618E+01   -2.599E+01   -2.581E+01   -2.562E+01   -2.543E+01   -2.525E+01   -2.507E+01   -2.489E+01
    -2.471E+01   -2.453E+01   -2.436E+01   -2.418E+01   -2.401E+01   -2.384E+01   -2.367E+01   -2.350E+01   -2.333E+01   -2.317E+01
    -2.301E+01   -2.285E+01   -2.269E+01   -2.253E+01   -2.237E+01   -2.222E+01   -2.206E+01   -2.191E+01   -2.176E+01   -2.162E+01
    -2.147E+01   -2.133E+01   -2.118E+01   -2.104E+01   -2.090E+01   -2.077E+01   -2.063E+01   -2.050E+01   -2.037E+01   -2.024E+01
    -2.011E+01   -1.998E+01   -1.986E+01   -1.973E+01   -1.961E+01   -1.949E+01   -1.937E+01   -1.925E+01   -1.914E+01   -1.903E+01
    -1.891E+01   -1.880E+01   -1.869E+01   -1.859E+01   -1.848E+01   -1.838E+01   -1.827E+01   -1.817E+01   -1.807E+01   -1.797E+01
    -1.788E+01   -1.778E+01   -1.769E+01   -1.759E+01   -1.750E+01   -1.741E+01   -1.732E+01   -1.723E+01   -1.715E+01   -1.706E+01
    -1.698E+01   -1.690E+01   -1.681E+01   -1.673E+01   -1.665E+01   -1.658E+01   -1.650E+01   -1.642E+01   -1.635E+01   -1.628E+01
    -1.620E+01   -1.613E+01   -1.606E+01   -1.599E+01   -1.592E+01   -1.586E+01   -1.579E+01   -1.572E+01   -1.566E+01   -1.559E+01
    -1.553E+01   -1.547E+01   -1.541E+01   -1.535E+01   -1.528E+01   -1.522E+01   -1.516E+01   -1.511E+01   -1.505E+01   -1.499E+01
    -1.493E+01   -1.487E+01   -1.482E+01   -1.476E+01   -1.470E+01   -1.465E+01   -1.459E+01   -1.453E+01   -1.448E+01   -1.442E+01
    -1.436E+01   -1.431E+01   -1.425E+01   -1.420E+01   -1.414E+01   -1.408E+01   -1.403E+01   -1.397E+01   -1.391E+01   -1.385E+01
    -1.380E+01   -1.374E+01   -1.368E+01   -1.362E+01   -1.356E+01   -1.350E+01   -1.344E+01   -1.338E+01   -1.331E+01   -1.325E+01
    -1.319E+01   -1.312E+01   -1.306E+01   -1.299E+01   -1.293E+01   -1.286E+01   -1.280E+01   -1.273E+01   -1.266E+01   -1.259E+01
    -1.252E+01   -1.246E+01   -1.239E+01   -1.232E+01   -1.225E+01   -1.218E+01   -1.211E+01   -1.204E+01   -1.197E+01   -1.189E+01
    -1.182E+01   -1.175E+01   -1.168E+01   -1.161E+01   -1.153E+01   -1.146E+01   -1.139E+01   -1.132E+01   -1.124E+01   -1.117E+01
    -1.110E+01   -1.102E+01   -1.095E+01   -1.088E+01   -1.081E+01   -1.073E+01   -1.066E+01   -1.059E+01   -1.051E+01   -1.044E+01
    -1.037E+01   -1.030E+01   -1.022E+01   -1.015E+01   -1.008E+01   -1.001E+01   -9.935E+00   -9.863E+00   -9.791E+00   -9.720E+00
    -9.648E+00   -9.577E+00   -9.506E+00   -9.435E+00   -9.364E+00   -9.293E+00   -9.223E+00   -9.152E+00   -9.082E+00   -9.011E+00
    -8.941E+00   -8.871E+00   -8.801E+00   -8.731E+00   -8.662E+00   -8.592E+00   -8.523E+00   -8.453E+00   -8.384E+00   -8.315E+00
    -8.245E+00   -8.176E+00   -8.107E+00   -8.039E+00   -7.970E+00   -7.901E+00   -7.833E+00   -7.764E+00   -7.696E+00   -7.627E+00
    -7.559E+00   -7.491E+00   -7.423E+00   -7.355E+00   -7.287E+00   -7.219E+00   -7.151E+00   -7.083E+00   -7.016E+00   -6.948E+00
    -6.880E+00   -6.813E+00   -6.746E+00   -6.678E+00   -6.611E+00   -6.544E+00   -6.477E+00   -6.410E+00   -6.343E+00   -6.277E+00
    -6.210E+00   -6.144E+00   -6.078E+00   -6.012E+00   -5.946E+00   -5.880E+00   -5.814E+00   -5.749E+00   -5.684E+00   -5.619E+00
    -5.554E+00   -5.489E+00   -5.424E+00   -5.360E+00   -5.296E+00   -5.232E+00   -5.168E+00   -5.105E+00   -5.041E+00   -4.978E+00
    -4.916E+00   -4.853E+00   -4.791E+00   -4.728E+00   -4.667E+00   -4.605E+00   -4.544E+00   -4.483E+00   -4.422E+00   -4.361E+00
    -4.301E+00   -4.241E+00   -4.181E+00   -4.122E+00   -4.063E+00   -4.004E+00   -3.945E+00   -3.887E+00   -3.829E+00   -3.771E+00
    -3.714E+00   -3.657E+00   -3.599E+00   -3.543E+00   -3.486E+00   -3.430E+00   -3.373E+00   -3.317E+00   -3.261E+00   -3.206E+00
    -3.150E+00   -3.095E+00   -3.039E+00   -2.984E+00   -2.929E+00   -2.874E+00   -2.820E+00   -2.765E+00   -2.710E+00   -2.656E+00
    -2.602E+00   -2.547E+00   -2.493E+00   -2.439E+00   -2.385E+00   -2.331E+00   -2.277E+00   -2.223E+00   -2.169E+00   -2.115E+00
    -2.061E+00   -2.007E+00   -1.953E+00   -1.899E+00   -1.845E+00   -1.791E+00   -1.737E+00   -1.683E+00
 Asp      Conc. = 7.04E+01
