 LCModel (Version 6.3-1L) Copyright: S.W. Provencher.          Ref.: Magn. Reson. Med. 30:672-679 (1993).                
 Slice#2 Row#10 Col#11  PD_05_press_2_raw_act
 36 lines in following concentration table = NCONC+1
    Conc.  %SD /Cr+PCr  Metabolite                                         
    0.000 999%   0.000 Ala                                                 
   16.518 139%   0.181 Asp                                                 
    0.000 999%   0.000 Cr                                                  
   91.280  35%   1.000 PCr                                                 
    7.609 181% 8.3E-02 GABA                                                
    7.533 183% 8.3E-02 Glc                                                 
    0.000 999%   0.000 Gln                                                 
   53.677 190%   0.588 Glu                                                 
   16.414  64%   0.180 GPC                                                 
    0.000 999%   0.000 PCh                                                 
    0.000 999%   0.000 GSH                                                 
  179.191  67%   1.963 Ins                                                 
    0.000 999%   0.000 Lac                                                 
  129.303  34%   1.417 NAA                                                 
   43.154  96%   0.473 NAAG                                                
    3.044 146% 3.3E-02 Scyllo                                              
   10.292 220%   0.113 Tau                                                 
    0.000 999%   0.000 -CrCH2                                              
   16.414  64%   0.180 GPC+PCh                                             
  172.457  36%   1.889 NAA+NAAG                                            
   91.280  35%   1.000 Cr+PCr                                              
   53.677 190%   0.588 Glu+Gln                                             
 1.91E+03  23%  20.876 Lip13a                                              
    0.000 999%   0.000 Lip13b                                              
  581.442  35%   6.370 Lip09                                               
 1.17E+03  19%  12.778 MM09                                                
  276.028  60%   3.024 Lip20                                               
 1.24E+03  24%  13.587 MM20                                                
  926.551  28%  10.151 MM12                                                
    0.000 999%   0.000 MM14                                                
 1.71E+03  14%  18.764 MM17                                                
 1.91E+03  23%  20.876 Lip13a+Lip13b                                       
 2.83E+03  12%  31.027 MM14+Lip13a+Lip13b+MM12                             
 1.75E+03  10%  19.148 MM09+Lip09                                          
 1.52E+03  19%  16.611 MM20+Lip20                                          
   6 lines in following misc. output table
  FWHM = 0.038 ppm    S/N =   2                                            
  Data shift = 0.015 ppm                                                   
  Ph:  54 deg      25.4 deg/ppm                                            
  alphaB,S = 8.5E+01,   1.3E+01                                            
   14 spline knots.   Ns = 7(1)                                            
   2 inflections.     1 extrema                                            
  498 points on ppm-axis = NY
      4.000000     3.992357     3.984714     3.977070     3.969427     3.961784     3.954141     3.946497     3.938854     3.931211
      3.923568     3.915925     3.908281     3.900638     3.892995     3.885352     3.877708     3.870065     3.862422     3.854779
      3.847136     3.839492     3.831849     3.824206     3.816563     3.808919     3.801276     3.793633     3.785990     3.778347
      3.770703     3.763060     3.755417     3.747774     3.740130     3.732487     3.724844     3.717201     3.709558     3.701914
      3.694271     3.686628     3.678985     3.671341     3.663698     3.656055     3.648412     3.640769     3.633125     3.625482
      3.617839     3.610196     3.602552     3.594909     3.587266     3.579623     3.571980     3.564336     3.556693     3.549050
      3.541407     3.533763     3.526120     3.518477     3.510834     3.503191     3.495547     3.487904     3.480261     3.472618
      3.464974     3.457331     3.449688     3.442045     3.434402     3.426758     3.419115     3.411472     3.403829     3.396185
      3.388542     3.380899     3.373256     3.365613     3.357969     3.350326     3.342683     3.335040     3.327396     3.319753
      3.312110     3.304467     3.296824     3.289180     3.281537     3.273894     3.266251     3.258607     3.250964     3.243321
      3.235678     3.228034     3.220391     3.212748     3.205105     3.197462     3.189818     3.182175     3.174532     3.166889
      3.159245     3.151602     3.143959     3.136316     3.128673     3.121029     3.113386     3.105743     3.098100     3.090456
      3.082813     3.075170     3.067527     3.059884     3.052240     3.044597     3.036954     3.029311     3.021667     3.014024
      3.006381     2.998738     2.991095     2.983451     2.975808     2.968165     2.960522     2.952878     2.945235     2.937592
      2.929949     2.922306     2.914662     2.907019     2.899376     2.891733     2.884089     2.876446     2.868803     2.861160
      2.853517     2.845873     2.838230     2.830587     2.822944     2.815300     2.807657     2.800014     2.792371     2.784728
      2.777084     2.769441     2.761798     2.754155     2.746511     2.738868     2.731225     2.723582     2.715939     2.708295
      2.700652     2.693009     2.685366     2.677722     2.670079     2.662436     2.654793     2.647150     2.639506     2.631863
      2.624220     2.616577     2.608933     2.601290     2.593647     2.586004     2.578361     2.570717     2.563074     2.555431
      2.547788     2.540144     2.532501     2.524858     2.517215     2.509572     2.501928     2.494285     2.486642     2.478999
      2.471355     2.463712     2.456069     2.448426     2.440783     2.433139     2.425496     2.417853     2.410210     2.402566
      2.394923     2.387280     2.379637     2.371994     2.364350     2.356707     2.349064     2.341421     2.333777     2.326134
      2.318491     2.310848     2.303205     2.295561     2.287918     2.280275     2.272632     2.264988     2.257345     2.249702
      2.242059     2.234416     2.226772     2.219129     2.211486     2.203843     2.196199     2.188556     2.180913     2.173270
      2.165627     2.157983     2.150340     2.142697     2.135054     2.127410     2.119767     2.112124     2.104481     2.096838
      2.089194     2.081551     2.073908     2.066265     2.058621     2.050978     2.043335     2.035692     2.028049     2.020405
      2.012762     2.005119     1.997476     1.989833     1.982190     1.974546     1.966903     1.959260     1.951617     1.943974
      1.936331     1.928688     1.921045     1.913402     1.905759     1.898115     1.890472     1.882829     1.875186     1.867543
      1.859900     1.852257     1.844614     1.836971     1.829327     1.821684     1.814041     1.806398     1.798755     1.791112
      1.783469     1.775826     1.768183     1.760540     1.752896     1.745253     1.737610     1.729967     1.722324     1.714681
      1.707038     1.699395     1.691752     1.684108     1.676465     1.668822     1.661179     1.653536     1.645893     1.638250
      1.630607     1.622964     1.615321     1.607677     1.600034     1.592391     1.584748     1.577105     1.569462     1.561819
      1.554176     1.546533     1.538890     1.531246     1.523603     1.515960     1.508317     1.500674     1.493031     1.485388
      1.477745     1.470102     1.462458     1.454815     1.447172     1.439529     1.431886     1.424243     1.416600     1.408957
      1.401314     1.393671     1.386027     1.378384     1.370741     1.363098     1.355455     1.347812     1.340169     1.332526
      1.324883     1.317240     1.309596     1.301953     1.294310     1.286667     1.279024     1.271381     1.263738     1.256095
      1.248452     1.240808     1.233165     1.225522     1.217879     1.210236     1.202593     1.194950     1.187307     1.179664
      1.172021     1.164377     1.156734     1.149091     1.141448     1.133805     1.126162     1.118519     1.110876     1.103233
      1.095590     1.087946     1.080303     1.072660     1.065017     1.057374     1.049731     1.042088     1.034445     1.026802
      1.019158     1.011515     1.003872     0.996229     0.988586     0.980943     0.973300     0.965657     0.958014     0.950371
      0.942727     0.935084     0.927441     0.919798     0.912155     0.904512     0.896869     0.889226     0.881583     0.873940
      0.866296     0.858653     0.851010     0.843367     0.835724     0.828081     0.820438     0.812795     0.805152     0.797508
      0.789865     0.782222     0.774579     0.766936     0.759293     0.751650     0.744007     0.736364     0.728721     0.721077
      0.713434     0.705791     0.698148     0.690505     0.682862     0.675219     0.667576     0.659933     0.652290     0.644646
      0.637003     0.629360     0.621717     0.614074     0.606431     0.598788     0.591145     0.583502     0.575858     0.568215
      0.560572     0.552929     0.545286     0.537643     0.530000     0.522357     0.514714     0.507071     0.499427     0.491784
      0.484141     0.476498     0.468855     0.461212     0.453569     0.445925     0.438282     0.430639     0.422996     0.415353
      0.407710     0.400067     0.392424     0.384780     0.377137     0.369494     0.361851     0.354208     0.346565     0.338922
      0.331278     0.323635     0.315992     0.308349     0.300706     0.293063     0.285420     0.277777     0.270133     0.262490
      0.254847     0.247204     0.239561     0.231918     0.224275     0.216631     0.208988     0.201345
 NY phased data points follow
   2.59238E+00  4.26706E+00  2.20417E+00  4.79009E+00  4.16365E+00  2.69931E+00  7.42997E+00  7.76713E+00  5.20613E+00  7.57322E+00
  -9.68641E-01  1.31690E+00  3.22763E+00  3.62841E+00  7.13432E+00  3.31402E+00  4.18676E+00 -2.07439E+00  3.71799E+00  8.17518E-01
   3.58274E+00 -1.16778E+00  2.35722E+00 -2.01369E-01 -2.21016E+00  4.42161E+00  1.77397E+00  2.50547E+00 -1.91201E-01  9.26823E-01
   1.11567E+00  1.62567E+00  1.65391E+00  4.04552E-01  2.91048E+00  4.66839E+00  2.11132E+00  5.90876E+00  1.84031E+00 -3.84465E+00
  -1.86842E+00 -5.66900E-01  2.05335E+00  4.64052E+00  4.54894E+00  1.24682E+00  7.64082E+00  5.13589E+00 -5.47554E-01  2.49571E+00
   4.59914E+00  3.43948E+00  3.88675E+00  1.58415E-02  8.78674E-01 -7.24305E-01  5.91286E+00  4.76106E+00  7.03815E-01 -2.64157E+00
  -1.71192E-01  4.93000E-01 -5.03319E-01  1.62615E+00  3.36729E+00  3.75389E+00  1.20008E+00 -7.74554E-01  2.38147E+00  5.12517E+00
   5.01916E+00  4.72090E+00  2.81446E+00 -1.25050E+00 -1.27139E+00 -3.57306E+00 -4.17084E-02  3.35944E+00  5.94603E+00  1.11399E+00
  -4.27672E-01 -1.04964E+00  2.15108E-01  2.48470E+00  3.60559E+00 -8.95715E-01  1.71099E+00  1.07827E+00 -1.38300E+00  3.12403E+00
  -2.46915E+00  5.27274E-01 -1.66621E+00  2.41922E-01  9.75358E-01 -2.72514E-01 -2.27716E+00  3.78141E+00  1.81130E+00  2.88310E+00
   1.83180E+00  9.94159E-01  8.07191E+00  1.06738E+00 -1.94974E+00  4.26195E+00  2.93448E+00 -1.04050E+00  1.53984E+00  1.69520E+00
  -9.68621E-01  1.61198E+00  2.58791E+00  5.00853E-01  5.65998E+00  2.68483E+00  5.13648E+00 -4.21896E-01  6.25923E+00  7.82568E+00
  -1.01055E+00  4.15026E+00  2.11023E+00  6.82710E+00  6.45727E+00  5.26719E+00  3.35918E+00 -7.15206E-01  3.49089E-01  3.06220E+00
  -1.05884E+00  3.82722E+00  3.71970E+00  8.30846E-02  8.20088E-01  1.64797E+00  8.29404E-01  2.26999E+00  2.07371E+00  6.75126E-01
  -1.23098E+00  2.32581E+00  6.02197E-01  6.14841E-02  5.21972E+00  3.54361E+00  6.39217E-01 -1.44063E+00 -5.57976E-01 -5.52674E+00
  -1.76081E+00  4.31401E+00  2.03420E+00  2.58599E+00 -2.61923E-01  2.33461E+00  1.28175E+00 -5.22633E+00  8.65285E-01 -1.00524E+00
  -2.03092E+00  1.33230E+00  2.19433E+00  3.75192E+00 -3.45809E-01  3.52347E+00  3.79859E+00  2.55170E+00 -1.21619E+00 -1.10990E+00
  -2.76845E+00  8.91366E-01 -9.63731E-01 -4.86130E-01  1.91004E+00  6.08244E-01 -1.00071E+00  2.45836E+00 -3.31571E-01 -3.29792E-01
  -1.07173E+00  6.83520E-02 -4.09516E+00 -1.88411E+00  5.49644E-01  1.93741E+00  3.95307E+00  2.34518E-01 -5.08295E-01  4.83890E+00
   1.99480E+00  2.35914E+00  1.10688E+00  2.98273E+00 -1.04867E+00 -1.52085E+00  1.05533E+00 -2.94179E+00  3.91842E+00 -3.48128E+00
  -7.91969E-01  8.01956E-01 -1.04928E+00  1.23683E+00 -2.42600E-01  1.91246E-01 -5.56916E-01 -1.96774E-01  1.29991E+00  4.39136E+00
   2.30760E+00  8.09810E-01  2.34099E+00  3.03029E+00  3.25788E+00  6.21638E+00 -9.08771E-01 -1.94233E+00  4.03087E+00  1.62950E+00
   1.49855E+00  2.80484E+00  1.34693E+00  3.71651E+00  9.17322E+00  1.43380E+00  5.30762E-01  1.76319E+00  3.19136E+00  1.79219E+00
   2.41367E+00  1.33261E+00  1.39892E+00  1.88305E+00  2.33159E+00 -8.96864E-01  5.55805E+00  2.04859E+00  2.63136E+00  5.12311E+00
  -8.31557E-01  3.02335E+00  2.30881E+00  4.42856E+00  7.86683E+00  1.18399E+00  3.81884E+00  6.04903E+00  7.68588E-01  5.90354E+00
   7.97694E+00  6.76688E+00  5.90039E+00  6.93868E+00  1.21610E+01  7.59812E+00  9.50019E+00  1.05454E+01  9.75209E+00  1.26497E+01
   9.36968E+00  5.17430E+00  8.04323E+00  4.87549E+00  2.75970E+00 -1.18083E-01  1.38332E+00  2.92071E+00  4.75764E+00  7.20839E+00
   5.39468E+00  4.46126E+00  3.56537E+00  6.37488E+00  4.20449E+00  2.25554E+00  2.17121E+00  4.53521E+00  4.36405E+00  1.83035E+00
   7.88786E+00  2.44991E+00  5.93901E+00  4.64820E+00  5.39195E+00  7.37861E+00  6.97869E+00  4.12937E+00  6.78695E+00  7.57608E+00
   8.04364E+00  4.02131E+00  6.59629E+00  7.46026E+00  6.89479E+00  7.34817E+00  9.07284E+00  6.88168E+00  4.62663E+00  8.44129E+00
   5.98836E+00  2.18322E+00  5.62779E+00  6.87168E+00  3.30311E+00  2.54231E+00  6.70573E+00  3.49506E+00  9.34902E+00  5.99529E+00
   1.65916E+00  6.73471E+00  6.11124E+00  6.80843E-02  4.69358E+00  5.22073E+00  3.12204E+00  6.68976E+00  1.28190E+00  2.31329E-01
  -8.45734E-01 -6.38259E-01  3.81167E+00 -1.48259E-01  5.19011E+00 -2.16862E+00 -2.40390E+00 -5.82414E-01  2.60685E-01  1.24431E+00
   4.93081E+00  2.13148E+00  1.37514E+00  3.52214E-01 -4.77074E-01  6.05801E-01 -7.01110E-01  1.88802E-01  2.52381E+00  5.85776E+00
   3.08448E+00  6.62428E+00  5.54132E-01  2.02709E+00  3.44945E+00  3.77392E+00  6.01469E+00  3.44584E+00  4.30903E+00  2.68387E+00
   1.01140E+01  4.54895E+00  8.90598E+00  1.12606E+01  9.53647E-01  7.69308E+00  9.65464E+00  1.00502E+01  1.15941E+01  6.84720E+00
   6.95856E+00  1.13757E+01  1.00186E+01  8.22451E+00  8.30646E+00  1.07743E+01  9.90757E+00  9.40193E+00  1.03274E+01  1.08128E+01
   9.99386E+00  1.05840E+01  1.13478E+01  7.89688E+00  1.11273E+01  6.15656E+00  5.20294E+00  6.56894E+00  6.27404E+00  9.85752E+00
   5.72677E+00  8.62414E+00  9.68248E+00  1.10750E+01  1.04886E+01  5.54455E+00  8.79689E+00  4.55359E+00  5.74959E+00  7.19427E+00
   5.95654E+00  1.01109E+01  9.11613E+00  9.38906E+00  8.03748E+00  5.28404E+00  7.25834E+00  7.36884E+00  7.56327E+00  1.02422E+01
   8.50455E+00  8.51693E+00  6.84235E+00  5.36577E+00  9.28133E+00  4.26968E+00  6.84519E+00  4.63395E+00  5.35476E+00 -2.16991E+00
   9.83121E+00  6.76125E+00  1.00478E+01 -1.00981E+00  2.47565E+00 -6.05548E-01  4.05397E+00  1.49827E+00  1.35251E+00  1.93642E+00
   1.83848E+00  9.24293E-02  3.53792E+00  3.49301E+00  7.95635E-01  1.52144E+00  5.35879E-01  2.96184E+00  3.18554E+00  1.23171E+00
   2.31780E+00  3.31140E+00  1.97822E+00  8.87536E-01  2.92030E-01  2.34927E-01 -5.43979E-01  2.23024E+00 -6.55142E-01  1.76949E+00
   1.75177E+00  2.92585E+00 -1.99477E+00 -5.45447E+00 -3.46882E+00  1.17837E+00  2.88502E-02 -1.80267E+00  6.05847E-01 -4.44077E+00
  -1.74632E+00 -1.27274E+00 -3.04971E+00 -4.15000E+00 -4.85714E-02 -7.63288E-01 -7.35755E+00 -4.47141E+00 -9.04441E-01 -6.40594E+00
  -3.67318E+00 -3.20825E+00 -4.25527E+00 -1.87372E+00 -3.88602E+00 -6.13578E+00  3.15046E-01 -7.89142E+00 -4.18922E+00 -6.64829E+00
  -3.80079E+00 -9.55326E+00 -6.36997E+00 -3.96406E+00 -4.31680E+00 -4.22577E+00 -2.21994E+00 -4.48461E+00 -5.69993E+00 -5.85147E+00
  -2.77233E+00 -8.03814E+00 -3.47251E+00 -4.68655E+00 -2.57271E+00 -4.50420E+00 -5.43019E+00 -2.08098E+00 -2.97337E+00 -8.05484E+00
  -2.50258E+00 -2.82393E+00 -2.88898E+00 -1.60731E+00 -5.62309E+00 -4.23452E+00 -3.90187E+00 -6.34011E+00
 NY points of the fit to the data follow
   2.42084E+00  2.54553E+00  2.90475E+00  3.44923E+00  4.07706E+00  4.71710E+00  5.15357E+00  5.09105E+00  4.43380E+00  3.49720E+00
   2.76610E+00  2.39352E+00  2.21614E+00  2.12585E+00  2.10659E+00  2.12187E+00  2.12818E+00  2.10652E+00  2.10210E+00  2.12501E+00
   2.15349E+00  2.16299E+00  2.14966E+00  2.11806E+00  2.06698E+00  2.00770E+00  1.97299E+00  1.99706E+00  2.08198E+00  2.19310E+00
   2.29525E+00  2.36696E+00  2.38100E+00  2.33121E+00  2.24108E+00  2.12999E+00  2.00126E+00  1.85981E+00  1.74745E+00  1.73179E+00
   1.86739E+00  2.16545E+00  2.57738E+00  3.03864E+00  3.46808E+00  3.70220E+00  3.54495E+00  2.97196E+00  2.23230E+00  1.66314E+00
   1.40015E+00  1.35355E+00  1.42620E+00  1.59027E+00  1.81089E+00  2.04171E+00  2.24292E+00  2.38663E+00  2.42482E+00  2.30547E+00
   2.05662E+00  1.78399E+00  1.58824E+00  1.51448E+00  1.55174E+00  1.66829E+00  1.81413E+00  1.93733E+00  2.02219E+00  2.07473E+00
   2.08476E+00  2.03828E+00  1.94440E+00  1.84273E+00  1.75975E+00  1.68814E+00  1.62546E+00  1.58383E+00  1.56930E+00  1.58030E+00
   1.58735E+00  1.55976E+00  1.48317E+00  1.35323E+00  1.17218E+00  9.71582E-01  8.28870E-01  8.23153E-01  9.51333E-01  1.13366E+00
   1.29534E+00  1.40107E+00  1.44791E+00  1.43757E+00  1.37669E+00  1.32206E+00  1.41571E+00  1.70292E+00  2.13608E+00  2.66357E+00
   3.12364E+00  3.26103E+00  2.91980E+00  2.25853E+00  1.66281E+00  1.34163E+00  1.20806E+00  1.15389E+00  1.16329E+00  1.21987E+00
   1.28861E+00  1.32926E+00  1.35188E+00  1.37298E+00  1.39406E+00  1.41945E+00  1.45177E+00  1.49920E+00  1.59009E+00  1.85769E+00
   2.47833E+00  3.35695E+00  4.37177E+00  5.39363E+00  6.04883E+00  5.88745E+00  4.83322E+00  3.44328E+00  2.42831E+00  1.93764E+00
   1.70533E+00  1.59460E+00  1.59585E+00  1.66343E+00  1.72175E+00  1.71962E+00  1.70042E+00  1.67751E+00  1.64946E+00  1.61685E+00
   1.58503E+00  1.55965E+00  1.54047E+00  1.51847E+00  1.48372E+00  1.43637E+00  1.38468E+00  1.33544E+00  1.28983E+00  1.24582E+00
   1.20209E+00  1.16181E+00  1.13145E+00  1.11049E+00  1.08594E+00  1.04414E+00  9.77115E-01  8.87220E-01  7.99879E-01  7.46658E-01
   7.46541E-01  7.85375E-01  8.13267E-01  7.88346E-01  7.12650E-01  6.19242E-01  5.40588E-01  4.88921E-01  4.55852E-01  4.25159E-01
   3.82404E-01  3.24596E-01  2.58311E-01  2.03647E-01  1.83102E-01  1.99765E-01  2.27643E-01  2.25789E-01  1.85298E-01  1.45307E-01
   1.44077E-01  1.83290E-01  2.33238E-01  2.60631E-01  2.72415E-01  3.05620E-01  3.71990E-01  4.42621E-01  4.75764E-01  4.65244E-01
   4.42165E-01  4.24887E-01  4.15775E-01  4.19049E-01  4.22840E-01  4.07613E-01  3.74199E-01  3.52142E-01  3.64956E-01  4.09921E-01
   4.69772E-01  5.27807E-01  5.57162E-01  5.28496E-01  4.49593E-01  3.57832E-01  2.81349E-01  2.38851E-01  2.50446E-01  3.35340E-01
   4.82543E-01  6.69509E-01  8.72691E-01  1.03797E+00  1.08774E+00  9.92342E-01  8.18594E-01  6.75981E-01  6.18439E-01  6.47025E-01
   7.79477E-01  1.02595E+00  1.33141E+00  1.59806E+00  1.75847E+00  1.83290E+00  1.87224E+00  1.90159E+00  1.93993E+00  2.01229E+00
   2.13232E+00  2.28787E+00  2.44999E+00  2.59326E+00  2.70985E+00  2.80304E+00  2.88700E+00  2.98669E+00  3.11650E+00  3.28177E+00
   3.49072E+00  3.74507E+00  4.02009E+00  4.27127E+00  4.46896E+00  4.62087E+00  4.75338E+00  4.88496E+00  5.06278E+00  5.40058E+00
   5.90022E+00  6.48127E+00  7.11557E+00  7.88844E+00  8.80316E+00  9.58931E+00  1.02638E+01  1.09683E+01  1.13100E+01  1.05935E+01
   8.73642E+00  6.61169E+00  5.14214E+00  4.38412E+00  3.93032E+00  3.64631E+00  3.52798E+00  3.50279E+00  3.47202E+00  3.39754E+00
   3.33914E+00  3.29641E+00  3.26069E+00  3.22961E+00  3.20654E+00  3.20209E+00  3.22991E+00  3.29654E+00  3.40054E+00  3.53982E+00
   3.71320E+00  3.91638E+00  4.14246E+00  4.38618E+00  4.64570E+00  4.92070E+00  5.20804E+00  5.50327E+00  5.80218E+00  6.09817E+00
   6.38133E+00  6.63973E+00  6.86265E+00  7.04503E+00  7.18440E+00  7.27721E+00  7.32067E+00  7.31454E+00  7.25972E+00  7.15634E+00
   7.00368E+00  6.80350E+00  6.56067E+00  6.28123E+00  5.97169E+00  5.63914E+00  5.29083E+00  4.93383E+00  4.57450E+00  4.21867E+00
   3.87159E+00  3.53776E+00  3.22093E+00  2.92405E+00  2.64931E+00  2.39814E+00  2.17134E+00  1.96919E+00  1.79152E+00  1.63785E+00
   1.50745E+00  1.39948E+00  1.31308E+00  1.24741E+00  1.20162E+00  1.17497E+00  1.16687E+00  1.17691E+00  1.20483E+00  1.25054E+00
   1.31405E+00  1.39555E+00  1.49532E+00  1.61380E+00  1.75149E+00  1.90891E+00  2.08654E+00  2.28486E+00  2.50426E+00  2.74500E+00
   3.00713E+00  3.29046E+00  3.59448E+00  3.91833E+00  4.26081E+00  4.62027E+00  4.99460E+00  5.38118E+00  5.77691E+00  6.17825E+00
   6.58124E+00  6.98147E+00  7.37422E+00  7.75448E+00  8.11710E+00  8.45688E+00  8.76875E+00  9.04779E+00  9.28947E+00  9.48977E+00
   9.64535E+00  9.75367E+00  9.81315E+00  9.82318E+00  9.78429E+00  9.69814E+00  9.56758E+00  9.39658E+00  9.19015E+00  8.95421E+00
   8.69548E+00  8.42128E+00  8.13934E+00  7.85760E+00  7.58390E+00  7.32580E+00  7.09040E+00  6.88407E+00  6.71232E+00  6.57958E+00
   6.48908E+00  6.44275E+00  6.44113E+00  6.48340E+00  6.56728E+00  6.68913E+00  6.84400E+00  7.02579E+00  7.22744E+00  7.44112E+00
   7.65848E+00  7.87097E+00  8.07008E+00  8.24771E+00  8.39646E+00  8.50987E+00  8.58265E+00  8.61082E+00  8.59185E+00  8.52466E+00
   8.40961E+00  8.24836E+00  8.04370E+00  7.79932E+00  7.51966E+00  7.20961E+00  6.87430E+00  6.51888E+00  6.14831E+00  5.76727E+00
   5.38004E+00  4.99045E+00  4.60182E+00  4.21702E+00  3.83840E+00  3.46794E+00  3.10723E+00  2.75755E+00  2.41993E+00  2.09511E+00
   1.78365E+00  1.48597E+00  1.20231E+00  9.32803E-01  6.77441E-01  4.36093E-01  2.08532E-01 -5.55518E-03 -2.06555E-01 -3.94932E-01
  -5.71224E-01 -7.36017E-01 -8.89927E-01 -1.03358E+00 -1.16762E+00 -1.29267E+00 -1.40940E+00 -1.51842E+00 -1.62031E+00 -1.71565E+00
  -1.80494E+00 -1.88869E+00 -1.96738E+00 -2.04144E+00 -2.11125E+00 -2.17716E+00 -2.23950E+00 -2.29857E+00 -2.35467E+00 -2.40803E+00
  -2.45887E+00 -2.50738E+00 -2.55376E+00 -2.59817E+00 -2.64078E+00 -2.68172E+00 -2.72111E+00 -2.75905E+00 -2.79565E+00 -2.83102E+00
  -2.86525E+00 -2.89840E+00 -2.93054E+00 -2.96174E+00 -2.99207E+00 -3.02158E+00 -3.05034E+00 -3.07836E+00 -3.10570E+00 -3.13240E+00
  -3.15850E+00 -3.18405E+00 -3.20906E+00 -3.23356E+00 -3.25758E+00 -3.28115E+00 -3.30430E+00 -3.32705E+00 -3.34941E+00 -3.37140E+00
  -3.39304E+00 -3.41435E+00 -3.43536E+00 -3.45607E+00 -3.47649E+00 -3.49664E+00 -3.51652E+00 -3.53616E+00 -3.55557E+00 -3.57476E+00
  -3.59372E+00 -3.61246E+00 -3.63101E+00 -3.64937E+00 -3.66756E+00 -3.68556E+00 -3.70339E+00 -3.72104E+00
 NY background values follow
     2.093E+00    2.081E+00    2.068E+00    2.056E+00    2.044E+00    2.031E+00    2.019E+00    2.007E+00    1.995E+00    1.982E+00
     1.970E+00    1.958E+00    1.945E+00    1.933E+00    1.921E+00    1.908E+00    1.896E+00    1.884E+00    1.872E+00    1.859E+00
     1.847E+00    1.835E+00    1.822E+00    1.810E+00    1.798E+00    1.785E+00    1.773E+00    1.761E+00    1.749E+00    1.736E+00
     1.724E+00    1.712E+00    1.699E+00    1.687E+00    1.675E+00    1.662E+00    1.650E+00    1.638E+00    1.626E+00    1.613E+00
     1.601E+00    1.589E+00    1.576E+00    1.564E+00    1.552E+00    1.539E+00    1.527E+00    1.515E+00    1.503E+00    1.490E+00
     1.478E+00    1.466E+00    1.453E+00    1.441E+00    1.429E+00    1.416E+00    1.404E+00    1.392E+00    1.379E+00    1.367E+00
     1.355E+00    1.343E+00    1.330E+00    1.318E+00    1.306E+00    1.293E+00    1.281E+00    1.269E+00    1.256E+00    1.244E+00
     1.232E+00    1.220E+00    1.207E+00    1.195E+00    1.183E+00    1.170E+00    1.158E+00    1.146E+00    1.133E+00    1.121E+00
     1.109E+00    1.097E+00    1.084E+00    1.072E+00    1.060E+00    1.047E+00    1.035E+00    1.023E+00    1.010E+00    9.982E-01
     9.859E-01    9.736E-01    9.613E-01    9.490E-01    9.367E-01    9.244E-01    9.121E-01    8.997E-01    8.874E-01    8.751E-01
     8.628E-01    8.505E-01    8.382E-01    8.259E-01    8.136E-01    8.013E-01    7.890E-01    7.767E-01    7.644E-01    7.521E-01
     7.398E-01    7.275E-01    7.152E-01    7.029E-01    6.906E-01    6.783E-01    6.660E-01    6.537E-01    6.414E-01    6.291E-01
     6.168E-01    6.045E-01    5.922E-01    5.799E-01    5.676E-01    5.553E-01    5.430E-01    5.307E-01    5.184E-01    5.061E-01
     4.938E-01    4.815E-01    4.692E-01    4.569E-01    4.446E-01    4.323E-01    4.200E-01    4.077E-01    3.954E-01    3.831E-01
     3.708E-01    3.585E-01    3.462E-01    3.339E-01    3.216E-01    3.093E-01    2.970E-01    2.847E-01    2.724E-01    2.601E-01
     2.478E-01    2.355E-01    2.232E-01    2.109E-01    1.986E-01    1.863E-01    1.740E-01    1.617E-01    1.494E-01    1.371E-01
     1.248E-01    1.125E-01    1.002E-01    8.786E-02    7.556E-02    6.326E-02    5.096E-02    3.866E-02    2.635E-02    1.405E-02
     1.751E-03   -1.055E-02   -2.285E-02   -3.515E-02   -4.745E-02   -5.976E-02   -7.206E-02   -8.436E-02   -9.666E-02   -1.090E-01
    -1.213E-01   -1.336E-01   -1.459E-01   -1.582E-01   -1.705E-01   -1.828E-01   -1.951E-01   -2.074E-01   -2.197E-01   -2.320E-01
    -2.443E-01   -2.566E-01   -2.689E-01   -2.812E-01   -2.935E-01   -3.058E-01   -3.181E-01   -3.304E-01   -3.427E-01   -3.550E-01
    -3.673E-01   -3.796E-01   -3.919E-01   -4.042E-01   -4.165E-01   -4.288E-01   -4.411E-01   -4.534E-01   -4.657E-01   -4.780E-01
    -4.903E-01   -5.026E-01   -5.149E-01   -5.272E-01   -5.395E-01   -5.518E-01   -5.641E-01   -5.764E-01   -5.887E-01   -6.010E-01
    -6.133E-01   -6.256E-01   -6.379E-01   -6.502E-01   -6.625E-01   -6.748E-01   -6.871E-01   -6.994E-01   -7.117E-01   -7.240E-01
    -7.363E-01   -7.487E-01   -7.610E-01   -7.733E-01   -7.856E-01   -7.979E-01   -8.102E-01   -8.225E-01   -8.348E-01   -8.471E-01
    -8.594E-01   -8.717E-01   -8.840E-01   -8.963E-01   -9.086E-01   -9.209E-01   -9.332E-01   -9.455E-01   -9.578E-01   -9.701E-01
    -9.824E-01   -9.947E-01   -1.007E+00   -1.019E+00   -1.032E+00   -1.044E+00   -1.056E+00   -1.069E+00   -1.081E+00   -1.093E+00
    -1.105E+00   -1.118E+00   -1.130E+00   -1.142E+00   -1.155E+00   -1.167E+00   -1.179E+00   -1.192E+00   -1.204E+00   -1.216E+00
    -1.228E+00   -1.241E+00   -1.253E+00   -1.265E+00   -1.278E+00   -1.290E+00   -1.302E+00   -1.315E+00   -1.327E+00   -1.339E+00
    -1.351E+00   -1.364E+00   -1.376E+00   -1.388E+00   -1.401E+00   -1.413E+00   -1.425E+00   -1.438E+00   -1.450E+00   -1.462E+00
    -1.474E+00   -1.487E+00   -1.499E+00   -1.511E+00   -1.524E+00   -1.536E+00   -1.548E+00   -1.561E+00   -1.573E+00   -1.585E+00
    -1.597E+00   -1.610E+00   -1.622E+00   -1.634E+00   -1.647E+00   -1.659E+00   -1.671E+00   -1.684E+00   -1.696E+00   -1.708E+00
    -1.721E+00   -1.733E+00   -1.745E+00   -1.757E+00   -1.770E+00   -1.782E+00   -1.794E+00   -1.807E+00   -1.819E+00   -1.831E+00
    -1.844E+00   -1.856E+00   -1.868E+00   -1.880E+00   -1.893E+00   -1.905E+00   -1.917E+00   -1.930E+00   -1.942E+00   -1.954E+00
    -1.967E+00   -1.979E+00   -1.991E+00   -2.003E+00   -2.016E+00   -2.028E+00   -2.040E+00   -2.053E+00   -2.065E+00   -2.077E+00
    -2.090E+00   -2.102E+00   -2.114E+00   -2.126E+00   -2.139E+00   -2.151E+00   -2.163E+00   -2.176E+00   -2.188E+00   -2.200E+00
    -2.213E+00   -2.225E+00   -2.237E+00   -2.250E+00   -2.262E+00   -2.274E+00   -2.286E+00   -2.299E+00   -2.311E+00   -2.323E+00
    -2.336E+00   -2.348E+00   -2.360E+00   -2.373E+00   -2.385E+00   -2.397E+00   -2.409E+00   -2.422E+00   -2.434E+00   -2.446E+00
    -2.459E+00   -2.471E+00   -2.483E+00   -2.496E+00   -2.508E+00   -2.520E+00   -2.532E+00   -2.545E+00   -2.557E+00   -2.569E+00
    -2.582E+00   -2.594E+00   -2.606E+00   -2.619E+00   -2.631E+00   -2.643E+00   -2.656E+00   -2.668E+00   -2.680E+00   -2.692E+00
    -2.705E+00   -2.717E+00   -2.729E+00   -2.742E+00   -2.754E+00   -2.766E+00   -2.779E+00   -2.791E+00   -2.803E+00   -2.815E+00
    -2.828E+00   -2.840E+00   -2.852E+00   -2.865E+00   -2.877E+00   -2.889E+00   -2.902E+00   -2.914E+00   -2.926E+00   -2.938E+00
    -2.951E+00   -2.963E+00   -2.975E+00   -2.988E+00   -3.000E+00   -3.012E+00   -3.025E+00   -3.037E+00   -3.049E+00   -3.061E+00
    -3.074E+00   -3.086E+00   -3.098E+00   -3.111E+00   -3.123E+00   -3.135E+00   -3.148E+00   -3.160E+00   -3.172E+00   -3.185E+00
    -3.197E+00   -3.209E+00   -3.221E+00   -3.234E+00   -3.246E+00   -3.258E+00   -3.271E+00   -3.283E+00   -3.295E+00   -3.308E+00
    -3.320E+00   -3.332E+00   -3.344E+00   -3.357E+00   -3.369E+00   -3.381E+00   -3.394E+00   -3.406E+00   -3.418E+00   -3.431E+00
    -3.443E+00   -3.455E+00   -3.467E+00   -3.480E+00   -3.492E+00   -3.504E+00   -3.517E+00   -3.529E+00   -3.541E+00   -3.554E+00
    -3.566E+00   -3.578E+00   -3.591E+00   -3.603E+00   -3.615E+00   -3.627E+00   -3.640E+00   -3.652E+00   -3.664E+00   -3.677E+00
    -3.689E+00   -3.701E+00   -3.714E+00   -3.726E+00   -3.738E+00   -3.750E+00   -3.763E+00   -3.775E+00   -3.787E+00   -3.800E+00
    -3.812E+00   -3.824E+00   -3.837E+00   -3.849E+00   -3.861E+00   -3.873E+00   -3.886E+00   -3.898E+00   -3.910E+00   -3.923E+00
    -3.935E+00   -3.947E+00   -3.960E+00   -3.972E+00   -3.984E+00   -3.997E+00   -4.009E+00   -4.021E+00
 Asp      Conc. = 1.65E+01
