 LCModel (Version 6.3-1L) Copyright: S.W. Provencher.          Ref.: Magn. Reson. Med. 30:672-679 (1993).                
 Slice#1 Row#11 Col#10  PD_05_press_2_raw_act
 36 lines in following concentration table = NCONC+1
    Conc.  %SD /Cr+PCr  Metabolite                                         
  109.075  45%   1.640 Ala                                                 
   17.679  80%   0.266 Asp                                                 
   66.518  32%   1.000 Cr                                                  
    0.000 999%   0.000 PCr                                                 
   10.430  82%   0.157 GABA                                                
    9.939  86%   0.149 Glc                                                 
    0.000 999%   0.000 Gln                                                 
   99.195 103%   1.491 Glu                                                 
   34.901  24%   0.525 GPC                                                 
    0.000 999%   0.000 PCh                                                 
    0.000 999%   0.000 GSH                                                 
   46.543 201%   0.700 Ins                                                 
    0.000 999%   0.000 Lac                                                 
  159.002  17%   2.390 NAA                                                 
    0.000 999%   0.000 NAAG                                                
    4.148  68% 6.2E-02 Scyllo                                              
   15.430  91%   0.232 Tau                                                 
   13.095 119%   0.197 -CrCH2                                              
   34.901  24%   0.525 GPC+PCh                                             
  159.002  17%   2.390 NAA+NAAG                                            
   66.518  32%   1.000 Cr+PCr                                              
   99.195 103%   1.491 Glu+Gln                                             
 2.24E-03 999% 3.4E-05 Lip13a                                              
    0.000 999%   0.000 Lip13b                                              
    0.000 999%   0.000 Lip09                                               
  292.313  20%   4.394 MM09                                                
 4.99E-04 999% 7.5E-06 Lip20                                               
  468.065  21%   7.037 MM20                                                
   82.007  33%   1.233 MM12                                                
  631.907   9%   9.500+MM14                                                
   43.106 131%   0.648 MM17                                                
 2.24E-03 999% 3.4E-05 Lip13a+Lip13b                                       
  713.916   9%  10.733 MM14+Lip13a+Lip13b+MM12                             
  292.313  20%   4.394 MM09+Lip09                                          
  468.065  21%   7.037 MM20+Lip20                                          
   6 lines in following misc. output table
  FWHM = 0.054 ppm    S/N =   2                                            
  Data shift = 0.000 ppm                                                   
  Ph:  76 deg      -1.0 deg/ppm                                            
  alphaB,S = 8.5E+01,   2.6E+01                                            
   14 spline knots.   Ns = 6(1)                                            
   2 inflections.     1 extrema                                            
  498 points on ppm-axis = NY
      4.000000     3.992357     3.984714     3.977070     3.969427     3.961784     3.954141     3.946497     3.938854     3.931211
      3.923568     3.915925     3.908281     3.900638     3.892995     3.885352     3.877708     3.870065     3.862422     3.854779
      3.847136     3.839492     3.831849     3.824206     3.816563     3.808919     3.801276     3.793633     3.785990     3.778347
      3.770703     3.763060     3.755417     3.747774     3.740130     3.732487     3.724844     3.717201     3.709558     3.701914
      3.694271     3.686628     3.678985     3.671341     3.663698     3.656055     3.648412     3.640769     3.633125     3.625482
      3.617839     3.610196     3.602552     3.594909     3.587266     3.579623     3.571980     3.564336     3.556693     3.549050
      3.541407     3.533763     3.526120     3.518477     3.510834     3.503191     3.495547     3.487904     3.480261     3.472618
      3.464974     3.457331     3.449688     3.442045     3.434402     3.426758     3.419115     3.411472     3.403829     3.396185
      3.388542     3.380899     3.373256     3.365613     3.357969     3.350326     3.342683     3.335040     3.327396     3.319753
      3.312110     3.304467     3.296824     3.289180     3.281537     3.273894     3.266251     3.258607     3.250964     3.243321
      3.235678     3.228034     3.220391     3.212748     3.205105     3.197462     3.189818     3.182175     3.174532     3.166889
      3.159245     3.151602     3.143959     3.136316     3.128673     3.121029     3.113386     3.105743     3.098100     3.090456
      3.082813     3.075170     3.067527     3.059884     3.052240     3.044597     3.036954     3.029311     3.021667     3.014024
      3.006381     2.998738     2.991095     2.983451     2.975808     2.968165     2.960522     2.952878     2.945235     2.937592
      2.929949     2.922306     2.914662     2.907019     2.899376     2.891733     2.884089     2.876446     2.868803     2.861160
      2.853517     2.845873     2.838230     2.830587     2.822944     2.815300     2.807657     2.800014     2.792371     2.784728
      2.777084     2.769441     2.761798     2.754155     2.746511     2.738868     2.731225     2.723582     2.715939     2.708295
      2.700652     2.693009     2.685366     2.677722     2.670079     2.662436     2.654793     2.647150     2.639506     2.631863
      2.624220     2.616577     2.608933     2.601290     2.593647     2.586004     2.578361     2.570717     2.563074     2.555431
      2.547788     2.540144     2.532501     2.524858     2.517215     2.509572     2.501928     2.494285     2.486642     2.478999
      2.471355     2.463712     2.456069     2.448426     2.440783     2.433139     2.425496     2.417853     2.410210     2.402566
      2.394923     2.387280     2.379637     2.371994     2.364350     2.356707     2.349064     2.341421     2.333777     2.326134
      2.318491     2.310848     2.303205     2.295561     2.287918     2.280275     2.272632     2.264988     2.257345     2.249702
      2.242059     2.234416     2.226772     2.219129     2.211486     2.203843     2.196199     2.188556     2.180913     2.173270
      2.165627     2.157983     2.150340     2.142697     2.135054     2.127410     2.119767     2.112124     2.104481     2.096838
      2.089194     2.081551     2.073908     2.066265     2.058621     2.050978     2.043335     2.035692     2.028049     2.020405
      2.012762     2.005119     1.997476     1.989833     1.982190     1.974546     1.966903     1.959260     1.951617     1.943974
      1.936331     1.928688     1.921045     1.913402     1.905759     1.898115     1.890472     1.882829     1.875186     1.867543
      1.859900     1.852257     1.844614     1.836971     1.829327     1.821684     1.814041     1.806398     1.798755     1.791112
      1.783469     1.775826     1.768183     1.760540     1.752896     1.745253     1.737610     1.729967     1.722324     1.714681
      1.707038     1.699395     1.691752     1.684108     1.676465     1.668822     1.661179     1.653536     1.645893     1.638250
      1.630607     1.622964     1.615321     1.607677     1.600034     1.592391     1.584748     1.577105     1.569462     1.561819
      1.554176     1.546533     1.538890     1.531246     1.523603     1.515960     1.508317     1.500674     1.493031     1.485388
      1.477745     1.470102     1.462458     1.454815     1.447172     1.439529     1.431886     1.424243     1.416600     1.408957
      1.401314     1.393671     1.386027     1.378384     1.370741     1.363098     1.355455     1.347812     1.340169     1.332526
      1.324883     1.317240     1.309596     1.301953     1.294310     1.286667     1.279024     1.271381     1.263738     1.256095
      1.248452     1.240808     1.233165     1.225522     1.217879     1.210236     1.202593     1.194950     1.187307     1.179664
      1.172021     1.164377     1.156734     1.149091     1.141448     1.133805     1.126162     1.118519     1.110876     1.103233
      1.095590     1.087946     1.080303     1.072660     1.065017     1.057374     1.049731     1.042088     1.034445     1.026802
      1.019158     1.011515     1.003872     0.996229     0.988586     0.980943     0.973300     0.965657     0.958014     0.950371
      0.942727     0.935084     0.927441     0.919798     0.912155     0.904512     0.896869     0.889226     0.881583     0.873940
      0.866296     0.858653     0.851010     0.843367     0.835724     0.828081     0.820438     0.812795     0.805152     0.797508
      0.789865     0.782222     0.774579     0.766936     0.759293     0.751650     0.744007     0.736364     0.728721     0.721077
      0.713434     0.705791     0.698148     0.690505     0.682862     0.675219     0.667576     0.659933     0.652290     0.644646
      0.637003     0.629360     0.621717     0.614074     0.606431     0.598788     0.591145     0.583502     0.575858     0.568215
      0.560572     0.552929     0.545286     0.537643     0.530000     0.522357     0.514714     0.507071     0.499427     0.491784
      0.484141     0.476498     0.468855     0.461212     0.453569     0.445925     0.438282     0.430639     0.422996     0.415353
      0.407710     0.400067     0.392424     0.384780     0.377137     0.369494     0.361851     0.354208     0.346565     0.338922
      0.331278     0.323635     0.315992     0.308349     0.300706     0.293063     0.285420     0.277777     0.270133     0.262490
      0.254847     0.247204     0.239561     0.231918     0.224275     0.216631     0.208988     0.201345
 NY phased data points follow
  -8.85155E-01 -1.24889E+00 -2.08061E+00  1.79426E+00  3.02016E-01 -4.52509E-02 -1.70847E+00 -2.29847E-01  2.19315E+00 -9.71114E-01
   8.02966E-02  5.21505E+00  1.20455E+00  3.77965E+00 -1.58429E+00  1.12794E+00 -6.93343E-01  7.76297E-01 -6.68421E-01  2.06428E+00
   8.61477E-01  3.05278E+00  1.40695E-01 -3.10306E-01 -6.45343E-01  1.59022E+00  6.58740E-01  4.11055E-01  1.09082E+00  4.69343E-01
  -1.13747E+00 -2.27809E+00 -3.79068E-01 -7.64370E-01  4.14343E+00 -4.97338E-01  5.13860E-02  4.18811E+00  1.46373E+00  2.16516E+00
   1.93252E+00  1.09460E+00 -1.65767E+00  1.46461E+00  7.86676E-01  2.77343E+00  2.88286E-01  1.20588E+00  1.15133E+00  1.50183E+00
   1.17574E+00  1.27223E+00 -2.11831E+00  2.40975E+00 -1.97935E+00 -2.99854E-01 -9.85881E-01 -6.38308E-01 -2.12818E-02  1.06723E-02
   1.97854E+00 -5.01179E-01 -5.76889E-01 -2.35968E+00  2.08730E-01 -6.94157E-01 -1.36414E+00  5.08646E-01 -1.00366E+00  1.29690E+00
   1.31209E+00 -1.72781E+00 -5.73636E-01  3.45249E-01 -3.49192E-01  1.13297E+00  3.60739E+00 -1.44139E+00  5.01052E-01  1.79466E+00
   5.07786E-01  1.84713E+00  1.67747E+00  1.87721E-02  3.70736E+00  1.64637E+00  2.99030E-01 -7.79639E-01  1.19680E+00  7.78099E-01
   1.11487E+00  2.16637E+00 -8.23458E-01  4.19635E-02 -2.02432E+00 -2.85808E+00  1.41675E+00  1.12854E+00 -1.64855E-01  2.52999E+00
   3.78916E+00  3.33506E+00  4.98161E+00  2.22573E+00  3.40988E+00  2.92206E+00  2.50698E+00  5.12186E-01  3.34554E+00 -2.98568E+00
  -1.65089E+00  1.99691E+00  2.00777E+00 -1.21822E+00 -1.13170E+00 -1.24725E+00  1.99071E+00 -1.77818E+00  1.14511E+00  1.07441E-01
   3.80030E-02  7.34354E-01 -2.09066E+00  2.03911E+00  3.51827E+00  3.65484E+00  4.29306E+00  2.88664E+00 -1.97861E-01  1.65719E+00
   1.07015E+00  4.02034E+00  1.22796E+00 -7.49600E-01 -2.60407E-01 -2.17427E-02 -9.26975E-02  8.15982E-01  1.44215E+00  8.20006E-01
  -7.58601E-01  1.51954E+00  8.35188E-01 -2.09381E+00 -1.18577E+00  1.48073E+00  9.26132E-01  8.44434E-01  2.54056E+00  2.36309E+00
  -1.11344E+00  8.24387E-01 -3.04205E-01 -3.24802E-01 -3.71354E+00 -5.49440E-01 -1.64388E+00 -5.27424E-02 -2.62907E-01 -7.83833E-01
  -4.66425E-01  2.27705E+00 -2.59019E+00 -2.45299E-01 -1.78935E+00  3.88898E+00  7.01929E-01 -1.40779E+00  1.46525E+00  2.94046E+00
  -3.27515E-02 -6.33153E-01  1.00111E+00 -2.39687E+00 -1.65127E+00 -1.57604E+00 -4.72628E-01 -7.93894E-01  2.25272E+00  8.98179E-01
  -4.27267E-01  9.87670E-01  1.52432E+00  1.11074E-01  1.72790E+00  1.58719E+00 -1.18321E+00  2.10148E+00  1.47034E+00  9.16428E-01
  -4.39990E-01  9.18099E-01  2.44383E+00  4.44738E-01  1.93636E+00  7.05750E-01  2.03722E+00  3.50811E-02 -1.16316E+00 -9.18074E-01
   2.88387E+00  1.56164E+00  1.56023E+00 -1.11625E+00 -1.26024E+00  2.30061E+00 -1.81640E-01 -9.19760E-01  9.88600E-01 -6.68679E-02
  -1.28147E+00  6.26774E-01 -1.89925E+00  2.13434E+00  3.00240E+00  1.58566E+00  1.06493E+00 -4.49514E-01 -1.80834E+00  2.51707E+00
   3.40575E+00 -1.12460E+00 -9.96221E-01  6.66255E-01  1.81815E+00  1.08721E+00 -1.60822E+00  4.14279E+00 -2.20835E-01  1.63978E+00
   7.12390E-01  1.94651E-01  2.08814E+00  3.35783E+00  1.10113E+00  1.16764E+00  4.58167E+00 -8.61066E-02 -2.21629E-01  1.29977E+00
   3.15610E+00  5.27418E-01 -9.89910E-02  2.52220E+00  2.41741E+00  1.04305E+00  2.57786E+00  2.10003E+00  3.73859E+00  3.38440E+00
   2.54727E+00  3.14578E+00  9.24860E-01 -7.20132E-02 -1.90492E+00  2.85318E+00  5.06981E+00  5.02928E+00  5.67451E+00  6.65352E+00
   6.05373E+00  7.66225E+00  6.89150E+00  3.72482E+00  4.47399E+00  3.93967E+00  5.79682E-01  4.40527E-01 -1.94258E+00  1.69027E-02
  -6.23007E-02 -1.20227E+00  2.67854E+00  2.49017E+00  3.33166E+00  1.68471E+00  4.01596E+00  2.67001E+00 -1.38359E+00  5.96747E-02
  -1.62877E+00  2.32362E-01  1.95292E+00  2.49541E+00 -9.24575E-01 -2.66590E+00 -3.39100E-01  3.23466E+00 -1.33480E-01  1.75401E+00
   2.04200E+00  1.12515E+00  8.04727E-01  2.89628E+00  2.56785E+00  7.93593E-01  2.36123E-02 -1.97552E-01 -2.19733E+00  1.01287E+00
  -1.53777E+00 -1.72624E+00 -4.71297E-01 -2.54861E+00 -4.94225E-01 -2.36373E+00  7.73555E-01  2.96722E-01 -1.81532E-01  1.55297E+00
  -1.10744E+00 -2.64623E+00  6.94714E-01 -2.94225E-01 -1.75881E+00  4.42080E-01 -1.99296E+00  1.60513E+00  3.88140E-01  2.93711E+00
   1.33141E+00  5.28600E-01  3.71525E-01  1.20599E+00  2.93587E-01  5.48615E-01  1.38926E+00 -6.14524E-01  1.81201E+00  2.65450E+00
  -3.14099E-01 -1.84172E+00  2.65017E+00  2.28769E+00  5.63735E+00  5.46323E+00  5.76614E+00  3.68628E+00  4.51324E+00  6.09668E+00
   4.64829E+00  7.03405E+00  7.15144E+00  5.62601E+00  8.41018E+00  6.40147E+00  7.61169E+00  7.94455E+00  4.19353E+00  3.52827E+00
   6.25375E+00  4.85986E+00  5.25910E+00  3.12012E+00  4.58950E+00 -4.50207E-01  3.75663E-01  1.83574E+00 -2.23707E+00 -1.81027E+00
  -1.49907E+00  5.07549E-01  1.00201E+00 -3.15695E+00 -2.63249E+00 -1.04523E+00 -2.37682E+00 -9.14951E-01  1.88875E+00 -8.27376E-01
   1.87188E+00  2.67649E+00 -1.37662E+00 -8.58186E-01 -3.80034E-01 -1.97067E+00 -1.69761E-02  4.36382E-01  2.16540E-01  2.50080E-01
  -5.55426E-01 -7.28789E-01 -4.12906E-01  7.23357E-01  7.61564E-01  2.31150E+00  9.67054E-01  1.49033E+00 -4.93585E-01  9.96501E-01
   1.79905E+00  2.82379E+00  1.33208E+00 -8.30538E-01 -1.26875E+00 -6.52415E-01 -3.46944E+00 -4.17666E-02  1.34338E+00 -1.21897E+00
  -1.46350E+00  1.50316E+00 -5.40579E-01  1.18897E+00  6.86738E-01 -1.31212E+00  1.02620E+00 -6.41302E-01  2.39131E+00  1.04617E+00
   1.02280E+00  1.21437E+00  2.05356E+00  1.06606E+00  1.48775E+00  5.07470E+00  3.54222E+00  1.18065E+00  7.32811E-01 -7.53307E-01
   2.31780E+00  1.96239E+00 -2.42610E-01  8.02301E-01 -4.10293E-01  2.42971E-01 -9.93148E-01  8.02986E-01  2.57566E+00 -8.00740E-01
   6.44878E-01 -5.48345E-01 -2.10050E+00 -5.03991E-01  1.87467E+00 -7.70585E-01  4.28043E-01  3.45784E-01  7.05073E-01 -2.16034E+00
  -9.93206E-01  3.63479E+00 -9.75566E-01 -1.53524E+00  9.48216E-01 -2.94238E-01 -1.94347E+00 -2.37608E+00  1.30445E+00 -1.72359E+00
  -1.57983E+00  1.34894E+00 -1.06592E+00  5.54925E-01 -9.04820E-01 -8.85383E-01  1.05309E+00 -1.47489E+00 -7.19294E-01 -1.05784E+00
  -1.77388E+00 -7.68645E-01  1.85002E-01  4.21082E+00 -3.60040E-01 -2.30785E+00 -1.98830E+00  8.31295E-01  2.52943E+00  2.62272E+00
  -6.41680E-01 -4.89647E-01 -2.18320E+00  8.34993E-01  1.58609E-01 -1.77943E+00 -2.35131E+00 -5.21544E-01 -2.17508E+00  4.98126E-01
   5.69264E-01  1.18395E+00 -1.99061E+00 -1.39397E+00  1.24728E+00 -8.82851E-01  1.50481E+00  1.00293E+00 -1.48517E+00  9.06570E-02
   2.60948E+00 -2.43875E+00 -1.32143E+00 -1.98482E+00 -4.90486E-01 -7.80620E-02  1.42496E+00 -2.05273E+00
 NY points of the fit to the data follow
   3.94341E-01  3.97803E-01  4.16233E-01  4.42003E-01  4.46476E-01  4.43792E-01  5.49616E-01  8.39641E-01  1.21916E+00  1.54895E+00
   1.74807E+00  1.79653E+00  1.72335E+00  1.57084E+00  1.36736E+00  1.10724E+00  7.95571E-01  5.34585E-01  4.40897E-01  4.79183E-01
   5.63738E-01  6.55178E-01  7.09499E-01  6.89749E-01  5.82236E-01  4.04578E-01  2.02645E-01  2.02670E-02 -8.16578E-02 -5.71781E-02
   8.13622E-02  2.88710E-01  5.10158E-01  6.81236E-01  7.71854E-01  7.85070E-01  7.35326E-01  6.37688E-01  5.15327E-01  4.02353E-01
   3.40994E-01  3.45028E-01  3.98529E-01  4.87469E-01  5.92829E-01  6.91810E-01  7.61238E-01  7.81014E-01  7.47169E-01  6.88271E-01
   6.21612E-01  5.44054E-01  4.61564E-01  3.92995E-01  3.52448E-01  3.43732E-01  3.59395E-01  3.88811E-01  4.15486E-01  4.27521E-01
   4.20108E-01  3.98468E-01  3.73592E-01  3.50618E-01  3.30258E-01  3.12364E-01  3.01000E-01  3.02623E-01  3.17409E-01  3.38633E-01
   3.62426E-01  3.90679E-01  4.17699E-01  4.35004E-01  4.37747E-01  4.24189E-01  3.98361E-01  3.66441E-01  3.39187E-01  3.23699E-01
   3.19116E-01  3.39383E-01  3.90244E-01  4.45309E-01  4.74631E-01  4.71210E-01  4.42103E-01  4.01304E-01  3.61609E-01  3.27158E-01
   2.92800E-01  2.59219E-01  2.42836E-01  2.59752E-01  2.99998E-01  3.49981E-01  4.23606E-01  6.28811E-01  1.20485E+00  2.09949E+00
   2.98535E+00  3.59959E+00  3.83652E+00  3.71407E+00  3.34469E+00  2.84381E+00  2.26952E+00  1.61168E+00  9.37030E-01  4.74717E-01
   3.48621E-01  3.38923E-01  3.37704E-01  3.42170E-01  3.50152E-01  3.60633E-01  3.71838E-01  3.85582E-01  4.03190E-01  4.27258E-01
   4.68033E-01  5.71916E-01  8.85293E-01  1.44220E+00  2.05623E+00  2.53108E+00  2.77116E+00  2.76409E+00  2.56794E+00  2.25877E+00
   1.88388E+00  1.45089E+00  9.83531E-01  6.08428E-01  4.52214E-01  4.19663E-01  4.00011E-01  3.84707E-01  3.70124E-01  3.55008E-01
   3.40527E-01  3.28853E-01  3.20660E-01  3.12710E-01  2.99893E-01  2.82116E-01  2.62849E-01  2.44248E-01  2.26104E-01  2.06642E-01
   1.86747E-01  1.68762E-01  1.54855E-01  1.45832E-01  1.37973E-01  1.24721E-01  9.47391E-02  4.57445E-02 -7.82492E-03 -4.74721E-02
  -5.68575E-02 -3.90358E-02 -1.32555E-02  5.98451E-03  1.43520E-02  1.49816E-02  1.19102E-02  2.37183E-05 -2.81592E-02 -6.71998E-02
  -1.09006E-01 -1.51102E-01 -1.91218E-01 -2.20936E-01 -2.28342E-01 -2.14357E-01 -1.96814E-01 -1.88849E-01 -1.86092E-01 -1.77310E-01
  -1.55375E-01 -1.25205E-01 -1.09525E-01 -1.17400E-01 -1.19492E-01 -8.65434E-02 -2.42773E-02  4.58014E-02  1.00452E-01  1.39548E-01
   1.75362E-01  2.17656E-01  2.71557E-01  3.17708E-01  3.35004E-01  3.30375E-01  3.14863E-01  2.90860E-01  2.70201E-01  2.70918E-01
   2.95762E-01  3.33943E-01  3.69268E-01  3.94160E-01  4.05486E-01  3.86942E-01  3.37148E-01  2.66782E-01  1.80020E-01  1.00945E-01
   8.02876E-02  1.66282E-01  3.34199E-01  5.12335E-01  6.40083E-01  6.92136E-01  6.56539E-01  5.25688E-01  3.23224E-01  1.06366E-01
  -5.94354E-02 -1.25089E-01 -6.56471E-02  1.04041E-01  3.12700E-01  5.12101E-01  6.85848E-01  8.24373E-01  9.13830E-01  9.42760E-01
   9.38933E-01  9.47241E-01  9.79715E-01  1.02504E+00  1.08125E+00  1.14096E+00  1.19365E+00  1.23320E+00  1.25629E+00  1.27841E+00
   1.32086E+00  1.38935E+00  1.47693E+00  1.57646E+00  1.67885E+00  1.76875E+00  1.83184E+00  1.86463E+00  1.88034E+00  1.89265E+00
   1.90848E+00  1.94049E+00  1.99105E+00  2.05847E+00  2.20304E+00  2.71663E+00  3.83914E+00  5.23099E+00  6.37843E+00  6.99898E+00
   7.02622E+00  6.55706E+00  5.78669E+00  4.86229E+00  3.81922E+00  2.66010E+00  1.61209E+00  1.03690E+00  8.75476E-01  7.83214E-01
   7.16314E-01  6.73930E-01  6.43904E-01  6.18303E-01  5.95291E-01  5.69642E-01  5.37220E-01  4.97261E-01  4.51390E-01  4.02036E-01
   3.55270E-01  3.16035E-01  2.85185E-01  2.62499E-01  2.46920E-01  2.36714E-01  2.30348E-01  2.26049E-01  2.22793E-01  2.20714E-01
   2.19371E-01  2.18680E-01  2.19475E-01  2.22262E-01  2.26628E-01  2.32102E-01  2.38635E-01  2.45940E-01  2.53462E-01  2.60935E-01
   2.68101E-01  2.74475E-01  2.79886E-01  2.84249E-01  2.87592E-01  2.90078E-01  2.91998E-01  2.93710E-01  2.95677E-01  2.98531E-01
   3.03131E-01  3.10473E-01  3.21732E-01  3.38330E-01  3.62018E-01  3.94991E-01  4.40087E-01  5.01047E-01  5.83115E-01  6.94419E-01
   8.49939E-01  1.08349E+00  1.43694E+00  1.80124E+00  1.99243E+00  1.94944E+00  1.72390E+00  1.40306E+00  1.07129E+00  7.82178E-01
   6.64192E-01  8.63925E-01  1.40037E+00  2.21798E+00  3.16977E+00  4.00282E+00  4.62400E+00  5.07086E+00  5.37141E+00  5.51632E+00
   5.47107E+00  5.28481E+00  5.11075E+00  4.98482E+00  4.84329E+00  4.67018E+00  4.46316E+00  4.22418E+00  3.95773E+00  3.66986E+00
   3.36744E+00  3.05766E+00  2.74750E+00  2.44344E+00  2.15116E+00  1.87540E+00  1.61981E+00  1.38690E+00  1.17808E+00  9.93763E-01
   8.33525E-01  6.96235E-01  5.80243E-01  4.83518E-01  4.03820E-01  3.38844E-01  2.86362E-01  2.44301E-01  2.10801E-01  1.84231E-01
   1.63227E-01  1.46693E-01  1.33813E-01  1.24002E-01  1.16874E-01  1.12197E-01  1.09886E-01  1.09975E-01  1.12607E-01  1.17992E-01
   1.26384E-01  1.38062E-01  1.53348E-01  1.72595E-01  1.96188E-01  2.24509E-01  2.57935E-01  2.96819E-01  3.41500E-01  3.92281E-01
   4.49398E-01  5.12970E-01  5.82980E-01  6.59236E-01  7.41366E-01  8.28769E-01  9.20594E-01  1.01570E+00  1.11267E+00  1.20984E+00
   1.30532E+00  1.39706E+00  1.48289E+00  1.56057E+00  1.62795E+00  1.68303E+00  1.72409E+00  1.74971E+00  1.75893E+00  1.75122E+00
   1.72657E+00  1.68548E+00  1.62895E+00  1.55839E+00  1.47558E+00  1.38255E+00  1.28154E+00  1.17484E+00  1.06475E+00  9.53419E-01
   8.42830E-01  7.34704E-01  6.30504E-01  5.31397E-01  4.38253E-01  3.51638E-01  2.71862E-01  1.99005E-01  1.32979E-01  7.35395E-02
   2.03334E-02 -2.70866E-02 -6.92040E-02 -1.06519E-01 -1.39513E-01 -1.68661E-01 -1.94412E-01 -2.17192E-01 -2.37377E-01 -2.55301E-01
  -2.71247E-01 -2.85475E-01 -2.98214E-01 -3.09672E-01 -3.20014E-01 -3.29380E-01 -3.37883E-01 -3.45634E-01 -3.52730E-01 -3.59259E-01
  -3.65281E-01 -3.70848E-01 -3.76003E-01 -3.80799E-01 -3.85277E-01 -3.89479E-01 -3.93422E-01 -3.97126E-01 -4.00612E-01 -4.03910E-01
  -4.07041E-01 -4.10023E-01 -4.12857E-01 -4.15554E-01 -4.18124E-01 -4.20592E-01 -4.22965E-01 -4.25249E-01 -4.27440E-01 -4.29547E-01
  -4.31577E-01 -4.33549E-01 -4.35463E-01 -4.37319E-01 -4.39109E-01 -4.40846E-01 -4.42536E-01 -4.44193E-01 -4.45809E-01 -4.47383E-01
  -4.48910E-01 -4.50402E-01 -4.51866E-01 -4.53308E-01 -4.54717E-01 -4.56092E-01 -4.57431E-01 -4.58748E-01 -4.60045E-01 -4.61324E-01
  -4.62572E-01 -4.63788E-01 -4.64975E-01 -4.66146E-01 -4.67298E-01 -4.68428E-01 -4.69523E-01 -4.70584E-01
 NY background values follow
     1.973E-01    1.960E-01    1.948E-01    1.935E-01    1.923E-01    1.910E-01    1.898E-01    1.885E-01    1.873E-01    1.860E-01
     1.848E-01    1.835E-01    1.823E-01    1.810E-01    1.798E-01    1.785E-01    1.773E-01    1.760E-01    1.748E-01    1.736E-01
     1.723E-01    1.711E-01    1.698E-01    1.686E-01    1.673E-01    1.661E-01    1.648E-01    1.636E-01    1.623E-01    1.611E-01
     1.598E-01    1.586E-01    1.573E-01    1.561E-01    1.548E-01    1.536E-01    1.523E-01    1.511E-01    1.498E-01    1.486E-01
     1.473E-01    1.461E-01    1.448E-01    1.436E-01    1.423E-01    1.411E-01    1.398E-01    1.386E-01    1.374E-01    1.361E-01
     1.349E-01    1.336E-01    1.324E-01    1.311E-01    1.299E-01    1.286E-01    1.274E-01    1.261E-01    1.249E-01    1.236E-01
     1.224E-01    1.211E-01    1.199E-01    1.186E-01    1.174E-01    1.161E-01    1.149E-01    1.136E-01    1.124E-01    1.111E-01
     1.099E-01    1.086E-01    1.074E-01    1.061E-01    1.049E-01    1.037E-01    1.024E-01    1.012E-01    9.991E-02    9.866E-02
     9.741E-02    9.617E-02    9.492E-02    9.367E-02    9.242E-02    9.117E-02    8.993E-02    8.868E-02    8.743E-02    8.618E-02
     8.494E-02    8.369E-02    8.244E-02    8.119E-02    7.995E-02    7.870E-02    7.745E-02    7.620E-02    7.495E-02    7.371E-02
     7.246E-02    7.121E-02    6.996E-02    6.872E-02    6.747E-02    6.622E-02    6.497E-02    6.373E-02    6.248E-02    6.123E-02
     5.998E-02    5.874E-02    5.749E-02    5.624E-02    5.500E-02    5.375E-02    5.250E-02    5.125E-02    5.001E-02    4.876E-02
     4.751E-02    4.626E-02    4.502E-02    4.377E-02    4.252E-02    4.128E-02    4.003E-02    3.878E-02    3.754E-02    3.629E-02
     3.504E-02    3.379E-02    3.255E-02    3.130E-02    3.005E-02    2.881E-02    2.756E-02    2.631E-02    2.507E-02    2.382E-02
     2.257E-02    2.133E-02    2.008E-02    1.883E-02    1.759E-02    1.634E-02    1.509E-02    1.385E-02    1.260E-02    1.135E-02
     1.011E-02    8.861E-03    7.615E-03    6.368E-03    5.122E-03    3.876E-03    2.630E-03    1.383E-03    1.370E-04   -1.109E-03
    -2.355E-03   -3.601E-03   -4.848E-03   -6.094E-03   -7.340E-03   -8.586E-03   -9.832E-03   -1.108E-02   -1.232E-02   -1.357E-02
    -1.482E-02   -1.606E-02   -1.731E-02   -1.855E-02   -1.980E-02   -2.104E-02   -2.229E-02   -2.354E-02   -2.478E-02   -2.603E-02
    -2.727E-02   -2.852E-02   -2.976E-02   -3.101E-02   -3.225E-02   -3.350E-02   -3.474E-02   -3.599E-02   -3.724E-02   -3.848E-02
    -3.973E-02   -4.097E-02   -4.222E-02   -4.346E-02   -4.471E-02   -4.595E-02   -4.720E-02   -4.844E-02   -4.969E-02   -5.093E-02
    -5.218E-02   -5.342E-02   -5.467E-02   -5.591E-02   -5.715E-02   -5.840E-02   -5.964E-02   -6.089E-02   -6.213E-02   -6.338E-02
    -6.462E-02   -6.587E-02   -6.711E-02   -6.835E-02   -6.960E-02   -7.084E-02   -7.209E-02   -7.333E-02   -7.458E-02   -7.582E-02
    -7.706E-02   -7.831E-02   -7.955E-02   -8.080E-02   -8.204E-02   -8.328E-02   -8.453E-02   -8.577E-02   -8.701E-02   -8.826E-02
    -8.950E-02   -9.075E-02   -9.199E-02   -9.323E-02   -9.448E-02   -9.572E-02   -9.696E-02   -9.821E-02   -9.945E-02   -1.007E-01
    -1.019E-01   -1.032E-01   -1.044E-01   -1.057E-01   -1.069E-01   -1.081E-01   -1.094E-01   -1.106E-01   -1.119E-01   -1.131E-01
    -1.144E-01   -1.156E-01   -1.168E-01   -1.181E-01   -1.193E-01   -1.206E-01   -1.218E-01   -1.231E-01   -1.243E-01   -1.255E-01
    -1.268E-01   -1.280E-01   -1.293E-01   -1.305E-01   -1.318E-01   -1.330E-01   -1.342E-01   -1.355E-01   -1.367E-01   -1.380E-01
    -1.392E-01   -1.404E-01   -1.417E-01   -1.429E-01   -1.442E-01   -1.454E-01   -1.467E-01   -1.479E-01   -1.491E-01   -1.504E-01
    -1.516E-01   -1.529E-01   -1.541E-01   -1.553E-01   -1.566E-01   -1.578E-01   -1.591E-01   -1.603E-01   -1.615E-01   -1.628E-01
    -1.640E-01   -1.653E-01   -1.665E-01   -1.677E-01   -1.690E-01   -1.702E-01   -1.715E-01   -1.727E-01   -1.739E-01   -1.752E-01
    -1.764E-01   -1.777E-01   -1.789E-01   -1.801E-01   -1.814E-01   -1.826E-01   -1.839E-01   -1.851E-01   -1.863E-01   -1.876E-01
    -1.888E-01   -1.901E-01   -1.913E-01   -1.925E-01   -1.938E-01   -1.950E-01   -1.963E-01   -1.975E-01   -1.987E-01   -2.000E-01
    -2.012E-01   -2.025E-01   -2.037E-01   -2.049E-01   -2.062E-01   -2.074E-01   -2.086E-01   -2.099E-01   -2.111E-01   -2.124E-01
    -2.136E-01   -2.148E-01   -2.161E-01   -2.173E-01   -2.185E-01   -2.198E-01   -2.210E-01   -2.223E-01   -2.235E-01   -2.247E-01
    -2.260E-01   -2.272E-01   -2.284E-01   -2.297E-01   -2.309E-01   -2.322E-01   -2.334E-01   -2.346E-01   -2.359E-01   -2.371E-01
    -2.383E-01   -2.396E-01   -2.408E-01   -2.420E-01   -2.433E-01   -2.445E-01   -2.458E-01   -2.470E-01   -2.482E-01   -2.495E-01
    -2.507E-01   -2.519E-01   -2.532E-01   -2.544E-01   -2.556E-01   -2.569E-01   -2.581E-01   -2.593E-01   -2.606E-01   -2.618E-01
    -2.631E-01   -2.643E-01   -2.655E-01   -2.668E-01   -2.680E-01   -2.692E-01   -2.705E-01   -2.717E-01   -2.729E-01   -2.742E-01
    -2.754E-01   -2.766E-01   -2.779E-01   -2.791E-01   -2.803E-01   -2.816E-01   -2.828E-01   -2.840E-01   -2.853E-01   -2.865E-01
    -2.877E-01   -2.890E-01   -2.902E-01   -2.914E-01   -2.927E-01   -2.939E-01   -2.951E-01   -2.964E-01   -2.976E-01   -2.988E-01
    -3.001E-01   -3.013E-01   -3.025E-01   -3.038E-01   -3.050E-01   -3.062E-01   -3.075E-01   -3.087E-01   -3.099E-01   -3.112E-01
    -3.124E-01   -3.136E-01   -3.149E-01   -3.161E-01   -3.173E-01   -3.185E-01   -3.198E-01   -3.210E-01   -3.222E-01   -3.235E-01
    -3.247E-01   -3.259E-01   -3.272E-01   -3.284E-01   -3.296E-01   -3.309E-01   -3.321E-01   -3.333E-01   -3.345E-01   -3.358E-01
    -3.370E-01   -3.382E-01   -3.395E-01   -3.407E-01   -3.419E-01   -3.432E-01   -3.444E-01   -3.456E-01   -3.468E-01   -3.481E-01
    -3.493E-01   -3.505E-01   -3.518E-01   -3.530E-01   -3.542E-01   -3.554E-01   -3.567E-01   -3.579E-01   -3.591E-01   -3.604E-01
    -3.616E-01   -3.628E-01   -3.640E-01   -3.653E-01   -3.665E-01   -3.677E-01   -3.690E-01   -3.702E-01   -3.714E-01   -3.726E-01
    -3.739E-01   -3.751E-01   -3.763E-01   -3.775E-01   -3.788E-01   -3.800E-01   -3.812E-01   -3.824E-01   -3.837E-01   -3.849E-01
    -3.861E-01   -3.874E-01   -3.886E-01   -3.898E-01   -3.910E-01   -3.923E-01   -3.935E-01   -3.947E-01   -3.959E-01   -3.972E-01
    -3.984E-01   -3.996E-01   -4.008E-01   -4.021E-01   -4.033E-01   -4.045E-01   -4.057E-01   -4.070E-01   -4.082E-01   -4.094E-01
    -4.106E-01   -4.119E-01   -4.131E-01   -4.143E-01   -4.155E-01   -4.167E-01   -4.180E-01   -4.192E-01
 Ala      Conc. = 1.09E+02
