 LCModel (Version 6.3-1L) Copyright: S.W. Provencher.          Ref.: Magn. Reson. Med. 30:672-679 (1993).                
 Slice#2 Row#11 Col#7  PD_05_press_2_raw_act
 36 lines in following concentration table = NCONC+1
    Conc.  %SD /Cr+PCr  Metabolite                                         
  377.106  46%   1.038 Ala                                                 
   50.169  98%   0.138 Asp                                                 
  263.275  96%   0.725 Cr                                                  
  100.085 256%   0.275 PCr                                                 
   33.897  87% 9.3E-02 GABA                                                
   33.041  90% 9.1E-02 Glc                                                 
  531.765  70%   1.463 Gln                                                 
  188.643 217%   0.519 Glu                                                 
   87.594  24%   0.241 GPC                                                 
    0.000 999%   0.000 PCh                                                 
   57.622 156%   0.159 GSH                                                 
    0.000 999%   0.000 Ins                                                 
    0.000 999%   0.000 Lac                                                 
  448.760  14%   1.235 NAA                                                 
    0.000 999%   0.000 NAAG                                                
   11.480  83% 3.2E-02 Scyllo                                              
   48.272 101%   0.133 Tau                                                 
   95.190  74%   0.262 -CrCH2                                              
   87.594  24%   0.241 GPC+PCh                                             
  448.760  14%   1.235 NAA+NAAG                                            
  363.359  16%   1.000 Cr+PCr                                              
  720.408  90%   1.983 Glu+Gln                                             
 1.68E+03  17%   4.618 Lip13a                                              
    0.000 999%   0.000 Lip13b                                              
  444.148  19%   1.222 Lip09                                               
    0.000 999%   0.000 MM09                                                
  249.370  21%   0.686 Lip20                                               
    0.000 999%   0.000 MM20                                                
    0.000 999%   0.000 MM12                                                
    2.788 999% 7.7E-03 MM14                                                
    0.000 999%   0.000 MM17                                                
 1.68E+03  17%   4.618 Lip13a+Lip13b                                       
 1.68E+03  17%   4.625 MM14+Lip13a+Lip13b+MM12                             
  444.148  19%   1.222 MM09+Lip09                                          
  249.370  21%   0.686 MM20+Lip20                                          
   6 lines in following misc. output table
  FWHM = 0.076 ppm    S/N =   2                                            
  Data shift = 0.015 ppm                                                   
  Ph: -27 deg     -19.2 deg/ppm                                            
  alphaB,S = 8.5E+01,   5.1E+01                                            
   14 spline knots.   Ns = 8(1)                                            
   2 inflections.     1 extrema                                            
  498 points on ppm-axis = NY
      4.000000     3.992357     3.984714     3.977070     3.969427     3.961784     3.954141     3.946497     3.938854     3.931211
      3.923568     3.915925     3.908281     3.900638     3.892995     3.885352     3.877708     3.870065     3.862422     3.854779
      3.847136     3.839492     3.831849     3.824206     3.816563     3.808919     3.801276     3.793633     3.785990     3.778347
      3.770703     3.763060     3.755417     3.747774     3.740130     3.732487     3.724844     3.717201     3.709558     3.701914
      3.694271     3.686628     3.678985     3.671341     3.663698     3.656055     3.648412     3.640769     3.633125     3.625482
      3.617839     3.610196     3.602552     3.594909     3.587266     3.579623     3.571980     3.564336     3.556693     3.549050
      3.541407     3.533763     3.526120     3.518477     3.510834     3.503191     3.495547     3.487904     3.480261     3.472618
      3.464974     3.457331     3.449688     3.442045     3.434402     3.426758     3.419115     3.411472     3.403829     3.396185
      3.388542     3.380899     3.373256     3.365613     3.357969     3.350326     3.342683     3.335040     3.327396     3.319753
      3.312110     3.304467     3.296824     3.289180     3.281537     3.273894     3.266251     3.258607     3.250964     3.243321
      3.235678     3.228034     3.220391     3.212748     3.205105     3.197462     3.189818     3.182175     3.174532     3.166889
      3.159245     3.151602     3.143959     3.136316     3.128673     3.121029     3.113386     3.105743     3.098100     3.090456
      3.082813     3.075170     3.067527     3.059884     3.052240     3.044597     3.036954     3.029311     3.021667     3.014024
      3.006381     2.998738     2.991095     2.983451     2.975808     2.968165     2.960522     2.952878     2.945235     2.937592
      2.929949     2.922306     2.914662     2.907019     2.899376     2.891733     2.884089     2.876446     2.868803     2.861160
      2.853517     2.845873     2.838230     2.830587     2.822944     2.815300     2.807657     2.800014     2.792371     2.784728
      2.777084     2.769441     2.761798     2.754155     2.746511     2.738868     2.731225     2.723582     2.715939     2.708295
      2.700652     2.693009     2.685366     2.677722     2.670079     2.662436     2.654793     2.647150     2.639506     2.631863
      2.624220     2.616577     2.608933     2.601290     2.593647     2.586004     2.578361     2.570717     2.563074     2.555431
      2.547788     2.540144     2.532501     2.524858     2.517215     2.509572     2.501928     2.494285     2.486642     2.478999
      2.471355     2.463712     2.456069     2.448426     2.440783     2.433139     2.425496     2.417853     2.410210     2.402566
      2.394923     2.387280     2.379637     2.371994     2.364350     2.356707     2.349064     2.341421     2.333777     2.326134
      2.318491     2.310848     2.303205     2.295561     2.287918     2.280275     2.272632     2.264988     2.257345     2.249702
      2.242059     2.234416     2.226772     2.219129     2.211486     2.203843     2.196199     2.188556     2.180913     2.173270
      2.165627     2.157983     2.150340     2.142697     2.135054     2.127410     2.119767     2.112124     2.104481     2.096838
      2.089194     2.081551     2.073908     2.066265     2.058621     2.050978     2.043335     2.035692     2.028049     2.020405
      2.012762     2.005119     1.997476     1.989833     1.982190     1.974546     1.966903     1.959260     1.951617     1.943974
      1.936331     1.928688     1.921045     1.913402     1.905759     1.898115     1.890472     1.882829     1.875186     1.867543
      1.859900     1.852257     1.844614     1.836971     1.829327     1.821684     1.814041     1.806398     1.798755     1.791112
      1.783469     1.775826     1.768183     1.760540     1.752896     1.745253     1.737610     1.729967     1.722324     1.714681
      1.707038     1.699395     1.691752     1.684108     1.676465     1.668822     1.661179     1.653536     1.645893     1.638250
      1.630607     1.622964     1.615321     1.607677     1.600034     1.592391     1.584748     1.577105     1.569462     1.561819
      1.554176     1.546533     1.538890     1.531246     1.523603     1.515960     1.508317     1.500674     1.493031     1.485388
      1.477745     1.470102     1.462458     1.454815     1.447172     1.439529     1.431886     1.424243     1.416600     1.408957
      1.401314     1.393671     1.386027     1.378384     1.370741     1.363098     1.355455     1.347812     1.340169     1.332526
      1.324883     1.317240     1.309596     1.301953     1.294310     1.286667     1.279024     1.271381     1.263738     1.256095
      1.248452     1.240808     1.233165     1.225522     1.217879     1.210236     1.202593     1.194950     1.187307     1.179664
      1.172021     1.164377     1.156734     1.149091     1.141448     1.133805     1.126162     1.118519     1.110876     1.103233
      1.095590     1.087946     1.080303     1.072660     1.065017     1.057374     1.049731     1.042088     1.034445     1.026802
      1.019158     1.011515     1.003872     0.996229     0.988586     0.980943     0.973300     0.965657     0.958014     0.950371
      0.942727     0.935084     0.927441     0.919798     0.912155     0.904512     0.896869     0.889226     0.881583     0.873940
      0.866296     0.858653     0.851010     0.843367     0.835724     0.828081     0.820438     0.812795     0.805152     0.797508
      0.789865     0.782222     0.774579     0.766936     0.759293     0.751650     0.744007     0.736364     0.728721     0.721077
      0.713434     0.705791     0.698148     0.690505     0.682862     0.675219     0.667576     0.659933     0.652290     0.644646
      0.637003     0.629360     0.621717     0.614074     0.606431     0.598788     0.591145     0.583502     0.575858     0.568215
      0.560572     0.552929     0.545286     0.537643     0.530000     0.522357     0.514714     0.507071     0.499427     0.491784
      0.484141     0.476498     0.468855     0.461212     0.453569     0.445925     0.438282     0.430639     0.422996     0.415353
      0.407710     0.400067     0.392424     0.384780     0.377137     0.369494     0.361851     0.354208     0.346565     0.338922
      0.331278     0.323635     0.315992     0.308349     0.300706     0.293063     0.285420     0.277777     0.270133     0.262490
      0.254847     0.247204     0.239561     0.231918     0.224275     0.216631     0.208988     0.201345
 NY phased data points follow
   2.81380E+00  2.31089E+00 -2.33533E+00 -7.39579E+00  2.70444E+00 -1.57083E+00  6.18924E+00 -3.06056E+00 -5.00939E+00 -5.44510E+00
  -1.81677E+00  5.71619E+00  6.51141E-03  2.08289E+00  2.63646E+00  1.26717E+00 -2.76312E+00 -2.41503E+00 -2.82208E-01 -6.04326E+00
   8.55633E-01 -3.92729E+00  2.06774E+00 -1.43653E+00 -5.27970E+00 -5.77128E+00 -6.70028E+00 -2.90672E+00  8.31957E+00 -5.12916E+00
  -4.95428E+00 -7.15216E-01  2.21094E+00 -6.37624E+00 -1.50340E+00 -2.26341E+00 -5.65665E+00 -3.06389E+00 -5.84478E-01  1.14352E-01
  -6.79607E-01 -4.16856E+00  3.54451E+00 -4.31870E+00 -2.01559E+00 -3.82908E+00  6.20182E+00 -5.33253E+00 -6.80730E+00  1.43721E+00
  -1.06357E+01 -4.02877E+00  6.49391E-01  4.15264E+00 -1.83664E+00 -3.88563E+00  1.07902E-01 -4.57649E+00 -8.26636E+00 -8.45805E+00
   2.58463E+00 -8.57038E+00 -3.00068E+00 -1.99543E+00 -8.44782E+00 -5.05985E+00 -2.31413E+00 -2.04021E+00 -6.84741E+00 -7.71686E+00
  -3.58398E+00 -1.49232E+00 -1.64540E+00 -3.79741E+00  1.05797E+00 -7.52994E-01 -5.12700E+00 -2.94777E+00 -1.61577E+00  2.18034E+00
   1.58740E+00  1.14385E+00 -3.05151E+00 -2.36931E+00 -1.22154E+00 -5.57687E+00 -5.18964E+00 -3.12343E+00  1.66081E-01 -2.11981E+00
  -1.93098E+00  3.03146E+00 -3.05305E+00  6.26130E+00 -8.73820E+00  4.15502E+00 -4.98068E+00  1.83067E+00  4.25634E+00  3.51757E+00
   4.14289E-02  2.61061E+00  9.64624E+00  2.43179E+00  3.72707E+00  2.18609E+00  8.45267E+00 -2.06112E+00 -7.01028E+00  4.02824E+00
  -2.76478E+00 -5.45874E+00  9.86762E-01 -6.69941E+00 -4.28348E-01 -5.42677E+00 -2.98251E+00 -5.36152E-01 -5.64100E-01 -1.28378E+00
   1.85598E+00  1.72501E+00 -2.20477E-01  1.44251E+00  8.19677E+00  4.83079E+00  6.16254E+00  1.11371E+01  5.76694E+00  9.48491E+00
   7.37808E+00  8.20628E+00 -4.28788E+00  2.32404E+00 -8.86195E-01  2.13651E+00 -2.24280E+00 -5.67320E-01 -6.82376E-01  2.05972E+00
   3.73820E+00 -5.81939E+00 -5.26279E-01  4.95282E-01  9.65605E-01 -2.80643E+00 -2.10944E+00 -3.28714E+00 -1.32152E-01 -7.48391E+00
   4.47270E+00 -7.33714E-01 -5.93240E+00  1.79806E+00 -5.43207E+00  4.78480E-01 -1.95868E+00 -5.28293E+00 -1.43451E+00 -3.64153E+00
   2.13952E-01  1.22396E+00  2.47521E+00 -8.73418E+00  2.30562E+00 -4.82394E+00  3.96900E+00 -4.57620E+00 -6.73965E+00 -1.96213E+00
  -1.19276E+00 -9.91210E+00 -1.18075E+00 -8.45445E-01 -2.89857E+00 -2.05632E-01 -2.47071E+00 -3.18098E+00 -9.91838E+00 -6.26807E+00
  -3.00804E-01 -2.67730E+00 -5.26307E+00 -1.04663E+01 -1.39865E-01 -5.60892E+00 -2.35226E+00 -4.57249E+00 -7.07725E+00  1.27750E+00
  -3.36437E+00 -7.40902E+00 -1.40270E+00 -2.96742E+00 -2.80048E+00 -1.95507E+00 -2.13445E+00 -2.51538E+00 -4.63511E+00 -8.12097E+00
  -9.50441E-01 -2.01874E+00  2.70334E+00 -5.62212E+00  1.85908E+00  6.27631E-01 -2.43681E+00  1.31630E+00  6.06317E-02 -4.13080E+00
  -8.38735E+00  1.66234E+00 -2.20939E+00 -2.28498E-01 -2.29099E+00 -5.81071E+00 -8.78831E-01  8.17827E-01  4.09171E+00 -2.38182E+00
  -2.27319E+00 -8.37463E-01 -7.68786E+00  3.57236E+00 -5.67459E+00  2.20857E+00  2.29671E+00  5.85096E-01 -5.43114E+00  1.86419E+00
  -1.66224E-01 -6.95837E-01 -2.12472E+00  7.32377E-02 -4.50326E-01  5.17940E+00 -7.30856E-01  5.99506E+00  1.22186E+00  2.06122E+00
  -2.47911E+00  7.97228E+00  1.10854E+00 -2.65667E+00  1.19335E+00 -1.05094E+00  6.61418E-01 -7.11974E+00 -3.13332E+00  1.03047E+00
  -9.24041E-01 -2.29957E+00 -1.72926E+00  1.74596E+00  6.18057E+00  8.23678E+00  5.88270E+00  9.73957E+00  1.12005E+01  1.65997E+01
   5.18998E+00  6.14747E+00  1.04851E+01  1.13610E+01  8.33153E+00  6.74855E+00  7.28991E+00  3.64142E+00  1.66945E+00 -2.56105E+00
  -4.16135E+00 -1.96423E+00 -4.44521E+00  3.50683E+00 -3.46376E+00 -3.86166E-01 -4.17595E+00  3.16304E+00 -1.97810E+00  7.20198E-01
  -4.02531E+00 -6.54193E+00  4.31034E+00 -1.47509E+00 -3.32345E+00  1.91202E+00  2.56072E+00  2.57798E-01 -2.60744E+00  5.00989E-01
   1.14215E+00  1.77971E+00 -1.85139E+00 -3.20766E-01  3.13925E+00 -7.41515E+00 -4.54921E+00 -2.87317E+00 -2.74944E+00  1.35332E+00
   7.42314E-01 -2.12358E-01 -2.28581E-01  2.88480E+00  1.00077E+01 -3.69211E+00  5.42820E+00 -5.82788E-01 -4.72031E-01 -3.79074E+00
  -3.76141E+00 -5.33363E-01 -5.53003E+00 -3.62016E+00  1.11716E-01  3.63689E+00 -2.67463E+00  4.96339E-02 -7.35373E-01 -1.16134E+00
   2.83177E+00 -6.56753E+00 -1.28725E+00  1.68748E+00 -4.39899E+00  4.04413E+00 -2.93622E+00 -6.26927E+00 -1.77237E+00 -2.31532E+00
  -5.50101E+00 -1.39890E+00  3.15944E-01  1.20312E+00  8.50759E+00 -1.50996E+00  1.43666E+01  4.84755E+00  7.81205E+00  5.37941E+00
   1.36320E+01  6.16687E+00  1.01533E+01  1.08659E+01  6.38569E+00  1.23354E+01  1.67271E+01  1.11951E+01  1.06672E+01  1.14514E+01
   7.65457E+00  9.37511E+00  1.54530E+01  5.93027E+00  1.10372E+01  2.05587E+00 -1.30505E+00 -1.92007E+00  3.28882E+00  2.71006E+00
   3.89466E+00  3.33353E+00  3.31508E+00  4.79471E+00  1.29306E+00  2.50939E+00 -1.40056E+00  7.94587E+00  3.74744E+00  6.19595E+00
  -1.33157E-01  1.87090E+00  3.80014E+00  6.21763E+00  6.16053E+00  5.69458E+00  9.00938E+00  7.66796E+00  7.98729E+00  7.09253E+00
   4.69976E+00  8.24410E+00  1.26757E+01 -5.89933E-01  6.52839E+00  2.19146E+00  1.14858E+01 -2.58202E-01  8.79613E+00 -2.52314E-01
   1.47769E+00  7.23520E-01  8.58781E+00 -6.15855E+00  7.14583E-02 -8.00574E-01 -5.47809E+00 -4.65269E-01  3.68745E+00  4.99201E+00
   7.22391E+00 -2.07558E-01  6.41860E+00  7.46115E-01  6.03905E+00  1.98192E+00  5.04894E+00  2.03692E+00  1.06647E+00  3.04444E+00
   2.00799E+00  5.61977E-02  3.88353E+00 -8.91130E-01  7.15178E+00  3.44290E+00  2.32369E+00  2.88225E+00 -1.66670E+00  2.39343E+00
   9.95184E+00  8.24783E+00  3.05684E+00  7.01773E+00  5.60392E+00  7.93823E+00  3.45476E+00 -8.16177E-01  1.78416E+00  6.08863E+00
   1.86198E+00 -1.59383E+00  3.59890E+00 -2.29348E+00 -2.62737E+00  1.93562E+00 -3.76369E+00  1.28658E+00  2.20248E+00 -1.08202E+00
   5.31810E+00 -1.20423E+00 -4.05790E-01  1.44766E+00  5.23271E+00  3.99490E+00  1.03615E+00 -2.81378E-01 -4.38236E+00 -1.69102E-04
  -4.44721E-01  3.63399E+00 -2.37650E+00  3.50213E+00  1.94759E-01 -9.52357E-01 -4.62597E+00  3.55456E+00 -9.34581E-01 -3.02967E+00
   8.79951E-01  1.36341E+00  4.10729E+00  8.56983E-02  5.36146E+00  2.20335E+00  2.29047E+00  1.65229E+00  8.04854E+00 -3.10400E-01
   4.26444E+00 -3.40621E+00  9.74132E-01 -3.64646E+00 -1.36814E-01  2.47104E+00  2.10688E+00  1.65094E+00  5.42639E+00  8.76927E+00
   7.60474E-01  2.94928E+00  8.78589E+00  8.65438E+00  4.41800E+00  6.59485E+00 -1.93379E+00 -2.09897E+00 -1.05974E+00  1.81458E+00
   3.92838E-01 -7.30881E-01  8.76850E+00  4.68703E+00 -1.75754E+00 -2.21230E+00  1.58808E+00  1.87831E+00
 NY points of the fit to the data follow
  -3.26905E+00 -3.15679E+00 -2.99652E+00 -2.64476E+00 -2.01504E+00 -1.26876E+00 -5.46473E-01  1.23674E-01  7.48655E-01  1.28362E+00
   1.61010E+00  1.66719E+00  1.53309E+00  1.28553E+00  8.77032E-01  2.76118E-01 -3.84180E-01 -9.09383E-01 -1.31218E+00 -1.68340E+00
  -1.99076E+00 -2.19663E+00 -2.33088E+00 -2.45960E+00 -2.57638E+00 -2.58388E+00 -2.46702E+00 -2.29892E+00 -2.14639E+00 -2.01148E+00
  -1.85366E+00 -1.64651E+00 -1.45875E+00 -1.36181E+00 -1.35096E+00 -1.43620E+00 -1.65153E+00 -1.96789E+00 -2.28155E+00 -2.51744E+00
  -2.65494E+00 -2.68067E+00 -2.61003E+00 -2.50488E+00 -2.40771E+00 -2.33982E+00 -2.31815E+00 -2.33018E+00 -2.34513E+00 -2.36286E+00
  -2.39560E+00 -2.42982E+00 -2.45500E+00 -2.48359E+00 -2.52533E+00 -2.57246E+00 -2.61826E+00 -2.66212E+00 -2.69917E+00 -2.72352E+00
  -2.73772E+00 -2.74225E+00 -2.74085E+00 -2.73836E+00 -2.73484E+00 -2.72980E+00 -2.72467E+00 -2.71204E+00 -2.68414E+00 -2.64853E+00
  -2.61388E+00 -2.58358E+00 -2.55886E+00 -2.53893E+00 -2.52172E+00 -2.50888E+00 -2.50106E+00 -2.49127E+00 -2.45923E+00 -2.40378E+00
  -2.34281E+00 -2.28124E+00 -2.21647E+00 -2.14593E+00 -2.07139E+00 -2.01261E+00 -1.99128E+00 -2.00346E+00 -2.03999E+00 -2.10455E+00
  -2.18971E+00 -2.26506E+00 -2.30696E+00 -2.29079E+00 -2.08556E+00 -1.43747E+00 -4.70793E-01  5.54569E-01  1.53015E+00  2.45107E+00
   3.29830E+00  3.95358E+00  4.25379E+00  4.20360E+00  3.94009E+00  3.44774E+00  2.62088E+00  1.52889E+00  4.27371E-01 -5.13714E-01
  -1.27528E+00 -1.80692E+00 -2.06606E+00 -2.15398E+00 -2.17963E+00 -2.18235E+00 -2.16500E+00 -2.10664E+00 -1.90087E+00 -1.20995E+00
   8.18725E-03  1.40675E+00  2.76862E+00  4.06500E+00  5.28844E+00  6.33040E+00  6.97458E+00  7.11666E+00  6.89384E+00  6.36405E+00
   5.38531E+00  3.94910E+00  2.35278E+00  9.13147E-01 -2.75390E-01 -1.16829E+00 -1.67429E+00 -1.86348E+00 -1.90737E+00 -1.89484E+00
  -1.85361E+00 -1.79667E+00 -1.73283E+00 -1.67451E+00 -1.63614E+00 -1.62205E+00 -1.62758E+00 -1.64463E+00 -1.66495E+00 -1.68327E+00
  -1.69610E+00 -1.70210E+00 -1.70780E+00 -1.72921E+00 -1.76755E+00 -1.80928E+00 -1.84464E+00 -1.86427E+00 -1.87551E+00 -1.88825E+00
  -1.89803E+00 -1.90018E+00 -1.89981E+00 -1.90208E+00 -1.90587E+00 -1.90742E+00 -1.91029E+00 -1.92990E+00 -1.98486E+00 -2.07498E+00
  -2.16855E+00 -2.24503E+00 -2.30616E+00 -2.36436E+00 -2.41663E+00 -2.44801E+00 -2.45334E+00 -2.44558E+00 -2.44048E+00 -2.43924E+00
  -2.42261E+00 -2.37686E+00 -2.31293E+00 -2.23421E+00 -2.13284E+00 -2.01237E+00 -1.89195E+00 -1.78527E+00 -1.70932E+00 -1.67832E+00
  -1.69622E+00 -1.75623E+00 -1.84464E+00 -1.92572E+00 -1.94766E+00 -1.88645E+00 -1.74052E+00 -1.49293E+00 -1.14582E+00 -7.56409E-01
  -3.94161E-01 -1.42047E-01 -1.29301E-01 -3.65495E-01 -7.30449E-01 -1.18260E+00 -1.70408E+00 -2.22090E+00 -2.62095E+00 -2.82406E+00
  -2.81097E+00 -2.62263E+00 -2.28385E+00 -1.78865E+00 -1.21155E+00 -7.06358E-01 -3.54247E-01 -1.26066E-01 -2.49820E-02 -8.08545E-02
  -2.29480E-01 -3.52392E-01 -4.04759E-01 -4.11170E-01 -3.86363E-01 -3.12676E-01 -1.96506E-01 -9.84968E-02 -1.11376E-01 -2.29791E-01
  -3.64689E-01 -4.72202E-01 -5.40643E-01 -5.35086E-01 -4.31915E-01 -2.88819E-01 -1.46645E-01 -4.60210E-02 -6.90910E-03 -1.36972E-02
  -6.98930E-02 -2.11918E-01 -4.26735E-01 -6.51071E-01 -8.69772E-01 -1.07316E+00 -1.18579E+00 -1.14205E+00 -9.59608E-01 -6.78380E-01
  -3.12354E-01  1.51772E-01  1.01156E+00  2.52689E+00  4.31776E+00  6.02459E+00  7.57840E+00  9.01301E+00  1.02594E+01  1.10862E+01
   1.13099E+01  1.10656E+01  1.05159E+01  9.51020E+00  7.91399E+00  5.98159E+00  4.15073E+00  2.60270E+00  1.36674E+00  5.74971E-01
   2.27666E-01  1.00673E-01  4.25150E-02  1.22374E-02 -3.70583E-03 -1.37378E-02 -2.34285E-02 -3.63639E-02 -5.37221E-02 -7.50804E-02
  -9.90516E-02 -1.22691E-01 -1.41349E-01 -1.51759E-01 -1.53678E-01 -1.47803E-01 -1.35736E-01 -1.19559E-01 -1.01423E-01 -8.35514E-02
  -6.72500E-02 -5.21162E-02 -3.76577E-02 -2.36968E-02 -9.38039E-03  6.47219E-03  2.43022E-02  4.41347E-02  6.63397E-02  9.11999E-02
   1.18515E-01  1.48196E-01  1.80330E-01  2.14951E-01  2.52219E-01  2.92463E-01  3.36077E-01  3.83613E-01  4.35771E-01  4.93425E-01
   5.57653E-01  6.29965E-01  7.12469E-01  8.08155E-01  9.21420E-01  1.05928E+00  1.23395E+00  1.47065E+00  1.83242E+00  2.37207E+00
   2.88140E+00  3.17925E+00  3.26003E+00  3.15930E+00  2.86043E+00  2.28712E+00  1.41472E+00  5.54972E-01 -1.74972E-02 -3.72814E-01
  -6.12193E-01 -6.31884E-01 -2.44021E-01  5.60760E-01  1.58578E+00  2.67987E+00  3.81852E+00  4.90139E+00  5.74774E+00  6.24059E+00
   6.43383E+00  6.46607E+00  6.40613E+00  6.30772E+00  6.27827E+00  6.35810E+00  6.50463E+00  6.67694E+00  6.85356E+00  7.02126E+00
   7.17057E+00  7.29429E+00  7.38693E+00  7.44440E+00  7.46396E+00  7.44411E+00  7.38459E+00  7.28631E+00  7.15121E+00  6.98220E+00
   6.78291E+00  6.55762E+00  6.31102E+00  6.04805E+00  5.77371E+00  5.49287E+00  5.21014E+00  4.92976E+00  4.65550E+00  4.39065E+00
   4.13789E+00  3.89938E+00  3.67674E+00  3.47109E+00  3.28315E+00  3.11324E+00  2.96139E+00  2.82737E+00  2.71079E+00  2.61114E+00
   2.52784E+00  2.46032E+00  2.40795E+00  2.37015E+00  2.34639E+00  2.33615E+00  2.33896E+00  2.35437E+00  2.38189E+00  2.42102E+00
   2.47118E+00  2.53172E+00  2.60182E+00  2.68054E+00  2.76672E+00  2.85902E+00  2.95587E+00  3.05554E+00  3.15606E+00  3.25535E+00
   3.35119E+00  3.44134E+00  3.52356E+00  3.59573E+00  3.65591E+00  3.70240E+00  3.73381E+00  3.74918E+00  3.74792E+00  3.72994E+00
   3.69555E+00  3.64551E+00  3.58096E+00  3.50341E+00  3.41458E+00  3.31644E+00  3.21100E+00  3.10037E+00  2.98654E+00  2.87145E+00
   2.75686E+00  2.64430E+00  2.53510E+00  2.43034E+00  2.33083E+00  2.23720E+00  2.14982E+00  2.06891E+00  1.99447E+00  1.92642E+00
   1.86456E+00  1.80860E+00  1.75821E+00  1.71301E+00  1.67261E+00  1.63661E+00  1.60465E+00  1.57636E+00  1.55138E+00  1.52939E+00
   1.51010E+00  1.49324E+00  1.47856E+00  1.46587E+00  1.45494E+00  1.44560E+00  1.43770E+00  1.43111E+00  1.42569E+00  1.42135E+00
   1.41797E+00  1.41548E+00  1.41378E+00  1.41284E+00  1.41256E+00  1.41292E+00  1.41383E+00  1.41527E+00  1.41719E+00  1.41957E+00
   1.42237E+00  1.42555E+00  1.42908E+00  1.43296E+00  1.43714E+00  1.44162E+00  1.44637E+00  1.45138E+00  1.45662E+00  1.46208E+00
   1.46776E+00  1.47364E+00  1.47971E+00  1.48595E+00  1.49235E+00  1.49891E+00  1.50563E+00  1.51249E+00  1.51948E+00  1.52660E+00
   1.53383E+00  1.54119E+00  1.54865E+00  1.55623E+00  1.56390E+00  1.57166E+00  1.57952E+00  1.58747E+00  1.59551E+00  1.60364E+00
   1.61183E+00  1.62011E+00  1.62846E+00  1.63689E+00  1.64539E+00  1.65397E+00  1.66261E+00  1.67132E+00
 NY background values follow
    -3.703E+00   -3.693E+00   -3.682E+00   -3.671E+00   -3.661E+00   -3.650E+00   -3.640E+00   -3.629E+00   -3.619E+00   -3.608E+00
    -3.597E+00   -3.587E+00   -3.576E+00   -3.566E+00   -3.555E+00   -3.545E+00   -3.534E+00   -3.523E+00   -3.513E+00   -3.502E+00
    -3.492E+00   -3.481E+00   -3.471E+00   -3.460E+00   -3.449E+00   -3.439E+00   -3.428E+00   -3.418E+00   -3.407E+00   -3.397E+00
    -3.386E+00   -3.375E+00   -3.365E+00   -3.354E+00   -3.344E+00   -3.333E+00   -3.323E+00   -3.312E+00   -3.301E+00   -3.291E+00
    -3.280E+00   -3.270E+00   -3.259E+00   -3.249E+00   -3.238E+00   -3.227E+00   -3.217E+00   -3.206E+00   -3.196E+00   -3.185E+00
    -3.175E+00   -3.164E+00   -3.153E+00   -3.143E+00   -3.132E+00   -3.122E+00   -3.111E+00   -3.101E+00   -3.090E+00   -3.079E+00
    -3.069E+00   -3.058E+00   -3.048E+00   -3.037E+00   -3.027E+00   -3.016E+00   -3.005E+00   -2.995E+00   -2.984E+00   -2.974E+00
    -2.963E+00   -2.953E+00   -2.942E+00   -2.931E+00   -2.921E+00   -2.910E+00   -2.900E+00   -2.889E+00   -2.879E+00   -2.868E+00
    -2.857E+00   -2.847E+00   -2.836E+00   -2.826E+00   -2.815E+00   -2.805E+00   -2.794E+00   -2.783E+00   -2.773E+00   -2.762E+00
    -2.752E+00   -2.741E+00   -2.731E+00   -2.720E+00   -2.709E+00   -2.699E+00   -2.688E+00   -2.678E+00   -2.667E+00   -2.657E+00
    -2.646E+00   -2.635E+00   -2.625E+00   -2.614E+00   -2.604E+00   -2.593E+00   -2.583E+00   -2.572E+00   -2.561E+00   -2.551E+00
    -2.540E+00   -2.530E+00   -2.519E+00   -2.509E+00   -2.498E+00   -2.487E+00   -2.477E+00   -2.466E+00   -2.456E+00   -2.445E+00
    -2.435E+00   -2.424E+00   -2.413E+00   -2.403E+00   -2.392E+00   -2.382E+00   -2.371E+00   -2.361E+00   -2.350E+00   -2.339E+00
    -2.329E+00   -2.318E+00   -2.308E+00   -2.297E+00   -2.287E+00   -2.276E+00   -2.265E+00   -2.255E+00   -2.244E+00   -2.234E+00
    -2.223E+00   -2.213E+00   -2.202E+00   -2.191E+00   -2.181E+00   -2.170E+00   -2.160E+00   -2.149E+00   -2.139E+00   -2.128E+00
    -2.117E+00   -2.107E+00   -2.096E+00   -2.086E+00   -2.075E+00   -2.064E+00   -2.054E+00   -2.043E+00   -2.033E+00   -2.022E+00
    -2.012E+00   -2.001E+00   -1.990E+00   -1.980E+00   -1.969E+00   -1.959E+00   -1.948E+00   -1.938E+00   -1.927E+00   -1.916E+00
    -1.906E+00   -1.895E+00   -1.885E+00   -1.874E+00   -1.864E+00   -1.853E+00   -1.842E+00   -1.832E+00   -1.821E+00   -1.811E+00
    -1.800E+00   -1.790E+00   -1.779E+00   -1.768E+00   -1.758E+00   -1.747E+00   -1.737E+00   -1.726E+00   -1.716E+00   -1.705E+00
    -1.694E+00   -1.684E+00   -1.673E+00   -1.663E+00   -1.652E+00   -1.642E+00   -1.631E+00   -1.620E+00   -1.610E+00   -1.599E+00
    -1.589E+00   -1.578E+00   -1.568E+00   -1.557E+00   -1.546E+00   -1.536E+00   -1.525E+00   -1.515E+00   -1.504E+00   -1.494E+00
    -1.483E+00   -1.472E+00   -1.462E+00   -1.451E+00   -1.441E+00   -1.430E+00   -1.420E+00   -1.409E+00   -1.398E+00   -1.388E+00
    -1.377E+00   -1.367E+00   -1.356E+00   -1.346E+00   -1.335E+00   -1.324E+00   -1.314E+00   -1.303E+00   -1.293E+00   -1.282E+00
    -1.272E+00   -1.261E+00   -1.250E+00   -1.240E+00   -1.229E+00   -1.219E+00   -1.208E+00   -1.198E+00   -1.187E+00   -1.176E+00
    -1.166E+00   -1.155E+00   -1.145E+00   -1.134E+00   -1.124E+00   -1.113E+00   -1.102E+00   -1.092E+00   -1.081E+00   -1.071E+00
    -1.060E+00   -1.050E+00   -1.039E+00   -1.028E+00   -1.018E+00   -1.007E+00   -9.967E-01   -9.861E-01   -9.755E-01   -9.650E-01
    -9.544E-01   -9.438E-01   -9.333E-01   -9.227E-01   -9.121E-01   -9.015E-01   -8.910E-01   -8.804E-01   -8.698E-01   -8.592E-01
    -8.487E-01   -8.381E-01   -8.275E-01   -8.170E-01   -8.064E-01   -7.958E-01   -7.852E-01   -7.747E-01   -7.641E-01   -7.535E-01
    -7.429E-01   -7.324E-01   -7.218E-01   -7.112E-01   -7.007E-01   -6.901E-01   -6.795E-01   -6.689E-01   -6.584E-01   -6.478E-01
    -6.372E-01   -6.266E-01   -6.161E-01   -6.055E-01   -5.949E-01   -5.843E-01   -5.738E-01   -5.632E-01   -5.526E-01   -5.421E-01
    -5.315E-01   -5.209E-01   -5.103E-01   -4.998E-01   -4.892E-01   -4.786E-01   -4.680E-01   -4.575E-01   -4.469E-01   -4.363E-01
    -4.258E-01   -4.152E-01   -4.046E-01   -3.940E-01   -3.835E-01   -3.729E-01   -3.623E-01   -3.517E-01   -3.412E-01   -3.306E-01
    -3.200E-01   -3.095E-01   -2.989E-01   -2.883E-01   -2.777E-01   -2.672E-01   -2.566E-01   -2.460E-01   -2.354E-01   -2.249E-01
    -2.143E-01   -2.037E-01   -1.932E-01   -1.826E-01   -1.720E-01   -1.614E-01   -1.509E-01   -1.403E-01   -1.297E-01   -1.191E-01
    -1.086E-01   -9.799E-02   -8.742E-02   -7.685E-02   -6.627E-02   -5.570E-02   -4.513E-02   -3.456E-02   -2.398E-02   -1.341E-02
    -2.836E-03    7.737E-03    1.831E-02    2.888E-02    3.946E-02    5.003E-02    6.060E-02    7.118E-02    8.175E-02    9.232E-02
     1.029E-01    1.135E-01    1.240E-01    1.346E-01    1.452E-01    1.558E-01    1.663E-01    1.769E-01    1.875E-01    1.981E-01
     2.086E-01    2.192E-01    2.298E-01    2.403E-01    2.509E-01    2.615E-01    2.721E-01    2.826E-01    2.932E-01    3.038E-01
     3.144E-01    3.249E-01    3.355E-01    3.461E-01    3.566E-01    3.672E-01    3.778E-01    3.884E-01    3.989E-01    4.095E-01
     4.201E-01    4.307E-01    4.412E-01    4.518E-01    4.624E-01    4.730E-01    4.835E-01    4.941E-01    5.047E-01    5.152E-01
     5.258E-01    5.364E-01    5.470E-01    5.575E-01    5.681E-01    5.787E-01    5.893E-01    5.998E-01    6.104E-01    6.210E-01
     6.316E-01    6.421E-01    6.527E-01    6.633E-01    6.738E-01    6.844E-01    6.950E-01    7.056E-01    7.161E-01    7.267E-01
     7.373E-01    7.479E-01    7.584E-01    7.690E-01    7.796E-01    7.901E-01    8.007E-01    8.113E-01    8.219E-01    8.324E-01
     8.430E-01    8.536E-01    8.642E-01    8.747E-01    8.853E-01    8.959E-01    9.065E-01    9.170E-01    9.276E-01    9.382E-01
     9.487E-01    9.593E-01    9.699E-01    9.805E-01    9.910E-01    1.002E+00    1.012E+00    1.023E+00    1.033E+00    1.044E+00
     1.054E+00    1.065E+00    1.076E+00    1.086E+00    1.097E+00    1.107E+00    1.118E+00    1.128E+00    1.139E+00    1.150E+00
     1.160E+00    1.171E+00    1.181E+00    1.192E+00    1.203E+00    1.213E+00    1.224E+00    1.234E+00    1.245E+00    1.255E+00
     1.266E+00    1.277E+00    1.287E+00    1.298E+00    1.308E+00    1.319E+00    1.329E+00    1.340E+00    1.351E+00    1.361E+00
     1.372E+00    1.382E+00    1.393E+00    1.403E+00    1.414E+00    1.425E+00    1.435E+00    1.446E+00    1.456E+00    1.467E+00
     1.477E+00    1.488E+00    1.499E+00    1.509E+00    1.520E+00    1.530E+00    1.541E+00    1.551E+00
 Ala      Conc. = 3.77E+02
