 LCModel (Version 6.3-1L) Copyright: S.W. Provencher.          Ref.: Magn. Reson. Med. 30:672-679 (1993).                
 Slice#1 Row#5 Col#9  PD_05_press_2_raw_act
 36 lines in following concentration table = NCONC+1
    Conc.  %SD /Cr+PCr  Metabolite                                         
    0.000 999%   0.000 Ala                                                 
  187.942 171%   0.102 Asp                                                 
 1.21E+03  27%   0.661 Cr                                                  
  622.087  55%   0.339 PCr                                                 
  132.994 148% 7.2E-02 GABA                                                
  107.082 190% 5.8E-02 Glc                                                 
  992.622  36%   0.541 Gln                                                 
 2.09E+03  20%   1.140 Glu                                                 
  733.562   6%   0.400 GPC                                                 
    0.000 999%   0.000 PCh                                                 
  517.857  25%   0.282 GSH                                                 
 2.04E+03  20%   1.113 Ins                                                 
  247.808  77%   0.135 Lac                                                 
 2.91E+03   6%   1.584 NAA                                                 
  498.883  38%   0.272 NAAG                                                
  107.820  41% 5.9E-02 Scyllo                                              
  261.174 112%   0.142 Tau                                                 
  508.405  38%   0.277 -CrCH2                                              
  733.562   6%   0.400 GPC+PCh                                             
 3.41E+03   5%   1.856 NAA+NAAG                                            
 1.84E+03   6%   1.000 Cr+PCr                                              
 3.09E+03  18%   1.680 Glu+Gln                                             
 1.87E+03  46%   1.017 Lip13a                                              
    0.000 999%   0.000 Lip13b                                              
  435.186  82%   0.237 Lip09                                               
 2.72E+03  17%   1.481 MM09                                                
  290.699  80%   0.158 Lip20                                               
 4.34E+03  16%   2.365 MM20                                                
  798.881  44%   0.435 MM12                                                
 2.91E+03  24%   1.582 MM14                                                
 1.88E+03  23%   1.025 MM17                                                
 1.87E+03  46%   1.017 Lip13a+Lip13b                                       
 5.57E+03  12%   3.034 MM14+Lip13a+Lip13b+MM12                             
 3.15E+03  11%   1.718 MM09+Lip09                                          
 4.63E+03  15%   2.524 MM20+Lip20                                          
   6 lines in following misc. output table
  FWHM = 0.038 ppm    S/N =   8                                            
  Data shift =-0.008 ppm                                                   
  Ph: -40 deg       0.4 deg/ppm                                            
  alphaB,S = 8.5E+01,   2.6E+01                                            
   14 spline knots.   Ns = 5(1)                                            
   2 inflections.     1 extrema                                            
  498 points on ppm-axis = NY
      4.000000     3.992357     3.984714     3.977070     3.969427     3.961784     3.954141     3.946497     3.938854     3.931211
      3.923568     3.915925     3.908281     3.900638     3.892995     3.885352     3.877708     3.870065     3.862422     3.854779
      3.847136     3.839492     3.831849     3.824206     3.816563     3.808919     3.801276     3.793633     3.785990     3.778347
      3.770703     3.763060     3.755417     3.747774     3.740130     3.732487     3.724844     3.717201     3.709558     3.701914
      3.694271     3.686628     3.678985     3.671341     3.663698     3.656055     3.648412     3.640769     3.633125     3.625482
      3.617839     3.610196     3.602552     3.594909     3.587266     3.579623     3.571980     3.564336     3.556693     3.549050
      3.541407     3.533763     3.526120     3.518477     3.510834     3.503191     3.495547     3.487904     3.480261     3.472618
      3.464974     3.457331     3.449688     3.442045     3.434402     3.426758     3.419115     3.411472     3.403829     3.396185
      3.388542     3.380899     3.373256     3.365613     3.357969     3.350326     3.342683     3.335040     3.327396     3.319753
      3.312110     3.304467     3.296824     3.289180     3.281537     3.273894     3.266251     3.258607     3.250964     3.243321
      3.235678     3.228034     3.220391     3.212748     3.205105     3.197462     3.189818     3.182175     3.174532     3.166889
      3.159245     3.151602     3.143959     3.136316     3.128673     3.121029     3.113386     3.105743     3.098100     3.090456
      3.082813     3.075170     3.067527     3.059884     3.052240     3.044597     3.036954     3.029311     3.021667     3.014024
      3.006381     2.998738     2.991095     2.983451     2.975808     2.968165     2.960522     2.952878     2.945235     2.937592
      2.929949     2.922306     2.914662     2.907019     2.899376     2.891733     2.884089     2.876446     2.868803     2.861160
      2.853517     2.845873     2.838230     2.830587     2.822944     2.815300     2.807657     2.800014     2.792371     2.784728
      2.777084     2.769441     2.761798     2.754155     2.746511     2.738868     2.731225     2.723582     2.715939     2.708295
      2.700652     2.693009     2.685366     2.677722     2.670079     2.662436     2.654793     2.647150     2.639506     2.631863
      2.624220     2.616577     2.608933     2.601290     2.593647     2.586004     2.578361     2.570717     2.563074     2.555431
      2.547788     2.540144     2.532501     2.524858     2.517215     2.509572     2.501928     2.494285     2.486642     2.478999
      2.471355     2.463712     2.456069     2.448426     2.440783     2.433139     2.425496     2.417853     2.410210     2.402566
      2.394923     2.387280     2.379637     2.371994     2.364350     2.356707     2.349064     2.341421     2.333777     2.326134
      2.318491     2.310848     2.303205     2.295561     2.287918     2.280275     2.272632     2.264988     2.257345     2.249702
      2.242059     2.234416     2.226772     2.219129     2.211486     2.203843     2.196199     2.188556     2.180913     2.173270
      2.165627     2.157983     2.150340     2.142697     2.135054     2.127410     2.119767     2.112124     2.104481     2.096838
      2.089194     2.081551     2.073908     2.066265     2.058621     2.050978     2.043335     2.035692     2.028049     2.020405
      2.012762     2.005119     1.997476     1.989833     1.982190     1.974546     1.966903     1.959260     1.951617     1.943974
      1.936331     1.928688     1.921045     1.913402     1.905759     1.898115     1.890472     1.882829     1.875186     1.867543
      1.859900     1.852257     1.844614     1.836971     1.829327     1.821684     1.814041     1.806398     1.798755     1.791112
      1.783469     1.775826     1.768183     1.760540     1.752896     1.745253     1.737610     1.729967     1.722324     1.714681
      1.707038     1.699395     1.691752     1.684108     1.676465     1.668822     1.661179     1.653536     1.645893     1.638250
      1.630607     1.622964     1.615321     1.607677     1.600034     1.592391     1.584748     1.577105     1.569462     1.561819
      1.554176     1.546533     1.538890     1.531246     1.523603     1.515960     1.508317     1.500674     1.493031     1.485388
      1.477745     1.470102     1.462458     1.454815     1.447172     1.439529     1.431886     1.424243     1.416600     1.408957
      1.401314     1.393671     1.386027     1.378384     1.370741     1.363098     1.355455     1.347812     1.340169     1.332526
      1.324883     1.317240     1.309596     1.301953     1.294310     1.286667     1.279024     1.271381     1.263738     1.256095
      1.248452     1.240808     1.233165     1.225522     1.217879     1.210236     1.202593     1.194950     1.187307     1.179664
      1.172021     1.164377     1.156734     1.149091     1.141448     1.133805     1.126162     1.118519     1.110876     1.103233
      1.095590     1.087946     1.080303     1.072660     1.065017     1.057374     1.049731     1.042088     1.034445     1.026802
      1.019158     1.011515     1.003872     0.996229     0.988586     0.980943     0.973300     0.965657     0.958014     0.950371
      0.942727     0.935084     0.927441     0.919798     0.912155     0.904512     0.896869     0.889226     0.881583     0.873940
      0.866296     0.858653     0.851010     0.843367     0.835724     0.828081     0.820438     0.812795     0.805152     0.797508
      0.789865     0.782222     0.774579     0.766936     0.759293     0.751650     0.744007     0.736364     0.728721     0.721077
      0.713434     0.705791     0.698148     0.690505     0.682862     0.675219     0.667576     0.659933     0.652290     0.644646
      0.637003     0.629360     0.621717     0.614074     0.606431     0.598788     0.591145     0.583502     0.575858     0.568215
      0.560572     0.552929     0.545286     0.537643     0.530000     0.522357     0.514714     0.507071     0.499427     0.491784
      0.484141     0.476498     0.468855     0.461212     0.453569     0.445925     0.438282     0.430639     0.422996     0.415353
      0.407710     0.400067     0.392424     0.384780     0.377137     0.369494     0.361851     0.354208     0.346565     0.338922
      0.331278     0.323635     0.315992     0.308349     0.300706     0.293063     0.285420     0.277777     0.270133     0.262490
      0.254847     0.247204     0.239561     0.231918     0.224275     0.216631     0.208988     0.201345
 NY phased data points follow
  -6.25894E+00  1.70344E+01  1.09794E+01 -9.59076E+00  1.06312E+00  5.83427E+00  1.14311E+01  1.63262E+01  2.15647E+01  3.35553E+01
   2.68156E+01  4.94403E+01  4.63099E+01  3.70420E+01  2.79932E+01  2.75459E+01  1.51966E+01  1.31531E+01  1.88037E+01  2.04327E+00
   6.89032E+00 -2.02112E+00  1.27588E+01  9.41292E+00  8.16906E+00  6.41601E+00  4.58970E+00  8.01672E-01  9.97382E+00  2.89628E+01
   7.23491E+00  2.65891E+01  2.46873E+01  2.99230E+01  2.57311E+01  1.56535E+01  1.42063E+01  9.86493E+00  7.50603E+00  1.11696E+01
   1.12878E+01  1.79851E+01  8.30543E+00  7.92228E+00  1.71954E+01  2.03002E+01  2.16849E+01  2.23152E+01  1.82770E+01  3.06891E+01
   2.05920E+01  1.33719E+01  3.94677E+00  1.69730E+01  1.49203E+01  1.01381E+01  9.84800E+00  2.46270E+01  1.47811E+01  1.80681E+01
   1.66988E+01  1.43541E+01  3.91340E+00  4.73183E+00 -6.85664E+00  4.72897E+00  1.20814E+01 -7.11815E+00  1.28707E+01 -1.38766E+00
   7.50868E+00  4.62694E+00 -2.00384E+00  7.04638E-01  1.04703E+01  9.01413E+00 -4.70360E+00 -2.34887E-01 -8.85761E-01  5.10357E+00
  -3.67500E+00  6.43098E+00  1.20437E+00  1.47505E+01  2.48772E+00  1.63371E+01  1.11730E+01  9.79332E+00 -9.45230E+00  3.49160E+00
   4.50084E+00  1.48589E+01  7.35242E+00  1.04342E+01  8.16359E+00  2.14519E+00  4.23338E+00  1.58304E+01  6.18392E+00  1.96368E+01
   4.85982E+01  5.17950E+01  6.12455E+01  8.56806E+01  8.22410E+01  8.34839E+01  5.98518E+01  3.24212E+01  1.95530E+01  8.89038E+00
  -1.84077E+00  7.92981E+00  8.35558E+00 -8.39956E+00  1.10710E+01  3.76742E+00 -4.52744E+00 -7.68094E+00  5.90880E+00  3.16734E+00
   8.10405E+00  6.14349E+00  2.10148E+00  2.05398E+01  2.45224E+01  4.41384E+01  6.93114E+01  7.30627E+01  9.11101E+01  7.38567E+01
   5.10839E+01  3.77320E+01  1.29498E+01 -3.43559E+00  1.48041E+00  3.92396E+00 -2.39761E+00  4.38058E+00  4.24307E+00  1.18257E+01
   1.09566E+00  1.26930E+01  4.51939E+00  2.43160E-01  2.34741E+00  6.23533E+00 -5.10685E+00 -1.99075E+00  6.02255E+00  6.90576E+00
  -3.59944E-01 -3.85126E+00 -3.28454E+00  1.25650E+01 -6.68551E-01 -8.70765E-01 -7.85908E+00 -1.54510E+01  9.44466E+00  1.34988E+01
  -8.95428E+00  6.90338E+00 -2.07538E+00  2.09236E-01 -9.65261E-01 -6.33965E+00  1.99223E-01 -2.34674E+00 -1.42202E+01  5.05897E+00
   1.31072E-01  3.17003E-01 -1.69427E+01 -9.61685E+00 -2.47014E+01 -2.31277E+01 -2.16959E+01 -1.42675E+01 -2.38784E+01 -2.09888E+01
  -2.58314E+00  5.90416E+00 -1.15887E+01 -2.34525E+00  2.07153E+00 -1.47043E+01 -1.76031E+00  8.27029E+00 -4.95745E+00 -2.03967E+00
  -3.11854E-01  5.80674E+00  1.45718E+01  3.97797E+00 -1.07916E+00 -7.53581E+00  4.20590E+00 -1.25040E+00 -8.61405E+00 -1.99069E+01
  -7.22046E+00 -1.28563E+01 -4.56044E+00  4.97265E+00  1.78008E+01  9.96130E+00 -4.40750E+00 -5.47535E+00 -8.92023E+00 -1.58722E+00
  -1.01691E+01 -4.93506E-01  5.76016E+00  1.00992E+01  6.02720E+00  1.90515E+01  2.58040E+01  1.77539E+01  1.89668E+01  2.80129E+00
  -6.48661E+00 -6.60344E+00 -2.49566E+00 -5.74046E+00  4.47447E+00  1.38709E+01  1.68866E+01  2.68534E+01  1.76884E+01  1.06540E+01
   1.64752E+01  1.67849E+01  1.80944E+01  1.22988E+01  1.34371E+01  8.86047E+00  1.07153E+01  9.09580E+00  1.29998E+01  4.22516E+00
   1.40074E+01  1.34101E+01  6.30307E+00  2.14493E+00 -4.02891E+00  3.09218E+00  1.47095E+01  1.43768E+01  2.84089E+01  1.59389E+01
   6.75961E+00  2.81963E+01  2.21261E+01  3.86653E+01  3.24515E+01  3.60767E+01  6.57865E+01  7.71737E+01  1.09668E+02  1.17159E+02
   1.26705E+02  1.35363E+02  1.35572E+02  9.85268E+01  5.54822E+01  3.31450E+01  1.48543E+01  1.19416E+01  1.68589E+01  1.91923E+01
   1.10399E+01  6.22491E+00  1.84089E+01  1.04818E+01  1.50764E+01  1.83173E+01  7.33184E+00  5.12943E+00  1.63697E+01  9.57292E+00
   1.24377E+00  1.41834E+01  2.57354E+00  1.27933E+01  5.41222E-03  8.05806E+00 -8.13218E+00  6.12281E+00  1.03713E+01  6.39522E+00
  -9.16194E-01  3.51222E+00 -1.61564E+00  8.84140E+00 -8.32238E+00 -3.16414E+00  7.71357E-01  2.16770E-01  2.28654E+00  2.23895E+01
   1.53715E+00  1.18528E+01  2.86135E-01  7.07030E+00  1.35866E+01  1.67590E+01  1.50311E+01  2.11455E+01  2.18776E+01  2.82161E+01
   1.15331E+01  2.82556E+01  3.06587E+01  5.85526E+00  3.53087E+00 -9.81177E-01  3.74671E+00  2.46774E+01  9.40152E+00  2.16616E+01
   8.52026E+00  2.06247E+01  2.63016E+01  9.96618E+00  1.72469E+01  9.02009E+00  8.53292E+00  5.61358E+00  3.49572E+00  2.05428E+01
   1.24027E+01  2.39394E+01  7.75979E+00  2.62500E+01  2.97874E+01  1.27076E+01  1.91148E+01  1.16632E+01  7.87494E+00  1.14636E+01
   4.32940E+00  2.13092E+01  3.05388E+01  3.22757E+01  3.92954E+01  1.77652E+01  2.01585E+01  1.27348E+01  4.98115E+00  2.84887E-02
   2.11376E+01  2.22758E+01  1.75828E+01  1.06123E+01  1.59940E+01  7.42182E+00  1.12553E+01  2.33141E+01  1.97471E+01  1.86259E+01
   9.78449E+00  1.07158E+01  9.62488E+00  7.13523E+00  2.68189E+01  8.31084E+00  2.42723E+01  8.16262E+00  3.64685E+00  2.11910E+01
   2.57682E+01  1.68773E+00  1.13094E+01  2.21398E+01 -3.20335E+00  1.22210E+01 -2.55297E+00 -9.14242E+00 -7.58680E+00  7.83904E-01
   3.37084E+00 -3.27994E-01  2.35440E+00 -1.27864E+00  1.63061E+01  2.01217E+01  3.12481E+00  1.13980E+01  1.08695E+01  7.86883E+00
   1.81257E+01  1.09402E+01  7.13960E+00  2.16520E+01  1.10541E+01  2.41781E+01  1.97936E+01  1.57219E+01  1.72909E+01  2.66688E+01
   3.00492E+01  1.67123E+01  1.94574E+01 -3.34167E+00  2.66001E+01  2.29747E+01  2.06719E+01  3.01278E+01  1.28926E+01  1.32518E+01
   1.54963E+01  2.51403E+01  3.31348E+01  1.59838E+01  2.23700E+01  1.00736E+01  1.78805E+01  2.38177E+01  1.66648E+01  3.29694E+00
   6.93088E+00 -9.65975E+00  6.52522E+00  1.99737E+00  4.96607E+00  1.18936E+01 -2.23548E+00 -5.52625E+00  4.57713E+00  3.51561E+00
  -3.84694E+00  9.48752E+00  1.13734E+01  4.74119E+00 -4.94376E+00 -1.85744E+00  1.03912E+01 -1.44382E+00  1.34498E+00  5.88291E+00
  -6.42429E-01 -7.26147E+00 -3.77250E+00 -2.65677E+00  1.18343E+00 -1.37758E+01 -1.20135E+01  2.07173E+00  3.79191E+00  1.69429E+00
  -3.70801E+00  4.68041E+00 -8.99773E+00  3.58016E+00  4.64999E+00  5.30184E+00 -8.31620E+00 -5.08518E+00 -1.24919E+00 -6.64631E+00
  -9.48418E+00  3.71640E+00  2.40577E-01 -1.60668E+01  5.41736E+00  2.35983E+00 -5.93511E+00  5.45351E+00 -1.34908E+01  7.45672E+00
  -2.79086E+00 -1.56283E+00 -1.24111E-01 -4.59114E+00  2.53718E+00 -3.57139E+00 -8.17552E+00  2.94735E+00 -4.51942E+00 -3.83366E+00
   7.66646E+00 -1.24952E+00  5.42363E+00 -5.95169E+00  4.87180E+00  3.91149E+00 -2.87752E+00 -5.99135E+00  5.27199E-02 -2.09745E+00
  -6.95020E+00 -1.04790E+00  2.22702E+00  5.01836E+00 -1.03122E+01  5.47982E-01 -7.93711E+00  8.33671E+00
 NY points of the fit to the data follow
   5.66034E+00  5.12584E+00  5.32073E+00  5.85285E+00  6.55180E+00  7.82121E+00  1.05794E+01  1.57445E+01  2.28850E+01  3.01653E+01
   3.66777E+01  4.21451E+01  4.47535E+01  4.18699E+01  3.30546E+01  2.21995E+01  1.40482E+01  1.02147E+01  9.31952E+00  8.85051E+00
   8.36613E+00  8.11434E+00  8.07783E+00  7.74799E+00  6.77732E+00  5.78810E+00  5.90038E+00  7.46910E+00  1.02718E+01  1.45149E+01
   2.01625E+01  2.56161E+01  2.81587E+01  2.62092E+01  2.06619E+01  1.39530E+01  8.32547E+00  4.69423E+00  3.23796E+00  3.84770E+00
   5.62047E+00  7.50636E+00  9.44911E+00  1.22376E+01  1.58097E+01  1.91690E+01  2.18921E+01  2.38892E+01  2.43510E+01  2.18057E+01
   1.61936E+01  9.77818E+00  5.22456E+00  3.34053E+00  3.27033E+00  4.17332E+00  5.70020E+00  7.45847E+00  9.00416E+00  1.01391E+01
   1.07456E+01  1.05009E+01  9.16510E+00  7.01517E+00  4.83770E+00  3.49565E+00  3.28534E+00  4.06995E+00  5.45602E+00  6.79682E+00
   7.73570E+00  8.34555E+00  8.80233E+00  9.01157E+00  8.72485E+00  8.05176E+00  7.23243E+00  6.42611E+00  5.65308E+00  4.93493E+00
   4.52805E+00  4.81855E+00  5.88072E+00  7.06401E+00  7.66936E+00  7.65517E+00  7.22021E+00  6.18364E+00  4.26090E+00  1.97710E+00
   5.60775E-01  7.14114E-01  2.05099E+00  3.43195E+00  4.22021E+00  4.57549E+00  4.86826E+00  5.85997E+00  1.02077E+01  2.12772E+01
   3.75960E+01  5.41303E+01  6.91205E+01  8.22006E+01  8.87235E+01  8.12529E+01  5.93066E+01  3.32411E+01  1.42179E+01  5.98379E+00
   4.12541E+00  3.49993E+00  3.21141E+00  3.10028E+00  3.09861E+00  3.12073E+00  3.12884E+00  3.15051E+00  3.23512E+00  3.42280E+00
   3.85635E+00  5.12910E+00  9.52795E+00  1.99220E+01  3.48677E+01  4.98302E+01  6.32071E+01  7.47803E+01  8.06068E+01  7.43352E+01
   5.56065E+01  3.32251E+01  1.66591E+01  9.09575E+00  6.65634E+00  4.78361E+00  2.86130E+00  1.28429E+00  6.68909E-01  1.24343E+00
   2.67162E+00  4.26516E+00  5.40788E+00  5.78814E+00  5.40602E+00  4.60044E+00  3.78334E+00  3.10073E+00  2.57603E+00  2.11388E+00
   1.67159E+00  1.24035E+00  8.54304E-01  5.56782E-01  3.77560E-01  3.04273E-01  1.88120E-01 -1.29806E-01 -6.18289E-01 -1.19679E+00
  -1.82383E+00 -2.39551E+00 -2.69991E+00 -2.42877E+00 -1.59382E+00 -8.03449E-01 -8.03403E-01 -1.78974E+00 -3.13650E+00 -4.15070E+00
  -4.64632E+00 -4.88511E+00 -5.28261E+00 -5.79107E+00 -6.18915E+00 -6.53139E+00 -6.91542E+00 -7.11175E+00 -6.71640E+00 -5.81754E+00
  -5.14680E+00 -5.25870E+00 -5.93235E+00 -6.31590E+00 -5.79660E+00 -4.67978E+00 -3.52900E+00 -2.39885E+00 -7.48580E-01  1.60455E+00
   4.01961E+00  5.58016E+00  5.81339E+00  4.72499E+00  2.70289E+00  5.15471E-01 -9.89319E-01 -1.44834E+00 -9.61654E-01  4.38399E-01
   2.90837E+00  6.19761E+00  9.29262E+00  1.11672E+01  1.12439E+01  9.29106E+00  5.32803E+00  2.54293E-01 -4.63876E+00 -8.37766E+00
  -9.95059E+00 -8.20116E+00 -2.93160E+00  3.94169E+00  1.01424E+01  1.44833E+01  1.61337E+01  1.41147E+01  8.03504E+00 -8.52520E-03
  -6.52760E+00 -9.89039E+00 -1.02239E+01 -7.93297E+00 -2.84573E+00  3.97641E+00  9.97254E+00  1.30512E+01  1.31645E+01  1.18031E+01
   1.02411E+01  8.78756E+00  7.66105E+00  7.63591E+00  9.04261E+00  1.11516E+01  1.29569E+01  1.41408E+01  1.47470E+01  1.45639E+01
   1.34737E+01  1.18313E+01  1.02663E+01  9.47837E+00  9.90391E+00  1.15007E+01  1.36039E+01  1.54634E+01  1.66550E+01  1.72536E+01
   1.79409E+01  1.98491E+01  2.38739E+01  2.92491E+01  3.51407E+01  4.42909E+01  6.13339E+01  8.37018E+01  1.03047E+02  1.17675E+02
   1.30564E+02  1.37850E+02  1.28679E+02  9.92140E+01  6.20682E+01  3.33132E+01  1.92976E+01  1.48522E+01  1.25222E+01  1.09450E+01
   9.87972E+00  9.16660E+00  8.79262E+00  8.71644E+00  8.75892E+00  8.69093E+00  8.31397E+00  7.61093E+00  6.75055E+00  5.95040E+00
   5.31652E+00  4.84901E+00  4.54366E+00  4.38561E+00  4.32412E+00  4.29248E+00  4.24677E+00  4.19463E+00  4.17643E+00  4.22102E+00
   4.34328E+00  4.55619E+00  4.87266E+00  5.27902E+00  5.73556E+00  6.21049E+00  6.70796E+00  7.25119E+00  7.85704E+00  8.52053E+00
   9.23466E+00  9.99613E+00  1.07848E+01  1.15635E+01  1.22951E+01  1.29532E+01  1.35269E+01  1.40078E+01  1.43885E+01  1.46658E+01
   1.48384E+01  1.49091E+01  1.48849E+01  1.47766E+01  1.45988E+01  1.43704E+01  1.41122E+01  1.38453E+01  1.35892E+01  1.33614E+01
   1.31776E+01  1.30512E+01  1.29917E+01  1.30044E+01  1.30901E+01  1.32466E+01  1.34686E+01  1.37488E+01  1.40769E+01  1.44409E+01
   1.48277E+01  1.52248E+01  1.56209E+01  1.60060E+01  1.63710E+01  1.67090E+01  1.70159E+01  1.72918E+01  1.75416E+01  1.77767E+01
   1.80206E+01  1.83294E+01  1.88096E+01  1.94262E+01  1.98546E+01  1.98545E+01  1.94665E+01  1.86593E+01  1.71964E+01  1.50482E+01
   1.29436E+01  1.19029E+01  1.21484E+01  1.31732E+01  1.44563E+01  1.58730E+01  1.72043E+01  1.78527E+01  1.74997E+01  1.64640E+01
   1.53160E+01  1.44427E+01  1.37690E+01  1.31625E+01  1.25842E+01  1.20198E+01  1.14646E+01  1.09178E+01  1.03814E+01  9.85863E+00
   9.35407E+00  8.87296E+00  8.42052E+00  8.00179E+00  7.62148E+00  7.28457E+00  6.99620E+00  6.76164E+00  6.58573E+00  6.47311E+00
   6.42831E+00  6.45633E+00  6.56234E+00  6.75143E+00  7.02798E+00  7.39578E+00  7.85787E+00  8.41666E+00  9.07301E+00  9.82570E+00
   1.06706E+01  1.16006E+01  1.26056E+01  1.36725E+01  1.47845E+01  1.59210E+01  1.70580E+01  1.81694E+01  1.92276E+01  2.02045E+01
   2.10725E+01  2.18056E+01  2.23804E+01  2.27782E+01  2.29858E+01  2.29957E+01  2.28064E+01  2.24226E+01  2.18547E+01  2.11191E+01
   2.02365E+01  1.92310E+01  1.81285E+01  1.69555E+01  1.57385E+01  1.45028E+01  1.32716E+01  1.20651E+01  1.08997E+01  9.78846E+00
   8.74124E+00  7.76486E+00  6.86307E+00  6.03687E+00  5.28483E+00  4.60417E+00  3.99105E+00  3.44108E+00  2.94909E+00  2.50958E+00
   2.11689E+00  1.76598E+00  1.45221E+00  1.17147E+00  9.19651E-01  6.92991E-01  4.88090E-01  3.02353E-01  1.33586E-01 -2.01056E-02
  -1.60750E-01 -2.90105E-01 -4.09633E-01 -5.20218E-01 -6.22684E-01 -7.17841E-01 -8.06745E-01 -8.90182E-01 -9.68718E-01 -1.04253E+00
  -1.11197E+00 -1.17747E+00 -1.23970E+00 -1.29898E+00 -1.35547E+00 -1.40909E+00 -1.46010E+00 -1.50881E+00 -1.55571E+00 -1.60085E+00
  -1.64421E+00 -1.68567E+00 -1.72548E+00 -1.76394E+00 -1.80133E+00 -1.83754E+00 -1.87246E+00 -1.90605E+00 -1.93861E+00 -1.97039E+00
  -2.00150E+00 -2.03171E+00 -2.06095E+00 -2.08923E+00 -2.11689E+00 -2.14408E+00 -2.17078E+00 -2.19673E+00 -2.22193E+00 -2.24649E+00
  -2.27074E+00 -2.29468E+00 -2.31822E+00 -2.34110E+00 -2.36340E+00 -2.38532E+00 -2.40711E+00 -2.42866E+00 -2.44982E+00 -2.47040E+00
  -2.49060E+00 -2.51061E+00 -2.53060E+00 -2.55034E+00 -2.56969E+00 -2.58856E+00 -2.60722E+00 -2.62582E+00
 NY background values follow
     4.858E-01    4.777E-01    4.696E-01    4.616E-01    4.535E-01    4.454E-01    4.374E-01    4.293E-01    4.213E-01    4.132E-01
     4.051E-01    3.971E-01    3.890E-01    3.809E-01    3.729E-01    3.648E-01    3.567E-01    3.487E-01    3.406E-01    3.325E-01
     3.245E-01    3.164E-01    3.084E-01    3.003E-01    2.922E-01    2.842E-01    2.761E-01    2.680E-01    2.600E-01    2.519E-01
     2.438E-01    2.358E-01    2.277E-01    2.196E-01    2.116E-01    2.035E-01    1.954E-01    1.874E-01    1.793E-01    1.712E-01
     1.632E-01    1.551E-01    1.470E-01    1.390E-01    1.309E-01    1.228E-01    1.148E-01    1.067E-01    9.863E-02    9.056E-02
     8.249E-02    7.442E-02    6.636E-02    5.829E-02    5.022E-02    4.215E-02    3.408E-02    2.602E-02    1.795E-02    9.880E-03
     1.812E-03   -6.256E-03   -1.432E-02   -2.239E-02   -3.046E-02   -3.853E-02   -4.660E-02   -5.467E-02   -6.274E-02   -7.081E-02
    -7.887E-02   -8.694E-02   -9.501E-02   -1.031E-01   -1.111E-01   -1.192E-01   -1.273E-01   -1.354E-01   -1.434E-01   -1.515E-01
    -1.596E-01   -1.676E-01   -1.757E-01   -1.838E-01   -1.918E-01   -1.999E-01   -2.080E-01   -2.161E-01   -2.241E-01   -2.322E-01
    -2.403E-01   -2.483E-01   -2.564E-01   -2.645E-01   -2.725E-01   -2.806E-01   -2.887E-01   -2.967E-01   -3.048E-01   -3.129E-01
    -3.210E-01   -3.290E-01   -3.371E-01   -3.452E-01   -3.532E-01   -3.613E-01   -3.694E-01   -3.774E-01   -3.855E-01   -3.936E-01
    -4.017E-01   -4.097E-01   -4.178E-01   -4.259E-01   -4.339E-01   -4.420E-01   -4.501E-01   -4.581E-01   -4.662E-01   -4.743E-01
    -4.824E-01   -4.904E-01   -4.985E-01   -5.066E-01   -5.146E-01   -5.227E-01   -5.308E-01   -5.389E-01   -5.469E-01   -5.550E-01
    -5.631E-01   -5.711E-01   -5.792E-01   -5.873E-01   -5.953E-01   -6.034E-01   -6.115E-01   -6.195E-01   -6.276E-01   -6.357E-01
    -6.438E-01   -6.518E-01   -6.599E-01   -6.680E-01   -6.760E-01   -6.841E-01   -6.922E-01   -7.002E-01   -7.083E-01   -7.164E-01
    -7.245E-01   -7.325E-01   -7.406E-01   -7.487E-01   -7.567E-01   -7.648E-01   -7.729E-01   -7.809E-01   -7.890E-01   -7.971E-01
    -8.051E-01   -8.132E-01   -8.213E-01   -8.294E-01   -8.374E-01   -8.455E-01   -8.536E-01   -8.616E-01   -8.697E-01   -8.778E-01
    -8.858E-01   -8.939E-01   -9.020E-01   -9.100E-01   -9.181E-01   -9.262E-01   -9.342E-01   -9.423E-01   -9.504E-01   -9.584E-01
    -9.665E-01   -9.746E-01   -9.827E-01   -9.907E-01   -9.988E-01   -1.007E+00   -1.015E+00   -1.023E+00   -1.031E+00   -1.039E+00
    -1.047E+00   -1.055E+00   -1.063E+00   -1.071E+00   -1.079E+00   -1.088E+00   -1.096E+00   -1.104E+00   -1.112E+00   -1.120E+00
    -1.128E+00   -1.136E+00   -1.144E+00   -1.152E+00   -1.160E+00   -1.168E+00   -1.176E+00   -1.184E+00   -1.192E+00   -1.200E+00
    -1.209E+00   -1.217E+00   -1.225E+00   -1.233E+00   -1.241E+00   -1.249E+00   -1.257E+00   -1.265E+00   -1.273E+00   -1.281E+00
    -1.289E+00   -1.297E+00   -1.305E+00   -1.313E+00   -1.321E+00   -1.329E+00   -1.338E+00   -1.346E+00   -1.354E+00   -1.362E+00
    -1.370E+00   -1.378E+00   -1.386E+00   -1.394E+00   -1.402E+00   -1.410E+00   -1.418E+00   -1.426E+00   -1.434E+00   -1.442E+00
    -1.450E+00   -1.459E+00   -1.467E+00   -1.475E+00   -1.483E+00   -1.491E+00   -1.499E+00   -1.507E+00   -1.515E+00   -1.523E+00
    -1.531E+00   -1.539E+00   -1.547E+00   -1.555E+00   -1.563E+00   -1.571E+00   -1.579E+00   -1.588E+00   -1.596E+00   -1.604E+00
    -1.612E+00   -1.620E+00   -1.628E+00   -1.636E+00   -1.644E+00   -1.652E+00   -1.660E+00   -1.668E+00   -1.676E+00   -1.684E+00
    -1.692E+00   -1.700E+00   -1.708E+00   -1.717E+00   -1.725E+00   -1.733E+00   -1.741E+00   -1.749E+00   -1.757E+00   -1.765E+00
    -1.773E+00   -1.781E+00   -1.789E+00   -1.797E+00   -1.805E+00   -1.813E+00   -1.821E+00   -1.829E+00   -1.837E+00   -1.845E+00
    -1.854E+00   -1.862E+00   -1.870E+00   -1.878E+00   -1.886E+00   -1.894E+00   -1.902E+00   -1.910E+00   -1.918E+00   -1.926E+00
    -1.934E+00   -1.942E+00   -1.950E+00   -1.958E+00   -1.966E+00   -1.974E+00   -1.982E+00   -1.990E+00   -1.999E+00   -2.007E+00
    -2.015E+00   -2.023E+00   -2.031E+00   -2.039E+00   -2.047E+00   -2.055E+00   -2.063E+00   -2.071E+00   -2.079E+00   -2.087E+00
    -2.095E+00   -2.103E+00   -2.111E+00   -2.119E+00   -2.127E+00   -2.135E+00   -2.144E+00   -2.152E+00   -2.160E+00   -2.168E+00
    -2.176E+00   -2.184E+00   -2.192E+00   -2.200E+00   -2.208E+00   -2.216E+00   -2.224E+00   -2.232E+00   -2.240E+00   -2.248E+00
    -2.256E+00   -2.264E+00   -2.272E+00   -2.280E+00   -2.288E+00   -2.297E+00   -2.305E+00   -2.313E+00   -2.321E+00   -2.329E+00
    -2.337E+00   -2.345E+00   -2.353E+00   -2.361E+00   -2.369E+00   -2.377E+00   -2.385E+00   -2.393E+00   -2.401E+00   -2.409E+00
    -2.417E+00   -2.425E+00   -2.433E+00   -2.441E+00   -2.449E+00   -2.458E+00   -2.466E+00   -2.474E+00   -2.482E+00   -2.490E+00
    -2.498E+00   -2.506E+00   -2.514E+00   -2.522E+00   -2.530E+00   -2.538E+00   -2.546E+00   -2.554E+00   -2.562E+00   -2.570E+00
    -2.578E+00   -2.586E+00   -2.594E+00   -2.602E+00   -2.610E+00   -2.618E+00   -2.627E+00   -2.635E+00   -2.643E+00   -2.651E+00
    -2.659E+00   -2.667E+00   -2.675E+00   -2.683E+00   -2.691E+00   -2.699E+00   -2.707E+00   -2.715E+00   -2.723E+00   -2.731E+00
    -2.739E+00   -2.747E+00   -2.755E+00   -2.763E+00   -2.771E+00   -2.779E+00   -2.787E+00   -2.795E+00   -2.803E+00   -2.811E+00
    -2.820E+00   -2.828E+00   -2.836E+00   -2.844E+00   -2.852E+00   -2.860E+00   -2.868E+00   -2.876E+00   -2.884E+00   -2.892E+00
    -2.900E+00   -2.908E+00   -2.916E+00   -2.924E+00   -2.932E+00   -2.940E+00   -2.948E+00   -2.956E+00   -2.964E+00   -2.972E+00
    -2.980E+00   -2.988E+00   -2.996E+00   -3.004E+00   -3.012E+00   -3.020E+00   -3.029E+00   -3.037E+00   -3.045E+00   -3.053E+00
    -3.061E+00   -3.069E+00   -3.077E+00   -3.085E+00   -3.093E+00   -3.101E+00   -3.109E+00   -3.117E+00   -3.125E+00   -3.133E+00
    -3.141E+00   -3.149E+00   -3.157E+00   -3.165E+00   -3.173E+00   -3.181E+00   -3.189E+00   -3.197E+00   -3.205E+00   -3.213E+00
    -3.221E+00   -3.229E+00   -3.237E+00   -3.245E+00   -3.253E+00   -3.261E+00   -3.269E+00   -3.277E+00   -3.286E+00   -3.294E+00
    -3.302E+00   -3.310E+00   -3.318E+00   -3.326E+00   -3.334E+00   -3.342E+00   -3.350E+00   -3.358E+00   -3.366E+00   -3.374E+00
    -3.382E+00   -3.390E+00   -3.398E+00   -3.406E+00   -3.414E+00   -3.422E+00   -3.430E+00   -3.438E+00   -3.446E+00   -3.454E+00
    -3.462E+00   -3.470E+00   -3.478E+00   -3.486E+00   -3.494E+00   -3.502E+00   -3.510E+00   -3.518E+00
 Asp      Conc. = 1.88E+02
