 LCModel (Version 6.3-1L) Copyright: S.W. Provencher.          Ref.: Magn. Reson. Med. 30:672-679 (1993).                
 Slice#2 Row#9 Col#9  PD_05_press_2_raw_act
 36 lines in following concentration table = NCONC+1
    Conc.  %SD /Cr+PCr  Metabolite                                         
  477.536  40%   0.158 Ala                                                 
    0.000 999%   0.000 Asp                                                 
  754.549  48%   0.250 Cr                                                  
 2.26E+03  17%   0.750 PCr                                                 
    0.000 999%   0.000 GABA                                                
    0.000 999%   0.000 Glc                                                 
 1.83E+03  23%   0.606 Gln                                                 
 4.05E+03  11%   1.343 Glu                                                 
  966.650   4%   0.320 GPC                                                 
    0.000 999%   0.000 PCh                                                 
 1.17E+03  11%   0.388 GSH                                                 
 2.10E+03  21%   0.696 Ins                                                 
  287.351  74% 9.5E-02 Lac                                                 
 5.73E+03   5%   1.898 NAA                                                 
   87.488 311% 2.9E-02 NAAG                                                
  192.485  24% 6.4E-02 Scyllo                                              
    0.000 999%   0.000 Tau                                                 
  186.856  99% 6.2E-02 -CrCH2                                              
  966.650   4%   0.320 GPC+PCh                                             
 5.82E+03   3%   1.927 NAA+NAAG                                            
 3.02E+03   3%   1.000 Cr+PCr                                              
 5.88E+03  12%   1.949 Glu+Gln                                             
 3.36E+03  25%   1.113 Lip13a                                              
    0.000 999%   0.000 Lip13b                                              
    0.000 999%   0.000 Lip09                                               
 3.32E+03  12%   1.101 MM09                                                
  628.309  59%   0.208 Lip20                                               
 9.27E+03   8%   3.072 MM20                                                
 1.24E+03  27%   0.411 MM12                                                
 2.02E+03  31%   0.668 MM14                                                
 1.93E+03  24%   0.639 MM17                                                
 3.36E+03  25%   1.113 Lip13a+Lip13b                                       
 6.61E+03  12%   2.191 MM14+Lip13a+Lip13b+MM12                             
 3.32E+03  12%   1.101 MM09+Lip09                                          
 9.90E+03   8%   3.280 MM20+Lip20                                          
   6 lines in following misc. output table
  FWHM = 0.046 ppm    S/N =  19                                            
  Data shift = 0.023 ppm                                                   
  Ph: -33 deg      -7.8 deg/ppm                                            
  alphaB,S = 9.8E-01,   9.3E+01                                            
   14 spline knots.   Ns = 7(1)                                            
  (14) 5 infls.   ( 9) 1 extrs.                                            
  498 points on ppm-axis = NY
      4.000000     3.992357     3.984714     3.977070     3.969427     3.961784     3.954141     3.946497     3.938854     3.931211
      3.923568     3.915925     3.908281     3.900638     3.892995     3.885352     3.877708     3.870065     3.862422     3.854779
      3.847136     3.839492     3.831849     3.824206     3.816563     3.808919     3.801276     3.793633     3.785990     3.778347
      3.770703     3.763060     3.755417     3.747774     3.740130     3.732487     3.724844     3.717201     3.709558     3.701914
      3.694271     3.686628     3.678985     3.671341     3.663698     3.656055     3.648412     3.640769     3.633125     3.625482
      3.617839     3.610196     3.602552     3.594909     3.587266     3.579623     3.571980     3.564336     3.556693     3.549050
      3.541407     3.533763     3.526120     3.518477     3.510834     3.503191     3.495547     3.487904     3.480261     3.472618
      3.464974     3.457331     3.449688     3.442045     3.434402     3.426758     3.419115     3.411472     3.403829     3.396185
      3.388542     3.380899     3.373256     3.365613     3.357969     3.350326     3.342683     3.335040     3.327396     3.319753
      3.312110     3.304467     3.296824     3.289180     3.281537     3.273894     3.266251     3.258607     3.250964     3.243321
      3.235678     3.228034     3.220391     3.212748     3.205105     3.197462     3.189818     3.182175     3.174532     3.166889
      3.159245     3.151602     3.143959     3.136316     3.128673     3.121029     3.113386     3.105743     3.098100     3.090456
      3.082813     3.075170     3.067527     3.059884     3.052240     3.044597     3.036954     3.029311     3.021667     3.014024
      3.006381     2.998738     2.991095     2.983451     2.975808     2.968165     2.960522     2.952878     2.945235     2.937592
      2.929949     2.922306     2.914662     2.907019     2.899376     2.891733     2.884089     2.876446     2.868803     2.861160
      2.853517     2.845873     2.838230     2.830587     2.822944     2.815300     2.807657     2.800014     2.792371     2.784728
      2.777084     2.769441     2.761798     2.754155     2.746511     2.738868     2.731225     2.723582     2.715939     2.708295
      2.700652     2.693009     2.685366     2.677722     2.670079     2.662436     2.654793     2.647150     2.639506     2.631863
      2.624220     2.616577     2.608933     2.601290     2.593647     2.586004     2.578361     2.570717     2.563074     2.555431
      2.547788     2.540144     2.532501     2.524858     2.517215     2.509572     2.501928     2.494285     2.486642     2.478999
      2.471355     2.463712     2.456069     2.448426     2.440783     2.433139     2.425496     2.417853     2.410210     2.402566
      2.394923     2.387280     2.379637     2.371994     2.364350     2.356707     2.349064     2.341421     2.333777     2.326134
      2.318491     2.310848     2.303205     2.295561     2.287918     2.280275     2.272632     2.264988     2.257345     2.249702
      2.242059     2.234416     2.226772     2.219129     2.211486     2.203843     2.196199     2.188556     2.180913     2.173270
      2.165627     2.157983     2.150340     2.142697     2.135054     2.127410     2.119767     2.112124     2.104481     2.096838
      2.089194     2.081551     2.073908     2.066265     2.058621     2.050978     2.043335     2.035692     2.028049     2.020405
      2.012762     2.005119     1.997476     1.989833     1.982190     1.974546     1.966903     1.959260     1.951617     1.943974
      1.936331     1.928688     1.921045     1.913402     1.905759     1.898115     1.890472     1.882829     1.875186     1.867543
      1.859900     1.852257     1.844614     1.836971     1.829327     1.821684     1.814041     1.806398     1.798755     1.791112
      1.783469     1.775826     1.768183     1.760540     1.752896     1.745253     1.737610     1.729967     1.722324     1.714681
      1.707038     1.699395     1.691752     1.684108     1.676465     1.668822     1.661179     1.653536     1.645893     1.638250
      1.630607     1.622964     1.615321     1.607677     1.600034     1.592391     1.584748     1.577105     1.569462     1.561819
      1.554176     1.546533     1.538890     1.531246     1.523603     1.515960     1.508317     1.500674     1.493031     1.485388
      1.477745     1.470102     1.462458     1.454815     1.447172     1.439529     1.431886     1.424243     1.416600     1.408957
      1.401314     1.393671     1.386027     1.378384     1.370741     1.363098     1.355455     1.347812     1.340169     1.332526
      1.324883     1.317240     1.309596     1.301953     1.294310     1.286667     1.279024     1.271381     1.263738     1.256095
      1.248452     1.240808     1.233165     1.225522     1.217879     1.210236     1.202593     1.194950     1.187307     1.179664
      1.172021     1.164377     1.156734     1.149091     1.141448     1.133805     1.126162     1.118519     1.110876     1.103233
      1.095590     1.087946     1.080303     1.072660     1.065017     1.057374     1.049731     1.042088     1.034445     1.026802
      1.019158     1.011515     1.003872     0.996229     0.988586     0.980943     0.973300     0.965657     0.958014     0.950371
      0.942727     0.935084     0.927441     0.919798     0.912155     0.904512     0.896869     0.889226     0.881583     0.873940
      0.866296     0.858653     0.851010     0.843367     0.835724     0.828081     0.820438     0.812795     0.805152     0.797508
      0.789865     0.782222     0.774579     0.766936     0.759293     0.751650     0.744007     0.736364     0.728721     0.721077
      0.713434     0.705791     0.698148     0.690505     0.682862     0.675219     0.667576     0.659933     0.652290     0.644646
      0.637003     0.629360     0.621717     0.614074     0.606431     0.598788     0.591145     0.583502     0.575858     0.568215
      0.560572     0.552929     0.545286     0.537643     0.530000     0.522357     0.514714     0.507071     0.499427     0.491784
      0.484141     0.476498     0.468855     0.461212     0.453569     0.445925     0.438282     0.430639     0.422996     0.415353
      0.407710     0.400067     0.392424     0.384780     0.377137     0.369494     0.361851     0.354208     0.346565     0.338922
      0.331278     0.323635     0.315992     0.308349     0.300706     0.293063     0.285420     0.277777     0.270133     0.262490
      0.254847     0.247204     0.239561     0.231918     0.224275     0.216631     0.208988     0.201345
 NY phased data points follow
   3.02230E+00  8.23404E+00  8.79198E+00  1.57708E+01  1.75650E+01  2.85840E+01  3.68657E+01  4.93686E+01  5.70531E+01  5.86479E+01
   5.93845E+01  5.85650E+01  4.04590E+01  4.14311E+01  2.95072E+01  2.60946E+01  1.96702E+01  1.83946E+01  1.40798E+01  1.61954E+01
   1.25067E+01  1.14821E+01  1.30507E+01  1.44621E+01  1.46876E+01  1.61860E+01  1.85296E+01  2.08223E+01  2.36323E+01  2.56548E+01
   2.23303E+01  1.92893E+01  2.20671E+01  1.35646E+01  1.66796E+01  1.33010E+01  1.19154E+01  5.70597E+00  1.49487E+01  8.33013E+00
   8.22739E+00  1.08805E+01  1.12258E+01  9.29716E+00  1.45695E+01  1.72154E+01  1.78528E+01  2.67899E+01  2.44958E+01  1.71044E+01
   1.71427E+01  1.61378E+01 -4.82183E-01  7.99618E+00  6.66674E+00  1.21851E+01  5.34909E+00  4.27404E+00  7.66501E+00  2.50791E+00
  -4.63787E+00 -4.80514E+00 -5.40044E+00 -7.43146E+00 -1.03913E+01 -1.34824E+01 -1.10284E+01 -6.57477E+00 -1.36425E+01 -6.57124E+00
  -1.42014E+01 -6.46978E+00 -9.12572E+00 -7.45886E+00 -8.83597E+00 -4.84781E+00 -4.75568E+00 -1.13139E+01 -6.75197E+00 -6.75931E+00
  -3.90449E+00 -7.44292E+00 -5.61702E+00  6.06450E-02 -1.23501E+00 -7.63217E+00  1.85034E-01  9.18710E-01 -4.28876E+00  4.64539E-01
   1.05150E+00  2.56613E+00 -2.41627E+00  1.71515E+00 -1.72375E+00  7.55075E+00  1.30351E+01  2.05632E+01  2.03689E+01  2.89735E+01
   5.07765E+01  6.69048E+01  7.50282E+01  7.51863E+01  7.25776E+01  4.69081E+01  3.55599E+01  2.57206E+01  2.43654E+01  1.29381E+01
   8.50306E+00  6.44780E+00  2.16539E-02  1.79852E+00  2.19796E+00 -1.45195E+00 -4.70272E+00 -3.91524E+00 -3.31729E+00  8.95755E-01
   1.32017E+01  1.95428E+01  2.52592E+01  4.40863E+01  5.86685E+01  7.52324E+01  9.04599E+01  9.35946E+01  8.42661E+01  7.85525E+01
   5.48404E+01  3.46199E+01  2.79333E+01  1.66181E+01  1.10659E+01  6.23795E+00  2.21113E+00  4.29330E+00  9.10380E-02  4.10312E+00
   3.77312E+00 -9.82266E-01 -5.17060E-01 -5.03522E+00 -2.56051E-01 -5.55502E+00  2.87629E+00  2.29076E+00 -5.19327E+00 -1.16752E+00
  -8.10972E+00 -1.97133E+00 -7.24318E+00 -6.78188E+00 -8.61662E+00 -1.20929E+01 -4.05277E+00 -1.59790E+01 -1.16513E+01 -1.99171E+01
  -1.36388E+01 -7.32560E+00 -1.87800E+01 -1.20292E+01 -7.07365E+00 -9.04420E+00 -1.38232E+01 -1.61823E+01 -2.56860E+01 -1.78650E+01
  -2.59282E+01 -2.77971E+01 -2.75175E+01 -3.65257E+01 -3.95782E+01 -4.21393E+01 -3.73920E+01 -3.43544E+01 -2.71162E+01 -3.80960E+01
  -4.06068E+01 -2.53354E+01 -2.38617E+01 -2.44137E+01 -2.15395E+01 -2.50320E+01 -2.21593E+01 -2.07295E+01 -9.91078E+00 -1.18908E+01
  -1.00954E+01 -2.36686E-01 -1.43039E+00 -8.31885E-01 -4.94896E+00 -5.94712E+00 -1.64237E+01 -1.35936E+01 -1.20316E+01 -1.02773E+01
  -7.04161E+00 -2.99242E+00 -6.06076E+00  3.38213E-01 -4.84553E+00 -7.62377E+00 -9.81326E+00 -6.50492E+00 -1.29629E+01 -6.19671E+00
  -1.01549E+01  3.14860E-01  2.68855E+00  6.32060E+00  2.00028E+01  2.28714E+01  2.01021E+01  1.35714E+01  9.34226E+00  1.62307E+00
  -7.90540E+00 -6.19942E+00 -1.08042E+01 -7.26554E+00 -5.68689E+00  8.11169E+00  9.07152E+00  1.23024E+01  1.43695E+01  2.07672E+01
   1.92388E+01  1.80953E+01  1.08081E+01  1.19350E+01  1.34180E+01  1.20580E+01  1.76243E+01  1.90242E+01  1.66968E+01  8.57772E+00
   1.38164E+01  1.09868E+01  6.36030E+00  1.36890E+01  2.23540E+01  2.01036E+01  2.36049E+01  3.01151E+01  2.69817E+01  2.18757E+01
   2.45641E+01  3.80217E+01  3.99792E+01  6.05560E+01  7.13419E+01  8.72579E+01  1.10971E+02  1.34952E+02  1.61552E+02  1.93082E+02
   2.08425E+02  1.94916E+02  1.67843E+02  1.25553E+02  1.01237E+02  7.34643E+01  5.75982E+01  3.98437E+01  2.96972E+01  2.48756E+01
   1.83879E+01  1.14118E+01  1.77458E+01  1.67991E+01  1.04696E+01  1.17815E+01  4.17986E+00  8.00718E+00  7.16011E+00  4.70096E+00
   7.74334E+00  3.18102E+00  3.18895E+00  4.80190E+00  6.18367E+00 -5.04490E+00  1.41694E+00  5.45530E+00  2.15407E+00  4.35994E+00
  -2.05598E+00  1.83695E+00  3.00935E+00  8.17124E+00  3.98194E+00  1.56113E-01  5.98428E+00 -5.30097E-03  4.28222E+00  1.49109E+00
   4.56993E-01  8.49655E+00  7.34434E+00 -9.97379E-01  5.89984E+00  3.34374E+00  4.99222E+00  1.00904E+01  1.52451E+01  4.32993E+00
   1.26907E+01  1.11720E+01  8.31699E-01  8.49343E+00  5.84028E+00  1.29876E+01  1.66699E+01  1.04879E+01  1.00378E+01  6.43502E+00
   8.20667E+00  5.09600E+00  1.55452E+01  3.58976E+00  5.93431E+00  1.24221E+01  6.79214E+00  7.57302E+00  7.66836E+00 -1.49494E+00
   6.80443E+00  5.02615E+00  2.48762E+00  6.90462E+00  1.19851E+01  1.38205E+01  1.36281E+01  1.35934E+01  1.19221E+01  1.67064E+01
   1.14732E+01  1.45780E+01  2.07815E+01  1.45212E+01  1.85004E+01  2.05695E+01  1.63117E+01  1.69298E+01  8.28072E+00  1.34546E+01
   1.47107E+01  1.42382E+01  1.94239E+01  1.13947E+01  1.41125E+01  2.07922E+01  1.70704E+01  2.30849E+01  1.31037E+01  1.81012E+01
   1.76299E+01  1.89202E+01  1.51596E+01  2.44899E+01  1.38821E+01  1.63112E+01  1.63990E+01  2.03726E+01  2.19172E+01  1.95503E+01
   8.12735E+00  1.93638E+01  1.29847E+01  4.02501E+00  5.75463E+00  1.21709E+01  6.83137E+00  1.07260E+01  8.98697E+00  9.18943E+00
   1.02653E+01  3.83354E+00  8.57634E+00  2.75223E+00  1.22909E+01  1.01653E+01  6.09693E+00  1.47832E+01  5.43495E+00  5.40259E+00
   1.12468E+01  1.11259E+01  1.31454E+01  1.30593E+01  7.89929E+00  1.12681E+01  1.27120E+01  7.32148E+00  1.88847E+01  1.47237E+01
   1.34780E+01  7.10421E+00  1.60668E+01  8.83854E+00  1.23442E+01  1.47801E+01  1.82703E+01  2.03963E+01  2.77879E+01  2.23899E+01
   1.78046E+01  1.69768E+01  1.43463E+01  1.67888E+01  1.15240E+01  1.86435E+01  1.83555E+01  1.43030E+01  1.78324E+01  1.18647E+01
   5.68626E+00  5.45889E+00  1.05845E+00  6.33308E+00  3.06582E+00  8.81919E+00  4.63417E+00  7.11693E+00  6.75054E-01  7.64612E+00
   1.51843E+00 -3.18277E+00  4.04046E+00 -1.03835E+00  1.06133E+00  2.63048E+00 -7.87811E+00  6.24819E-01  4.84298E+00  2.91382E-01
  -8.54742E-01  1.07095E+00  1.94240E+00  5.67362E+00 -1.78725E-02  2.38404E-02 -4.68079E+00  1.70224E+00 -1.85229E+00 -6.81911E-01
   1.55655E-01 -9.28583E-01 -2.22834E+00  3.94831E+00 -3.33903E+00  7.89578E-01  2.32775E-01  1.50100E+00 -7.47723E-01 -9.69582E-01
   8.47517E+00  2.10134E+00  7.96574E-01  5.15472E+00 -2.08647E+00  1.63569E+00 -2.78180E+00  1.40141E+00  2.39252E+00  3.34099E+00
   5.53856E+00  1.79033E+00  2.39321E+00 -4.39314E+00  1.11866E-01  2.75387E+00  4.53304E+00  6.49848E+00  3.98949E+00  3.75073E+00
  -9.30184E-01  5.11321E-01  3.69522E-02  7.08157E-01  5.52375E+00 -1.85134E+00 -1.88780E+00  5.64441E+00 -1.61885E+00 -7.92165E-02
   2.49662E+00 -1.41138E+00  2.87054E+00  2.69853E+00  1.33907E+00  1.30049E+00  3.40485E+00 -8.01803E-01
 NY points of the fit to the data follow
   4.53951E+00  5.41297E+00  9.64707E+00  1.47450E+01  2.01887E+01  2.78064E+01  3.70750E+01  4.70212E+01  5.57568E+01  6.06485E+01
   6.02448E+01  5.49681E+01  4.69798E+01  3.87416E+01  3.15929E+01  2.57040E+01  2.03558E+01  1.54665E+01  1.24342E+01  1.03589E+01
   8.74268E+00  7.95890E+00  8.92626E+00  1.01684E+01  1.11235E+01  1.29363E+01  1.61023E+01  2.03958E+01  2.47153E+01  2.76388E+01
   2.85668E+01  2.76337E+01  2.50944E+01  2.17101E+01  1.77127E+01  1.33460E+01  9.21907E+00  5.45478E+00  3.55819E+00  3.55210E+00
   4.75043E+00  6.61253E+00  8.40899E+00  1.01689E+01  1.21759E+01  1.44270E+01  1.63948E+01  1.72563E+01  1.62482E+01  1.34965E+01
   9.74365E+00  6.07106E+00  3.51758E+00  2.09171E+00  1.19669E+00  5.88517E-01  3.02277E-01  5.43800E-01  1.13917E+00  1.67389E+00
   1.77473E+00  1.22363E+00  6.25808E-02 -1.37795E+00 -2.61079E+00 -3.18540E+00 -3.21843E+00 -3.02984E+00 -2.71473E+00 -2.30079E+00
  -1.89018E+00 -1.56535E+00 -1.48986E+00 -1.71759E+00 -2.18839E+00 -2.77373E+00 -3.30747E+00 -3.71812E+00 -3.98685E+00 -4.01467E+00
  -3.47668E+00 -2.90113E+00 -2.56622E+00 -1.99541E+00 -1.04546E+00 -2.03222E-02  5.37389E-01  1.61773E-01 -1.16027E+00 -2.84241E+00
  -4.21076E+00 -4.95404E+00 -5.10673E+00 -4.89893E+00 -4.24726E+00 -8.57753E-01  7.88088E+00  1.64747E+01  2.45278E+01  3.55039E+01
   5.01609E+01  6.57029E+01  7.66398E+01  7.80191E+01  6.91714E+01  5.40440E+01  3.85040E+01  2.64400E+01  1.81239E+01  1.16590E+01
   4.98263E+00 -1.31613E+00 -3.99046E+00 -4.68902E+00 -4.88953E+00 -4.87465E+00 -4.70143E+00 -4.29051E+00 -3.32100E+00  2.86105E-01
   9.79744E+00  2.04439E+01  3.01743E+01  4.22613E+01  5.82021E+01  7.58865E+01  8.98677E+01  9.40025E+01  8.66194E+01  7.13468E+01
   5.42342E+01  3.99753E+01  2.93244E+01  2.03966E+01  1.12579E+01  2.27024E+00 -2.30492E+00 -2.93642E+00 -2.03622E+00 -8.39345E-01
  -1.01889E-01  4.91129E-03 -3.33470E-01 -1.03734E+00 -1.89174E+00 -2.70638E+00 -3.54669E+00 -4.44601E+00 -5.33819E+00 -6.18270E+00
  -6.85317E+00 -7.38257E+00 -7.76376E+00 -8.10836E+00 -8.69469E+00 -9.25774E+00 -9.68748E+00 -1.01103E+01 -1.06038E+01 -1.15283E+01
  -1.25559E+01 -1.30081E+01 -1.27076E+01 -1.20532E+01 -1.17024E+01 -1.21486E+01 -1.33787E+01 -1.49551E+01 -1.63676E+01 -1.75423E+01
  -1.85716E+01 -1.93391E+01 -2.02608E+01 -2.14683E+01 -2.26508E+01 -2.32598E+01 -2.29819E+01 -2.22585E+01 -2.16619E+01 -2.16324E+01
  -2.22517E+01 -2.25530E+01 -2.19641E+01 -2.07785E+01 -1.93141E+01 -1.78005E+01 -1.59609E+01 -1.32012E+01 -9.85809E+00 -6.97068E+00
  -5.47046E+00 -5.57289E+00 -6.77214E+00 -8.29418E+00 -9.32266E+00 -9.54971E+00 -9.01136E+00 -7.32767E+00 -4.83014E+00 -2.01750E+00
   6.72243E-01  2.80723E+00  3.78584E+00  3.24777E+00  1.64580E+00 -1.59130E+00 -6.56206E+00 -1.15881E+01 -1.50165E+01 -1.53120E+01
  -1.31110E+01 -9.52977E+00 -4.57493E+00  1.48543E+00  7.20444E+00  1.04365E+01  9.89891E+00  6.28475E+00  6.03814E-01 -6.43158E+00
  -1.25311E+01 -1.60621E+01 -1.64892E+01 -1.37321E+01 -8.77067E+00 -2.44073E+00  3.49515E+00  7.40648E+00  9.20959E+00  1.01922E+01
   1.14779E+01  1.25403E+01  1.32396E+01  1.41702E+01  1.55206E+01  1.66072E+01  1.71116E+01  1.74024E+01  1.74293E+01  1.67755E+01
   1.54571E+01  1.44202E+01  1.45814E+01  1.61578E+01  1.85284E+01  2.11708E+01  2.38620E+01  2.59618E+01  2.74100E+01  2.87337E+01
   3.04073E+01  3.25894E+01  3.75792E+01  5.32399E+01  7.44971E+01  9.18759E+01  1.10624E+02  1.36189E+02  1.66746E+02  1.93585E+02
   2.05103E+02  1.94776E+02  1.66327E+02  1.30878E+02  9.95447E+01  7.67503E+01  6.03589E+01  4.54712E+01  2.93628E+01  1.81269E+01
   1.39279E+01  1.18489E+01  1.05440E+01  9.74275E+00  9.13787E+00  8.42400E+00  7.60814E+00  6.70842E+00  5.78762E+00  4.91894E+00
   4.14595E+00  3.44364E+00  2.83084E+00  2.35560E+00  1.99855E+00  1.71511E+00  1.48931E+00  1.33056E+00  1.25765E+00  1.26835E+00
   1.34011E+00  1.47992E+00  1.68903E+00  1.96322E+00  2.29424E+00  2.67375E+00  3.09700E+00  3.55488E+00  4.03618E+00  4.53354E+00
   5.03653E+00  5.53258E+00  6.00941E+00  6.45366E+00  6.85363E+00  7.19993E+00  7.48653E+00  7.71035E+00  7.87097E+00  7.97148E+00
   8.01742E+00  8.01522E+00  7.97531E+00  7.91080E+00  7.83707E+00  7.77219E+00  7.73781E+00  7.76119E+00  7.88602E+00  8.20773E+00
   8.83550E+00  9.31270E+00  9.50422E+00  9.75127E+00  1.00201E+01  9.97384E+00  9.22197E+00  7.60660E+00  5.80151E+00  4.49424E+00
   3.75759E+00  3.79125E+00  4.69576E+00  6.37540E+00  8.58026E+00  1.09146E+01  1.30670E+01  1.45595E+01  1.52529E+01  1.55954E+01
   1.60525E+01  1.65382E+01  1.68027E+01  1.68545E+01  1.68682E+01  1.69092E+01  1.66373E+01  1.58860E+01  1.50307E+01  1.43440E+01
   1.39332E+01  1.40127E+01  1.46530E+01  1.57431E+01  1.70494E+01  1.82681E+01  1.92313E+01  1.97514E+01  1.97504E+01  1.94664E+01
   1.90981E+01  1.86984E+01  1.81975E+01  1.74915E+01  1.67383E+01  1.60404E+01  1.53470E+01  1.46399E+01  1.39184E+01  1.31878E+01
   1.24566E+01  1.17343E+01  1.10308E+01  1.03553E+01  9.71683E+00  9.12354E+00  8.58343E+00  8.10329E+00  7.68895E+00  7.34489E+00
   7.07516E+00  6.88309E+00  6.77176E+00  6.74317E+00  6.79865E+00  6.93864E+00  7.16341E+00  7.47256E+00  7.86509E+00  8.33847E+00
   8.88897E+00  9.51132E+00  1.01992E+01  1.09445E+01  1.17371E+01  1.25648E+01  1.34133E+01  1.42666E+01  1.51080E+01  1.59191E+01
   1.66814E+01  1.73757E+01  1.79840E+01  1.84896E+01  1.88784E+01  1.91389E+01  1.92627E+01  1.92447E+01  1.90841E+01  1.87842E+01
   1.83520E+01  1.77979E+01  1.71349E+01  1.63782E+01  1.55450E+01  1.46534E+01  1.37217E+01  1.27674E+01  1.18068E+01  1.08546E+01
   9.92418E+00  9.02650E+00  8.17054E+00  7.36255E+00  6.60697E+00  5.90631E+00  5.26192E+00  4.67350E+00  4.13964E+00  3.65768E+00
   3.22468E+00  2.83732E+00  2.49244E+00  2.18642E+00  1.91568E+00  1.67647E+00  1.46570E+00  1.28045E+00  1.11832E+00  9.76701E-01
   8.53282E-01  7.45805E-01  6.52712E-01  5.72545E-01  5.04164E-01  4.46100E-01  3.97188E-01  3.56302E-01  3.22909E-01  2.96357E-01
   2.76140E-01  2.61370E-01  2.51496E-01  2.45999E-01  2.44819E-01  2.47611E-01  2.54081E-01  2.63603E-01  2.75953E-01  2.90914E-01
   3.08610E-01  3.28771E-01  3.51180E-01  3.75375E-01  4.01357E-01  4.29067E-01  4.58657E-01  4.89829E-01  5.22405E-01  5.56064E-01
   5.90968E-01  6.27123E-01  6.64647E-01  7.03204E-01  7.42670E-01  7.82855E-01  8.24014E-01  8.66138E-01  9.09264E-01  9.53032E-01
   9.97405E-01  1.04232E+00  1.08808E+00  1.13461E+00  1.18188E+00  1.22956E+00  1.27771E+00  1.32637E+00  1.37583E+00  1.42593E+00
   1.47660E+00  1.52757E+00  1.57904E+00  1.63110E+00  1.68399E+00  1.73750E+00  1.79155E+00  1.84602E+00
 NY background values follow
    -1.525E+00   -1.617E+00   -1.710E+00   -1.802E+00   -1.894E+00   -1.987E+00   -2.079E+00   -2.172E+00   -2.265E+00   -2.357E+00
    -2.450E+00   -2.543E+00   -2.635E+00   -2.728E+00   -2.821E+00   -2.914E+00   -3.006E+00   -3.099E+00   -3.192E+00   -3.284E+00
    -3.377E+00   -3.469E+00   -3.562E+00   -3.654E+00   -3.747E+00   -3.839E+00   -3.931E+00   -4.023E+00   -4.116E+00   -4.208E+00
    -4.300E+00   -4.391E+00   -4.483E+00   -4.575E+00   -4.666E+00   -4.758E+00   -4.849E+00   -4.940E+00   -5.031E+00   -5.122E+00
    -5.213E+00   -5.303E+00   -5.393E+00   -5.484E+00   -5.574E+00   -5.664E+00   -5.753E+00   -5.843E+00   -5.932E+00   -6.021E+00
    -6.110E+00   -6.199E+00   -6.287E+00   -6.375E+00   -6.463E+00   -6.551E+00   -6.638E+00   -6.725E+00   -6.812E+00   -6.898E+00
    -6.984E+00   -7.070E+00   -7.156E+00   -7.241E+00   -7.326E+00   -7.410E+00   -7.494E+00   -7.578E+00   -7.661E+00   -7.744E+00
    -7.826E+00   -7.909E+00   -7.990E+00   -8.071E+00   -8.152E+00   -8.233E+00   -8.313E+00   -8.392E+00   -8.471E+00   -8.549E+00
    -8.627E+00   -8.705E+00   -8.782E+00   -8.858E+00   -8.934E+00   -9.009E+00   -9.084E+00   -9.158E+00   -9.232E+00   -9.305E+00
    -9.378E+00   -9.450E+00   -9.521E+00   -9.591E+00   -9.662E+00   -9.731E+00   -9.800E+00   -9.868E+00   -9.936E+00   -1.000E+01
    -1.007E+01   -1.013E+01   -1.020E+01   -1.026E+01   -1.033E+01   -1.039E+01   -1.045E+01   -1.052E+01   -1.058E+01   -1.064E+01
    -1.070E+01   -1.076E+01   -1.081E+01   -1.087E+01   -1.093E+01   -1.099E+01   -1.104E+01   -1.110E+01   -1.115E+01   -1.121E+01
    -1.126E+01   -1.131E+01   -1.136E+01   -1.141E+01   -1.146E+01   -1.151E+01   -1.156E+01   -1.161E+01   -1.166E+01   -1.170E+01
    -1.175E+01   -1.179E+01   -1.184E+01   -1.188E+01   -1.193E+01   -1.197E+01   -1.201E+01   -1.205E+01   -1.209E+01   -1.213E+01
    -1.217E+01   -1.220E+01   -1.224E+01   -1.228E+01   -1.231E+01   -1.235E+01   -1.238E+01   -1.241E+01   -1.244E+01   -1.247E+01
    -1.250E+01   -1.253E+01   -1.256E+01   -1.259E+01   -1.261E+01   -1.264E+01   -1.266E+01   -1.268E+01   -1.270E+01   -1.272E+01
    -1.274E+01   -1.276E+01   -1.278E+01   -1.280E+01   -1.281E+01   -1.282E+01   -1.284E+01   -1.285E+01   -1.286E+01   -1.287E+01
    -1.288E+01   -1.288E+01   -1.289E+01   -1.289E+01   -1.289E+01   -1.290E+01   -1.290E+01   -1.290E+01   -1.289E+01   -1.289E+01
    -1.288E+01   -1.288E+01   -1.287E+01   -1.286E+01   -1.285E+01   -1.284E+01   -1.283E+01   -1.281E+01   -1.280E+01   -1.278E+01
    -1.276E+01   -1.274E+01   -1.272E+01   -1.270E+01   -1.268E+01   -1.266E+01   -1.263E+01   -1.261E+01   -1.258E+01   -1.255E+01
    -1.253E+01   -1.250E+01   -1.247E+01   -1.244E+01   -1.241E+01   -1.238E+01   -1.234E+01   -1.231E+01   -1.228E+01   -1.224E+01
    -1.221E+01   -1.217E+01   -1.214E+01   -1.210E+01   -1.206E+01   -1.203E+01   -1.199E+01   -1.195E+01   -1.191E+01   -1.187E+01
    -1.183E+01   -1.179E+01   -1.176E+01   -1.172E+01   -1.168E+01   -1.163E+01   -1.159E+01   -1.155E+01   -1.151E+01   -1.147E+01
    -1.143E+01   -1.139E+01   -1.135E+01   -1.131E+01   -1.127E+01   -1.123E+01   -1.118E+01   -1.114E+01   -1.110E+01   -1.106E+01
    -1.102E+01   -1.097E+01   -1.093E+01   -1.089E+01   -1.085E+01   -1.081E+01   -1.076E+01   -1.072E+01   -1.068E+01   -1.063E+01
    -1.059E+01   -1.055E+01   -1.051E+01   -1.046E+01   -1.042E+01   -1.038E+01   -1.033E+01   -1.029E+01   -1.025E+01   -1.020E+01
    -1.016E+01   -1.012E+01   -1.007E+01   -1.003E+01   -9.985E+00   -9.941E+00   -9.897E+00   -9.853E+00   -9.809E+00   -9.765E+00
    -9.721E+00   -9.677E+00   -9.633E+00   -9.589E+00   -9.544E+00   -9.500E+00   -9.456E+00   -9.411E+00   -9.367E+00   -9.323E+00
    -9.278E+00   -9.234E+00   -9.189E+00   -9.145E+00   -9.100E+00   -9.055E+00   -9.011E+00   -8.966E+00   -8.921E+00   -8.877E+00
    -8.832E+00   -8.787E+00   -8.742E+00   -8.697E+00   -8.652E+00   -8.608E+00   -8.563E+00   -8.518E+00   -8.473E+00   -8.428E+00
    -8.383E+00   -8.338E+00   -8.293E+00   -8.248E+00   -8.202E+00   -8.157E+00   -8.112E+00   -8.067E+00   -8.022E+00   -7.977E+00
    -7.932E+00   -7.886E+00   -7.841E+00   -7.796E+00   -7.751E+00   -7.705E+00   -7.660E+00   -7.615E+00   -7.570E+00   -7.524E+00
    -7.479E+00   -7.434E+00   -7.389E+00   -7.343E+00   -7.298E+00   -7.253E+00   -7.207E+00   -7.162E+00   -7.117E+00   -7.071E+00
    -7.026E+00   -6.980E+00   -6.935E+00   -6.889E+00   -6.844E+00   -6.799E+00   -6.753E+00   -6.707E+00   -6.662E+00   -6.616E+00
    -6.571E+00   -6.525E+00   -6.479E+00   -6.434E+00   -6.388E+00   -6.342E+00   -6.297E+00   -6.251E+00   -6.205E+00   -6.159E+00
    -6.113E+00   -6.068E+00   -6.022E+00   -5.976E+00   -5.930E+00   -5.884E+00   -5.838E+00   -5.792E+00   -5.745E+00   -5.699E+00
    -5.653E+00   -5.607E+00   -5.561E+00   -5.514E+00   -5.468E+00   -5.422E+00   -5.375E+00   -5.329E+00   -5.282E+00   -5.235E+00
    -5.189E+00   -5.142E+00   -5.095E+00   -5.048E+00   -5.001E+00   -4.954E+00   -4.907E+00   -4.860E+00   -4.812E+00   -4.765E+00
    -4.717E+00   -4.670E+00   -4.622E+00   -4.574E+00   -4.526E+00   -4.478E+00   -4.430E+00   -4.381E+00   -4.333E+00   -4.284E+00
    -4.235E+00   -4.186E+00   -4.137E+00   -4.088E+00   -4.038E+00   -3.989E+00   -3.939E+00   -3.889E+00   -3.839E+00   -3.788E+00
    -3.738E+00   -3.687E+00   -3.636E+00   -3.585E+00   -3.534E+00   -3.483E+00   -3.431E+00   -3.379E+00   -3.327E+00   -3.275E+00
    -3.222E+00   -3.169E+00   -3.116E+00   -3.063E+00   -3.010E+00   -2.957E+00   -2.903E+00   -2.849E+00   -2.795E+00   -2.741E+00
    -2.686E+00   -2.632E+00   -2.577E+00   -2.522E+00   -2.467E+00   -2.412E+00   -2.356E+00   -2.301E+00   -2.245E+00   -2.189E+00
    -2.133E+00   -2.077E+00   -2.021E+00   -1.964E+00   -1.908E+00   -1.851E+00   -1.794E+00   -1.737E+00   -1.680E+00   -1.623E+00
    -1.566E+00   -1.508E+00   -1.450E+00   -1.393E+00   -1.335E+00   -1.277E+00   -1.219E+00   -1.161E+00   -1.103E+00   -1.045E+00
    -9.862E-01   -9.277E-01   -8.692E-01   -8.106E-01   -7.519E-01   -6.931E-01   -6.342E-01   -5.753E-01   -5.163E-01   -4.573E-01
    -3.981E-01   -3.390E-01   -2.797E-01   -2.204E-01   -1.611E-01   -1.017E-01   -4.230E-02    1.717E-02    7.667E-02    1.362E-01
     1.958E-01    2.554E-01    3.150E-01    3.747E-01    4.344E-01    4.941E-01    5.538E-01    6.135E-01    6.732E-01    7.330E-01
     7.927E-01    8.525E-01    9.122E-01    9.720E-01    1.032E+00    1.091E+00    1.151E+00    1.211E+00    1.271E+00    1.330E+00
     1.390E+00    1.449E+00    1.509E+00    1.569E+00    1.628E+00    1.687E+00    1.747E+00    1.806E+00
 Ala      Conc. = 4.78E+02
