 LCModel (Version 6.3-1L) Copyright: S.W. Provencher.          Ref.: Magn. Reson. Med. 30:672-679 (1993).                
 Slice#3 Row#3 Col#6  PD_05_press_2_raw_act
 36 lines in following concentration table = NCONC+1
    Conc.  %SD /Cr+PCr  Metabolite                                         
  230.713 122%   0.166 Ala                                                 
  265.874 108%   0.191 Asp                                                 
  262.622 196%   0.189 Cr                                                  
 1.13E+03  47%   0.811 PCr                                                 
  147.349 117%   0.106 GABA                                                
  122.345 143% 8.8E-02 Glc                                                 
 1.12E+03  51%   0.805 Gln                                                 
  715.670  86%   0.515 Glu                                                 
    0.000 999%   0.000 GPC                                                 
  643.100   9%   0.463 PCh                                                 
  286.076  70%   0.206 GSH                                                 
   24.195 999% 1.7E-02 Ins                                                 
    0.000 999%   0.000 Lac                                                 
 2.26E+03  10%   1.625 NAA                                                 
   91.144 261% 6.6E-02 NAAG                                                
   93.863  52% 6.8E-02 Scyllo                                              
  530.602  52%   0.382 Tau                                                 
  965.288  26%   0.695 -CrCH2                                              
  643.100   9%   0.463 GPC+PCh                                             
 2.35E+03  10%   1.691 NAA+NAAG                                            
 1.39E+03  12%   1.000 Cr+PCr                                              
 1.83E+03  45%   1.320 Glu+Gln                                             
    0.000 999%   0.000 Lip13a                                              
 2.56E+03  31%   1.841 Lip13b                                              
  108.659 453% 7.8E-02 Lip09                                               
 2.42E+03  25%   1.742 MM09                                                
  424.392  83%   0.305 Lip20                                               
 4.65E+03  21%   3.343 MM20                                                
  786.282  40%   0.566 MM12                                                
 1.89E+03  42%   1.360 MM14                                                
 1.90E+03  28%   1.365 MM17                                                
 2.56E+03  31%   1.841 Lip13a+Lip13b                                       
 5.23E+03  16%   3.766 MM14+Lip13a+Lip13b+MM12                             
 2.53E+03  19%   1.820 MM09+Lip09                                          
 5.07E+03  19%   3.648 MM20+Lip20                                          
   6 lines in following misc. output table
  FWHM = 0.038 ppm    S/N =   4                                            
  Data shift = 0.038 ppm                                                   
  Ph: -51 deg     -18.4 deg/ppm                                            
  alphaB,S = 2.8E+00,   2.5E+01                                            
   14 spline knots.   Ns = 5(1)                                            
  ( 9) 2 infls.   ( 7) 1 extrs.                                            
  498 points on ppm-axis = NY
      4.000000     3.992357     3.984714     3.977070     3.969427     3.961784     3.954141     3.946497     3.938854     3.931211
      3.923568     3.915925     3.908281     3.900638     3.892995     3.885352     3.877708     3.870065     3.862422     3.854779
      3.847136     3.839492     3.831849     3.824206     3.816563     3.808919     3.801276     3.793633     3.785990     3.778347
      3.770703     3.763060     3.755417     3.747774     3.740130     3.732487     3.724844     3.717201     3.709558     3.701914
      3.694271     3.686628     3.678985     3.671341     3.663698     3.656055     3.648412     3.640769     3.633125     3.625482
      3.617839     3.610196     3.602552     3.594909     3.587266     3.579623     3.571980     3.564336     3.556693     3.549050
      3.541407     3.533763     3.526120     3.518477     3.510834     3.503191     3.495547     3.487904     3.480261     3.472618
      3.464974     3.457331     3.449688     3.442045     3.434402     3.426758     3.419115     3.411472     3.403829     3.396185
      3.388542     3.380899     3.373256     3.365613     3.357969     3.350326     3.342683     3.335040     3.327396     3.319753
      3.312110     3.304467     3.296824     3.289180     3.281537     3.273894     3.266251     3.258607     3.250964     3.243321
      3.235678     3.228034     3.220391     3.212748     3.205105     3.197462     3.189818     3.182175     3.174532     3.166889
      3.159245     3.151602     3.143959     3.136316     3.128673     3.121029     3.113386     3.105743     3.098100     3.090456
      3.082813     3.075170     3.067527     3.059884     3.052240     3.044597     3.036954     3.029311     3.021667     3.014024
      3.006381     2.998738     2.991095     2.983451     2.975808     2.968165     2.960522     2.952878     2.945235     2.937592
      2.929949     2.922306     2.914662     2.907019     2.899376     2.891733     2.884089     2.876446     2.868803     2.861160
      2.853517     2.845873     2.838230     2.830587     2.822944     2.815300     2.807657     2.800014     2.792371     2.784728
      2.777084     2.769441     2.761798     2.754155     2.746511     2.738868     2.731225     2.723582     2.715939     2.708295
      2.700652     2.693009     2.685366     2.677722     2.670079     2.662436     2.654793     2.647150     2.639506     2.631863
      2.624220     2.616577     2.608933     2.601290     2.593647     2.586004     2.578361     2.570717     2.563074     2.555431
      2.547788     2.540144     2.532501     2.524858     2.517215     2.509572     2.501928     2.494285     2.486642     2.478999
      2.471355     2.463712     2.456069     2.448426     2.440783     2.433139     2.425496     2.417853     2.410210     2.402566
      2.394923     2.387280     2.379637     2.371994     2.364350     2.356707     2.349064     2.341421     2.333777     2.326134
      2.318491     2.310848     2.303205     2.295561     2.287918     2.280275     2.272632     2.264988     2.257345     2.249702
      2.242059     2.234416     2.226772     2.219129     2.211486     2.203843     2.196199     2.188556     2.180913     2.173270
      2.165627     2.157983     2.150340     2.142697     2.135054     2.127410     2.119767     2.112124     2.104481     2.096838
      2.089194     2.081551     2.073908     2.066265     2.058621     2.050978     2.043335     2.035692     2.028049     2.020405
      2.012762     2.005119     1.997476     1.989833     1.982190     1.974546     1.966903     1.959260     1.951617     1.943974
      1.936331     1.928688     1.921045     1.913402     1.905759     1.898115     1.890472     1.882829     1.875186     1.867543
      1.859900     1.852257     1.844614     1.836971     1.829327     1.821684     1.814041     1.806398     1.798755     1.791112
      1.783469     1.775826     1.768183     1.760540     1.752896     1.745253     1.737610     1.729967     1.722324     1.714681
      1.707038     1.699395     1.691752     1.684108     1.676465     1.668822     1.661179     1.653536     1.645893     1.638250
      1.630607     1.622964     1.615321     1.607677     1.600034     1.592391     1.584748     1.577105     1.569462     1.561819
      1.554176     1.546533     1.538890     1.531246     1.523603     1.515960     1.508317     1.500674     1.493031     1.485388
      1.477745     1.470102     1.462458     1.454815     1.447172     1.439529     1.431886     1.424243     1.416600     1.408957
      1.401314     1.393671     1.386027     1.378384     1.370741     1.363098     1.355455     1.347812     1.340169     1.332526
      1.324883     1.317240     1.309596     1.301953     1.294310     1.286667     1.279024     1.271381     1.263738     1.256095
      1.248452     1.240808     1.233165     1.225522     1.217879     1.210236     1.202593     1.194950     1.187307     1.179664
      1.172021     1.164377     1.156734     1.149091     1.141448     1.133805     1.126162     1.118519     1.110876     1.103233
      1.095590     1.087946     1.080303     1.072660     1.065017     1.057374     1.049731     1.042088     1.034445     1.026802
      1.019158     1.011515     1.003872     0.996229     0.988586     0.980943     0.973300     0.965657     0.958014     0.950371
      0.942727     0.935084     0.927441     0.919798     0.912155     0.904512     0.896869     0.889226     0.881583     0.873940
      0.866296     0.858653     0.851010     0.843367     0.835724     0.828081     0.820438     0.812795     0.805152     0.797508
      0.789865     0.782222     0.774579     0.766936     0.759293     0.751650     0.744007     0.736364     0.728721     0.721077
      0.713434     0.705791     0.698148     0.690505     0.682862     0.675219     0.667576     0.659933     0.652290     0.644646
      0.637003     0.629360     0.621717     0.614074     0.606431     0.598788     0.591145     0.583502     0.575858     0.568215
      0.560572     0.552929     0.545286     0.537643     0.530000     0.522357     0.514714     0.507071     0.499427     0.491784
      0.484141     0.476498     0.468855     0.461212     0.453569     0.445925     0.438282     0.430639     0.422996     0.415353
      0.407710     0.400067     0.392424     0.384780     0.377137     0.369494     0.361851     0.354208     0.346565     0.338922
      0.331278     0.323635     0.315992     0.308349     0.300706     0.293063     0.285420     0.277777     0.270133     0.262490
      0.254847     0.247204     0.239561     0.231918     0.224275     0.216631     0.208988     0.201345
 NY phased data points follow
  -7.53805E+01 -4.83939E+01 -6.86563E+01 -6.46164E+01 -8.44723E+01 -3.23075E+01 -4.03487E+01 -3.31242E+01 -3.34860E+01 -3.88563E+01
  -2.94342E+01 -7.44941E+00 -3.15301E+01 -4.29583E+01 -3.71421E+01 -3.93338E+01 -3.89635E+01 -3.59299E+01 -4.13548E+01 -4.01760E+01
  -5.02407E+01 -4.78888E+01 -3.27491E+01 -2.87644E+01 -1.44181E+01 -3.77820E+01 -5.14567E+01 -3.96474E+01 -2.28822E+01 -2.18309E+01
  -1.91220E+01 -1.14244E+01 -3.44438E+01 -2.65525E+01 -1.95956E+01 -2.15887E+01 -3.17951E+01 -2.22488E+01 -4.38040E+01 -2.47646E+01
  -4.03681E+01 -1.11305E+01 -2.05753E+01 -1.98612E+01 -2.14128E+01 -2.35017E+01 -1.54279E+01 -2.17080E+00 -3.33871E+01 -2.70284E+01
  -4.40926E+01 -1.01897E+01 -2.90835E+01 -3.77849E+01 -2.45810E+01 -2.19970E+01 -2.42412E+01 -2.12322E+00 -3.08405E+01 -3.20153E+01
  -2.78276E+01 -2.98817E+01 -3.35327E+01 -3.11001E+01 -1.58523E+01 -2.65814E+01 -4.39335E+01 -4.13730E+01 -2.45250E+01 -1.87042E+01
  -2.48870E+01 -2.99137E+01 -2.36169E+01 -1.13080E+01 -1.64403E+01 -4.74283E+00 -1.57539E+01 -1.46684E+01 -4.07656E+01 -3.98349E+01
  -5.24674E+00 -1.74335E+01 -1.53274E+01 -2.26651E+01 -1.38185E+00 -2.46680E+00 -3.02864E+01 -3.06976E+00 -1.76922E+01 -1.29721E+00
  -2.26110E+01 -8.02215E+00 -1.82591E+01 -2.38781E+00 -9.27466E+00  1.51393E+01  8.96010E+00  1.88460E+00  2.83925E+00  1.11379E+00
   2.19456E+01  4.57727E+01  7.17270E+01  5.66365E+01  4.52112E+01  2.66679E+01  1.88792E+01  1.05772E+01  1.13522E+01 -5.50655E+00
  -2.37348E+01  1.53567E+01  4.97101E+00 -9.38029E+00  1.70840E+00  3.79743E+00 -2.90019E+00 -4.35886E+00 -1.30028E+01  1.02478E+01
  -1.69693E+01  6.47065E+00  8.61372E+00  6.21255E+00  9.46637E+00  5.03010E+01  4.12275E+01  5.89794E+01  4.73957E+01  2.87212E+01
   1.24400E+01  2.10351E+00  1.14515E+01  2.94665E+00 -1.45928E+01 -1.68959E+00  3.54895E+00 -5.46313E+00 -3.93212E+00  1.45679E+01
  -2.30923E+00 -2.25354E+00 -7.84605E+00 -3.73257E-01 -1.74382E+01  2.68825E-02 -1.29840E-01 -4.36706E+00 -1.17328E+01 -1.32425E+01
  -1.83901E+01  1.44218E+01  4.82353E+00 -9.90576E+00 -2.57140E+01  4.13407E+00 -3.30291E+01 -1.41149E+01 -1.34536E+01 -1.02569E+01
  -1.41540E+01  6.40834E+00 -3.38876E+01  3.01025E+00 -1.43058E+01 -6.51568E+00 -5.85668E+00  1.75737E+01 -8.79329E+00 -5.19167E+00
  -5.42253E+00 -2.29507E+01 -1.79122E+01 -1.83131E+01  5.47989E+00 -2.38024E+01 -2.53332E+01 -1.12889E+01 -1.15779E+01 -1.42445E+01
  -3.38356E+01 -8.99605E+00 -1.55640E+01  1.11284E+01 -7.68731E+00 -1.69339E+01 -8.42104E+00 -2.01625E+01 -1.70235E+01 -6.24516E-01
   1.79808E+01 -1.08098E+01 -4.89310E+00  1.14802E+01  7.83927E+00  1.05306E+01 -2.40401E+00  7.98799E+00 -1.92795E+01  1.23272E+01
  -3.27936E+00 -7.50477E-01  5.94690E+00  1.31795E+01 -2.30499E+00  9.12774E+00  1.95264E+00 -8.63384E+00  1.17240E+00 -2.58416E-01
  -9.68131E+00  3.60988E+00 -7.35781E+00 -1.01109E+01 -1.07784E+01  1.77486E+01  3.38439E+01  2.87933E+01  2.09981E+01  2.00309E+01
  -3.16029E+00  8.74171E+00  2.26730E+00  7.52073E+00  8.35763E+00  1.02799E+01  1.31074E+01  2.07682E+01 -6.68019E+00  7.24771E+00
   1.31392E+01  7.12761E-01 -1.35369E+01 -8.07762E+00  5.29455E+00 -3.39373E+00  8.40919E+00  1.04283E+01  9.56909E+00  1.41033E+01
   8.40942E+00  6.55854E+00  2.64489E-01  2.14627E+01  1.39977E+01  2.57026E+01  1.17654E+01  2.16315E+00  2.59458E+01  1.25862E+01
   2.68846E+01  6.99005E+01  3.74669E+01  2.34965E+01  3.24338E+01  4.58082E+01  3.98554E+01  4.24453E+01  9.24928E+01  8.90006E+01
   1.28022E+02  1.00183E+02  1.00625E+02  7.20461E+01  4.31249E+01  4.98443E+01  1.77006E+01  2.72695E+01  2.67890E+01  2.20155E+01
   1.31180E+01  1.44617E+01  1.71523E+01  3.26216E+01  3.42716E+01  2.85802E+01  3.17131E+01  2.68025E+01  2.12478E+01  3.60056E+01
   1.46898E+01  1.64489E+01  4.81361E+00  3.81530E+01  1.11254E+01  3.09421E+01 -2.05552E+01  1.83291E+01  1.33907E+01  1.34391E+01
   9.56101E+00  3.34855E+01  1.72636E+01  3.21245E+01  2.18640E+01  1.72134E+01  2.11345E+01  1.58944E+01  2.69755E+01  1.18298E+01
   2.06573E+01  2.04937E+01  2.11380E+01  2.93197E+01  2.39403E+01  3.38040E+01  3.59653E+01  1.69026E+01  7.04045E+00  1.11954E+01
   2.57272E+01  3.49417E+00  1.32383E+01  1.78484E+01  1.56895E+01  2.30309E+01  2.46449E+01  1.21644E+01  2.93909E+01  2.79022E+01
   1.30065E+01  2.20041E+01  2.64366E+01  3.15086E+01  1.79751E+01  6.43708E+00  2.81010E+01  4.00697E+01  1.49240E+01  4.40563E+00
   2.17818E+01  2.02460E+01  1.16009E+01  1.57778E+01  2.97915E+01  1.25819E+01  2.88825E+01  2.04524E+01  2.51034E+01  1.21124E+01
   2.91650E+01 -1.29555E+00  2.09678E+01  2.19538E+01  2.82699E+01  2.29867E+01  3.57104E+01  2.93662E+01  3.77371E+01  3.64032E+01
   2.98703E+01  6.19638E+01  3.09165E+01  3.57531E+01  5.95577E+01  5.72582E+01  3.02434E+01  3.24381E+01  5.76040E+01  4.23692E+01
   3.72267E+01  4.14752E+01  1.55355E+01  2.95581E+01  4.10710E+01  1.51016E+01  2.42901E+01  4.36542E+01  2.52432E+01  1.26166E+01
   2.72888E+01  4.39560E+01  1.16357E+01  2.80491E+01  3.46107E+00  7.56389E+00  2.60666E+01  2.09424E+01  2.68522E+01  2.43855E+01
   2.42287E+01  3.06373E+00  3.11963E+01  1.62187E+01  2.21458E+01  1.58463E+01  3.16866E+01  2.27635E+01  2.09087E+01  3.26506E+01
   5.83325E+00  2.46620E+01  7.63240E+00  1.18729E+01  1.33833E+01  2.08472E+01  5.94091E+01  2.36781E+01  1.65902E+01  7.21503E+00
   4.75149E+01  1.54671E+01  3.22002E+01  6.15025E+00  1.72770E+01  2.97623E+01  3.82777E+01  2.04509E+01  4.13702E+01  4.26454E+01
   3.25839E+01  4.34590E+01  3.93279E+01  3.82082E+01  3.27617E+01  1.25104E+01  3.76806E+01  1.68678E+01  1.42570E+01  2.02352E+01
   3.26496E+01  1.91993E+01  1.63768E+01  2.53508E+01 -2.79506E+00  8.79323E+00  2.85836E+01  2.10306E+01  1.56345E+01  2.35517E+01
   2.00450E+01  1.71794E+01  1.96474E+01  2.20581E+01  1.91506E+01  2.27370E+01  9.01158E+00  3.20290E+01  2.12557E+01  1.59311E+01
   1.85910E+01  9.49242E+00  3.37504E+01  1.91097E+00  8.87796E+00  1.99297E+01  2.37017E+01  1.46874E+01  9.46208E+00  2.05338E+01
   6.43034E+00  1.89338E+00  1.15711E+01  9.83338E+00  2.39486E+01  8.45019E+00  2.52035E+01  2.89831E+01  1.75573E+01  3.31974E+01
   1.32044E+01  7.28149E+00  1.83995E+01  8.10884E+00  2.75681E+01  2.13358E+01  2.97048E+01  2.83147E+01  1.46251E+01  1.66797E+01
   3.41201E+01  1.11467E+01  1.70261E+01  1.33405E+01  9.46600E-01  2.03835E+01  1.65477E+01  6.80561E+00  1.24133E+01  1.86453E+01
   1.68301E+01  2.41538E+01  1.94697E+01  1.49211E+01  1.33396E+01  1.71176E+01  1.79762E+01  1.26201E+01  9.66785E+00  1.17936E+01
   7.67405E+00  6.75061E+00  2.22149E+01  1.69108E+01  2.54995E+01  7.68357E+00 -3.89269E-01  1.90740E+01
 NY points of the fit to the data follow
  -3.71462E+01 -3.69444E+01 -3.67078E+01 -3.68174E+01 -3.67900E+01 -3.64919E+01 -3.58084E+01 -3.36237E+01 -2.98957E+01 -2.57256E+01
  -2.29393E+01 -2.25965E+01 -2.43944E+01 -2.67604E+01 -2.86134E+01 -3.02821E+01 -3.16903E+01 -3.25714E+01 -3.29118E+01 -3.25442E+01
  -3.16606E+01 -3.06834E+01 -2.99801E+01 -2.98225E+01 -3.03760E+01 -3.11678E+01 -3.16493E+01 -3.07912E+01 -2.80259E+01 -2.40643E+01
  -2.03913E+01 -1.83794E+01 -1.84964E+01 -2.04543E+01 -2.33672E+01 -2.64566E+01 -2.89266E+01 -2.99998E+01 -2.97313E+01 -2.87642E+01
  -2.79002E+01 -2.74933E+01 -2.74288E+01 -2.74648E+01 -2.73769E+01 -2.72646E+01 -2.72632E+01 -2.72568E+01 -2.72265E+01 -2.71325E+01
  -2.68320E+01 -2.63338E+01 -2.58780E+01 -2.55622E+01 -2.54032E+01 -2.53738E+01 -2.53458E+01 -2.52875E+01 -2.52258E+01 -2.50883E+01
  -2.48739E+01 -2.45821E+01 -2.42283E+01 -2.38191E+01 -2.33176E+01 -2.29372E+01 -2.27701E+01 -2.27897E+01 -2.29813E+01 -2.32147E+01
  -2.31330E+01 -2.26547E+01 -2.18522E+01 -2.06729E+01 -1.95723E+01 -1.91866E+01 -1.96433E+01 -2.06843E+01 -2.17861E+01 -2.22822E+01
  -2.19678E+01 -2.09147E+01 -1.93467E+01 -1.73422E+01 -1.50321E+01 -1.30906E+01 -1.22925E+01 -1.28373E+01 -1.42490E+01 -1.57038E+01
  -1.67745E+01 -1.78324E+01 -1.91696E+01 -2.01677E+01 -2.03224E+01 -1.96076E+01 -1.77627E+01 -1.37944E+01 -5.27516E+00  6.83504E+00
   2.45682E+01  4.54875E+01  6.05252E+01  6.22429E+01  5.11433E+01  3.41525E+01  1.91353E+01  9.02766E+00  9.02973E-01 -6.20741E+00
  -9.74045E+00 -1.09868E+01 -1.15512E+01 -1.18470E+01 -1.20031E+01 -1.20370E+01 -1.19961E+01 -1.19292E+01 -1.18614E+01 -1.17010E+01
  -1.12324E+01 -9.41629E+00 -3.78101E+00  5.07769E+00  1.85043E+01  3.48102E+01  4.69468E+01  4.89743E+01  4.12745E+01  2.89549E+01
   1.78131E+01  1.03897E+01  4.39917E+00 -1.36519E+00 -4.85076E+00 -6.67084E+00 -7.81850E+00 -8.20045E+00 -7.90721E+00 -7.24905E+00
  -6.55247E+00 -6.00342E+00 -5.74325E+00 -5.68709E+00 -5.72035E+00 -5.88015E+00 -6.16544E+00 -6.50951E+00 -6.84142E+00 -7.09136E+00
  -7.28519E+00 -7.44437E+00 -7.57493E+00 -7.62796E+00 -7.58887E+00 -7.51475E+00 -7.54521E+00 -7.78448E+00 -8.29945E+00 -9.06610E+00
  -9.66875E+00 -9.75080E+00 -9.18854E+00 -8.19211E+00 -7.35565E+00 -7.11570E+00 -7.38503E+00 -7.81715E+00 -8.21716E+00 -8.50101E+00
  -8.72611E+00 -9.04963E+00 -9.45344E+00 -9.85941E+00 -1.03631E+01 -1.06530E+01 -1.04531E+01 -9.83806E+00 -9.21506E+00 -9.00776E+00
  -9.15415E+00 -9.18767E+00 -8.82639E+00 -8.33002E+00 -8.04454E+00 -7.93051E+00 -7.43707E+00 -6.11953E+00 -4.24859E+00 -2.49848E+00
  -1.36951E+00 -1.15579E+00 -1.59093E+00 -2.36338E+00 -3.23193E+00 -3.97756E+00 -4.34360E+00 -4.14526E+00 -3.15011E+00 -1.19325E+00
   1.40666E+00  4.00981E+00  6.05185E+00  7.06942E+00  6.67699E+00  4.45445E+00  9.75487E-01 -3.13912E+00 -6.99032E+00 -9.03719E+00
  -8.57934E+00 -6.08364E+00 -2.52784E+00  1.21866E+00  4.61706E+00  7.26723E+00  8.56641E+00  7.95121E+00  6.19127E+00  4.39286E+00
   2.94206E+00  2.09086E+00  2.36956E+00  3.94008E+00  6.18181E+00  8.20021E+00  9.48400E+00  1.00373E+01  1.01489E+01  9.90469E+00
   9.43216E+00  9.09363E+00  9.30976E+00  9.80916E+00  1.04240E+01  1.15551E+01  1.35303E+01  1.59437E+01  1.79032E+01  1.89078E+01
   1.86480E+01  1.75310E+01  1.62484E+01  1.53525E+01  1.52973E+01  1.61425E+01  1.74225E+01  1.87534E+01  2.02790E+01  2.19952E+01
   2.36584E+01  2.53591E+01  2.70318E+01  2.87644E+01  3.09099E+01  3.59002E+01  4.61079E+01  6.06417E+01  8.21158E+01  1.04486E+02
   1.15980E+02  1.10300E+02  9.15938E+01  6.94088E+01  5.19634E+01  4.02282E+01  3.00440E+01  2.20403E+01  1.86712E+01  1.71668E+01
   1.61935E+01  1.55984E+01  1.52960E+01  1.51309E+01  1.50064E+01  1.48494E+01  1.45953E+01  1.42544E+01  1.38840E+01  1.35249E+01
   1.32296E+01  1.30498E+01  1.29949E+01  1.30719E+01  1.32744E+01  1.35644E+01  1.39086E+01  1.42977E+01  1.47198E+01  1.51748E+01
   1.56668E+01  1.61824E+01  1.67074E+01  1.72384E+01  1.77662E+01  1.82798E+01  1.87696E+01  1.92245E+01  1.96293E+01  1.99769E+01
   2.02613E+01  2.04737E+01  2.06069E+01  2.06591E+01  2.06324E+01  2.05331E+01  2.03684E+01  2.01506E+01  1.98925E+01  1.96077E+01
   1.93099E+01  1.90139E+01  1.87329E+01  1.84807E+01  1.82683E+01  1.81063E+01  1.80034E+01  1.79688E+01  1.80111E+01  1.81424E+01
   1.83827E+01  1.87834E+01  1.94214E+01  2.01332E+01  2.08239E+01  2.12676E+01  2.09940E+01  1.99068E+01  1.84305E+01  1.71282E+01
   1.64979E+01  1.66018E+01  1.72243E+01  1.85450E+01  2.05467E+01  2.25271E+01  2.38067E+01  2.42784E+01  2.42324E+01  2.41117E+01
   2.40837E+01  2.40563E+01  2.41686E+01  2.46115E+01  2.53709E+01  2.64581E+01  2.78983E+01  2.97037E+01  3.18550E+01  3.42912E+01
   3.69008E+01  3.95261E+01  4.19718E+01  4.40286E+01  4.54989E+01  4.62283E+01  4.61294E+01  4.51979E+01  4.35121E+01  4.12212E+01
   3.85197E+01  3.56200E+01  3.27210E+01  2.99877E+01  2.75361E+01  2.54314E+01  2.36918E+01  2.23012E+01  2.12197E+01  2.03975E+01
   1.97822E+01  1.93272E+01  1.89931E+01  1.87505E+01  1.85781E+01  1.84618E+01  1.83926E+01  1.83663E+01  1.83808E+01  1.84369E+01
   1.85357E+01  1.86800E+01  1.88720E+01  1.91152E+01  1.94124E+01  1.97672E+01  2.01819E+01  2.06591E+01  2.11997E+01  2.18046E+01
   2.24725E+01  2.32012E+01  2.39856E+01  2.48192E+01  2.56924E+01  2.65937E+01  2.75087E+01  2.84212E+01  2.93127E+01  3.01634E+01
   3.09529E+01  3.16611E+01  3.22687E+01  3.27585E+01  3.31157E+01  3.33295E+01  3.33928E+01  3.33036E+01  3.30640E+01  3.26811E+01
   3.21658E+01  3.15330E+01  3.08000E+01  2.99870E+01  2.91141E+01  2.82026E+01  2.72721E+01  2.63416E+01  2.54276E+01  2.45445E+01
   2.37034E+01  2.29135E+01  2.21805E+01  2.15084E+01  2.08984E+01  2.03504E+01  1.98623E+01  1.94312E+01  1.90532E+01  1.87243E+01
   1.84398E+01  1.81955E+01  1.79866E+01  1.78093E+01  1.76595E+01  1.75339E+01  1.74293E+01  1.73431E+01  1.72726E+01  1.72159E+01
   1.71710E+01  1.71366E+01  1.71111E+01  1.70936E+01  1.70828E+01  1.70780E+01  1.70785E+01  1.70838E+01  1.70932E+01  1.71063E+01
   1.71225E+01  1.71417E+01  1.71635E+01  1.71878E+01  1.72142E+01  1.72425E+01  1.72724E+01  1.73040E+01  1.73370E+01  1.73715E+01
   1.74070E+01  1.74436E+01  1.74812E+01  1.75198E+01  1.75593E+01  1.75996E+01  1.76406E+01  1.76822E+01  1.77244E+01  1.77673E+01
   1.78107E+01  1.78547E+01  1.78991E+01  1.79439E+01  1.79891E+01  1.80349E+01  1.80809E+01  1.81274E+01  1.81741E+01  1.82211E+01
   1.82685E+01  1.83162E+01  1.83642E+01  1.84125E+01  1.84609E+01  1.85097E+01  1.85587E+01  1.86081E+01  1.86577E+01  1.87075E+01
   1.87575E+01  1.88079E+01  1.88585E+01  1.89095E+01  1.89606E+01  1.90122E+01  1.90639E+01  1.91162E+01
 NY background values follow
    -3.621E+01   -3.603E+01   -3.584E+01   -3.566E+01   -3.547E+01   -3.529E+01   -3.511E+01   -3.492E+01   -3.474E+01   -3.455E+01
    -3.437E+01   -3.418E+01   -3.400E+01   -3.381E+01   -3.363E+01   -3.345E+01   -3.326E+01   -3.308E+01   -3.289E+01   -3.271E+01
    -3.252E+01   -3.234E+01   -3.215E+01   -3.197E+01   -3.179E+01   -3.160E+01   -3.142E+01   -3.123E+01   -3.105E+01   -3.087E+01
    -3.068E+01   -3.050E+01   -3.031E+01   -3.013E+01   -2.995E+01   -2.976E+01   -2.958E+01   -2.939E+01   -2.921E+01   -2.903E+01
    -2.884E+01   -2.866E+01   -2.848E+01   -2.830E+01   -2.811E+01   -2.793E+01   -2.775E+01   -2.756E+01   -2.738E+01   -2.720E+01
    -2.702E+01   -2.684E+01   -2.665E+01   -2.647E+01   -2.629E+01   -2.611E+01   -2.593E+01   -2.575E+01   -2.557E+01   -2.539E+01
    -2.521E+01   -2.503E+01   -2.485E+01   -2.467E+01   -2.449E+01   -2.431E+01   -2.413E+01   -2.395E+01   -2.377E+01   -2.359E+01
    -2.341E+01   -2.323E+01   -2.306E+01   -2.288E+01   -2.270E+01   -2.253E+01   -2.235E+01   -2.217E+01   -2.200E+01   -2.182E+01
    -2.164E+01   -2.147E+01   -2.129E+01   -2.112E+01   -2.094E+01   -2.077E+01   -2.060E+01   -2.042E+01   -2.025E+01   -2.008E+01
    -1.990E+01   -1.973E+01   -1.956E+01   -1.939E+01   -1.922E+01   -1.905E+01   -1.888E+01   -1.871E+01   -1.854E+01   -1.837E+01
    -1.820E+01   -1.803E+01   -1.786E+01   -1.769E+01   -1.753E+01   -1.736E+01   -1.719E+01   -1.703E+01   -1.686E+01   -1.669E+01
    -1.653E+01   -1.636E+01   -1.620E+01   -1.603E+01   -1.587E+01   -1.571E+01   -1.554E+01   -1.538E+01   -1.522E+01   -1.506E+01
    -1.490E+01   -1.473E+01   -1.457E+01   -1.441E+01   -1.425E+01   -1.409E+01   -1.393E+01   -1.378E+01   -1.362E+01   -1.346E+01
    -1.330E+01   -1.314E+01   -1.299E+01   -1.283E+01   -1.268E+01   -1.252E+01   -1.237E+01   -1.221E+01   -1.206E+01   -1.190E+01
    -1.175E+01   -1.160E+01   -1.144E+01   -1.129E+01   -1.114E+01   -1.099E+01   -1.084E+01   -1.069E+01   -1.054E+01   -1.039E+01
    -1.024E+01   -1.009E+01   -9.942E+00   -9.794E+00   -9.646E+00   -9.499E+00   -9.353E+00   -9.206E+00   -9.060E+00   -8.915E+00
    -8.770E+00   -8.625E+00   -8.481E+00   -8.337E+00   -8.194E+00   -8.051E+00   -7.909E+00   -7.766E+00   -7.625E+00   -7.483E+00
    -7.343E+00   -7.202E+00   -7.062E+00   -6.922E+00   -6.783E+00   -6.644E+00   -6.506E+00   -6.368E+00   -6.230E+00   -6.093E+00
    -5.956E+00   -5.820E+00   -5.684E+00   -5.548E+00   -5.413E+00   -5.278E+00   -5.144E+00   -5.010E+00   -4.877E+00   -4.743E+00
    -4.611E+00   -4.478E+00   -4.347E+00   -4.215E+00   -4.084E+00   -3.953E+00   -3.823E+00   -3.693E+00   -3.564E+00   -3.435E+00
    -3.306E+00   -3.178E+00   -3.050E+00   -2.923E+00   -2.796E+00   -2.669E+00   -2.543E+00   -2.418E+00   -2.292E+00   -2.168E+00
    -2.043E+00   -1.919E+00   -1.795E+00   -1.672E+00   -1.549E+00   -1.427E+00   -1.305E+00   -1.183E+00   -1.062E+00   -9.416E-01
    -8.213E-01   -7.014E-01   -5.819E-01   -4.629E-01   -3.442E-01   -2.260E-01   -1.082E-01    9.141E-03    1.261E-01    2.426E-01
     3.588E-01    4.745E-01    5.897E-01    7.046E-01    8.190E-01    9.331E-01    1.047E+00    1.160E+00    1.273E+00    1.385E+00
     1.497E+00    1.608E+00    1.719E+00    1.830E+00    1.940E+00    2.050E+00    2.159E+00    2.268E+00    2.377E+00    2.485E+00
     2.592E+00    2.700E+00    2.806E+00    2.913E+00    3.019E+00    3.124E+00    3.229E+00    3.334E+00    3.438E+00    3.542E+00
     3.645E+00    3.748E+00    3.851E+00    3.953E+00    4.054E+00    4.155E+00    4.256E+00    4.357E+00    4.456E+00    4.556E+00
     4.655E+00    4.753E+00    4.852E+00    4.949E+00    5.046E+00    5.143E+00    5.240E+00    5.336E+00    5.431E+00    5.526E+00
     5.621E+00    5.715E+00    5.809E+00    5.903E+00    5.996E+00    6.088E+00    6.180E+00    6.272E+00    6.364E+00    6.455E+00
     6.545E+00    6.635E+00    6.725E+00    6.814E+00    6.903E+00    6.992E+00    7.080E+00    7.168E+00    7.255E+00    7.342E+00
     7.428E+00    7.515E+00    7.600E+00    7.686E+00    7.771E+00    7.855E+00    7.940E+00    8.023E+00    8.107E+00    8.190E+00
     8.273E+00    8.355E+00    8.437E+00    8.519E+00    8.600E+00    8.681E+00    8.761E+00    8.841E+00    8.921E+00    9.001E+00
     9.080E+00    9.158E+00    9.237E+00    9.315E+00    9.392E+00    9.470E+00    9.547E+00    9.623E+00    9.700E+00    9.775E+00
     9.851E+00    9.926E+00    1.000E+01    1.008E+01    1.015E+01    1.022E+01    1.030E+01    1.037E+01    1.044E+01    1.052E+01
     1.059E+01    1.066E+01    1.073E+01    1.080E+01    1.088E+01    1.095E+01    1.102E+01    1.109E+01    1.116E+01    1.123E+01
     1.130E+01    1.137E+01    1.144E+01    1.150E+01    1.157E+01    1.164E+01    1.171E+01    1.178E+01    1.184E+01    1.191E+01
     1.198E+01    1.204E+01    1.211E+01    1.218E+01    1.224E+01    1.231E+01    1.237E+01    1.244E+01    1.250E+01    1.257E+01
     1.263E+01    1.269E+01    1.276E+01    1.282E+01    1.289E+01    1.295E+01    1.301E+01    1.307E+01    1.314E+01    1.320E+01
     1.326E+01    1.332E+01    1.338E+01    1.345E+01    1.351E+01    1.357E+01    1.363E+01    1.369E+01    1.375E+01    1.381E+01
     1.387E+01    1.393E+01    1.399E+01    1.405E+01    1.411E+01    1.417E+01    1.423E+01    1.429E+01    1.435E+01    1.441E+01
     1.446E+01    1.452E+01    1.458E+01    1.464E+01    1.470E+01    1.475E+01    1.481E+01    1.487E+01    1.493E+01    1.498E+01
     1.504E+01    1.510E+01    1.516E+01    1.521E+01    1.527E+01    1.532E+01    1.538E+01    1.544E+01    1.549E+01    1.555E+01
     1.561E+01    1.566E+01    1.572E+01    1.577E+01    1.583E+01    1.588E+01    1.594E+01    1.599E+01    1.605E+01    1.610E+01
     1.616E+01    1.621E+01    1.627E+01    1.632E+01    1.638E+01    1.643E+01    1.649E+01    1.654E+01    1.659E+01    1.665E+01
     1.670E+01    1.676E+01    1.681E+01    1.686E+01    1.692E+01    1.697E+01    1.702E+01    1.708E+01    1.713E+01    1.718E+01
     1.724E+01    1.729E+01    1.734E+01    1.740E+01    1.745E+01    1.750E+01    1.755E+01    1.761E+01    1.766E+01    1.771E+01
     1.776E+01    1.782E+01    1.787E+01    1.792E+01    1.797E+01    1.803E+01    1.808E+01    1.813E+01    1.818E+01    1.823E+01
     1.829E+01    1.834E+01    1.839E+01    1.844E+01    1.849E+01    1.855E+01    1.860E+01    1.865E+01    1.870E+01    1.875E+01
     1.880E+01    1.886E+01    1.891E+01    1.896E+01    1.901E+01    1.906E+01    1.911E+01    1.916E+01    1.922E+01    1.927E+01
     1.932E+01    1.937E+01    1.942E+01    1.947E+01    1.952E+01    1.958E+01    1.963E+01    1.968E+01
 Ala      Conc. = 2.31E+02
