 LCModel (Version 6.3-1L) Copyright: S.W. Provencher.          Ref.: Magn. Reson. Med. 30:672-679 (1993).                
 Slice#1 Row#10 Col#1  PD_05_press_2_raw_act
 36 lines in following concentration table = NCONC+1
    Conc.  %SD /Cr+PCr  Metabolite                                         
 5.20E+04  32%  18.673 Ala                                                 
    0.000 999%   0.000 Asp                                                 
 2.79E+03  31%   1.000 Cr                                                  
    0.000 999%   0.000 PCr                                                 
    0.000 999%   0.000 GABA                                                
    0.000 999%   0.000 Glc                                                 
 7.46E+04  10%  26.772 Gln                                                 
    0.000 999%   0.000 Glu                                                 
 2.79E+03  18%   1.002 GPC                                                 
    0.000 999%   0.000 PCh                                                 
 1.81E+04  12%   6.483 GSH                                                 
 6.29E+04  10%  22.587 Ins                                                 
 3.55E+03 281%   1.274 Lac                                                 
    0.000 999%   0.000 NAA                                                 
    0.000 999%   0.000 NAAG                                                
 1.46E+03  20%   0.526+Scyllo                                              
 1.48E+03 141%   0.531 Tau                                                 
    0.000 999%   0.000 -CrCH2                                              
 2.79E+03  18%   1.002 GPC+PCh                                             
    0.000 999%   0.000 NAA+NAAG                                            
 2.79E+03  31%   1.000 Cr+PCr                                              
 7.46E+04  10%  26.772 Glu+Gln                                             
 2.47E+04  55%   8.868 Lip13a                                              
    0.000 999%   0.000 Lip13b                                              
 1.29E+04  37%   4.629 Lip09                                               
 1.27E+04  27%   4.541 MM09                                                
    0.000 999%   0.000 Lip20                                               
 1.30E+05   8%  46.817+MM20                                                
 1.25E+04  41%   4.496 MM12                                                
 6.27E+04  21%  22.514 MM14                                                
 6.40E+04   7%  22.970+MM17                                                
 2.47E+04  55%   8.868 Lip13a+Lip13b                                       
 1.00E+05  17%  35.878 MM14+Lip13a+Lip13b+MM12                             
 2.55E+04  23%   9.169 MM09+Lip09                                          
 1.30E+05   7%  46.817 MM20+Lip20                                          
   6 lines in following misc. output table
  FWHM = 0.153 ppm    S/N =  19                                            
  Data shift = 0.191 ppm                                                   
  Ph:-118 deg      50.7 deg/ppm                                            
  alphaB,S = 5.1E+00,   6.0E+02                                            
    6 spline knots.   Ns = 9(2)                                            
  ( 7) 2 infls.   ( 1) 1 extrs.                                            
  498 points on ppm-axis = NY
      4.000000     3.992357     3.984714     3.977070     3.969427     3.961784     3.954141     3.946497     3.938854     3.931211
      3.923568     3.915925     3.908281     3.900638     3.892995     3.885352     3.877708     3.870065     3.862422     3.854779
      3.847136     3.839492     3.831849     3.824206     3.816563     3.808919     3.801276     3.793633     3.785990     3.778347
      3.770703     3.763060     3.755417     3.747774     3.740130     3.732487     3.724844     3.717201     3.709558     3.701914
      3.694271     3.686628     3.678985     3.671341     3.663698     3.656055     3.648412     3.640769     3.633125     3.625482
      3.617839     3.610196     3.602552     3.594909     3.587266     3.579623     3.571980     3.564336     3.556693     3.549050
      3.541407     3.533763     3.526120     3.518477     3.510834     3.503191     3.495547     3.487904     3.480261     3.472618
      3.464974     3.457331     3.449688     3.442045     3.434402     3.426758     3.419115     3.411472     3.403829     3.396185
      3.388542     3.380899     3.373256     3.365613     3.357969     3.350326     3.342683     3.335040     3.327396     3.319753
      3.312110     3.304467     3.296824     3.289180     3.281537     3.273894     3.266251     3.258607     3.250964     3.243321
      3.235678     3.228034     3.220391     3.212748     3.205105     3.197462     3.189818     3.182175     3.174532     3.166889
      3.159245     3.151602     3.143959     3.136316     3.128673     3.121029     3.113386     3.105743     3.098100     3.090456
      3.082813     3.075170     3.067527     3.059884     3.052240     3.044597     3.036954     3.029311     3.021667     3.014024
      3.006381     2.998738     2.991095     2.983451     2.975808     2.968165     2.960522     2.952878     2.945235     2.937592
      2.929949     2.922306     2.914662     2.907019     2.899376     2.891733     2.884089     2.876446     2.868803     2.861160
      2.853517     2.845873     2.838230     2.830587     2.822944     2.815300     2.807657     2.800014     2.792371     2.784728
      2.777084     2.769441     2.761798     2.754155     2.746511     2.738868     2.731225     2.723582     2.715939     2.708295
      2.700652     2.693009     2.685366     2.677722     2.670079     2.662436     2.654793     2.647150     2.639506     2.631863
      2.624220     2.616577     2.608933     2.601290     2.593647     2.586004     2.578361     2.570717     2.563074     2.555431
      2.547788     2.540144     2.532501     2.524858     2.517215     2.509572     2.501928     2.494285     2.486642     2.478999
      2.471355     2.463712     2.456069     2.448426     2.440783     2.433139     2.425496     2.417853     2.410210     2.402566
      2.394923     2.387280     2.379637     2.371994     2.364350     2.356707     2.349064     2.341421     2.333777     2.326134
      2.318491     2.310848     2.303205     2.295561     2.287918     2.280275     2.272632     2.264988     2.257345     2.249702
      2.242059     2.234416     2.226772     2.219129     2.211486     2.203843     2.196199     2.188556     2.180913     2.173270
      2.165627     2.157983     2.150340     2.142697     2.135054     2.127410     2.119767     2.112124     2.104481     2.096838
      2.089194     2.081551     2.073908     2.066265     2.058621     2.050978     2.043335     2.035692     2.028049     2.020405
      2.012762     2.005119     1.997476     1.989833     1.982190     1.974546     1.966903     1.959260     1.951617     1.943974
      1.936331     1.928688     1.921045     1.913402     1.905759     1.898115     1.890472     1.882829     1.875186     1.867543
      1.859900     1.852257     1.844614     1.836971     1.829327     1.821684     1.814041     1.806398     1.798755     1.791112
      1.783469     1.775826     1.768183     1.760540     1.752896     1.745253     1.737610     1.729967     1.722324     1.714681
      1.707038     1.699395     1.691752     1.684108     1.676465     1.668822     1.661179     1.653536     1.645893     1.638250
      1.630607     1.622964     1.615321     1.607677     1.600034     1.592391     1.584748     1.577105     1.569462     1.561819
      1.554176     1.546533     1.538890     1.531246     1.523603     1.515960     1.508317     1.500674     1.493031     1.485388
      1.477745     1.470102     1.462458     1.454815     1.447172     1.439529     1.431886     1.424243     1.416600     1.408957
      1.401314     1.393671     1.386027     1.378384     1.370741     1.363098     1.355455     1.347812     1.340169     1.332526
      1.324883     1.317240     1.309596     1.301953     1.294310     1.286667     1.279024     1.271381     1.263738     1.256095
      1.248452     1.240808     1.233165     1.225522     1.217879     1.210236     1.202593     1.194950     1.187307     1.179664
      1.172021     1.164377     1.156734     1.149091     1.141448     1.133805     1.126162     1.118519     1.110876     1.103233
      1.095590     1.087946     1.080303     1.072660     1.065017     1.057374     1.049731     1.042088     1.034445     1.026802
      1.019158     1.011515     1.003872     0.996229     0.988586     0.980943     0.973300     0.965657     0.958014     0.950371
      0.942727     0.935084     0.927441     0.919798     0.912155     0.904512     0.896869     0.889226     0.881583     0.873940
      0.866296     0.858653     0.851010     0.843367     0.835724     0.828081     0.820438     0.812795     0.805152     0.797508
      0.789865     0.782222     0.774579     0.766936     0.759293     0.751650     0.744007     0.736364     0.728721     0.721077
      0.713434     0.705791     0.698148     0.690505     0.682862     0.675219     0.667576     0.659933     0.652290     0.644646
      0.637003     0.629360     0.621717     0.614074     0.606431     0.598788     0.591145     0.583502     0.575858     0.568215
      0.560572     0.552929     0.545286     0.537643     0.530000     0.522357     0.514714     0.507071     0.499427     0.491784
      0.484141     0.476498     0.468855     0.461212     0.453569     0.445925     0.438282     0.430639     0.422996     0.415353
      0.407710     0.400067     0.392424     0.384780     0.377137     0.369494     0.361851     0.354208     0.346565     0.338922
      0.331278     0.323635     0.315992     0.308349     0.300706     0.293063     0.285420     0.277777     0.270133     0.262490
      0.254847     0.247204     0.239561     0.231918     0.224275     0.216631     0.208988     0.201345
 NY phased data points follow
  -8.04108E+00 -1.26144E+01 -9.32893E+00 -9.34909E+00 -9.78688E+00 -8.84621E+00 -1.38993E+01 -1.47553E+01 -1.20869E+01 -9.72299E+00
  -1.65271E+01 -8.99472E+00 -1.50278E+01 -1.33541E+01 -1.56908E+01 -1.28707E+01 -1.68636E+01 -1.85696E+01 -1.82487E+01 -1.91295E+01
  -1.47779E+01 -1.68227E+01 -1.82598E+01 -1.75119E+01 -2.26524E+01 -1.83831E+01 -1.62511E+01 -1.63020E+01 -2.17031E+01 -2.49655E+01
  -1.99598E+01 -2.03285E+01 -2.69335E+01 -2.68228E+01 -2.53975E+01 -2.78359E+01 -2.59662E+01 -2.81775E+01 -3.08802E+01 -2.83036E+01
  -3.16692E+01 -3.07473E+01 -3.21608E+01 -2.90100E+01 -3.16235E+01 -3.31517E+01 -3.10558E+01 -3.35561E+01 -3.50721E+01 -3.34122E+01
  -3.66984E+01 -3.61936E+01 -3.73832E+01 -3.86965E+01 -4.04331E+01 -4.28110E+01 -3.92868E+01 -4.17452E+01 -4.20271E+01 -4.37915E+01
  -4.51012E+01 -4.67301E+01 -4.49826E+01 -4.96450E+01 -4.89140E+01 -4.59183E+01 -4.90548E+01 -5.03762E+01 -4.74853E+01 -5.62938E+01
  -5.39832E+01 -5.46660E+01 -5.52345E+01 -5.38268E+01 -5.45152E+01 -6.03307E+01 -6.14973E+01 -5.93642E+01 -6.08149E+01 -6.51616E+01
  -6.77649E+01 -6.62612E+01 -6.42229E+01 -6.74997E+01 -6.59433E+01 -7.18359E+01 -7.41224E+01 -7.63968E+01 -7.80832E+01 -8.27739E+01
  -7.79577E+01 -8.13054E+01 -8.63850E+01 -8.86148E+01 -8.79643E+01 -9.51257E+01 -9.34997E+01 -8.73378E+01 -9.51020E+01 -9.84245E+01
  -1.00253E+02 -1.05694E+02 -1.09492E+02 -1.12517E+02 -1.12638E+02 -1.12878E+02 -1.18630E+02 -1.16115E+02 -1.18163E+02 -1.16262E+02
  -1.20045E+02 -1.16408E+02 -1.18696E+02 -1.19254E+02 -1.16419E+02 -1.11750E+02 -1.20510E+02 -1.14409E+02 -1.14918E+02 -1.13748E+02
  -1.08606E+02 -1.06794E+02 -1.10622E+02 -1.09644E+02 -1.06427E+02 -1.03386E+02 -1.09066E+02 -1.03221E+02 -1.04646E+02 -1.04574E+02
  -1.09788E+02 -1.04448E+02 -1.08913E+02 -1.08680E+02 -1.07626E+02 -1.13215E+02 -1.12622E+02 -1.09168E+02 -1.12934E+02 -1.10535E+02
  -1.13929E+02 -1.19521E+02 -1.23150E+02 -1.22897E+02 -1.27827E+02 -1.22737E+02 -1.25994E+02 -1.26866E+02 -1.27387E+02 -1.36539E+02
  -1.39224E+02 -1.46333E+02 -1.45276E+02 -1.49590E+02 -1.58685E+02 -1.56796E+02 -1.62050E+02 -1.64485E+02 -1.72857E+02 -1.74875E+02
  -1.83986E+02 -1.81900E+02 -1.89990E+02 -2.00101E+02 -2.00456E+02 -2.05720E+02 -2.10200E+02 -2.11298E+02 -2.19320E+02 -2.20002E+02
  -2.22839E+02 -2.27278E+02 -2.31561E+02 -2.26683E+02 -2.29066E+02 -2.31465E+02 -2.26317E+02 -2.29074E+02 -2.21966E+02 -2.20192E+02
  -2.18359E+02 -2.13370E+02 -2.09588E+02 -2.10637E+02 -2.01208E+02 -1.97317E+02 -2.02377E+02 -1.89248E+02 -1.89164E+02 -1.85519E+02
  -1.84824E+02 -1.81272E+02 -1.72421E+02 -1.68179E+02 -1.63186E+02 -1.56144E+02 -1.52971E+02 -1.48608E+02 -1.40630E+02 -1.35845E+02
  -1.31490E+02 -1.17384E+02 -1.09630E+02 -9.81216E+01 -8.71707E+01 -8.08493E+01 -7.24373E+01 -5.20679E+01 -4.25757E+01 -3.06726E+01
  -1.62404E+01 -3.54771E+00  8.80553E+00  2.45176E+01  3.69328E+01  4.86605E+01  5.90941E+01  7.39689E+01  8.03042E+01  8.97091E+01
   9.63148E+01  1.00878E+02  1.09883E+02  1.13803E+02  1.20698E+02  1.26111E+02  1.27028E+02  1.32839E+02  1.30102E+02  1.38594E+02
   1.36845E+02  1.34258E+02  1.31669E+02  1.30818E+02  1.29558E+02  1.28550E+02  1.25348E+02  1.25383E+02  1.28031E+02  1.26357E+02
   1.21626E+02  1.23965E+02  1.19006E+02  1.15877E+02  1.12637E+02  1.03225E+02  1.03995E+02  9.92707E+01  9.63054E+01  9.62672E+01
   8.59169E+01  7.89199E+01  7.41481E+01  7.14407E+01  6.98195E+01  6.55703E+01  6.30080E+01  5.66450E+01  5.11965E+01  4.59089E+01
   3.65567E+01  3.63419E+01  2.99426E+01  2.13440E+01  1.27408E+01  1.07528E+01  3.92988E+00 -6.43255E-01 -6.96462E+00 -1.81200E+01
  -2.38130E+01 -2.98869E+01 -3.62391E+01 -4.21718E+01 -4.59346E+01 -5.37848E+01 -6.21601E+01 -6.37874E+01 -7.25237E+01 -7.21982E+01
  -8.05064E+01 -8.70313E+01 -8.74739E+01 -9.46713E+01 -9.12877E+01 -9.63114E+01 -8.61077E+01 -8.67824E+01 -8.43621E+01 -7.78531E+01
  -6.78370E+01 -4.97136E+01 -4.09563E+01 -2.04515E+01  8.68842E+00  2.90178E+01  6.43919E+01  1.01971E+02  1.40939E+02  1.83643E+02
   2.33717E+02  2.78164E+02  3.24839E+02  3.74053E+02  4.21516E+02  4.66755E+02  5.11880E+02  5.49735E+02  5.79116E+02  6.18340E+02
   6.39836E+02  6.54942E+02  6.64602E+02  6.74003E+02  6.72790E+02  6.64067E+02  6.52820E+02  6.38243E+02  6.23903E+02  6.05115E+02
   5.73710E+02  5.56160E+02  5.26789E+02  5.08042E+02  4.81456E+02  4.52054E+02  4.27959E+02  4.12684E+02  3.82754E+02  3.64960E+02
   3.44309E+02  3.20852E+02  3.06309E+02  2.93138E+02  2.72855E+02  2.57956E+02  2.38278E+02  2.27375E+02  2.11816E+02  2.02431E+02
   1.87581E+02  1.80205E+02  1.69565E+02  1.59194E+02  1.50791E+02  1.46919E+02  1.32622E+02  1.30340E+02  1.23463E+02  1.15915E+02
   1.10472E+02  1.08796E+02  1.01283E+02  9.62161E+01  9.66781E+01  9.06573E+01  8.47716E+01  8.44839E+01  8.20830E+01  8.33952E+01
   8.18538E+01  7.85809E+01  7.82428E+01  7.36237E+01  7.10663E+01  7.04540E+01  6.93974E+01  6.87258E+01  6.62810E+01  7.09458E+01
   6.35207E+01  6.85870E+01  6.20766E+01  6.27153E+01  6.20200E+01  6.17814E+01  6.64193E+01  6.02194E+01  5.81542E+01  5.39880E+01
   5.18126E+01  5.43033E+01  4.50315E+01  4.67950E+01  4.16619E+01  3.95507E+01  3.63738E+01  3.94315E+01  3.71356E+01  3.56760E+01
   3.41755E+01  3.56246E+01  3.61067E+01  2.93681E+01  2.53901E+01  2.67214E+01  2.60447E+01  2.63666E+01  2.43862E+01  2.27700E+01
   1.91920E+01  1.88468E+01  1.87850E+01  1.45023E+01  1.60469E+01  1.07369E+01  1.35828E+01  1.03716E+01  7.80008E+00  1.14387E+01
   7.34440E+00  6.52605E+00  8.04447E+00  5.65064E+00  2.73418E+00  5.62289E+00 -4.83136E-01  3.27982E+00  2.41834E+00  7.00539E-01
   4.66493E-01  5.92150E+00 -1.29828E+00  3.77884E-01  1.73107E-01 -2.74966E+00 -5.19210E+00 -2.61573E+00 -1.97294E+00 -6.91266E-01
  -8.32400E+00 -2.50705E+00 -4.29347E+00 -6.12995E+00 -6.52011E+00 -9.84262E+00 -9.53827E+00 -6.23176E+00 -9.45888E+00 -9.74664E+00
  -8.59899E+00 -1.12221E+01 -1.20721E+01 -8.27356E+00 -9.61265E+00 -1.28529E+01 -1.30462E+01 -1.41850E+01 -1.35488E+01 -1.47484E+01
  -1.28134E+01 -1.60486E+01 -1.59937E+01 -1.67655E+01 -1.60967E+01 -2.31213E+01 -2.35676E+01 -1.84457E+01 -1.54111E+01 -1.99254E+01
  -2.18767E+01 -2.35162E+01 -2.04463E+01 -1.92847E+01 -2.03972E+01 -1.71144E+01 -1.91761E+01 -2.21235E+01 -2.09045E+01 -2.28261E+01
  -2.03351E+01 -2.00593E+01 -1.99569E+01 -2.46338E+01 -2.28706E+01 -2.19731E+01 -2.10965E+01 -2.16925E+01 -2.29236E+01 -2.22274E+01
  -2.40963E+01 -2.26443E+01 -1.98492E+01 -2.28957E+01 -2.33042E+01 -2.25012E+01 -2.50560E+01 -2.73744E+01 -2.28142E+01 -2.49028E+01
  -2.76752E+01 -2.69735E+01 -2.89871E+01 -2.57687E+01 -2.39618E+01 -2.21351E+01 -2.06250E+01 -2.48992E+01
 NY points of the fit to the data follow
  -8.06987E+00 -5.93722E+00 -6.07409E+00 -5.35027E+00 -7.92138E+00 -1.06343E+01 -1.68328E+01 -2.05545E+01 -3.17561E+01 -3.39627E+01
  -3.88377E+01 -3.48493E+01 -3.80091E+01 -3.40888E+01 -3.89926E+01 -3.43638E+01 -3.92208E+01 -3.39148E+01 -3.45333E+01 -2.77506E+01
  -2.55422E+01 -1.78856E+01 -1.41650E+01 -1.02362E+01 -4.88663E+00 -3.86808E+00  2.79651E+00  5.17231E-01  5.76377E+00 -1.08798E+00
   2.53953E+00 -7.83838E+00 -5.51417E+00 -1.79232E+01 -1.66919E+01 -2.82910E+01 -2.19164E+01 -2.96948E+01 -2.30421E+01 -3.13446E+01
  -2.60633E+01 -3.35764E+01 -2.79298E+01 -3.39407E+01 -2.82655E+01 -3.40037E+01 -3.04633E+01 -3.50194E+01 -3.17604E+01 -3.39244E+01
  -2.55167E+01 -2.52198E+01 -1.95547E+01 -2.26641E+01 -2.15212E+01 -2.61664E+01 -2.65367E+01 -3.19178E+01 -3.12294E+01 -3.69842E+01
  -3.57950E+01 -4.14841E+01 -4.18344E+01 -4.80743E+01 -4.87825E+01 -5.42604E+01 -5.42694E+01 -5.77799E+01 -5.64111E+01 -5.89543E+01
  -5.74948E+01 -5.94650E+01 -5.86267E+01 -6.00970E+01 -5.90834E+01 -5.95313E+01 -5.70651E+01 -5.74109E+01 -5.80853E+01 -6.12356E+01
  -6.48022E+01 -6.94842E+01 -7.49801E+01 -7.84510E+01 -8.04213E+01 -8.26954E+01 -8.45806E+01 -8.71502E+01 -8.78805E+01 -8.97983E+01
  -8.91200E+01 -9.09090E+01 -8.99581E+01 -9.23468E+01 -9.12512E+01 -9.42634E+01 -9.31346E+01 -9.67221E+01 -9.55314E+01 -9.98657E+01
  -9.87614E+01 -1.02967E+02 -1.02663E+02 -1.06884E+02 -1.07352E+02 -1.11128E+02 -1.12294E+02 -1.15323E+02 -1.15748E+02 -1.16305E+02
  -1.17432E+02 -1.16151E+02 -1.17365E+02 -1.13009E+02 -1.13406E+02 -1.08729E+02 -1.10928E+02 -1.06926E+02 -1.10915E+02 -1.06446E+02
  -1.10368E+02 -1.04942E+02 -1.06801E+02 -1.00882E+02 -9.89249E+01 -9.48311E+01 -9.29907E+01 -9.23437E+01 -9.05094E+01 -9.28535E+01
  -9.06352E+01 -9.59190E+01 -9.33001E+01 -1.01195E+02 -9.81144E+01 -1.08132E+02 -1.04751E+02 -1.16135E+02 -1.12690E+02 -1.24761E+02
  -1.21568E+02 -1.33626E+02 -1.30704E+02 -1.42207E+02 -1.39665E+02 -1.50308E+02 -1.48414E+02 -1.57944E+02 -1.56540E+02 -1.63857E+02
  -1.63224E+02 -1.68892E+02 -1.68591E+02 -1.72165E+02 -1.71950E+02 -1.75253E+02 -1.76278E+02 -1.79307E+02 -1.81207E+02 -1.83289E+02
  -1.84886E+02 -1.85900E+02 -1.86712E+02 -1.87400E+02 -1.87884E+02 -1.89031E+02 -1.89386E+02 -1.90796E+02 -1.90962E+02 -1.92129E+02
  -1.91199E+02 -1.91435E+02 -1.89495E+02 -1.90519E+02 -1.88762E+02 -1.92123E+02 -1.91720E+02 -1.97253E+02 -1.98404E+02 -2.03237E+02
  -2.02206E+02 -2.03206E+02 -1.99942E+02 -1.98615E+02 -1.92761E+02 -1.89881E+02 -1.83785E+02 -1.81166E+02 -1.78599E+02 -1.82232E+02
  -1.79321E+02 -1.81549E+02 -1.76656E+02 -1.77566E+02 -1.71348E+02 -1.72381E+02 -1.65430E+02 -1.66661E+02 -1.58587E+02 -1.58727E+02
  -1.48681E+02 -1.46300E+02 -1.33828E+02 -1.28597E+02 -1.14085E+02 -1.06679E+02 -9.09170E+01 -8.15912E+01 -6.51575E+01 -5.39017E+01
  -3.68802E+01 -2.46982E+01 -8.45750E+00  3.92572E+00  1.71356E+01  2.48973E+01  3.62508E+01  4.36614E+01  5.57587E+01  6.45135E+01
   8.03276E+01  8.91458E+01  1.02567E+02  1.09214E+02  1.19249E+02  1.23506E+02  1.29951E+02  1.31268E+02  1.32356E+02  1.29554E+02
   1.29739E+02  1.29825E+02  1.28822E+02  1.30848E+02  1.28116E+02  1.31375E+02  1.26710E+02  1.31427E+02  1.24601E+02  1.30872E+02
   1.22465E+02  1.29915E+02  1.19714E+02  1.27524E+02  1.15271E+02  1.22806E+02  1.08938E+02  1.16105E+02  1.01569E+02  1.08283E+02
   9.36444E+01  9.91150E+01  8.39456E+01  8.80544E+01  7.20700E+01  7.28833E+01  5.82142E+01  5.93272E+01  4.75975E+01  4.83108E+01
   3.91272E+01  3.80575E+01  2.76581E+01  2.46121E+01  1.35021E+01  8.83757E+00 -1.52631E+00 -6.77940E+00 -1.60749E+01 -2.11507E+01
  -2.81831E+01 -3.26513E+01 -3.81844E+01 -4.24119E+01 -4.68979E+01 -5.11316E+01 -5.50966E+01 -5.90553E+01 -6.27637E+01 -6.61134E+01
  -6.90674E+01 -7.15431E+01 -7.35036E+01 -7.48121E+01 -7.53614E+01 -7.50037E+01 -7.35375E+01 -7.07431E+01 -6.63318E+01 -6.00107E+01
  -5.14117E+01 -4.01902E+01 -2.59522E+01 -8.36615E+00  1.29064E+01  3.80909E+01  6.73382E+01  1.00631E+02  1.37817E+02  1.78551E+02
   2.22301E+02  2.68365E+02  3.15887E+02  3.63922E+02  4.11478E+02  4.57659E+02  5.01784E+02  5.43782E+02  5.85037E+02  6.25350E+02
   6.49289E+02  6.74862E+02  6.79294E+02  6.89597E+02  6.75694E+02  6.71557E+02  6.40175E+02  6.36599E+02  6.01835E+02  5.97499E+02
   5.60051E+02  5.53269E+02  5.14604E+02  5.06085E+02  4.69007E+02  4.59585E+02  4.26643E+02  4.16066E+02  3.88770E+02  3.76223E+02
   3.52932E+02  3.36490E+02  3.16579E+02  2.96109E+02  2.79426E+02  2.55729E+02  2.42911E+02  2.19587E+02  2.11133E+02  1.89711E+02
   1.84747E+02  1.65731E+02  1.62944E+02  1.46158E+02  1.44434E+02  1.30559E+02  1.30526E+02  1.22010E+02  1.24905E+02  1.23534E+02
   1.21540E+02  1.18555E+02  1.12929E+02  1.08620E+02  9.95286E+01  9.42688E+01  8.30456E+01  8.41736E+01  7.82861E+01  8.11358E+01
   7.71113E+01  7.98252E+01  7.65727E+01  7.83564E+01  7.53902E+01  7.59689E+01  7.31854E+01  7.27355E+01  7.02014E+01  6.91139E+01
   6.61886E+01  6.41601E+01  6.11679E+01  5.85629E+01  5.57652E+01  5.29895E+01  5.07427E+01  4.88815E+01  4.73530E+01  4.61344E+01
   4.52013E+01  4.45216E+01  4.40520E+01  4.37411E+01  4.35298E+01  4.33554E+01  4.31545E+01  4.28667E+01  4.24377E+01  4.18227E+01
   4.09882E+01  3.99143E+01  3.85945E+01  3.70360E+01  3.52589E+01  3.32943E+01  3.11823E+01  2.89694E+01  2.67054E+01  2.44410E+01
   2.22250E+01  2.01020E+01  1.81106E+01  1.62819E+01  1.46387E+01  1.31945E+01  1.19544E+01  1.09153E+01  1.00662E+01  9.38968E+00
   8.86317E+00  8.45994E+00  8.15076E+00  7.90510E+00  7.69238E+00  7.48303E+00  7.24952E+00  6.96726E+00  6.61518E+00  6.17631E+00
   5.63774E+00  4.99108E+00  4.23212E+00  3.36093E+00  2.38123E+00  1.30027E+00  1.27847E-01 -1.12374E+00 -2.44067E+00 -3.80790E+00
  -5.20982E+00 -6.63090E+00 -8.05592E+00 -9.47071E+00 -1.08618E+01 -1.22176E+01 -1.35274E+01 -1.47827E+01 -1.59760E+01 -1.71021E+01
  -1.81564E+01 -1.91367E+01 -2.00409E+01 -2.08690E+01 -2.16214E+01 -2.22996E+01 -2.29052E+01 -2.34410E+01 -2.39097E+01 -2.43144E+01
  -2.46585E+01 -2.49453E+01 -2.51782E+01 -2.53605E+01 -2.54957E+01 -2.55868E+01 -2.56372E+01 -2.56494E+01 -2.56267E+01 -2.55711E+01
  -2.54858E+01 -2.53725E+01 -2.52340E+01 -2.50717E+01 -2.48880E+01 -2.46843E+01 -2.44627E+01 -2.42243E+01 -2.39709E+01 -2.37034E+01
  -2.34235E+01 -2.31319E+01 -2.28301E+01 -2.25189E+01 -2.21992E+01 -2.18718E+01 -2.15378E+01 -2.11976E+01 -2.08521E+01 -2.05019E+01
  -2.01476E+01 -1.97897E+01 -1.94289E+01 -1.90654E+01 -1.86999E+01 -1.83326E+01 -1.79638E+01 -1.75939E+01 -1.72232E+01 -1.68518E+01
  -1.64798E+01 -1.61072E+01 -1.57340E+01 -1.53598E+01 -1.49841E+01 -1.46060E+01 -1.42239E+01 -1.38350E+01
 NY background values follow
    -2.464E+02   -2.466E+02   -2.467E+02   -2.468E+02   -2.469E+02   -2.470E+02   -2.470E+02   -2.471E+02   -2.472E+02   -2.472E+02
    -2.473E+02   -2.474E+02   -2.474E+02   -2.474E+02   -2.475E+02   -2.475E+02   -2.475E+02   -2.475E+02   -2.475E+02   -2.475E+02
    -2.475E+02   -2.475E+02   -2.475E+02   -2.475E+02   -2.474E+02   -2.474E+02   -2.473E+02   -2.473E+02   -2.472E+02   -2.472E+02
    -2.471E+02   -2.470E+02   -2.470E+02   -2.469E+02   -2.468E+02   -2.467E+02   -2.466E+02   -2.465E+02   -2.464E+02   -2.463E+02
    -2.462E+02   -2.460E+02   -2.459E+02   -2.458E+02   -2.456E+02   -2.455E+02   -2.453E+02   -2.452E+02   -2.450E+02   -2.449E+02
    -2.447E+02   -2.445E+02   -2.444E+02   -2.442E+02   -2.440E+02   -2.438E+02   -2.436E+02   -2.434E+02   -2.432E+02   -2.430E+02
    -2.428E+02   -2.426E+02   -2.424E+02   -2.422E+02   -2.419E+02   -2.417E+02   -2.415E+02   -2.412E+02   -2.410E+02   -2.408E+02
    -2.405E+02   -2.403E+02   -2.400E+02   -2.398E+02   -2.395E+02   -2.392E+02   -2.390E+02   -2.387E+02   -2.384E+02   -2.382E+02
    -2.379E+02   -2.376E+02   -2.373E+02   -2.370E+02   -2.367E+02   -2.364E+02   -2.362E+02   -2.359E+02   -2.356E+02   -2.353E+02
    -2.350E+02   -2.346E+02   -2.343E+02   -2.340E+02   -2.337E+02   -2.334E+02   -2.331E+02   -2.328E+02   -2.324E+02   -2.321E+02
    -2.318E+02   -2.315E+02   -2.311E+02   -2.308E+02   -2.305E+02   -2.302E+02   -2.298E+02   -2.295E+02   -2.291E+02   -2.288E+02
    -2.285E+02   -2.281E+02   -2.278E+02   -2.274E+02   -2.271E+02   -2.268E+02   -2.264E+02   -2.261E+02   -2.257E+02   -2.254E+02
    -2.250E+02   -2.247E+02   -2.243E+02   -2.240E+02   -2.236E+02   -2.233E+02   -2.229E+02   -2.225E+02   -2.222E+02   -2.218E+02
    -2.215E+02   -2.211E+02   -2.208E+02   -2.204E+02   -2.201E+02   -2.197E+02   -2.194E+02   -2.190E+02   -2.186E+02   -2.183E+02
    -2.179E+02   -2.176E+02   -2.172E+02   -2.169E+02   -2.165E+02   -2.162E+02   -2.158E+02   -2.155E+02   -2.151E+02   -2.148E+02
    -2.144E+02   -2.141E+02   -2.137E+02   -2.134E+02   -2.130E+02   -2.127E+02   -2.124E+02   -2.120E+02   -2.117E+02   -2.113E+02
    -2.110E+02   -2.107E+02   -2.103E+02   -2.100E+02   -2.097E+02   -2.093E+02   -2.090E+02   -2.087E+02   -2.084E+02   -2.080E+02
    -2.077E+02   -2.074E+02   -2.071E+02   -2.068E+02   -2.065E+02   -2.061E+02   -2.058E+02   -2.055E+02   -2.052E+02   -2.049E+02
    -2.046E+02   -2.043E+02   -2.040E+02   -2.037E+02   -2.034E+02   -2.031E+02   -2.028E+02   -2.025E+02   -2.022E+02   -2.019E+02
    -2.016E+02   -2.013E+02   -2.010E+02   -2.007E+02   -2.004E+02   -2.001E+02   -1.998E+02   -1.995E+02   -1.992E+02   -1.989E+02
    -1.986E+02   -1.983E+02   -1.980E+02   -1.978E+02   -1.975E+02   -1.972E+02   -1.969E+02   -1.966E+02   -1.963E+02   -1.960E+02
    -1.957E+02   -1.954E+02   -1.951E+02   -1.948E+02   -1.945E+02   -1.942E+02   -1.939E+02   -1.936E+02   -1.933E+02   -1.931E+02
    -1.928E+02   -1.925E+02   -1.922E+02   -1.919E+02   -1.916E+02   -1.913E+02   -1.910E+02   -1.907E+02   -1.904E+02   -1.900E+02
    -1.897E+02   -1.894E+02   -1.891E+02   -1.888E+02   -1.885E+02   -1.882E+02   -1.879E+02   -1.876E+02   -1.873E+02   -1.869E+02
    -1.866E+02   -1.863E+02   -1.860E+02   -1.857E+02   -1.853E+02   -1.850E+02   -1.847E+02   -1.844E+02   -1.840E+02   -1.837E+02
    -1.834E+02   -1.830E+02   -1.827E+02   -1.823E+02   -1.820E+02   -1.816E+02   -1.813E+02   -1.809E+02   -1.806E+02   -1.802E+02
    -1.799E+02   -1.795E+02   -1.792E+02   -1.788E+02   -1.784E+02   -1.781E+02   -1.777E+02   -1.773E+02   -1.769E+02   -1.766E+02
    -1.762E+02   -1.758E+02   -1.754E+02   -1.750E+02   -1.746E+02   -1.742E+02   -1.738E+02   -1.734E+02   -1.730E+02   -1.726E+02
    -1.722E+02   -1.718E+02   -1.713E+02   -1.709E+02   -1.705E+02   -1.701E+02   -1.696E+02   -1.692E+02   -1.688E+02   -1.683E+02
    -1.679E+02   -1.674E+02   -1.670E+02   -1.665E+02   -1.660E+02   -1.656E+02   -1.651E+02   -1.646E+02   -1.641E+02   -1.637E+02
    -1.632E+02   -1.627E+02   -1.622E+02   -1.617E+02   -1.612E+02   -1.607E+02   -1.602E+02   -1.596E+02   -1.591E+02   -1.586E+02
    -1.581E+02   -1.575E+02   -1.570E+02   -1.564E+02   -1.559E+02   -1.553E+02   -1.548E+02   -1.542E+02   -1.536E+02   -1.531E+02
    -1.525E+02   -1.519E+02   -1.513E+02   -1.507E+02   -1.501E+02   -1.495E+02   -1.489E+02   -1.483E+02   -1.477E+02   -1.470E+02
    -1.464E+02   -1.458E+02   -1.451E+02   -1.445E+02   -1.438E+02   -1.432E+02   -1.425E+02   -1.418E+02   -1.412E+02   -1.405E+02
    -1.398E+02   -1.391E+02   -1.384E+02   -1.377E+02   -1.370E+02   -1.363E+02   -1.356E+02   -1.349E+02   -1.342E+02   -1.335E+02
    -1.327E+02   -1.320E+02   -1.313E+02   -1.305E+02   -1.298E+02   -1.290E+02   -1.283E+02   -1.275E+02   -1.268E+02   -1.260E+02
    -1.252E+02   -1.245E+02   -1.237E+02   -1.229E+02   -1.221E+02   -1.213E+02   -1.206E+02   -1.198E+02   -1.190E+02   -1.182E+02
    -1.174E+02   -1.166E+02   -1.158E+02   -1.150E+02   -1.142E+02   -1.134E+02   -1.126E+02   -1.118E+02   -1.110E+02   -1.101E+02
    -1.093E+02   -1.085E+02   -1.077E+02   -1.069E+02   -1.060E+02   -1.052E+02   -1.044E+02   -1.036E+02   -1.027E+02   -1.019E+02
    -1.011E+02   -1.002E+02   -9.941E+01   -9.858E+01   -9.774E+01   -9.691E+01   -9.607E+01   -9.524E+01   -9.440E+01   -9.357E+01
    -9.273E+01   -9.189E+01   -9.106E+01   -9.022E+01   -8.939E+01   -8.855E+01   -8.771E+01   -8.688E+01   -8.604E+01   -8.521E+01
    -8.437E+01   -8.354E+01   -8.271E+01   -8.187E+01   -8.104E+01   -8.021E+01   -7.938E+01   -7.856E+01   -7.773E+01   -7.690E+01
    -7.608E+01   -7.526E+01   -7.443E+01   -7.361E+01   -7.280E+01   -7.198E+01   -7.117E+01   -7.035E+01   -6.954E+01   -6.873E+01
    -6.793E+01   -6.712E+01   -6.632E+01   -6.552E+01   -6.472E+01   -6.393E+01   -6.314E+01   -6.235E+01   -6.156E+01   -6.077E+01
    -5.999E+01   -5.922E+01   -5.844E+01   -5.767E+01   -5.690E+01   -5.613E+01   -5.537E+01   -5.461E+01   -5.386E+01   -5.311E+01
    -5.236E+01   -5.161E+01   -5.087E+01   -5.014E+01   -4.941E+01   -4.868E+01   -4.795E+01   -4.723E+01   -4.652E+01   -4.581E+01
    -4.510E+01   -4.440E+01   -4.370E+01   -4.301E+01   -4.232E+01   -4.164E+01   -4.096E+01   -4.028E+01   -3.962E+01   -3.895E+01
    -3.830E+01   -3.764E+01   -3.700E+01   -3.636E+01   -3.572E+01   -3.509E+01   -3.446E+01   -3.385E+01   -3.323E+01   -3.263E+01
    -3.203E+01   -3.143E+01   -3.084E+01   -3.026E+01   -2.968E+01   -2.911E+01   -2.855E+01   -2.799E+01   -2.744E+01   -2.690E+01
    -2.637E+01   -2.584E+01   -2.531E+01   -2.480E+01   -2.429E+01   -2.379E+01   -2.330E+01   -2.281E+01
 Ala      Conc. = 5.20E+04
