 LCModel (Version 6.3-1L) Copyright: S.W. Provencher.          Ref.: Magn. Reson. Med. 30:672-679 (1993).                
 Slice#2 Row#7 Col#4  PD_05_press_2_raw_act
 36 lines in following concentration table = NCONC+1
    Conc.  %SD /Cr+PCr  Metabolite                                         
    0.000 999%   0.000 Ala                                                 
    0.000 999%   0.000 Asp                                                 
  549.527  57%   0.228 Cr                                                  
 1.86E+03  17%   0.772 PCr                                                 
    0.000 999%   0.000 GABA                                                
    0.000 999%   0.000 Glc                                                 
  427.719 109%   0.178 Gln                                                 
 3.13E+03  17%   1.302 Glu                                                 
 1.33E+03   3%   0.551 GPC                                                 
    0.000 999%   0.000 PCh                                                 
 1.16E+03  12%   0.481 GSH                                                 
 3.19E+03  14%   1.327 Ins                                                 
  267.555  95%   0.111 Lac                                                 
 4.61E+03   4%   1.917 NAA                                                 
  782.735  28%   0.325 NAAG                                                
  281.699  19%   0.117 Scyllo                                              
    0.000 999%   0.000 Tau                                                 
    0.000 999%   0.000 -CrCH2                                              
 1.33E+03   3%   0.551 GPC+PCh                                             
 5.39E+03   3%   2.242 NAA+NAAG                                            
 2.41E+03   4%   1.000 Cr+PCr                                              
 3.56E+03  20%   1.480 Glu+Gln                                             
    0.000 999%   0.000 Lip13a                                              
  192.715 111% 8.0E-02 Lip13b                                              
   51.445 118% 2.1E-02 Lip09                                               
 2.21E+03  13%   0.917 MM09                                                
   28.375 124% 1.2E-02 Lip20                                               
 3.16E+03  18%   1.314 MM20                                                
  566.827  48%   0.236 MM12                                                
 4.27E+03  10%   1.775 MM14                                                
  262.957 128%   0.109 MM17                                                
  192.715 111% 8.0E-02 Lip13a+Lip13b                                       
 5.03E+03   9%   2.091 MM14+Lip13a+Lip13b+MM12                             
 2.26E+03  12%   0.938 MM09+Lip09                                          
 3.19E+03  18%   1.326 MM20+Lip20                                          
   6 lines in following misc. output table
  FWHM = 0.054 ppm    S/N =  11                                            
  Data shift = 0.008 ppm                                                   
  Ph: -35 deg     -11.9 deg/ppm                                            
  alphaB,S = 8.5E+01,   1.8E+02                                            
   14 spline knots.   Ns = 7(1)                                            
   2 inflections.     1 extrema                                            
  498 points on ppm-axis = NY
      4.000000     3.992357     3.984714     3.977070     3.969427     3.961784     3.954141     3.946497     3.938854     3.931211
      3.923568     3.915925     3.908281     3.900638     3.892995     3.885352     3.877708     3.870065     3.862422     3.854779
      3.847136     3.839492     3.831849     3.824206     3.816563     3.808919     3.801276     3.793633     3.785990     3.778347
      3.770703     3.763060     3.755417     3.747774     3.740130     3.732487     3.724844     3.717201     3.709558     3.701914
      3.694271     3.686628     3.678985     3.671341     3.663698     3.656055     3.648412     3.640769     3.633125     3.625482
      3.617839     3.610196     3.602552     3.594909     3.587266     3.579623     3.571980     3.564336     3.556693     3.549050
      3.541407     3.533763     3.526120     3.518477     3.510834     3.503191     3.495547     3.487904     3.480261     3.472618
      3.464974     3.457331     3.449688     3.442045     3.434402     3.426758     3.419115     3.411472     3.403829     3.396185
      3.388542     3.380899     3.373256     3.365613     3.357969     3.350326     3.342683     3.335040     3.327396     3.319753
      3.312110     3.304467     3.296824     3.289180     3.281537     3.273894     3.266251     3.258607     3.250964     3.243321
      3.235678     3.228034     3.220391     3.212748     3.205105     3.197462     3.189818     3.182175     3.174532     3.166889
      3.159245     3.151602     3.143959     3.136316     3.128673     3.121029     3.113386     3.105743     3.098100     3.090456
      3.082813     3.075170     3.067527     3.059884     3.052240     3.044597     3.036954     3.029311     3.021667     3.014024
      3.006381     2.998738     2.991095     2.983451     2.975808     2.968165     2.960522     2.952878     2.945235     2.937592
      2.929949     2.922306     2.914662     2.907019     2.899376     2.891733     2.884089     2.876446     2.868803     2.861160
      2.853517     2.845873     2.838230     2.830587     2.822944     2.815300     2.807657     2.800014     2.792371     2.784728
      2.777084     2.769441     2.761798     2.754155     2.746511     2.738868     2.731225     2.723582     2.715939     2.708295
      2.700652     2.693009     2.685366     2.677722     2.670079     2.662436     2.654793     2.647150     2.639506     2.631863
      2.624220     2.616577     2.608933     2.601290     2.593647     2.586004     2.578361     2.570717     2.563074     2.555431
      2.547788     2.540144     2.532501     2.524858     2.517215     2.509572     2.501928     2.494285     2.486642     2.478999
      2.471355     2.463712     2.456069     2.448426     2.440783     2.433139     2.425496     2.417853     2.410210     2.402566
      2.394923     2.387280     2.379637     2.371994     2.364350     2.356707     2.349064     2.341421     2.333777     2.326134
      2.318491     2.310848     2.303205     2.295561     2.287918     2.280275     2.272632     2.264988     2.257345     2.249702
      2.242059     2.234416     2.226772     2.219129     2.211486     2.203843     2.196199     2.188556     2.180913     2.173270
      2.165627     2.157983     2.150340     2.142697     2.135054     2.127410     2.119767     2.112124     2.104481     2.096838
      2.089194     2.081551     2.073908     2.066265     2.058621     2.050978     2.043335     2.035692     2.028049     2.020405
      2.012762     2.005119     1.997476     1.989833     1.982190     1.974546     1.966903     1.959260     1.951617     1.943974
      1.936331     1.928688     1.921045     1.913402     1.905759     1.898115     1.890472     1.882829     1.875186     1.867543
      1.859900     1.852257     1.844614     1.836971     1.829327     1.821684     1.814041     1.806398     1.798755     1.791112
      1.783469     1.775826     1.768183     1.760540     1.752896     1.745253     1.737610     1.729967     1.722324     1.714681
      1.707038     1.699395     1.691752     1.684108     1.676465     1.668822     1.661179     1.653536     1.645893     1.638250
      1.630607     1.622964     1.615321     1.607677     1.600034     1.592391     1.584748     1.577105     1.569462     1.561819
      1.554176     1.546533     1.538890     1.531246     1.523603     1.515960     1.508317     1.500674     1.493031     1.485388
      1.477745     1.470102     1.462458     1.454815     1.447172     1.439529     1.431886     1.424243     1.416600     1.408957
      1.401314     1.393671     1.386027     1.378384     1.370741     1.363098     1.355455     1.347812     1.340169     1.332526
      1.324883     1.317240     1.309596     1.301953     1.294310     1.286667     1.279024     1.271381     1.263738     1.256095
      1.248452     1.240808     1.233165     1.225522     1.217879     1.210236     1.202593     1.194950     1.187307     1.179664
      1.172021     1.164377     1.156734     1.149091     1.141448     1.133805     1.126162     1.118519     1.110876     1.103233
      1.095590     1.087946     1.080303     1.072660     1.065017     1.057374     1.049731     1.042088     1.034445     1.026802
      1.019158     1.011515     1.003872     0.996229     0.988586     0.980943     0.973300     0.965657     0.958014     0.950371
      0.942727     0.935084     0.927441     0.919798     0.912155     0.904512     0.896869     0.889226     0.881583     0.873940
      0.866296     0.858653     0.851010     0.843367     0.835724     0.828081     0.820438     0.812795     0.805152     0.797508
      0.789865     0.782222     0.774579     0.766936     0.759293     0.751650     0.744007     0.736364     0.728721     0.721077
      0.713434     0.705791     0.698148     0.690505     0.682862     0.675219     0.667576     0.659933     0.652290     0.644646
      0.637003     0.629360     0.621717     0.614074     0.606431     0.598788     0.591145     0.583502     0.575858     0.568215
      0.560572     0.552929     0.545286     0.537643     0.530000     0.522357     0.514714     0.507071     0.499427     0.491784
      0.484141     0.476498     0.468855     0.461212     0.453569     0.445925     0.438282     0.430639     0.422996     0.415353
      0.407710     0.400067     0.392424     0.384780     0.377137     0.369494     0.361851     0.354208     0.346565     0.338922
      0.331278     0.323635     0.315992     0.308349     0.300706     0.293063     0.285420     0.277777     0.270133     0.262490
      0.254847     0.247204     0.239561     0.231918     0.224275     0.216631     0.208988     0.201345
 NY phased data points follow
  -1.80243E+01 -1.48001E+01 -8.39307E+00 -4.47693E+00 -2.46977E+00  1.38470E+01  2.48135E+01  2.85835E+01  3.55312E+01  3.50807E+01
   4.06486E+01  1.95032E+01  2.62305E+01  1.69338E+01 -3.82385E-01 -3.46705E+00 -4.31976E+00  1.98865E+00 -9.78329E+00 -1.73832E+01
  -3.58368E+00 -1.07374E+01 -8.92583E+00 -1.34525E+01 -8.15335E+00 -1.97870E+01  5.39051E+00  1.08414E+01 -6.49739E+00  1.28354E+01
   6.41456E+00 -3.31071E+00 -6.83218E-01  3.81902E+00 -3.65849E+00  1.42623E+00  8.59567E-03 -2.42915E+00 -2.08252E+00 -5.50260E+00
  -6.65380E+00 -4.14116E+00  6.91675E+00 -6.18211E-01  6.16193E+00 -1.28849E+00  1.51209E+01  7.75600E+00  1.40034E+01  5.93135E-01
  -4.32057E+00 -7.25510E+00 -1.62688E+01 -6.91069E+00 -1.60605E+01 -9.12920E+00 -3.87989E+00 -1.86417E+01 -9.33836E+00 -1.35500E+01
  -5.05812E+00 -1.04541E+01 -2.09317E+01 -2.47707E+01 -1.90061E+01 -2.52537E+01 -1.65176E+01 -1.83294E+01 -2.04828E+01 -2.60162E+01
  -2.24054E+01 -1.96214E+01 -1.66472E+01 -2.02797E+01 -1.77302E+01 -1.80581E+00 -1.96421E+01 -1.42146E+01 -1.28894E+01 -1.66618E+01
  -1.36560E+01 -1.67683E+01 -1.85680E+01 -1.67683E+01 -1.51621E+01 -1.05675E+01  2.49124E-01  2.50565E+00 -6.53760E+00 -1.37800E+01
  -7.82345E+00 -6.97661E+00 -9.78872E+00  2.88763E-01 -2.05659E+01  3.91317E+00  5.51564E+00  1.64140E+00  1.78411E+01  3.57213E+01
   5.55537E+01  1.00527E+02  9.16653E+01  9.97766E+01  1.00476E+02  6.74302E+01  4.58917E+01  2.86291E+01  5.15216E+00  7.90838E+00
   2.02831E+00 -5.08364E+00  6.60922E+00 -1.50561E+01 -1.63283E+01 -1.53746E+01 -1.59319E+01 -9.28475E-01 -5.24651E+00 -9.04724E+00
  -3.68839E+00 -2.57995E+00  1.76545E+01  1.50387E+01  3.63032E+01  5.03342E+01  6.10782E+01  6.66513E+01  5.30670E+01  4.03481E+01
   2.45203E+01  9.80858E+00  6.48513E-02 -1.52972E+00  9.01164E-01 -5.78636E+00 -1.31131E+01 -1.16970E+01 -2.10607E+01 -8.67814E+00
  -1.99118E+01 -1.14966E+01 -1.85458E+01 -1.46481E+01 -1.39475E+01 -1.15494E+01 -1.22253E+01 -1.60942E+01 -1.35350E+01 -2.23429E+01
  -8.18201E+00 -1.06216E+01 -1.03320E+01 -1.85145E+01 -1.39477E+01 -2.39854E+01 -1.44149E+01 -2.21588E+01 -2.60497E+00 -1.97223E+01
  -2.47546E+01 -2.52398E+01 -2.39246E+01 -1.73286E+01 -2.53224E+01 -2.52862E+01 -1.70223E+01 -2.37982E+01 -3.29855E+01 -3.22017E+01
  -2.70169E+01 -3.73192E+01 -3.94771E+01 -3.87214E+01 -4.22603E+01 -4.06810E+01 -4.17620E+01 -4.13991E+01 -4.95659E+01 -3.58018E+01
  -2.99252E+01 -3.59280E+01 -3.93764E+01 -4.25359E+01 -3.67132E+01 -3.09133E+01 -2.28846E+01 -2.26739E+01 -8.73439E+00 -1.61303E+01
   4.46867E+00 -7.01967E+00 -1.83075E+00 -9.91479E+00 -2.00225E+01 -1.83588E+01 -2.40653E+01 -2.09061E+01 -2.14763E+01 -2.32263E+01
  -2.12050E+01 -2.07442E+01 -2.44177E+01 -1.41948E+01 -1.57898E+01 -8.53003E+00 -1.08481E+01 -2.77890E+01 -1.28115E+01 -2.34296E+01
  -2.43521E+01 -8.02150E+00 -3.83160E+00 -3.63598E+00 -2.33702E+00  3.98925E+00  6.54928E+00  6.79835E+00 -1.55174E+01 -1.48746E+01
  -1.34272E+01 -1.88510E+01 -1.92225E+01 -1.65974E+01 -2.41580E+01 -1.73286E+01 -8.52745E+00 -4.30614E+00 -3.22194E+00 -7.15308E+00
  -3.25358E-01  5.17412E+00  1.07327E+01  3.07091E+00  7.82205E+00  5.28420E-02 -5.02668E+00 -4.94123E+00 -2.90736E+00 -8.75299E+00
  -6.91433E-01 -2.16884E+01 -1.73679E+01 -9.17296E+00 -1.19948E+01 -6.79550E+00  7.12207E+00  3.39993E+00  9.74052E+00  7.23797E+00
   1.68600E+01  1.21856E+01  1.90344E+01  3.50416E+01  4.29730E+01  6.30915E+01  7.91951E+01  1.13311E+02  1.34983E+02  1.48922E+02
   1.65548E+02  1.67965E+02  1.42944E+02  9.93114E+01  6.36776E+01  4.23740E+01  2.12936E+01  6.90332E+00 -3.28214E+00  2.65516E+00
   8.40046E-01 -3.59546E+00 -2.33845E+00 -1.02144E+00  4.24839E+00  5.70866E+00 -8.43706E+00 -1.87619E+00 -4.46679E+00 -1.23652E+01
  -3.83372E+00 -4.81855E+00 -1.66672E+01 -4.27361E+00 -5.31398E+00 -9.40157E+00 -1.37430E+01 -3.95249E+00 -1.47207E+01 -1.53743E+00
  -1.24782E+01 -2.86764E+00 -1.76940E+00 -8.54189E+00 -6.92713E+00 -1.81489E+01 -4.88902E+00  6.37993E+00 -1.47699E+01 -2.82198E+00
  -5.67985E+00 -1.17284E+01 -8.27360E+00  4.39263E+00 -5.36633E+00 -1.23395E+01  2.10019E+00  1.10003E+01 -6.68730E+00 -8.08802E+00
   5.85298E-02 -6.68534E+00 -1.30380E+01 -9.84002E+00 -1.18241E+01 -4.15024E+00  6.33339E+00 -3.44759E+00 -7.34994E+00 -1.90048E+00
   1.06491E+01  8.89163E+00  8.72579E+00 -1.64596E-02  5.77523E+00  1.57383E+01  7.69808E+00  7.84793E+00  5.06902E+00  1.42855E+01
   1.95260E+01  2.17784E+01  2.73608E+01  2.06185E+01  1.28685E+01  1.38580E+01  1.73584E+01  1.30616E+01  1.84294E+01  1.98195E+01
   2.52079E+01  2.76449E+01  1.41133E+01  6.96975E+00  1.14881E+01  1.22702E+01  2.54497E+01  1.30493E+01  1.41169E+01  1.01200E+01
   7.64742E+00  5.37505E+00 -2.17021E+00  5.08173E+00  5.04603E+00  8.49390E+00  1.07104E+01  5.82405E+00  8.34731E+00  9.39461E+00
   3.37233E+00 -1.92048E+00 -3.99139E+00 -4.28889E+00 -2.69972E+00 -5.50255E+00 -1.79487E+00 -2.92363E+00  3.74255E+00 -5.88847E+00
   7.94303E+00  9.22671E+00  4.66262E+00 -2.05066E+00 -1.34184E+01  4.08070E+00 -1.50819E+00 -3.92374E+00 -6.13886E+00  1.54751E+01
  -6.91099E+00 -4.09725E+00  4.53682E+00 -1.57721E+00 -3.54005E+00 -6.25734E+00 -7.32481E+00 -4.99667E+00  6.20383E+00  5.98102E-01
   6.62879E+00 -3.59336E+00  4.46092E+00  5.74547E+00  2.06032E+00  2.48943E+01  1.15752E+01  1.08882E+01  2.23671E+00  1.04378E+01
   1.55164E+01  1.98441E+01  1.68184E+01 -1.49222E-01  5.37116E+00  1.68419E+01  1.29212E+01  9.06229E+00  1.46014E+01  8.62882E+00
   8.89377E+00  1.41282E+01  1.80668E+01  1.39697E+01  5.95582E+00  1.11545E+01  6.80850E+00  1.32274E+01  1.04499E+01 -1.91600E+00
   6.19789E-01  6.17092E+00  2.69374E+00  6.32982E+00  5.04937E+00  2.49210E+00  9.22251E+00  4.09107E+00  1.31239E+01  3.00303E+00
   4.11905E+00  1.87221E+00 -1.97273E-01  1.06926E+01 -1.12976E+00 -2.11762E+00  1.11485E+01 -8.28569E-01 -2.11126E-01 -1.75128E+00
   7.54946E+00  6.32171E+00  1.91283E+00  8.14512E+00  5.70688E+00  1.06829E-01  9.09414E+00  5.65672E+00  5.73734E+00  1.27227E+01
  -4.63216E+00  2.29763E+00  1.37675E+00  5.43374E+00 -2.23663E+00  3.60933E+00  6.65886E-01  1.95772E+00  8.35561E+00  1.26910E+00
  -2.20650E+00 -1.01470E+00 -4.72967E-01 -1.68298E+00 -3.68637E+00 -5.65291E+00  1.94203E+00  9.19584E+00 -2.84258E+00 -4.16178E+00
  -8.66742E-01  5.60506E+00  9.51451E-01  3.42904E+00  5.70401E+00 -3.45815E+00  3.84012E+00 -3.74074E+00  4.95219E+00 -2.30647E+00
   7.48312E+00 -2.99337E+00 -9.02343E-01  1.05254E+01  4.80516E+00  3.60213E+00  2.35436E-01  1.03194E+00  6.89344E+00  8.51921E+00
  -4.20382E+00 -1.03237E+01  4.58801E+00  8.27026E+00  3.86862E+00 -1.92694E+01 -5.25552E+00  1.35843E+00
 NY points of the fit to the data follow
  -1.48913E+01 -1.38811E+01 -1.04527E+01 -5.27122E+00  1.64305E+00  1.02301E+01  1.94742E+01  2.78793E+01  3.38815E+01  3.60701E+01
   3.37148E+01  2.74885E+01  1.92792E+01  1.10104E+01  3.86720E+00 -1.79359E+00 -6.18000E+00 -9.33403E+00 -1.12461E+01 -1.26536E+01
  -1.37021E+01 -1.44102E+01 -1.43248E+01 -1.30737E+01 -1.09781E+01 -7.88884E+00 -3.69135E+00  1.10361E+00  5.59590E+00  8.88991E+00
   1.03416E+01  9.52599E+00  6.68395E+00  2.81678E+00 -1.27741E+00 -5.21440E+00 -8.77832E+00 -1.18573E+01 -1.38382E+01 -1.41381E+01
  -1.27742E+01 -1.00135E+01 -6.33643E+00 -2.09852E+00  2.18827E+00  5.77543E+00  7.95232E+00  7.99386E+00  5.50495E+00  9.55928E-01
  -4.50870E+00 -9.46408E+00 -1.28840E+01 -1.47204E+01 -1.53224E+01 -1.48878E+01 -1.36054E+01 -1.19914E+01 -1.06673E+01 -1.00150E+01
  -1.02497E+01 -1.14136E+01 -1.32199E+01 -1.51593E+01 -1.65879E+01 -1.71263E+01 -1.68509E+01 -1.59922E+01 -1.47985E+01 -1.35875E+01
  -1.26142E+01 -1.20486E+01 -1.19656E+01 -1.23304E+01 -1.30005E+01 -1.37491E+01 -1.43699E+01 -1.47836E+01 -1.49773E+01 -1.48737E+01
  -1.41451E+01 -1.30381E+01 -1.17237E+01 -1.01951E+01 -8.63181E+00 -7.42245E+00 -6.94043E+00 -7.41147E+00 -8.82825E+00 -1.07044E+01
  -1.23497E+01 -1.32865E+01 -1.34796E+01 -1.31817E+01 -1.24852E+01 -1.00967E+01 -2.88792E+00  8.57497E+00  2.35168E+01  4.22469E+01
   6.35254E+01  8.36876E+01  9.79897E+01  1.02176E+02  9.39349E+01  7.50759E+01  5.14257E+01  2.92750E+01  1.20317E+01 -2.25621E-01
  -9.02507E+00 -1.49278E+01 -1.72789E+01 -1.77362E+01 -1.77412E+01 -1.75917E+01 -1.73271E+01 -1.68643E+01 -1.59196E+01 -1.32948E+01
  -7.41178E+00  1.14499E+00  1.19922E+01  2.50243E+01  3.90486E+01  5.16311E+01  5.99984E+01  6.16780E+01  5.55772E+01  4.33817E+01
   2.88529E+01  1.53927E+01  4.52410E+00 -4.06916E+00 -1.10550E+01 -1.60649E+01 -1.83034E+01 -1.85389E+01 -1.75170E+01 -1.58469E+01
  -1.41913E+01 -1.30098E+01 -1.24681E+01 -1.25906E+01 -1.32040E+01 -1.40047E+01 -1.48118E+01 -1.55789E+01 -1.62694E+01 -1.68862E+01
  -1.73908E+01 -1.77880E+01 -1.80509E+01 -1.81946E+01 -1.83500E+01 -1.85144E+01 -1.87037E+01 -1.89867E+01 -1.93571E+01 -1.98620E+01
  -2.03706E+01 -2.06383E+01 -2.05415E+01 -2.02310E+01 -2.00197E+01 -2.01983E+01 -2.08963E+01 -2.19382E+01 -2.29943E+01 -2.39427E+01
  -2.47910E+01 -2.54729E+01 -2.60999E+01 -2.67149E+01 -2.72575E+01 -2.75960E+01 -2.75622E+01 -2.71520E+01 -2.65976E+01 -2.62172E+01
  -2.62271E+01 -2.63665E+01 -2.61999E+01 -2.54789E+01 -2.41713E+01 -2.23314E+01 -1.99282E+01 -1.69232E+01 -1.35566E+01 -1.04098E+01
  -8.27013E+00 -7.58572E+00 -8.20061E+00 -9.67894E+00 -1.14643E+01 -1.30234E+01 -1.39606E+01 -1.39392E+01 -1.29745E+01 -1.12615E+01
  -9.13021E+00 -7.03024E+00 -5.37393E+00 -4.60734E+00 -4.90996E+00 -6.36047E+00 -8.96831E+00 -1.22096E+01 -1.52230E+01 -1.71012E+01
  -1.73768E+01 -1.60483E+01 -1.31218E+01 -9.02561E+00 -4.80521E+00 -1.85786E+00 -1.43395E+00 -3.93821E+00 -8.83588E+00 -1.50438E+01
  -2.08710E+01 -2.48326E+01 -2.61851E+01 -2.47489E+01 -2.10093E+01 -1.58805E+01 -1.07537E+01 -6.93105E+00 -4.75082E+00 -3.80496E+00
  -3.36090E+00 -3.02210E+00 -2.55713E+00 -1.70515E+00 -6.03397E-01  1.49853E-01 -5.61001E-02 -1.32121E+00 -3.31253E+00 -5.55157E+00
  -7.49627E+00 -8.45352E+00 -7.99279E+00 -6.24056E+00 -3.68827E+00 -9.42778E-01  1.43351E+00  2.97469E+00  3.85323E+00  5.09373E+00
   7.16830E+00  1.03804E+01  1.57256E+01  2.69402E+01  4.46695E+01  6.57158E+01  8.92258E+01  1.14289E+02  1.37877E+02  1.55540E+02
   1.62857E+02  1.56109E+02  1.34922E+02  1.04653E+02  7.37433E+01  4.84399E+01  2.99581E+01  1.63742E+01  6.16166E+00  4.45272E-01
  -1.52022E+00 -2.40074E+00 -2.85449E+00 -3.06103E+00 -3.18706E+00 -3.39282E+00 -3.71373E+00 -4.13918E+00 -4.61133E+00 -5.04990E+00
  -5.40784E+00 -5.68736E+00 -5.89652E+00 -6.03965E+00 -6.14458E+00 -6.24793E+00 -6.37035E+00 -6.49738E+00 -6.59971E+00 -6.65765E+00
  -6.66747E+00 -6.62741E+00 -6.54742E+00 -6.44752E+00 -6.35391E+00 -6.27986E+00 -6.22378E+00 -6.17411E+00 -6.11797E+00 -6.04561E+00
  -5.94961E+00 -5.82395E+00 -5.67477E+00 -5.51298E+00 -5.34632E+00 -5.17681E+00 -5.00154E+00 -4.81627E+00 -4.61703E+00 -4.39476E+00
  -4.14024E+00 -3.84580E+00 -3.50335E+00 -3.10453E+00 -2.64113E+00 -2.10495E+00 -1.48848E+00 -7.85790E-01  7.17998E-03  8.92519E-01
   1.87008E+00  2.93690E+00  4.08647E+00  5.30852E+00  6.58935E+00  7.91219E+00  9.25731E+00  1.06021E+01  1.19215E+01  1.31892E+01
   1.43784E+01  1.54636E+01  1.64211E+01  1.72298E+01  1.78726E+01  1.83378E+01  1.86202E+01  1.87234E+01  1.86621E+01  1.84726E+01
   1.82295E+01  1.79271E+01  1.74783E+01  1.68814E+01  1.61071E+01  1.50623E+01  1.36475E+01  1.18330E+01  9.78619E+00  7.77725E+00
   6.07918E+00  4.95169E+00  4.49854E+00  4.62000E+00  5.08855E+00  5.65854E+00  6.10491E+00  6.18955E+00  5.79780E+00  5.06520E+00
   4.19261E+00  3.32570E+00  2.51616E+00  1.77066E+00  1.15226E+00  6.89350E-01  3.38117E-01  6.92866E-02 -1.36876E-01 -2.95509E-01
  -4.18041E-01 -5.12607E-01 -5.84589E-01 -6.37113E-01 -6.71413E-01 -6.87130E-01 -6.82690E-01 -6.55771E-01 -6.03657E-01 -5.23345E-01
  -4.11475E-01 -2.64311E-01 -7.78871E-02  1.51741E-01  4.28337E-01  7.55475E-01  1.13653E+00  1.57449E+00  2.07161E+00  2.62895E+00
   3.24616E+00  3.92127E+00  4.65058E+00  5.42831E+00  6.24632E+00  7.09393E+00  7.95811E+00  8.82382E+00  9.67440E+00  1.04920E+01
   1.12579E+01  1.19538E+01  1.25618E+01  1.30665E+01  1.34547E+01  1.37165E+01  1.38456E+01  1.38397E+01  1.37006E+01  1.34343E+01
   1.30505E+01  1.25619E+01  1.19836E+01  1.13322E+01  1.06255E+01  9.88127E+00  9.11681E+00  8.34795E+00  7.58870E+00  6.85111E+00
   6.14510E+00  5.47834E+00  4.85623E+00  4.28202E+00  3.75712E+00  3.28156E+00  2.85421E+00  2.47303E+00  2.13520E+00  1.83740E+00
   1.57615E+00  1.34802E+00  1.14973E+00  9.78089E-01  8.30013E-01  7.02646E-01  5.93487E-01  5.00408E-01  4.21545E-01  3.55178E-01
   2.99715E-01  2.53782E-01  2.16284E-01  1.86347E-01  1.63180E-01  1.45992E-01  1.34041E-01  1.26740E-01  1.23679E-01  1.24529E-01
   1.28927E-01  1.36463E-01  1.46772E-01  1.59622E-01  1.74883E-01  1.92421E-01  2.12013E-01  2.33398E-01  2.56385E-01  2.80899E-01
   3.06911E-01  3.34337E-01  3.63006E-01  3.92745E-01  4.23479E-01  4.55220E-01  4.87968E-01  5.21635E-01  5.56070E-01  5.91169E-01
   6.26931E-01  6.63406E-01  7.00586E-01  7.38371E-01  7.76640E-01  8.15347E-01  8.54536E-01  8.94251E-01  9.34449E-01  9.75015E-01
   1.01586E+00  1.05701E+00  1.09851E+00  1.14039E+00  1.18258E+00  1.22498E+00  1.26753E+00  1.31028E+00  1.35331E+00  1.39658E+00
   1.44001E+00  1.48349E+00  1.52704E+00  1.57073E+00  1.61458E+00  1.65853E+00  1.70249E+00  1.74638E+00
 NY background values follow
    -2.698E+01   -2.693E+01   -2.688E+01   -2.682E+01   -2.677E+01   -2.671E+01   -2.666E+01   -2.660E+01   -2.655E+01   -2.649E+01
    -2.644E+01   -2.638E+01   -2.633E+01   -2.628E+01   -2.622E+01   -2.617E+01   -2.611E+01   -2.606E+01   -2.600E+01   -2.595E+01
    -2.589E+01   -2.584E+01   -2.578E+01   -2.573E+01   -2.567E+01   -2.562E+01   -2.556E+01   -2.551E+01   -2.546E+01   -2.540E+01
    -2.535E+01   -2.529E+01   -2.524E+01   -2.518E+01   -2.513E+01   -2.507E+01   -2.502E+01   -2.496E+01   -2.491E+01   -2.485E+01
    -2.480E+01   -2.474E+01   -2.469E+01   -2.463E+01   -2.458E+01   -2.452E+01   -2.447E+01   -2.441E+01   -2.436E+01   -2.430E+01
    -2.425E+01   -2.420E+01   -2.414E+01   -2.409E+01   -2.403E+01   -2.398E+01   -2.392E+01   -2.387E+01   -2.381E+01   -2.376E+01
    -2.370E+01   -2.365E+01   -2.359E+01   -2.354E+01   -2.348E+01   -2.343E+01   -2.337E+01   -2.332E+01   -2.326E+01   -2.321E+01
    -2.315E+01   -2.310E+01   -2.304E+01   -2.299E+01   -2.293E+01   -2.288E+01   -2.282E+01   -2.277E+01   -2.271E+01   -2.266E+01
    -2.260E+01   -2.255E+01   -2.249E+01   -2.244E+01   -2.238E+01   -2.233E+01   -2.227E+01   -2.222E+01   -2.216E+01   -2.211E+01
    -2.205E+01   -2.200E+01   -2.194E+01   -2.189E+01   -2.183E+01   -2.177E+01   -2.172E+01   -2.166E+01   -2.161E+01   -2.155E+01
    -2.150E+01   -2.144E+01   -2.139E+01   -2.133E+01   -2.128E+01   -2.122E+01   -2.117E+01   -2.111E+01   -2.106E+01   -2.100E+01
    -2.095E+01   -2.089E+01   -2.084E+01   -2.078E+01   -2.073E+01   -2.067E+01   -2.062E+01   -2.056E+01   -2.051E+01   -2.045E+01
    -2.039E+01   -2.034E+01   -2.028E+01   -2.023E+01   -2.017E+01   -2.012E+01   -2.006E+01   -2.001E+01   -1.995E+01   -1.990E+01
    -1.984E+01   -1.979E+01   -1.973E+01   -1.968E+01   -1.962E+01   -1.957E+01   -1.951E+01   -1.945E+01   -1.940E+01   -1.934E+01
    -1.929E+01   -1.923E+01   -1.918E+01   -1.912E+01   -1.907E+01   -1.901E+01   -1.896E+01   -1.890E+01   -1.885E+01   -1.879E+01
    -1.873E+01   -1.868E+01   -1.862E+01   -1.857E+01   -1.851E+01   -1.846E+01   -1.840E+01   -1.835E+01   -1.829E+01   -1.824E+01
    -1.818E+01   -1.812E+01   -1.807E+01   -1.801E+01   -1.796E+01   -1.790E+01   -1.785E+01   -1.779E+01   -1.774E+01   -1.768E+01
    -1.763E+01   -1.757E+01   -1.751E+01   -1.746E+01   -1.740E+01   -1.735E+01   -1.729E+01   -1.724E+01   -1.718E+01   -1.713E+01
    -1.707E+01   -1.701E+01   -1.696E+01   -1.690E+01   -1.685E+01   -1.679E+01   -1.674E+01   -1.668E+01   -1.663E+01   -1.657E+01
    -1.651E+01   -1.646E+01   -1.640E+01   -1.635E+01   -1.629E+01   -1.624E+01   -1.618E+01   -1.613E+01   -1.607E+01   -1.601E+01
    -1.596E+01   -1.590E+01   -1.585E+01   -1.579E+01   -1.574E+01   -1.568E+01   -1.562E+01   -1.557E+01   -1.551E+01   -1.546E+01
    -1.540E+01   -1.535E+01   -1.529E+01   -1.524E+01   -1.518E+01   -1.512E+01   -1.507E+01   -1.501E+01   -1.496E+01   -1.490E+01
    -1.485E+01   -1.479E+01   -1.473E+01   -1.468E+01   -1.462E+01   -1.457E+01   -1.451E+01   -1.446E+01   -1.440E+01   -1.434E+01
    -1.429E+01   -1.423E+01   -1.418E+01   -1.412E+01   -1.407E+01   -1.401E+01   -1.395E+01   -1.390E+01   -1.384E+01   -1.379E+01
    -1.373E+01   -1.368E+01   -1.362E+01   -1.356E+01   -1.351E+01   -1.345E+01   -1.340E+01   -1.334E+01   -1.329E+01   -1.323E+01
    -1.317E+01   -1.312E+01   -1.306E+01   -1.301E+01   -1.295E+01   -1.290E+01   -1.284E+01   -1.278E+01   -1.273E+01   -1.267E+01
    -1.262E+01   -1.256E+01   -1.251E+01   -1.245E+01   -1.239E+01   -1.234E+01   -1.228E+01   -1.223E+01   -1.217E+01   -1.212E+01
    -1.206E+01   -1.200E+01   -1.195E+01   -1.189E+01   -1.184E+01   -1.178E+01   -1.172E+01   -1.167E+01   -1.161E+01   -1.156E+01
    -1.150E+01   -1.145E+01   -1.139E+01   -1.133E+01   -1.128E+01   -1.122E+01   -1.117E+01   -1.111E+01   -1.106E+01   -1.100E+01
    -1.094E+01   -1.089E+01   -1.083E+01   -1.078E+01   -1.072E+01   -1.066E+01   -1.061E+01   -1.055E+01   -1.050E+01   -1.044E+01
    -1.039E+01   -1.033E+01   -1.027E+01   -1.022E+01   -1.016E+01   -1.011E+01   -1.005E+01   -9.995E+00   -9.939E+00   -9.883E+00
    -9.827E+00   -9.771E+00   -9.716E+00   -9.660E+00   -9.604E+00   -9.548E+00   -9.492E+00   -9.437E+00   -9.381E+00   -9.325E+00
    -9.269E+00   -9.213E+00   -9.157E+00   -9.102E+00   -9.046E+00   -8.990E+00   -8.934E+00   -8.878E+00   -8.823E+00   -8.767E+00
    -8.711E+00   -8.655E+00   -8.599E+00   -8.543E+00   -8.488E+00   -8.432E+00   -8.376E+00   -8.320E+00   -8.264E+00   -8.208E+00
    -8.153E+00   -8.097E+00   -8.041E+00   -7.985E+00   -7.929E+00   -7.874E+00   -7.818E+00   -7.762E+00   -7.706E+00   -7.650E+00
    -7.594E+00   -7.539E+00   -7.483E+00   -7.427E+00   -7.371E+00   -7.315E+00   -7.260E+00   -7.204E+00   -7.148E+00   -7.092E+00
    -7.036E+00   -6.981E+00   -6.925E+00   -6.869E+00   -6.813E+00   -6.757E+00   -6.702E+00   -6.646E+00   -6.590E+00   -6.534E+00
    -6.478E+00   -6.422E+00   -6.367E+00   -6.311E+00   -6.255E+00   -6.199E+00   -6.144E+00   -6.088E+00   -6.032E+00   -5.976E+00
    -5.920E+00   -5.865E+00   -5.809E+00   -5.753E+00   -5.697E+00   -5.641E+00   -5.586E+00   -5.530E+00   -5.474E+00   -5.418E+00
    -5.363E+00   -5.307E+00   -5.251E+00   -5.195E+00   -5.139E+00   -5.084E+00   -5.028E+00   -4.972E+00   -4.916E+00   -4.861E+00
    -4.805E+00   -4.749E+00   -4.693E+00   -4.638E+00   -4.582E+00   -4.526E+00   -4.470E+00   -4.415E+00   -4.359E+00   -4.303E+00
    -4.247E+00   -4.192E+00   -4.136E+00   -4.080E+00   -4.024E+00   -3.969E+00   -3.913E+00   -3.857E+00   -3.801E+00   -3.746E+00
    -3.690E+00   -3.634E+00   -3.579E+00   -3.523E+00   -3.467E+00   -3.411E+00   -3.356E+00   -3.300E+00   -3.244E+00   -3.189E+00
    -3.133E+00   -3.077E+00   -3.022E+00   -2.966E+00   -2.910E+00   -2.855E+00   -2.799E+00   -2.743E+00   -2.687E+00   -2.632E+00
    -2.576E+00   -2.520E+00   -2.465E+00   -2.409E+00   -2.353E+00   -2.298E+00   -2.242E+00   -2.187E+00   -2.131E+00   -2.075E+00
    -2.020E+00   -1.964E+00   -1.908E+00   -1.853E+00   -1.797E+00   -1.741E+00   -1.686E+00   -1.630E+00   -1.575E+00   -1.519E+00
    -1.463E+00   -1.408E+00   -1.352E+00   -1.297E+00   -1.241E+00   -1.185E+00   -1.130E+00   -1.074E+00   -1.019E+00   -9.630E-01
    -9.075E-01   -8.519E-01   -7.963E-01   -7.408E-01   -6.852E-01   -6.296E-01   -5.741E-01   -5.185E-01   -4.630E-01   -4.074E-01
    -3.519E-01   -2.964E-01   -2.408E-01   -1.853E-01   -1.298E-01   -7.427E-02   -1.875E-02    3.676E-02    9.227E-02    1.478E-01
     2.033E-01    2.588E-01    3.143E-01    3.698E-01    4.252E-01    4.807E-01    5.362E-01    5.917E-01
 Cr       Conc. = 5.50E+02
