 LCModel (Version 6.3-1L) Copyright: S.W. Provencher.          Ref.: Magn. Reson. Med. 30:672-679 (1993).                
 Slice#1 Row#4 Col#6  PD_05_press_2_raw_act
 36 lines in following concentration table = NCONC+1
    Conc.  %SD /Cr+PCr  Metabolite                                         
    0.000 999%   0.000 Ala                                                 
   62.107 796% 3.0E-02 Asp                                                 
    0.000 999%   0.000 Cr                                                  
 2.07E+03  12%   1.000 PCr                                                 
  168.878 183% 8.1E-02 GABA                                                
  178.301 172% 8.6E-02 Glc                                                 
 1.40E+03 118%   0.675 Gln                                                 
 2.03E+03  92%   0.981 Glu                                                 
  330.105 229%   0.159 GPC                                                 
  537.430 141%   0.259 PCh                                                 
  344.418 107%   0.166 GSH                                                 
 2.33E+03  49%   1.125 Ins                                                 
    0.000 999%   0.000 Lac                                                 
 4.12E+03   8%   1.985 NAA                                                 
    0.000 999%   0.000 NAAG                                                
  114.820  73% 5.5E-02 Scyllo                                              
  285.078 171%   0.137 Tau                                                 
  897.569  46%   0.433 -CrCH2                                              
  867.535  10%   0.418 GPC+PCh                                             
 4.12E+03   8%   1.985 NAA+NAAG                                            
 2.07E+03  12%   1.000 Cr+PCr                                              
 3.43E+03  88%   1.656 Glu+Gln                                             
 5.68E+03  36%   2.738 Lip13a                                              
    0.000 999%   0.000 Lip13b                                              
 1.51E+03  53%   0.728 Lip09                                               
 2.54E+03  34%   1.227 MM09                                                
  932.004  55%   0.449 Lip20                                               
 3.62E+03  36%   1.747 MM20                                                
  638.860  92%   0.308 MM12                                                
 5.01E+03  29%   2.418 MM14                                                
 1.55E+03  41%   0.749 MM17                                                
 5.68E+03  36%   2.738 Lip13a+Lip13b                                       
 1.13E+04  10%   5.464 MM14+Lip13a+Lip13b+MM12                             
 4.05E+03  14%   1.955 MM09+Lip09                                          
 4.55E+03  27%   2.196 MM20+Lip20                                          
   6 lines in following misc. output table
  FWHM = 0.084 ppm    S/N =   4                                            
  Data shift = 0.023 ppm                                                   
  Ph: -62 deg     -10.9 deg/ppm                                            
  alphaB,S = 8.5E+01,   2.0E+02                                            
   14 spline knots.   Ns =10(1)                                            
   2 inflections.     1 extrema                                            
  498 points on ppm-axis = NY
      4.000000     3.992357     3.984714     3.977070     3.969427     3.961784     3.954141     3.946497     3.938854     3.931211
      3.923568     3.915925     3.908281     3.900638     3.892995     3.885352     3.877708     3.870065     3.862422     3.854779
      3.847136     3.839492     3.831849     3.824206     3.816563     3.808919     3.801276     3.793633     3.785990     3.778347
      3.770703     3.763060     3.755417     3.747774     3.740130     3.732487     3.724844     3.717201     3.709558     3.701914
      3.694271     3.686628     3.678985     3.671341     3.663698     3.656055     3.648412     3.640769     3.633125     3.625482
      3.617839     3.610196     3.602552     3.594909     3.587266     3.579623     3.571980     3.564336     3.556693     3.549050
      3.541407     3.533763     3.526120     3.518477     3.510834     3.503191     3.495547     3.487904     3.480261     3.472618
      3.464974     3.457331     3.449688     3.442045     3.434402     3.426758     3.419115     3.411472     3.403829     3.396185
      3.388542     3.380899     3.373256     3.365613     3.357969     3.350326     3.342683     3.335040     3.327396     3.319753
      3.312110     3.304467     3.296824     3.289180     3.281537     3.273894     3.266251     3.258607     3.250964     3.243321
      3.235678     3.228034     3.220391     3.212748     3.205105     3.197462     3.189818     3.182175     3.174532     3.166889
      3.159245     3.151602     3.143959     3.136316     3.128673     3.121029     3.113386     3.105743     3.098100     3.090456
      3.082813     3.075170     3.067527     3.059884     3.052240     3.044597     3.036954     3.029311     3.021667     3.014024
      3.006381     2.998738     2.991095     2.983451     2.975808     2.968165     2.960522     2.952878     2.945235     2.937592
      2.929949     2.922306     2.914662     2.907019     2.899376     2.891733     2.884089     2.876446     2.868803     2.861160
      2.853517     2.845873     2.838230     2.830587     2.822944     2.815300     2.807657     2.800014     2.792371     2.784728
      2.777084     2.769441     2.761798     2.754155     2.746511     2.738868     2.731225     2.723582     2.715939     2.708295
      2.700652     2.693009     2.685366     2.677722     2.670079     2.662436     2.654793     2.647150     2.639506     2.631863
      2.624220     2.616577     2.608933     2.601290     2.593647     2.586004     2.578361     2.570717     2.563074     2.555431
      2.547788     2.540144     2.532501     2.524858     2.517215     2.509572     2.501928     2.494285     2.486642     2.478999
      2.471355     2.463712     2.456069     2.448426     2.440783     2.433139     2.425496     2.417853     2.410210     2.402566
      2.394923     2.387280     2.379637     2.371994     2.364350     2.356707     2.349064     2.341421     2.333777     2.326134
      2.318491     2.310848     2.303205     2.295561     2.287918     2.280275     2.272632     2.264988     2.257345     2.249702
      2.242059     2.234416     2.226772     2.219129     2.211486     2.203843     2.196199     2.188556     2.180913     2.173270
      2.165627     2.157983     2.150340     2.142697     2.135054     2.127410     2.119767     2.112124     2.104481     2.096838
      2.089194     2.081551     2.073908     2.066265     2.058621     2.050978     2.043335     2.035692     2.028049     2.020405
      2.012762     2.005119     1.997476     1.989833     1.982190     1.974546     1.966903     1.959260     1.951617     1.943974
      1.936331     1.928688     1.921045     1.913402     1.905759     1.898115     1.890472     1.882829     1.875186     1.867543
      1.859900     1.852257     1.844614     1.836971     1.829327     1.821684     1.814041     1.806398     1.798755     1.791112
      1.783469     1.775826     1.768183     1.760540     1.752896     1.745253     1.737610     1.729967     1.722324     1.714681
      1.707038     1.699395     1.691752     1.684108     1.676465     1.668822     1.661179     1.653536     1.645893     1.638250
      1.630607     1.622964     1.615321     1.607677     1.600034     1.592391     1.584748     1.577105     1.569462     1.561819
      1.554176     1.546533     1.538890     1.531246     1.523603     1.515960     1.508317     1.500674     1.493031     1.485388
      1.477745     1.470102     1.462458     1.454815     1.447172     1.439529     1.431886     1.424243     1.416600     1.408957
      1.401314     1.393671     1.386027     1.378384     1.370741     1.363098     1.355455     1.347812     1.340169     1.332526
      1.324883     1.317240     1.309596     1.301953     1.294310     1.286667     1.279024     1.271381     1.263738     1.256095
      1.248452     1.240808     1.233165     1.225522     1.217879     1.210236     1.202593     1.194950     1.187307     1.179664
      1.172021     1.164377     1.156734     1.149091     1.141448     1.133805     1.126162     1.118519     1.110876     1.103233
      1.095590     1.087946     1.080303     1.072660     1.065017     1.057374     1.049731     1.042088     1.034445     1.026802
      1.019158     1.011515     1.003872     0.996229     0.988586     0.980943     0.973300     0.965657     0.958014     0.950371
      0.942727     0.935084     0.927441     0.919798     0.912155     0.904512     0.896869     0.889226     0.881583     0.873940
      0.866296     0.858653     0.851010     0.843367     0.835724     0.828081     0.820438     0.812795     0.805152     0.797508
      0.789865     0.782222     0.774579     0.766936     0.759293     0.751650     0.744007     0.736364     0.728721     0.721077
      0.713434     0.705791     0.698148     0.690505     0.682862     0.675219     0.667576     0.659933     0.652290     0.644646
      0.637003     0.629360     0.621717     0.614074     0.606431     0.598788     0.591145     0.583502     0.575858     0.568215
      0.560572     0.552929     0.545286     0.537643     0.530000     0.522357     0.514714     0.507071     0.499427     0.491784
      0.484141     0.476498     0.468855     0.461212     0.453569     0.445925     0.438282     0.430639     0.422996     0.415353
      0.407710     0.400067     0.392424     0.384780     0.377137     0.369494     0.361851     0.354208     0.346565     0.338922
      0.331278     0.323635     0.315992     0.308349     0.300706     0.293063     0.285420     0.277777     0.270133     0.262490
      0.254847     0.247204     0.239561     0.231918     0.224275     0.216631     0.208988     0.201345
 NY phased data points follow
  -4.10164E+01 -3.24629E+01 -2.53786E+01  4.38211E+00 -7.87992E+00  1.37789E+00  1.97058E+01 -3.18883E+00 -1.47327E+01 -1.09687E+01
   7.48853E+00 -1.68598E+01 -9.55395E+00 -2.95701E+01 -1.69354E+01  7.93746E+00 -1.53156E+01 -2.24371E+01 -1.25703E+01 -2.74216E+01
  -2.54821E+01 -2.31718E+01 -2.55042E+01 -2.55740E+01 -3.36984E+01 -3.88954E+01  9.16925E-01  2.73596E+00 -1.29501E+01  4.05519E+00
  -1.26031E+01 -2.08657E+01 -1.69672E+01 -1.61197E+01 -2.61825E+01 -1.84760E+01 -2.05800E+01 -1.40099E+01  7.61294E+00 -1.80238E+01
  -1.17913E+01 -2.92709E+00 -9.78205E+00  9.20911E+00  1.82245E+00  1.34754E+01 -1.31292E+01 -2.01512E+01  3.11046E+00 -1.48234E+00
   1.14405E+01  4.99103E+00 -3.59494E+00  2.38243E+00  2.35810E+00 -4.00857E+01  1.11436E+01 -2.88710E+01  6.09724E+00 -1.83716E+01
   1.68318E+01 -1.36828E+01 -2.52029E+01 -2.90681E+01 -2.82236E+01 -1.19822E+01 -2.19133E+01 -1.47089E+00 -3.28854E+01 -2.77661E+01
  -1.93639E+01 -3.66809E+01 -4.60882E+00 -8.52578E+00 -3.71331E+00 -3.25397E+01 -1.46197E+01  1.12248E+01 -2.10615E+01 -1.01350E+01
  -5.92779E+00 -2.39561E+01 -1.50781E+01 -1.41956E+01 -1.61759E+01 -3.35339E+01 -2.36109E+01 -1.38327E+01 -2.97167E+00 -1.02529E-01
   4.35790E+00 -2.41379E+01 -8.74858E-01 -2.02127E+01 -8.58728E+00 -9.69121E+00  1.83028E+00  6.72243E+00  1.71802E+00  2.58030E+01
   3.74023E+01  5.55211E+01  3.84173E+01  2.47708E+01  2.73255E+01  4.14518E+01  3.54870E+01  1.57381E+01  2.54020E+01  1.69987E+00
   1.95853E+01  5.55204E+00  3.72168E-01  9.68215E-01 -1.96784E+01  3.86732E+00  3.57514E+00 -5.67789E+00 -1.60552E+01 -3.10878E+00
  -1.65748E+00  1.34427E+01  3.61675E+00  3.29650E+01  3.55151E+01  3.62753E+01  5.26423E+01  3.52011E+01  1.88155E+01  2.97930E+01
   3.29822E+01 -9.86795E+00  3.61077E+01  1.48531E+01  1.53122E+01  4.50455E+00  1.13347E+01  2.34789E+01 -1.74119E+01  4.76653E+00
  -1.23118E+01  4.42576E+00 -2.79885E+00 -1.36204E+01 -4.07166E+01 -5.43593E+00  1.43834E-01 -5.48645E+00 -1.91533E+01 -2.07681E+01
  -2.24829E+01 -2.39251E+01 -3.00867E+00  5.78111E+00 -9.87405E+00 -2.04480E+00  6.96871E+00  5.75314E+00 -1.57281E+01 -1.33811E+01
  -9.42354E+00 -1.32963E+01  1.11692E+01  3.55946E+00 -9.85818E+00 -1.63284E+01  1.17127E+00 -5.12534E+00 -7.39109E+00 -8.80210E-01
  -2.83088E+01 -2.11235E+01 -3.68148E+01 -2.67333E+01 -2.50611E+01 -1.65112E+01 -4.32146E+01 -4.66914E+01 -8.19885E+00 -1.12310E+01
  -3.33879E+01 -1.16450E+01 -3.33213E+01 -1.98561E+01 -1.74396E+01 -1.56988E+01 -1.18801E+01 -2.40121E+01 -1.51273E+00 -8.50887E+00
   1.46072E+01 -2.86792E+01 -1.15944E+01 -1.41703E+01 -1.41477E+01 -1.66823E+01 -3.04484E+01 -8.90846E+00 -9.75445E-01  3.88129E+00
  -3.49897E+01 -3.61208E+00 -2.45437E+00 -5.60737E+00 -2.67379E+00 -5.73747E+00 -2.38289E+00 -3.33069E+00 -2.35739E+01 -5.33692E+00
  -6.58005E+00  1.97842E+01  7.56353E+00 -3.19450E+01  1.74181E+01  1.91395E+01 -1.08551E+01  1.98568E+01 -8.71814E+00 -3.84495E+00
   5.36333E+00 -2.35451E+01 -7.98980E+00  4.37815E+00 -1.92053E+01 -2.99600E+00 -8.21117E+00  4.11990E+00  2.33892E+01 -1.58902E+00
   7.63879E+00 -2.08846E+01  1.48598E+01  1.61550E+01  1.40798E+01 -5.09028E+00  7.70049E+00  4.65713E+00  2.41791E+01  5.13237E+00
  -3.98685E-02  4.83067E-01  7.50136E+00 -9.96073E+00  1.68057E+00 -8.61438E-01  6.10548E+00  2.06894E+01  1.24047E+00  1.40145E+01
   1.44229E+01  1.74341E+01  6.51452E+00  3.81326E+01  4.12605E+01  7.35134E+01  8.05345E+01  1.09675E+02  1.10579E+02  1.03389E+02
   8.35915E+01  9.74993E+01  1.03325E+02  6.78704E+01  6.85105E+01  6.76195E+01  4.73359E+01  3.91746E+01  1.46289E+01 -2.90552E+00
   6.66403E+00  1.93145E+01  2.68517E+01 -1.43355E+01 -6.59737E+00  2.40597E+00 -3.40741E+00 -1.01412E+01 -1.07946E+01  1.87958E+01
  -2.30927E+01 -1.72619E+01  5.19137E+00 -1.25263E+01 -8.93297E-01 -4.20424E+00 -1.51840E+01 -5.24059E+00 -5.02555E+00  2.32172E+01
  -6.18664E+00  1.81276E+01 -5.11176E+00 -1.38968E-01  1.32855E+01  1.88018E+01 -1.45974E+00  1.94612E+01  1.42513E+01  1.17707E+01
  -4.02079E+00  1.00634E+01  1.05692E+01  9.42773E+00  9.73042E+00  3.10372E+01  2.41730E+00  4.97604E+00  4.68257E+00  1.58907E+01
  -1.23693E+01  8.77586E+00  1.88326E+01  8.87221E+00 -5.80198E+00  2.00876E+01  1.56224E+01 -1.51171E+01  9.43701E+00  1.06122E+01
   1.40815E+01 -8.23226E+00 -2.11783E+01  4.92568E+00  7.07391E+00  2.03909E+00  1.48556E+01  1.32240E+01  2.85624E+01  1.27841E+01
   2.47581E+01  2.80997E+01  4.82481E+01  1.36098E+01  3.57148E+01  1.74232E+01  3.57140E+01  1.93812E+01  4.05967E+01  4.06877E+01
   3.88111E+01  4.58617E+01  4.85301E+01  3.31071E+01  7.59430E+01  4.40730E+01  5.90946E+01  4.62004E+01  5.01527E+01  5.94250E+01
   7.81692E+01  6.09302E+01  5.13407E+01  4.93644E+01  4.26071E+01  2.04512E+01  3.78329E+01  1.93520E+01  2.69523E+01  2.11745E+01
   3.42836E+01  1.66165E+01  1.76368E+01  1.27813E+01  2.99905E+01  3.73595E+01  1.30440E+01  1.20985E+01  2.06632E+01  1.11438E+01
   7.19768E+00  2.14339E+01  1.57411E+01 -3.47424E+00  1.36441E+01  1.80824E+01  2.69428E+01  1.80165E+01  1.55967E+01  3.12829E+01
   2.02161E+01  1.84453E+01  3.60594E+01  1.16478E+01  1.35765E+01  7.45596E+00  2.09568E+01  1.69986E+00  1.26715E+01  5.74882E-01
   1.73480E+00  1.35897E+01  1.66563E+01  1.21059E+01  1.61330E+01  2.61515E+01  6.32739E+00 -1.18584E+01  4.82472E+01  3.26947E+01
   1.71946E+01  5.32140E+01  6.62094E+00  3.05266E+01  3.91976E+01  4.39687E+01  3.44950E+01  2.59658E+01  3.55907E+01  9.91684E+00
   2.18258E+01  2.92325E+01  3.44252E+01  1.44351E+01  3.13614E+01  9.66782E+00  2.98822E+01  2.05573E+01  3.48599E+01  1.13438E+01
   5.63029E+00  3.33900E+00  3.51798E+00  1.77734E+01  1.61184E+01  1.21899E+01  2.48098E+00  2.55283E+01  4.65580E+00  1.24604E+01
   3.02737E+01  1.67381E+01  1.33917E+01  1.12285E+01 -5.52861E+00  9.85622E+00  3.66957E+01  1.21980E+01 -1.78480E+01  2.84726E+00
   1.57909E+01  6.73939E+00  8.55095E+00 -1.11183E+00 -5.41800E+00  6.25430E+00  2.10795E+01 -4.53475E+00 -1.48210E+01  1.66361E+01
  -4.53912E+00  1.12060E+01 -1.51401E+01  2.16534E+01  1.02831E+01  1.73438E+01 -5.01415E+00 -8.97195E+00  1.18122E+01 -3.17239E+00
   3.00668E+00 -1.52836E+01 -2.53530E+00 -1.22299E+01 -1.99209E+01 -8.86041E-01  1.39686E+01  1.14144E+01  9.57687E-01 -3.66372E+00
  -1.99294E+01  1.10809E+01  1.37530E+01  5.18722E+00  3.43909E+00  4.69605E+00  1.10456E+01  4.78305E+00  7.29074E-01  3.60383E+00
   1.29224E+01 -7.02771E-01  8.06918E-01  7.24761E+00  2.36724E+01 -1.06171E+01 -1.03522E+00  1.33183E+01  7.08205E+00  3.33347E+00
   1.09816E+01  1.16355E+01  1.51644E+01 -2.25727E+00 -8.48302E+00  4.89752E-01  4.05240E+00 -1.54602E+01
 NY points of the fit to the data follow
  -1.67726E+01 -1.59822E+01 -1.42907E+01 -1.18708E+01 -9.04972E+00 -6.26841E+00 -4.05044E+00 -2.70628E+00 -2.21965E+00 -2.39322E+00
  -3.02301E+00 -4.00045E+00 -5.25197E+00 -6.68854E+00 -8.23973E+00 -9.85886E+00 -1.14640E+01 -1.29307E+01 -1.41833E+01 -1.52488E+01
  -1.61171E+01 -1.66883E+01 -1.69714E+01 -1.69335E+01 -1.64304E+01 -1.53714E+01 -1.38402E+01 -1.20899E+01 -1.04679E+01 -9.27336E+00
  -8.66164E+00 -8.63411E+00 -9.07174E+00 -9.78358E+00 -1.05922E+01 -1.14023E+01 -1.21831E+01 -1.28549E+01 -1.32682E+01 -1.32530E+01
  -1.26970E+01 -1.15745E+01 -1.00047E+01 -8.31168E+00 -6.87975E+00 -6.02014E+00 -5.85867E+00 -6.28424E+00 -7.09230E+00 -8.07778E+00
  -9.09617E+00 -1.00311E+01 -1.07763E+01 -1.13107E+01 -1.16682E+01 -1.18921E+01 -1.20355E+01 -1.21724E+01 -1.23528E+01 -1.25424E+01
  -1.27118E+01 -1.28778E+01 -1.30256E+01 -1.31198E+01 -1.31334E+01 -1.30614E+01 -1.29215E+01 -1.27274E+01 -1.24875E+01 -1.22287E+01
  -1.19915E+01 -1.17917E+01 -1.16513E+01 -1.16069E+01 -1.16786E+01 -1.18546E+01 -1.20542E+01 -1.21957E+01 -1.22493E+01 -1.22333E+01
  -1.22204E+01 -1.22969E+01 -1.25475E+01 -1.30061E+01 -1.36236E+01 -1.43068E+01 -1.49358E+01 -1.54311E+01 -1.58000E+01 -1.60976E+01
  -1.63679E+01 -1.66246E+01 -1.67768E+01 -1.62943E+01 -1.43084E+01 -1.01079E+01 -3.36597E+00  5.56503E+00  1.56970E+01  2.55614E+01
   3.35644E+01  3.85824E+01  4.04286E+01  3.97521E+01  3.73967E+01  3.38834E+01  2.94860E+01  2.44720E+01  1.90736E+01  1.33881E+01
   7.55481E+00  1.94867E+00 -2.98208E+00 -6.97901E+00 -9.93674E+00 -1.16389E+01 -1.21244E+01 -1.13728E+01 -8.95381E+00 -4.46878E+00
   2.08723E+00  1.01438E+01  1.86786E+01  2.64227E+01  3.21869E+01  3.53420E+01  3.60648E+01  3.50093E+01  3.27233E+01  2.94604E+01
   2.54125E+01  2.08266E+01  1.59078E+01  1.08125E+01  5.81511E+00  1.31939E+00 -2.35782E+00 -5.14279E+00 -6.99671E+00 -7.83843E+00
  -8.17260E+00 -8.37253E+00 -8.51279E+00 -8.61680E+00 -8.70544E+00 -8.79402E+00 -8.89712E+00 -9.03353E+00 -9.19934E+00 -9.37382E+00
  -9.54000E+00 -9.70710E+00 -9.90585E+00 -1.01748E+01 -1.05269E+01 -1.09291E+01 -1.13185E+01 -1.16253E+01 -1.17986E+01 -1.18424E+01
  -1.18234E+01 -1.18438E+01 -1.19881E+01 -1.22751E+01 -1.26657E+01 -1.31127E+01 -1.36091E+01 -1.41752E+01 -1.48069E+01 -1.54822E+01
  -1.61587E+01 -1.67920E+01 -1.73387E+01 -1.77708E+01 -1.80626E+01 -1.82306E+01 -1.83256E+01 -1.83837E+01 -1.84238E+01 -1.84235E+01
  -1.83438E+01 -1.81346E+01 -1.77223E+01 -1.70392E+01 -1.60825E+01 -1.49303E+01 -1.37151E+01 -1.25631E+01 -1.15831E+01 -1.08180E+01
  -1.02526E+01 -9.86943E+00 -9.61007E+00 -9.38975E+00 -9.08108E+00 -8.56108E+00 -7.76271E+00 -6.70728E+00 -5.52345E+00 -4.42827E+00
  -3.67425E+00 -3.47283E+00 -3.95575E+00 -5.11162E+00 -6.74061E+00 -8.51602E+00 -1.00381E+01 -1.09495E+01 -1.10600E+01 -1.03993E+01
  -9.21144E+00 -7.81001E+00 -6.54240E+00 -5.73564E+00 -5.55876E+00 -5.92956E+00 -6.58747E+00 -7.25716E+00 -7.72788E+00 -7.84580E+00
  -7.52733E+00 -6.86676E+00 -6.10812E+00 -5.35930E+00 -4.62274E+00 -3.90561E+00 -3.19887E+00 -2.47445E+00 -1.67672E+00 -8.32244E-01
   7.46418E-03  8.22539E-01  1.61362E+00  2.35914E+00  3.00029E+00  3.47283E+00  3.76800E+00  3.91112E+00  3.94706E+00  3.95672E+00
   4.01766E+00  4.19035E+00  4.48698E+00  4.86975E+00  5.31612E+00  5.85842E+00  6.53587E+00  7.36303E+00  8.34765E+00  9.65371E+00
   1.20751E+01  1.68844E+01  2.50322E+01  3.69417E+01  5.19434E+01  6.83154E+01  8.37422E+01  9.57470E+01  1.02545E+02  1.03907E+02
   1.01032E+02  9.54062E+01  8.79199E+01  7.90451E+01  6.92775E+01  5.90544E+01  4.85796E+01  3.81125E+01  2.82865E+01  1.98545E+01
   1.31839E+01  8.32031E+00  5.51419E+00  4.34717E+00  3.66528E+00  3.12790E+00  2.67353E+00  2.27803E+00  1.93173E+00  1.64198E+00
   1.40656E+00  1.22257E+00  1.09182E+00  1.02080E+00  1.01402E+00  1.08012E+00  1.22581E+00  1.44904E+00  1.74434E+00  2.10517E+00
   2.52299E+00  2.98950E+00  3.49545E+00  4.03062E+00  4.58638E+00  5.15217E+00  5.71509E+00  6.26219E+00  6.78004E+00  7.25443E+00
   7.67157E+00  8.02032E+00  8.29212E+00  8.48100E+00  8.58478E+00  8.60561E+00  8.54881E+00  8.42375E+00  8.24293E+00  8.02164E+00
   7.77717E+00  7.52842E+00  7.29496E+00  7.09665E+00  6.95288E+00  6.88251E+00  6.90308E+00  7.03078E+00  7.28017E+00  7.66418E+00
   8.19380E+00  8.87818E+00  9.72418E+00  1.07364E+01  1.19166E+01  1.32637E+01  1.47734E+01  1.64379E+01  1.82454E+01  2.01804E+01
   2.22235E+01  2.43514E+01  2.65375E+01  2.87523E+01  3.09644E+01  3.31409E+01  3.52489E+01  3.72561E+01  3.91321E+01  4.08496E+01
   4.23844E+01  4.37170E+01  4.48324E+01  4.57205E+01  4.63759E+01  4.67979E+01  4.69896E+01  4.69580E+01  4.67125E+01  4.62651E+01
   4.56291E+01  4.48191E+01  4.38502E+01  4.27381E+01  4.14982E+01  4.01467E+01  3.86991E+01  3.71716E+01  3.55800E+01  3.39405E+01
   3.22691E+01  3.05818E+01  2.88944E+01  2.72222E+01  2.55798E+01  2.39811E+01  2.24386E+01  2.09638E+01  1.95666E+01  1.82553E+01
   1.70367E+01  1.59162E+01  1.48977E+01  1.39838E+01  1.31762E+01  1.24755E+01  1.18819E+01  1.13953E+01  1.10152E+01  1.07413E+01
   1.05736E+01  1.05122E+01  1.05577E+01  1.07111E+01  1.09736E+01  1.13464E+01  1.18308E+01  1.24274E+01  1.31360E+01  1.39550E+01
   1.48810E+01  1.59081E+01  1.70277E+01  1.82277E+01  1.94927E+01  2.08034E+01  2.21369E+01  2.34673E+01  2.47656E+01  2.60013E+01
   2.71428E+01  2.81592E+01  2.90212E+01  2.97026E+01  3.01816E+01  3.04422E+01  3.04741E+01  3.02747E+01  2.98477E+01  2.92041E+01
   2.83610E+01  2.73408E+01  2.61703E+01  2.48788E+01  2.34974E+01  2.20573E+01  2.05884E+01  1.91187E+01  1.76728E+01  1.62722E+01
   1.49340E+01  1.36714E+01  1.24939E+01  1.14071E+01  1.04135E+01  9.51289E+00  8.70286E+00  7.97936E+00  7.33704E+00  6.76990E+00
   6.27142E+00  5.83511E+00  5.45447E+00  5.12347E+00  4.83633E+00  4.58788E+00  4.37333E+00  4.18851E+00  4.02965E+00  3.89353E+00
   3.77725E+00  3.67837E+00  3.59469E+00  3.52441E+00  3.46588E+00  3.41777E+00  3.37884E+00  3.34809E+00  3.32459E+00  3.30760E+00
   3.29641E+00  3.29048E+00  3.28924E+00  3.29227E+00  3.29912E+00  3.30950E+00  3.32305E+00  3.33953E+00  3.35865E+00  3.38023E+00
   3.40402E+00  3.42990E+00  3.45767E+00  3.48723E+00  3.51838E+00  3.55107E+00  3.58513E+00  3.62053E+00  3.65714E+00  3.69491E+00
   3.73373E+00  3.77357E+00  3.81434E+00  3.85603E+00  3.89854E+00  3.94186E+00  3.98592E+00  4.03072E+00  4.07618E+00  4.12233E+00
   4.16910E+00  4.21648E+00  4.26443E+00  4.31298E+00  4.36206E+00  4.41172E+00  4.46188E+00  4.51260E+00  4.56383E+00  4.61561E+00
   4.66792E+00  4.72080E+00  4.77421E+00  4.82823E+00  4.88283E+00  4.93812E+00  4.99407E+00  5.05078E+00
 NY background values follow
    -2.171E+01   -2.165E+01   -2.160E+01   -2.155E+01   -2.150E+01   -2.144E+01   -2.139E+01   -2.134E+01   -2.129E+01   -2.123E+01
    -2.118E+01   -2.113E+01   -2.107E+01   -2.102E+01   -2.097E+01   -2.092E+01   -2.086E+01   -2.081E+01   -2.076E+01   -2.070E+01
    -2.065E+01   -2.060E+01   -2.054E+01   -2.049E+01   -2.044E+01   -2.038E+01   -2.033E+01   -2.028E+01   -2.023E+01   -2.017E+01
    -2.012E+01   -2.007E+01   -2.001E+01   -1.996E+01   -1.991E+01   -1.985E+01   -1.980E+01   -1.974E+01   -1.969E+01   -1.964E+01
    -1.958E+01   -1.953E+01   -1.948E+01   -1.942E+01   -1.937E+01   -1.932E+01   -1.926E+01   -1.921E+01   -1.915E+01   -1.910E+01
    -1.905E+01   -1.899E+01   -1.894E+01   -1.889E+01   -1.883E+01   -1.878E+01   -1.872E+01   -1.867E+01   -1.862E+01   -1.856E+01
    -1.851E+01   -1.845E+01   -1.840E+01   -1.835E+01   -1.829E+01   -1.824E+01   -1.818E+01   -1.813E+01   -1.808E+01   -1.802E+01
    -1.797E+01   -1.791E+01   -1.786E+01   -1.780E+01   -1.775E+01   -1.770E+01   -1.764E+01   -1.759E+01   -1.753E+01   -1.748E+01
    -1.742E+01   -1.737E+01   -1.731E+01   -1.726E+01   -1.721E+01   -1.715E+01   -1.710E+01   -1.704E+01   -1.699E+01   -1.693E+01
    -1.688E+01   -1.682E+01   -1.677E+01   -1.671E+01   -1.666E+01   -1.660E+01   -1.655E+01   -1.650E+01   -1.644E+01   -1.639E+01
    -1.633E+01   -1.628E+01   -1.622E+01   -1.617E+01   -1.611E+01   -1.606E+01   -1.600E+01   -1.595E+01   -1.589E+01   -1.584E+01
    -1.578E+01   -1.573E+01   -1.567E+01   -1.562E+01   -1.556E+01   -1.551E+01   -1.545E+01   -1.540E+01   -1.534E+01   -1.529E+01
    -1.523E+01   -1.518E+01   -1.512E+01   -1.507E+01   -1.501E+01   -1.495E+01   -1.490E+01   -1.484E+01   -1.479E+01   -1.473E+01
    -1.468E+01   -1.462E+01   -1.457E+01   -1.451E+01   -1.446E+01   -1.440E+01   -1.435E+01   -1.429E+01   -1.423E+01   -1.418E+01
    -1.412E+01   -1.407E+01   -1.401E+01   -1.396E+01   -1.390E+01   -1.385E+01   -1.379E+01   -1.374E+01   -1.368E+01   -1.362E+01
    -1.357E+01   -1.351E+01   -1.346E+01   -1.340E+01   -1.335E+01   -1.329E+01   -1.323E+01   -1.318E+01   -1.312E+01   -1.307E+01
    -1.301E+01   -1.296E+01   -1.290E+01   -1.284E+01   -1.279E+01   -1.273E+01   -1.268E+01   -1.262E+01   -1.256E+01   -1.251E+01
    -1.245E+01   -1.240E+01   -1.234E+01   -1.228E+01   -1.223E+01   -1.217E+01   -1.212E+01   -1.206E+01   -1.200E+01   -1.195E+01
    -1.189E+01   -1.184E+01   -1.178E+01   -1.172E+01   -1.167E+01   -1.161E+01   -1.156E+01   -1.150E+01   -1.144E+01   -1.139E+01
    -1.133E+01   -1.128E+01   -1.122E+01   -1.116E+01   -1.111E+01   -1.105E+01   -1.099E+01   -1.094E+01   -1.088E+01   -1.083E+01
    -1.077E+01   -1.071E+01   -1.066E+01   -1.060E+01   -1.054E+01   -1.049E+01   -1.043E+01   -1.038E+01   -1.032E+01   -1.026E+01
    -1.021E+01   -1.015E+01   -1.009E+01   -1.004E+01   -9.982E+00   -9.925E+00   -9.869E+00   -9.812E+00   -9.756E+00   -9.700E+00
    -9.643E+00   -9.587E+00   -9.530E+00   -9.474E+00   -9.417E+00   -9.361E+00   -9.305E+00   -9.248E+00   -9.192E+00   -9.135E+00
    -9.079E+00   -9.022E+00   -8.966E+00   -8.909E+00   -8.853E+00   -8.796E+00   -8.739E+00   -8.683E+00   -8.626E+00   -8.570E+00
    -8.513E+00   -8.457E+00   -8.400E+00   -8.343E+00   -8.287E+00   -8.230E+00   -8.174E+00   -8.117E+00   -8.060E+00   -8.004E+00
    -7.947E+00   -7.891E+00   -7.834E+00   -7.777E+00   -7.721E+00   -7.664E+00   -7.607E+00   -7.551E+00   -7.494E+00   -7.437E+00
    -7.381E+00   -7.324E+00   -7.267E+00   -7.211E+00   -7.154E+00   -7.097E+00   -7.041E+00   -6.984E+00   -6.927E+00   -6.870E+00
    -6.814E+00   -6.757E+00   -6.700E+00   -6.643E+00   -6.587E+00   -6.530E+00   -6.473E+00   -6.417E+00   -6.360E+00   -6.303E+00
    -6.246E+00   -6.189E+00   -6.133E+00   -6.076E+00   -6.019E+00   -5.962E+00   -5.906E+00   -5.849E+00   -5.792E+00   -5.735E+00
    -5.679E+00   -5.622E+00   -5.565E+00   -5.508E+00   -5.451E+00   -5.395E+00   -5.338E+00   -5.281E+00   -5.224E+00   -5.167E+00
    -5.111E+00   -5.054E+00   -4.997E+00   -4.940E+00   -4.883E+00   -4.827E+00   -4.770E+00   -4.713E+00   -4.656E+00   -4.599E+00
    -4.543E+00   -4.486E+00   -4.429E+00   -4.372E+00   -4.315E+00   -4.259E+00   -4.202E+00   -4.145E+00   -4.088E+00   -4.031E+00
    -3.975E+00   -3.918E+00   -3.861E+00   -3.804E+00   -3.747E+00   -3.691E+00   -3.634E+00   -3.577E+00   -3.520E+00   -3.463E+00
    -3.407E+00   -3.350E+00   -3.293E+00   -3.236E+00   -3.179E+00   -3.123E+00   -3.066E+00   -3.009E+00   -2.952E+00   -2.895E+00
    -2.839E+00   -2.782E+00   -2.725E+00   -2.668E+00   -2.612E+00   -2.555E+00   -2.498E+00   -2.441E+00   -2.385E+00   -2.328E+00
    -2.271E+00   -2.214E+00   -2.158E+00   -2.101E+00   -2.044E+00   -1.987E+00   -1.931E+00   -1.874E+00   -1.817E+00   -1.760E+00
    -1.704E+00   -1.647E+00   -1.590E+00   -1.534E+00   -1.477E+00   -1.420E+00   -1.364E+00   -1.307E+00   -1.250E+00   -1.194E+00
    -1.137E+00   -1.080E+00   -1.024E+00   -9.669E-01   -9.102E-01   -8.536E-01   -7.970E-01   -7.403E-01   -6.837E-01   -6.271E-01
    -5.705E-01   -5.139E-01   -4.572E-01   -4.007E-01   -3.441E-01   -2.875E-01   -2.309E-01   -1.743E-01   -1.177E-01   -6.119E-02
    -4.634E-03    5.191E-02    1.085E-01    1.650E-01    2.215E-01    2.780E-01    3.346E-01    3.911E-01    4.476E-01    5.040E-01
     5.605E-01    6.170E-01    6.735E-01    7.299E-01    7.864E-01    8.428E-01    8.993E-01    9.557E-01    1.012E+00    1.069E+00
     1.125E+00    1.181E+00    1.238E+00    1.294E+00    1.350E+00    1.407E+00    1.463E+00    1.520E+00    1.576E+00    1.632E+00
     1.689E+00    1.745E+00    1.801E+00    1.857E+00    1.914E+00    1.970E+00    2.026E+00    2.082E+00    2.139E+00    2.195E+00
     2.251E+00    2.307E+00    2.364E+00    2.420E+00    2.476E+00    2.532E+00    2.588E+00    2.644E+00    2.701E+00    2.757E+00
     2.813E+00    2.869E+00    2.925E+00    2.981E+00    3.037E+00    3.093E+00    3.149E+00    3.205E+00    3.261E+00    3.317E+00
     3.373E+00    3.429E+00    3.485E+00    3.541E+00    3.597E+00    3.653E+00    3.709E+00    3.765E+00    3.821E+00    3.877E+00
     3.933E+00    3.989E+00    4.044E+00    4.100E+00    4.156E+00    4.212E+00    4.268E+00    4.323E+00    4.379E+00    4.435E+00
     4.491E+00    4.546E+00    4.602E+00    4.658E+00    4.714E+00    4.769E+00    4.825E+00    4.881E+00    4.936E+00    4.992E+00
     5.047E+00    5.103E+00    5.159E+00    5.214E+00    5.270E+00    5.325E+00    5.381E+00    5.436E+00    5.492E+00    5.547E+00
     5.603E+00    5.658E+00    5.714E+00    5.769E+00    5.824E+00    5.880E+00    5.935E+00    5.990E+00
 Asp      Conc. = 6.21E+01
