 LCModel (Version 6.3-1L) Copyright: S.W. Provencher.          Ref.: Magn. Reson. Med. 30:672-679 (1993).                
 Slice#2 Row#2 Col#7  PD_05_press_2_raw_act
 36 lines in following concentration table = NCONC+1
    Conc.  %SD /Cr+PCr  Metabolite                                         
  677.161  85%   5.517 Ala                                                 
  135.487 203%   1.104 Asp                                                 
    0.000 999%   0.000 Cr                                                  
  122.743 190%   1.000 PCr                                                 
   90.805 183%   0.740 GABA                                                
   42.537 394%   0.347 Glc                                                 
    0.000 999%   0.000 Gln                                                 
    0.000 999%   0.000 Glu                                                 
    0.000 999%   0.000 GPC                                                 
  210.714  38%   1.717 PCh                                                 
    0.000 999%   0.000 GSH                                                 
    0.000 999%   0.000 Ins                                                 
    0.000 999%   0.000 Lac                                                 
  917.079  35%   7.472 NAA                                                 
 1.50E+03  21%  12.209 NAAG                                                
    4.606 999% 3.8E-02 Scyllo                                              
  145.623 180%   1.186 Tau                                                 
  746.425  44%   6.081 -CrCH2                                              
  210.714  38%   1.717 GPC+PCh                                             
 2.42E+03  13%  19.681 NAA+NAAG                                            
  122.743 190%   1.000 Cr+PCr                                              
    0.000 999%   0.000 Glu+Gln                                             
    0.000 999%   0.000 Lip13a                                              
    0.000 999%   0.000 Lip13b                                              
    0.000 999%   0.000 Lip09                                               
 1.08E+03  41%   8.824 MM09                                                
 1.99E-02 999% 1.6E-04 Lip20                                               
 1.93E+03  37%  15.753 MM20                                                
  308.659  50%   2.515 MM12                                                
  539.963  81%   4.399 MM14                                                
  225.657 123%   1.838 MM17                                                
    0.000 999%   0.000 Lip13a+Lip13b                                       
  848.622  64%   6.914 MM14+Lip13a+Lip13b+MM12                             
 1.08E+03  41%   8.824 MM09+Lip09                                          
 1.93E+03  37%  15.753 MM20+Lip20                                          
   6 lines in following misc. output table
  FWHM = 0.153 ppm    S/N =   2                                            
  Data shift =-0.046 ppm                                                   
  Ph:  13 deg      30.9 deg/ppm                                            
  alphaB,S = 2.5E+00,   1.3E+01                                            
   14 spline knots.   Ns =10(1)                                            
  (11) 7 infls.   (13) 7 extrs.                                            
  498 points on ppm-axis = NY
      4.000000     3.992357     3.984714     3.977070     3.969427     3.961784     3.954141     3.946497     3.938854     3.931211
      3.923568     3.915925     3.908281     3.900638     3.892995     3.885352     3.877708     3.870065     3.862422     3.854779
      3.847136     3.839492     3.831849     3.824206     3.816563     3.808919     3.801276     3.793633     3.785990     3.778347
      3.770703     3.763060     3.755417     3.747774     3.740130     3.732487     3.724844     3.717201     3.709558     3.701914
      3.694271     3.686628     3.678985     3.671341     3.663698     3.656055     3.648412     3.640769     3.633125     3.625482
      3.617839     3.610196     3.602552     3.594909     3.587266     3.579623     3.571980     3.564336     3.556693     3.549050
      3.541407     3.533763     3.526120     3.518477     3.510834     3.503191     3.495547     3.487904     3.480261     3.472618
      3.464974     3.457331     3.449688     3.442045     3.434402     3.426758     3.419115     3.411472     3.403829     3.396185
      3.388542     3.380899     3.373256     3.365613     3.357969     3.350326     3.342683     3.335040     3.327396     3.319753
      3.312110     3.304467     3.296824     3.289180     3.281537     3.273894     3.266251     3.258607     3.250964     3.243321
      3.235678     3.228034     3.220391     3.212748     3.205105     3.197462     3.189818     3.182175     3.174532     3.166889
      3.159245     3.151602     3.143959     3.136316     3.128673     3.121029     3.113386     3.105743     3.098100     3.090456
      3.082813     3.075170     3.067527     3.059884     3.052240     3.044597     3.036954     3.029311     3.021667     3.014024
      3.006381     2.998738     2.991095     2.983451     2.975808     2.968165     2.960522     2.952878     2.945235     2.937592
      2.929949     2.922306     2.914662     2.907019     2.899376     2.891733     2.884089     2.876446     2.868803     2.861160
      2.853517     2.845873     2.838230     2.830587     2.822944     2.815300     2.807657     2.800014     2.792371     2.784728
      2.777084     2.769441     2.761798     2.754155     2.746511     2.738868     2.731225     2.723582     2.715939     2.708295
      2.700652     2.693009     2.685366     2.677722     2.670079     2.662436     2.654793     2.647150     2.639506     2.631863
      2.624220     2.616577     2.608933     2.601290     2.593647     2.586004     2.578361     2.570717     2.563074     2.555431
      2.547788     2.540144     2.532501     2.524858     2.517215     2.509572     2.501928     2.494285     2.486642     2.478999
      2.471355     2.463712     2.456069     2.448426     2.440783     2.433139     2.425496     2.417853     2.410210     2.402566
      2.394923     2.387280     2.379637     2.371994     2.364350     2.356707     2.349064     2.341421     2.333777     2.326134
      2.318491     2.310848     2.303205     2.295561     2.287918     2.280275     2.272632     2.264988     2.257345     2.249702
      2.242059     2.234416     2.226772     2.219129     2.211486     2.203843     2.196199     2.188556     2.180913     2.173270
      2.165627     2.157983     2.150340     2.142697     2.135054     2.127410     2.119767     2.112124     2.104481     2.096838
      2.089194     2.081551     2.073908     2.066265     2.058621     2.050978     2.043335     2.035692     2.028049     2.020405
      2.012762     2.005119     1.997476     1.989833     1.982190     1.974546     1.966903     1.959260     1.951617     1.943974
      1.936331     1.928688     1.921045     1.913402     1.905759     1.898115     1.890472     1.882829     1.875186     1.867543
      1.859900     1.852257     1.844614     1.836971     1.829327     1.821684     1.814041     1.806398     1.798755     1.791112
      1.783469     1.775826     1.768183     1.760540     1.752896     1.745253     1.737610     1.729967     1.722324     1.714681
      1.707038     1.699395     1.691752     1.684108     1.676465     1.668822     1.661179     1.653536     1.645893     1.638250
      1.630607     1.622964     1.615321     1.607677     1.600034     1.592391     1.584748     1.577105     1.569462     1.561819
      1.554176     1.546533     1.538890     1.531246     1.523603     1.515960     1.508317     1.500674     1.493031     1.485388
      1.477745     1.470102     1.462458     1.454815     1.447172     1.439529     1.431886     1.424243     1.416600     1.408957
      1.401314     1.393671     1.386027     1.378384     1.370741     1.363098     1.355455     1.347812     1.340169     1.332526
      1.324883     1.317240     1.309596     1.301953     1.294310     1.286667     1.279024     1.271381     1.263738     1.256095
      1.248452     1.240808     1.233165     1.225522     1.217879     1.210236     1.202593     1.194950     1.187307     1.179664
      1.172021     1.164377     1.156734     1.149091     1.141448     1.133805     1.126162     1.118519     1.110876     1.103233
      1.095590     1.087946     1.080303     1.072660     1.065017     1.057374     1.049731     1.042088     1.034445     1.026802
      1.019158     1.011515     1.003872     0.996229     0.988586     0.980943     0.973300     0.965657     0.958014     0.950371
      0.942727     0.935084     0.927441     0.919798     0.912155     0.904512     0.896869     0.889226     0.881583     0.873940
      0.866296     0.858653     0.851010     0.843367     0.835724     0.828081     0.820438     0.812795     0.805152     0.797508
      0.789865     0.782222     0.774579     0.766936     0.759293     0.751650     0.744007     0.736364     0.728721     0.721077
      0.713434     0.705791     0.698148     0.690505     0.682862     0.675219     0.667576     0.659933     0.652290     0.644646
      0.637003     0.629360     0.621717     0.614074     0.606431     0.598788     0.591145     0.583502     0.575858     0.568215
      0.560572     0.552929     0.545286     0.537643     0.530000     0.522357     0.514714     0.507071     0.499427     0.491784
      0.484141     0.476498     0.468855     0.461212     0.453569     0.445925     0.438282     0.430639     0.422996     0.415353
      0.407710     0.400067     0.392424     0.384780     0.377137     0.369494     0.361851     0.354208     0.346565     0.338922
      0.331278     0.323635     0.315992     0.308349     0.300706     0.293063     0.285420     0.277777     0.270133     0.262490
      0.254847     0.247204     0.239561     0.231918     0.224275     0.216631     0.208988     0.201345
 NY phased data points follow
   1.19872E+00 -4.82207E+01 -2.57175E+01 -4.56196E+01 -1.29928E+01 -4.83857E+01 -3.16224E+01 -4.80891E+01 -1.43979E+01 -3.53388E+01
  -1.56003E+01 -2.41961E+01 -1.19304E+01 -1.26526E+01  8.34300E+00 -1.69904E+01 -1.18813E+01 -2.33725E+01 -8.67517E+00 -1.36643E+00
  -1.59359E+01 -3.13371E+01 -1.53462E+01 -2.11795E+00 -1.15522E+01 -2.48131E+01 -9.85010E+00 -2.37506E+01 -1.29173E+01 -2.31288E+01
  -2.91998E+01 -7.13041E+00 -2.10596E+01 -3.89052E+01 -2.00139E-01 -1.80919E+01 -4.58902E+00 -1.48558E+01  1.24714E+00 -1.87043E+01
  -5.74297E+00 -1.45961E+01 -3.15866E+00 -2.74348E+01  8.23820E+00  4.26412E+00  3.67067E+00 -3.26147E+01 -2.93385E+00 -1.73648E+01
  -7.06327E+00 -2.07152E+01 -4.02215E+01 -3.30812E+01 -3.03373E+01  1.61677E+00  1.01957E+01  5.16559E+00  4.63065E+00 -1.97439E+01
   5.95944E+00 -1.51415E+01 -3.86543E+01 -2.39906E+01 -2.35258E+01 -1.29946E+01 -9.18520E+00 -3.18939E+01 -8.61542E+00 -5.68348E+00
   1.06392E+01 -7.32619E+00 -1.84817E+00  9.14202E+00 -1.42186E+00  8.71023E+00  7.90103E+00 -1.56923E+01  1.85725E+01  4.19815E+00
  -2.39932E+01 -1.50126E+01 -7.19152E+00  6.83228E+00 -6.88165E+00 -1.35061E+01 -1.13364E+01 -4.09703E+01  3.34699E+00 -1.70122E+01
  -6.19991E+00 -1.55062E+01  1.02432E+01 -1.14857E+01 -1.17021E+01 -1.74345E+01  3.90584E+00 -4.33438E-01 -2.35044E+00 -1.92097E+01
  -6.71279E+00 -1.25708E-01  2.02016E+01 -5.79030E+00  9.65389E+00  8.01702E+00  6.97299E+00  6.50467E-01  9.83581E+00  1.57944E+01
  -5.49914E+00 -2.09924E+01 -7.73935E+00  2.85247E+01  2.44453E+00  1.05461E+01  9.76630E+00 -1.09499E+01 -1.50452E+01 -3.59843E+01
  -9.30181E+00 -3.38153E+01 -1.08361E+01 -9.14542E+00  5.12827E+00  2.34141E+01  9.86031E+00  3.68899E+00 -4.93006E-01  8.98260E-01
   2.24670E+01  7.81148E+00  2.64514E+01 -4.11233E+00 -1.18138E+01 -2.49956E+00 -1.05581E+00  2.48308E-01  1.27859E+01  2.55160E+01
  -5.81228E-01 -5.93229E+00  1.51365E+01 -1.70598E+01  1.01711E+01  1.25007E+01 -6.94513E+00  1.03598E+00 -1.28191E+01 -2.53448E+00
   1.16207E+01 -1.14521E+00 -2.52300E+00  6.94105E+00  7.01370E+00 -1.06994E+00  7.12620E+00  1.09034E-01 -1.85195E+01 -4.74966E+00
  -2.20857E+01 -2.16627E+00  8.77815E+00 -1.10799E+01 -1.20147E+01 -8.22433E+00  2.12841E+01 -1.72081E+01  8.29188E+00  1.56635E+00
   3.46583E+01 -1.52708E+01 -9.53497E-01  8.84257E+00  5.71100E+00 -3.93447E+00  2.21513E+01  4.18081E+00 -5.54880E+00 -1.38215E+01
   2.54528E+00 -4.13291E+00  4.66378E+00 -1.15116E+00  1.05061E+01  1.35697E+01  8.89549E+00 -1.84478E+01  1.38017E+01  1.50605E+01
   1.39887E-01 -9.46997E+00  1.00746E+01 -7.61813E+00  1.65841E+00 -2.27255E+00 -9.46169E+00 -7.32230E-01 -1.25313E+00 -4.16808E+00
   6.36592E+00 -7.53608E+00  6.06128E+00  1.02613E+00  3.73624E+00  2.17631E+01  1.41941E+01  1.89039E+01 -8.36455E-01  8.60640E+00
   1.09211E+01  5.25005E+00  1.01990E+01 -1.97668E+00  1.30418E+01  1.28674E+01  1.98931E+01 -4.97652E+00  7.40900E+00  2.77413E+01
   1.02858E+01 -4.87384E-01  1.61663E+01 -1.04193E+00  8.47797E+00  7.67539E+00  1.85551E+01  3.25566E-01  1.91291E+00  1.74652E+00
   3.34002E+01  8.11980E+00  1.15828E+01  1.11298E+01  1.98850E+01  1.08507E+01  5.47259E+00  1.63970E+01  1.52485E+01  1.38577E+01
   1.01021E+01  1.11200E+01  3.11437E+01 -2.61696E+00  2.14443E+01  4.61267E+01  1.56350E+01  4.34205E+01  3.58104E+01  2.94898E+01
   1.76290E+01  1.41681E+01  2.33430E+01  4.97766E+01  2.86403E+01  2.46222E+01  3.29358E+01  5.49278E+01  4.07324E+01  3.82646E+01
   4.15476E+01  2.81530E+01  4.14673E+01  2.39041E+01  5.85962E+01  3.92886E+01  4.59961E+01  1.16682E+01  2.05881E+01  2.43202E+01
   2.01722E+01  2.78438E+01  2.51615E+01  1.29256E+01  9.49486E+00  3.44678E+00  1.24631E+01 -7.99108E+00  7.40055E-01  9.46767E+00
   4.48602E+00  1.31161E+01 -1.19430E+01 -1.00536E+01  7.34293E-01  7.34693E+00 -7.92915E+00 -1.29109E+01  1.13353E+01  2.11493E+01
   2.70798E+01  8.22742E-01  6.59586E+00 -1.08075E+01  1.09706E+00 -2.37463E+00  1.15441E+01 -4.43167E-01  1.39810E+01 -2.07862E+01
  -6.47653E+00  1.76128E+00  4.74628E+00 -1.35653E+01  9.24383E+00 -1.28726E+01  8.31403E+00 -5.82549E+00  7.37398E+00  4.02799E+00
  -3.30581E+00  5.03987E+00  5.19168E+00  1.39510E+01  1.26598E+01 -1.21288E+01 -5.87255E+00  2.41501E-01  1.31497E+01 -4.28163E+00
  -1.50567E+01 -2.73853E+00  5.16874E+00  1.91945E-02 -4.16800E-01 -7.82138E+00  2.03092E+01  1.53593E+01  1.98059E+01  2.15111E+01
   4.65316E+00 -1.44428E+01  1.44940E+01  3.15288E+00  2.59501E+00  1.33224E+01  1.78643E+01  9.39863E+00  5.97858E+00  7.91553E+00
   3.60726E+00  5.16107E+00  1.19563E+00 -1.94756E+01  1.54989E+01 -1.30088E+01  2.51905E+01  4.74373E+00 -3.56994E+00  2.42228E+00
  -1.04989E+01  2.58644E+00  2.32755E+01 -1.98375E+01 -1.80409E+01 -1.50136E+00  1.87840E+01  1.53348E+01  5.50939E+00  2.32575E+01
   1.34020E+01 -1.07802E+00  1.32419E+01 -4.39895E-01  8.13227E+00  1.03498E+00  2.36466E-02 -1.69024E+01  1.09500E+01 -1.05498E+01
  -2.30845E+01  3.70354E+00 -1.41699E+01 -5.76272E-01  1.95802E+01  3.81002E-01  4.08953E+00  2.05230E+01  1.99598E+01  1.42416E+01
   8.68874E+00 -1.35749E+00  1.87420E+01  1.76419E+01  1.75023E+01  1.74851E+01  2.12906E+01 -2.00562E+00  5.31073E+00 -1.17120E+01
  -2.07049E+00 -1.14649E+00  1.65741E+01  5.50450E+00  1.61816E+01 -3.30093E+00  6.31306E+00  5.03178E+00  1.43872E+01  2.31158E+01
   2.19871E+01  1.21934E+01  3.40388E+01 -6.88606E+00  2.81640E+01 -7.55479E-01  1.78455E+01  1.02458E+01  1.69681E+01  2.88248E+01
   2.05087E+00  1.70284E+01 -1.76807E-01 -1.15576E+01 -9.86926E+00  1.58359E-01  9.45102E+00  2.87633E+00  3.13212E+01  8.63723E+00
   5.60968E+00  1.27444E+01  5.73517E+00  8.28148E+00  1.59399E+01  4.20345E+00  1.20735E+01  2.24973E+01  4.93564E+00  1.54765E+01
   2.14187E+01  2.89731E+01  2.48313E+01  2.65002E+00  1.33904E+01 -1.32176E+01  1.57976E+01  1.17069E+01 -4.90801E+00  7.46885E+00
   1.01317E+01 -7.87200E+00 -8.87361E-01  1.70000E+01  6.56016E+00  5.85451E+00 -8.58536E-01  5.00017E+00  1.20962E+01  2.49738E-01
   2.55575E+01 -8.36305E+00  2.18565E+01  1.30530E+01  8.83617E+00  2.40318E+01 -7.00311E+00  1.20364E+01 -1.38961E+01  1.16161E+00
   9.44297E+00  9.36436E+00  1.22259E+01  6.43176E+00 -2.66402E+00 -1.48677E+01  2.53172E-01  2.11124E+00  9.14557E+00  2.35694E+01
   6.33629E+00  3.19563E+01  6.48369E-02  4.50744E+00  1.53635E+01  1.24679E+01  7.31523E+00 -3.48956E+00  1.23371E+01 -1.05317E+00
   6.15202E+00 -1.46740E+01  1.94154E+00 -5.07036E+00  1.66376E+01  1.89489E+00  3.30377E+00  1.37260E+01  4.25848E+00 -2.13652E+00
   6.09606E+00  2.30203E+01  1.56343E+01 -1.21385E+01  4.81592E+00  2.88747E+01 -4.45727E+00  2.24838E+00
 NY points of the fit to the data follow
  -1.81987E+01 -1.83476E+01 -1.54763E+01 -1.19584E+01 -1.12773E+01 -1.39376E+01 -1.66657E+01 -1.74852E+01 -1.80140E+01 -1.93947E+01
  -2.01781E+01 -1.91704E+01 -1.71958E+01 -1.48629E+01 -1.25996E+01 -1.14769E+01 -1.34157E+01 -1.76478E+01 -2.01829E+01 -1.83303E+01
  -1.41707E+01 -1.18669E+01 -1.09995E+01 -1.07110E+01 -1.01451E+01 -9.43993E+00 -9.31905E+00 -1.01677E+01 -1.11781E+01 -1.15149E+01
  -1.12157E+01 -1.07922E+01 -1.02965E+01 -9.60284E+00 -9.01449E+00 -9.10295E+00 -9.66556E+00 -9.91638E+00 -9.88656E+00 -1.01079E+01
  -1.04501E+01 -1.03810E+01 -9.68040E+00 -8.91545E+00 -8.72317E+00 -8.88548E+00 -8.86988E+00 -8.89451E+00 -9.09634E+00 -9.36403E+00
  -9.40825E+00 -9.21628E+00 -9.00105E+00 -8.93580E+00 -8.82630E+00 -8.67204E+00 -8.48235E+00 -8.29358E+00 -8.24591E+00 -8.31756E+00
  -8.37787E+00 -8.34701E+00 -8.17879E+00 -7.96597E+00 -7.84868E+00 -7.70411E+00 -7.47558E+00 -7.33097E+00 -7.36189E+00 -7.57447E+00
  -7.82898E+00 -7.89116E+00 -7.62951E+00 -7.24629E+00 -6.95404E+00 -6.78886E+00 -6.71631E+00 -6.74669E+00 -6.83768E+00 -6.94652E+00
  -7.10605E+00 -7.16393E+00 -6.98158E+00 -6.58991E+00 -6.23219E+00 -6.18308E+00 -6.44406E+00 -6.67660E+00 -6.59046E+00 -6.27331E+00
  -5.92852E+00 -5.70806E+00 -5.57581E+00 -4.79128E+00 -1.41174E+00  2.95988E+00  4.66940E+00  1.69496E+00 -3.63482E+00 -6.10022E+00
  -3.19992E+00  1.41786E+00  3.38230E+00  3.66525E+00  5.08983E+00  6.82114E+00  6.64591E+00  4.98775E+00  2.59208E+00 -5.72695E-01
  -3.05373E+00 -1.83764E+00  3.48826E+00  7.79318E+00  6.41906E+00  6.48974E-01 -2.67331E+00 -2.59622E+00 -1.86505E+00 -1.67891E+00
  -2.36827E+00 -3.40795E+00 -3.77691E+00 -3.11348E+00 -2.21862E+00 -1.83459E+00 -1.62089E+00 -1.14032E+00 -7.24635E-01 -7.80617E-01
  -1.12529E+00 -1.60258E+00 -2.25081E+00 -2.75358E+00 -2.46797E+00 -1.35211E+00 -4.67858E-01 -7.61665E-01 -1.92703E+00 -2.62519E+00
  -2.83327E+00 -2.95348E+00 -3.03711E+00 -3.10677E+00 -3.29759E+00 -3.60792E+00 -3.78720E+00 -3.61037E+00 -3.03982E+00 -2.49711E+00
  -2.64486E+00 -3.49527E+00 -4.42357E+00 -4.80090E+00 -4.51592E+00 -3.88383E+00 -3.52013E+00 -3.72255E+00 -4.12228E+00 -4.36982E+00
  -4.63300E+00 -4.95102E+00 -5.19899E+00 -5.21719E+00 -4.96640E+00 -4.78909E+00 -5.03791E+00 -5.38674E+00 -5.44498E+00 -5.47438E+00
  -5.61841E+00 -5.74428E+00 -5.97513E+00 -6.09893E+00 -5.62937E+00 -4.78571E+00 -4.33188E+00 -4.72718E+00 -5.64633E+00 -5.86444E+00
  -4.65922E+00 -2.93344E+00 -2.28038E+00 -2.91646E+00 -3.80414E+00 -3.96242E+00 -3.10836E+00 -1.75298E+00 -7.88409E-01 -7.01935E-01
  -1.17986E+00 -1.33484E+00 -4.92097E-01  5.59281E-01  7.86319E-01  2.55278E-01  3.70022E-02  1.95105E-01  2.80692E-01  2.27540E-01
   4.17108E-01  6.31800E-01  4.93187E-01  1.67435E-01  6.29705E-03 -1.72176E-01 -3.52998E-01 -1.97865E-01  3.71030E-02 -8.81922E-02
  -5.40303E-01 -7.08679E-01 -2.87782E-01  2.11406E-01  5.32664E-01  6.69854E-01  6.23797E-01  3.59484E-01  2.50467E-01  6.07129E-01
   1.09970E+00  1.13422E+00  1.12073E+00  1.47308E+00  2.21886E+00  3.10837E+00  3.84381E+00  4.07470E+00  3.67593E+00  3.08633E+00
   2.85980E+00  3.22473E+00  3.77681E+00  4.13139E+00  4.48498E+00  5.30426E+00  6.38623E+00  6.91798E+00  6.52039E+00  5.78709E+00
   5.45313E+00  5.75148E+00  6.67485E+00  8.12586E+00  1.00680E+01  1.36602E+01  2.23174E+01  3.15887E+01  3.42173E+01  2.64827E+01
   1.66348E+01  1.80538E+01  3.07426E+01  4.05105E+01  3.77973E+01  3.24568E+01  3.65845E+01  4.56870E+01  4.82177E+01  4.40242E+01
   3.87686E+01  3.39976E+01  3.02412E+01  3.26201E+01  4.19946E+01  4.55586E+01  3.49280E+01  1.93109E+01  1.71866E+01  2.31505E+01
   2.43618E+01  1.76054E+01  9.70885E+00  7.09250E+00  6.36875E+00  6.00567E+00  5.56383E+00  4.85406E+00  4.19194E+00  3.92840E+00
   3.97918E+00  4.09857E+00  4.25333E+00  4.50775E+00  4.66559E+00  4.42033E+00  3.92833E+00  3.62188E+00  3.60717E+00  3.62117E+00
   3.61671E+00  3.74724E+00  4.06814E+00  4.39392E+00  4.53904E+00  4.55872E+00  4.54903E+00  4.48238E+00  4.37767E+00  4.31248E+00
   4.42988E+00  4.71187E+00  4.94737E+00  5.03058E+00  5.10116E+00  5.17812E+00  5.19422E+00  5.13901E+00  5.10926E+00  5.18713E+00
   5.35330E+00  5.50383E+00  5.65448E+00  5.83876E+00  6.08459E+00  6.46157E+00  7.15085E+00  8.44369E+00  9.23421E+00  8.08307E+00
   5.27192E+00  2.72246E+00  2.63875E+00  4.82609E+00  6.48191E+00  6.67525E+00  7.79251E+00  1.04089E+01  1.17925E+01  9.36207E+00
   4.79497E+00  1.79756E+00  1.80797E+00  3.50648E+00  5.94235E+00  9.11406E+00  1.12025E+01  1.01728E+01  7.44796E+00  6.48144E+00
   6.57285E+00  5.37836E+00  3.95934E+00  4.72900E+00  8.07875E+00  1.11738E+01  1.12777E+01  9.43984E+00  8.36085E+00  7.80882E+00
   7.46858E+00  7.23663E+00  7.06980E+00  6.94653E+00  6.85538E+00  6.78945E+00  6.74361E+00  6.71310E+00  6.69386E+00  6.68301E+00
   6.67887E+00  6.68002E+00  6.68458E+00  6.69030E+00  6.69541E+00  6.69924E+00  6.70195E+00  6.70376E+00  6.70438E+00  6.70354E+00
   6.70165E+00  6.70019E+00  6.70106E+00  6.70590E+00  6.71577E+00  6.73198E+00  6.75650E+00  6.79211E+00  6.84145E+00  6.90670E+00
   6.98952E+00  7.09202E+00  7.21684E+00  7.36697E+00  7.54475E+00  7.75178E+00  7.98898E+00  8.25745E+00  8.55799E+00  8.89076E+00
   9.25415E+00  9.64513E+00  1.00593E+01  1.04918E+01  1.09365E+01  1.13859E+01  1.18306E+01  1.22606E+01  1.26652E+01  1.30346E+01
   1.33592E+01  1.36301E+01  1.38388E+01  1.39790E+01  1.40467E+01  1.40408E+01  1.39621E+01  1.38136E+01  1.35997E+01  1.33276E+01
   1.30057E+01  1.26443E+01  1.22534E+01  1.18429E+01  1.14222E+01  1.10003E+01  1.05858E+01  1.01858E+01  9.80561E+00  9.44913E+00
   9.11868E+00  8.81635E+00  8.54292E+00  8.29849E+00  8.08155E+00  7.89041E+00  7.72295E+00  7.57772E+00  7.45269E+00  7.34594E+00
   7.25479E+00  7.17730E+00  7.11161E+00  7.05681E+00  7.01144E+00  6.97433E+00  6.94374E+00  6.91890E+00  6.89904E+00  6.88413E+00
   6.87334E+00  6.86610E+00  6.86139E+00  6.85922E+00  6.85937E+00  6.86209E+00  6.86672E+00  6.87298E+00  6.88024E+00  6.88887E+00
   6.89880E+00  6.91031E+00  6.92268E+00  6.93583E+00  6.94936E+00  6.96387E+00  6.97922E+00  6.99561E+00  7.01229E+00  7.02936E+00
   7.04660E+00  7.06467E+00  7.08332E+00  7.10263E+00  7.12189E+00  7.14139E+00  7.16103E+00  7.18144E+00  7.20220E+00  7.22335E+00
   7.24427E+00  7.26541E+00  7.28672E+00  7.30874E+00  7.33090E+00  7.35325E+00  7.37530E+00  7.39764E+00  7.42019E+00  7.44335E+00
   7.46646E+00  7.48963E+00  7.51251E+00  7.53580E+00  7.55929E+00  7.58328E+00  7.60704E+00  7.63083E+00  7.65440E+00  7.67847E+00
   7.70271E+00  7.72732E+00  7.75158E+00  7.77590E+00  7.80011E+00  7.82489E+00  7.84978E+00  7.87492E+00
 NY background values follow
    -1.204E+01   -1.199E+01   -1.193E+01   -1.187E+01   -1.181E+01   -1.175E+01   -1.170E+01   -1.164E+01   -1.158E+01   -1.152E+01
    -1.147E+01   -1.141E+01   -1.135E+01   -1.129E+01   -1.124E+01   -1.118E+01   -1.112E+01   -1.106E+01   -1.100E+01   -1.095E+01
    -1.089E+01   -1.083E+01   -1.077E+01   -1.072E+01   -1.066E+01   -1.060E+01   -1.054E+01   -1.049E+01   -1.043E+01   -1.037E+01
    -1.031E+01   -1.026E+01   -1.020E+01   -1.014E+01   -1.008E+01   -1.003E+01   -9.969E+00   -9.912E+00   -9.854E+00   -9.797E+00
    -9.739E+00   -9.682E+00   -9.625E+00   -9.567E+00   -9.510E+00   -9.453E+00   -9.395E+00   -9.338E+00   -9.281E+00   -9.224E+00
    -9.167E+00   -9.109E+00   -9.052E+00   -8.995E+00   -8.938E+00   -8.881E+00   -8.824E+00   -8.767E+00   -8.710E+00   -8.653E+00
    -8.596E+00   -8.540E+00   -8.483E+00   -8.426E+00   -8.369E+00   -8.313E+00   -8.256E+00   -8.199E+00   -8.143E+00   -8.086E+00
    -8.030E+00   -7.973E+00   -7.917E+00   -7.860E+00   -7.804E+00   -7.748E+00   -7.692E+00   -7.635E+00   -7.579E+00   -7.523E+00
    -7.467E+00   -7.411E+00   -7.355E+00   -7.300E+00   -7.244E+00   -7.188E+00   -7.132E+00   -7.077E+00   -7.021E+00   -6.966E+00
    -6.910E+00   -6.855E+00   -6.799E+00   -6.744E+00   -6.689E+00   -6.634E+00   -6.579E+00   -6.524E+00   -6.469E+00   -6.414E+00
    -6.359E+00   -6.305E+00   -6.250E+00   -6.195E+00   -6.141E+00   -6.087E+00   -6.032E+00   -5.978E+00   -5.924E+00   -5.870E+00
    -5.816E+00   -5.762E+00   -5.708E+00   -5.654E+00   -5.601E+00   -5.547E+00   -5.494E+00   -5.441E+00   -5.387E+00   -5.334E+00
    -5.281E+00   -5.228E+00   -5.175E+00   -5.122E+00   -5.070E+00   -5.017E+00   -4.965E+00   -4.912E+00   -4.860E+00   -4.808E+00
    -4.756E+00   -4.704E+00   -4.652E+00   -4.600E+00   -4.549E+00   -4.497E+00   -4.446E+00   -4.395E+00   -4.344E+00   -4.293E+00
    -4.242E+00   -4.191E+00   -4.140E+00   -4.090E+00   -4.039E+00   -3.989E+00   -3.939E+00   -3.889E+00   -3.839E+00   -3.789E+00
    -3.739E+00   -3.690E+00   -3.640E+00   -3.591E+00   -3.542E+00   -3.493E+00   -3.444E+00   -3.395E+00   -3.347E+00   -3.298E+00
    -3.250E+00   -3.201E+00   -3.153E+00   -3.105E+00   -3.058E+00   -3.010E+00   -2.962E+00   -2.915E+00   -2.868E+00   -2.820E+00
    -2.773E+00   -2.727E+00   -2.680E+00   -2.633E+00   -2.587E+00   -2.540E+00   -2.494E+00   -2.448E+00   -2.402E+00   -2.357E+00
    -2.311E+00   -2.266E+00   -2.220E+00   -2.175E+00   -2.130E+00   -2.085E+00   -2.041E+00   -1.996E+00   -1.952E+00   -1.908E+00
    -1.864E+00   -1.820E+00   -1.776E+00   -1.732E+00   -1.689E+00   -1.645E+00   -1.602E+00   -1.559E+00   -1.516E+00   -1.473E+00
    -1.431E+00   -1.388E+00   -1.346E+00   -1.304E+00   -1.262E+00   -1.220E+00   -1.178E+00   -1.137E+00   -1.095E+00   -1.054E+00
    -1.013E+00   -9.718E-01   -9.310E-01   -8.903E-01   -8.498E-01   -8.094E-01   -7.691E-01   -7.290E-01   -6.890E-01   -6.492E-01
    -6.096E-01   -5.700E-01   -5.307E-01   -4.914E-01   -4.524E-01   -4.134E-01   -3.746E-01   -3.360E-01   -2.975E-01   -2.592E-01
    -2.210E-01   -1.829E-01   -1.450E-01   -1.072E-01   -6.953E-02   -3.202E-02    5.351E-03    4.259E-02    7.969E-02    1.167E-01
     1.535E-01    1.902E-01    2.268E-01    2.632E-01    2.995E-01    3.357E-01    3.718E-01    4.077E-01    4.436E-01    4.792E-01
     5.148E-01    5.503E-01    5.856E-01    6.208E-01    6.559E-01    6.909E-01    7.258E-01    7.605E-01    7.951E-01    8.297E-01
     8.641E-01    8.984E-01    9.326E-01    9.667E-01    1.001E+00    1.035E+00    1.068E+00    1.102E+00    1.136E+00    1.169E+00
     1.202E+00    1.236E+00    1.269E+00    1.302E+00    1.335E+00    1.368E+00    1.400E+00    1.433E+00    1.466E+00    1.498E+00
     1.531E+00    1.563E+00    1.595E+00    1.627E+00    1.660E+00    1.692E+00    1.723E+00    1.755E+00    1.787E+00    1.819E+00
     1.850E+00    1.882E+00    1.913E+00    1.945E+00    1.976E+00    2.007E+00    2.038E+00    2.069E+00    2.100E+00    2.131E+00
     2.162E+00    2.193E+00    2.224E+00    2.254E+00    2.285E+00    2.316E+00    2.346E+00    2.377E+00    2.407E+00    2.437E+00
     2.468E+00    2.498E+00    2.528E+00    2.558E+00    2.588E+00    2.618E+00    2.648E+00    2.678E+00    2.708E+00    2.738E+00
     2.768E+00    2.797E+00    2.827E+00    2.857E+00    2.886E+00    2.916E+00    2.945E+00    2.975E+00    3.004E+00    3.034E+00
     3.063E+00    3.092E+00    3.122E+00    3.151E+00    3.180E+00    3.209E+00    3.238E+00    3.267E+00    3.297E+00    3.326E+00
     3.355E+00    3.384E+00    3.412E+00    3.441E+00    3.470E+00    3.499E+00    3.528E+00    3.557E+00    3.585E+00    3.614E+00
     3.643E+00    3.672E+00    3.700E+00    3.729E+00    3.757E+00    3.786E+00    3.814E+00    3.843E+00    3.872E+00    3.900E+00
     3.928E+00    3.957E+00    3.985E+00    4.014E+00    4.042E+00    4.070E+00    4.099E+00    4.127E+00    4.155E+00    4.184E+00
     4.212E+00    4.240E+00    4.268E+00    4.297E+00    4.325E+00    4.353E+00    4.381E+00    4.409E+00    4.437E+00    4.466E+00
     4.494E+00    4.522E+00    4.550E+00    4.578E+00    4.606E+00    4.634E+00    4.662E+00    4.690E+00    4.718E+00    4.746E+00
     4.774E+00    4.802E+00    4.829E+00    4.857E+00    4.885E+00    4.913E+00    4.941E+00    4.969E+00    4.997E+00    5.024E+00
     5.052E+00    5.080E+00    5.108E+00    5.135E+00    5.163E+00    5.191E+00    5.219E+00    5.246E+00    5.274E+00    5.302E+00
     5.329E+00    5.357E+00    5.385E+00    5.412E+00    5.440E+00    5.468E+00    5.495E+00    5.523E+00    5.550E+00    5.578E+00
     5.605E+00    5.633E+00    5.661E+00    5.688E+00    5.716E+00    5.743E+00    5.771E+00    5.798E+00    5.826E+00    5.853E+00
     5.880E+00    5.908E+00    5.935E+00    5.963E+00    5.990E+00    6.018E+00    6.045E+00    6.072E+00    6.100E+00    6.127E+00
     6.155E+00    6.182E+00    6.209E+00    6.237E+00    6.264E+00    6.291E+00    6.319E+00    6.346E+00    6.373E+00    6.401E+00
     6.428E+00    6.455E+00    6.483E+00    6.510E+00    6.537E+00    6.565E+00    6.592E+00    6.619E+00    6.646E+00    6.674E+00
     6.701E+00    6.728E+00    6.755E+00    6.783E+00    6.810E+00    6.837E+00    6.864E+00    6.892E+00    6.919E+00    6.946E+00
     6.973E+00    7.000E+00    7.028E+00    7.055E+00    7.082E+00    7.109E+00    7.137E+00    7.164E+00    7.191E+00    7.218E+00
     7.245E+00    7.273E+00    7.300E+00    7.327E+00    7.354E+00    7.381E+00    7.408E+00    7.436E+00    7.463E+00    7.490E+00
     7.517E+00    7.544E+00    7.572E+00    7.599E+00    7.626E+00    7.653E+00    7.680E+00    7.708E+00
 Ala      Conc. = 6.77E+02
