 LCModel (Version 6.3-1L) Copyright: S.W. Provencher.          Ref.: Magn. Reson. Med. 30:672-679 (1993).                
 Slice#2 Row#1 Col#10  PD_05_press_2_raw_act
 36 lines in following concentration table = NCONC+1
    Conc.  %SD /Cr+PCr  Metabolite                                         
    0.000 999%   0.000 Ala                                                 
   48.930  91%   0.156 Asp                                                 
    0.000 999%   0.000 Cr                                                  
  313.882  27%   1.000 PCr                                                 
   30.177  88% 9.6E-02 GABA                                                
   33.601  80%   0.107 Glc                                                 
    0.000 999%   0.000 Gln                                                 
   35.421 849%   0.113 Glu                                                 
   67.001  47%   0.213 GPC                                                 
    0.000 999%   0.000 PCh                                                 
   57.121 184%   0.182 GSH                                                 
  635.552  53%   2.025 Ins                                                 
    0.000 999%   0.000 Lac                                                 
  395.196  27%   1.259 NAA                                                 
  147.027  69%   0.468 NAAG                                                
   11.866  74% 3.8E-02 Scyllo                                              
   50.776  87%   0.162 Tau                                                 
    0.000 999%   0.000 -CrCH2                                              
   67.001  47%   0.213 GPC+PCh                                             
  542.223  21%   1.727 NAA+NAAG                                            
  313.882  27%   1.000 Cr+PCr                                              
   35.421 849%   0.113 Glu+Gln                                             
    0.000 999%   0.000 Lip13a                                              
  748.268  28%   2.384 Lip13b                                              
  140.975  78%   0.449 Lip09                                               
    0.000 999%   0.000 MM09                                                
  102.181  74%   0.326 Lip20                                               
    0.000 999%   0.000 MM20                                                
    0.000 999%   0.000 MM12                                                
    0.000 999%   0.000 MM14                                                
 1.69E-04 999% 5.4E-07 MM17                                                
  748.268  28%   2.384 Lip13a+Lip13b                                       
  748.268  28%   2.384 MM14+Lip13a+Lip13b+MM12                             
  140.975  78%   0.449 MM09+Lip09                                          
  102.181  74%   0.326 MM20+Lip20                                          
   6 lines in following misc. output table
  FWHM = 0.031 ppm    S/N =   1                                            
  Data shift = 0.000 ppm                                                   
  Ph:  41 deg      17.0 deg/ppm                                            
  alphaB,S = 8.5E+01,   1.3E+01                                            
   14 spline knots.   Ns = 5(1)                                            
   1 inflections.     2 extrema                                            
  498 points on ppm-axis = NY
      4.000000     3.992357     3.984714     3.977070     3.969427     3.961784     3.954141     3.946497     3.938854     3.931211
      3.923568     3.915925     3.908281     3.900638     3.892995     3.885352     3.877708     3.870065     3.862422     3.854779
      3.847136     3.839492     3.831849     3.824206     3.816563     3.808919     3.801276     3.793633     3.785990     3.778347
      3.770703     3.763060     3.755417     3.747774     3.740130     3.732487     3.724844     3.717201     3.709558     3.701914
      3.694271     3.686628     3.678985     3.671341     3.663698     3.656055     3.648412     3.640769     3.633125     3.625482
      3.617839     3.610196     3.602552     3.594909     3.587266     3.579623     3.571980     3.564336     3.556693     3.549050
      3.541407     3.533763     3.526120     3.518477     3.510834     3.503191     3.495547     3.487904     3.480261     3.472618
      3.464974     3.457331     3.449688     3.442045     3.434402     3.426758     3.419115     3.411472     3.403829     3.396185
      3.388542     3.380899     3.373256     3.365613     3.357969     3.350326     3.342683     3.335040     3.327396     3.319753
      3.312110     3.304467     3.296824     3.289180     3.281537     3.273894     3.266251     3.258607     3.250964     3.243321
      3.235678     3.228034     3.220391     3.212748     3.205105     3.197462     3.189818     3.182175     3.174532     3.166889
      3.159245     3.151602     3.143959     3.136316     3.128673     3.121029     3.113386     3.105743     3.098100     3.090456
      3.082813     3.075170     3.067527     3.059884     3.052240     3.044597     3.036954     3.029311     3.021667     3.014024
      3.006381     2.998738     2.991095     2.983451     2.975808     2.968165     2.960522     2.952878     2.945235     2.937592
      2.929949     2.922306     2.914662     2.907019     2.899376     2.891733     2.884089     2.876446     2.868803     2.861160
      2.853517     2.845873     2.838230     2.830587     2.822944     2.815300     2.807657     2.800014     2.792371     2.784728
      2.777084     2.769441     2.761798     2.754155     2.746511     2.738868     2.731225     2.723582     2.715939     2.708295
      2.700652     2.693009     2.685366     2.677722     2.670079     2.662436     2.654793     2.647150     2.639506     2.631863
      2.624220     2.616577     2.608933     2.601290     2.593647     2.586004     2.578361     2.570717     2.563074     2.555431
      2.547788     2.540144     2.532501     2.524858     2.517215     2.509572     2.501928     2.494285     2.486642     2.478999
      2.471355     2.463712     2.456069     2.448426     2.440783     2.433139     2.425496     2.417853     2.410210     2.402566
      2.394923     2.387280     2.379637     2.371994     2.364350     2.356707     2.349064     2.341421     2.333777     2.326134
      2.318491     2.310848     2.303205     2.295561     2.287918     2.280275     2.272632     2.264988     2.257345     2.249702
      2.242059     2.234416     2.226772     2.219129     2.211486     2.203843     2.196199     2.188556     2.180913     2.173270
      2.165627     2.157983     2.150340     2.142697     2.135054     2.127410     2.119767     2.112124     2.104481     2.096838
      2.089194     2.081551     2.073908     2.066265     2.058621     2.050978     2.043335     2.035692     2.028049     2.020405
      2.012762     2.005119     1.997476     1.989833     1.982190     1.974546     1.966903     1.959260     1.951617     1.943974
      1.936331     1.928688     1.921045     1.913402     1.905759     1.898115     1.890472     1.882829     1.875186     1.867543
      1.859900     1.852257     1.844614     1.836971     1.829327     1.821684     1.814041     1.806398     1.798755     1.791112
      1.783469     1.775826     1.768183     1.760540     1.752896     1.745253     1.737610     1.729967     1.722324     1.714681
      1.707038     1.699395     1.691752     1.684108     1.676465     1.668822     1.661179     1.653536     1.645893     1.638250
      1.630607     1.622964     1.615321     1.607677     1.600034     1.592391     1.584748     1.577105     1.569462     1.561819
      1.554176     1.546533     1.538890     1.531246     1.523603     1.515960     1.508317     1.500674     1.493031     1.485388
      1.477745     1.470102     1.462458     1.454815     1.447172     1.439529     1.431886     1.424243     1.416600     1.408957
      1.401314     1.393671     1.386027     1.378384     1.370741     1.363098     1.355455     1.347812     1.340169     1.332526
      1.324883     1.317240     1.309596     1.301953     1.294310     1.286667     1.279024     1.271381     1.263738     1.256095
      1.248452     1.240808     1.233165     1.225522     1.217879     1.210236     1.202593     1.194950     1.187307     1.179664
      1.172021     1.164377     1.156734     1.149091     1.141448     1.133805     1.126162     1.118519     1.110876     1.103233
      1.095590     1.087946     1.080303     1.072660     1.065017     1.057374     1.049731     1.042088     1.034445     1.026802
      1.019158     1.011515     1.003872     0.996229     0.988586     0.980943     0.973300     0.965657     0.958014     0.950371
      0.942727     0.935084     0.927441     0.919798     0.912155     0.904512     0.896869     0.889226     0.881583     0.873940
      0.866296     0.858653     0.851010     0.843367     0.835724     0.828081     0.820438     0.812795     0.805152     0.797508
      0.789865     0.782222     0.774579     0.766936     0.759293     0.751650     0.744007     0.736364     0.728721     0.721077
      0.713434     0.705791     0.698148     0.690505     0.682862     0.675219     0.667576     0.659933     0.652290     0.644646
      0.637003     0.629360     0.621717     0.614074     0.606431     0.598788     0.591145     0.583502     0.575858     0.568215
      0.560572     0.552929     0.545286     0.537643     0.530000     0.522357     0.514714     0.507071     0.499427     0.491784
      0.484141     0.476498     0.468855     0.461212     0.453569     0.445925     0.438282     0.430639     0.422996     0.415353
      0.407710     0.400067     0.392424     0.384780     0.377137     0.369494     0.361851     0.354208     0.346565     0.338922
      0.331278     0.323635     0.315992     0.308349     0.300706     0.293063     0.285420     0.277777     0.270133     0.262490
      0.254847     0.247204     0.239561     0.231918     0.224275     0.216631     0.208988     0.201345
 NY phased data points follow
  -2.31461E+01 -1.54369E+01  2.94097E+01  3.48362E+01  2.44893E+00 -1.43406E+01 -1.28861E+01  1.64237E+01  3.58081E+01  2.04766E+01
   1.04435E+00 -1.69377E+00  1.31323E+01  2.47922E+01  1.99502E+01  6.96641E+00  4.92061E+00 -1.02428E+01 -1.02807E+01  1.10085E+00
   1.06596E+01  4.98279E+00 -2.78704E+00  1.76376E+01  9.28011E+00  1.18256E+00 -1.04128E+01  1.25834E+01  1.01429E+01  1.01992E+01
   1.03138E+01  9.34097E+00 -1.14047E+01 -7.53903E-01 -6.43932E+00  7.20806E+00  6.42432E-01  4.36278E+00  7.23238E+00  1.39829E+01
   1.47624E+01 -4.21248E+00  3.72036E+00  1.12582E+00  1.00138E+01 -8.19626E-01 -6.09128E+00  1.71562E+01  1.52997E+01  7.76428E+00
   3.17375E+00  1.48594E+01 -8.41760E+00  6.18583E+00  3.86411E+00 -2.74326E+00 -5.46577E+00  1.15467E+01  1.17801E+00  1.06503E+01
   7.20514E+00 -1.05694E+00  7.81038E+00 -1.83176E-02 -6.99583E+00  3.33871E+00  4.06239E+00  9.87875E+00 -1.81969E+01 -4.03917E+00
   1.54305E+00  1.79333E+00  7.33328E+00  1.98370E+01  7.96661E+00  3.59078E+00  5.51178E+00  9.70672E+00 -1.15934E+01  2.40810E+01
  -1.60243E+00 -1.35785E-01  5.17788E-01  3.09534E+00 -6.02967E+00  8.19989E+00 -6.43711E+00  7.53565E+00  6.49672E+00  1.08068E+01
   1.26610E-01  1.08205E+01 -2.53485E+00  1.49104E+01  1.39902E+01  5.47744E+00  2.14187E+00  3.97862E+00 -1.62491E+01 -4.26459E+00
  -5.89400E+00  2.03197E+01  6.61484E+00  6.12998E+00 -3.50264E-01  1.79241E+01  8.03161E-01  7.47004E+00 -1.29405E+00 -1.81956E+00
  -1.32573E+01  4.34017E+00  1.46214E+01  1.10908E+01  7.37306E+00  1.93926E-01  1.11299E+01  2.01726E+00  5.31295E+00  1.86913E+01
   2.06857E+00  4.24201E+00 -2.46820E+00 -9.20817E+00  3.36287E+00  1.28820E+00  1.02085E+01  1.63762E+01  9.68346E+00  1.99535E+01
   7.12421E+00  1.51856E+00 -1.22195E+01  5.01842E+00 -3.26486E+00  3.34446E+00  3.52008E+00  4.32453E+00  1.38290E+01  4.21612E+00
  -9.10660E+00  1.06782E+01  4.76600E+00  5.88538E+00  4.69205E+00  1.25773E+01  2.04133E+01  8.60450E-01 -8.71330E+00 -5.10437E+00
  -2.43730E+00 -1.13136E+01  2.90116E-01  1.69557E-01 -1.10295E+01  2.04987E+00  4.16230E+00 -5.01076E-01  4.06989E+00  9.26060E+00
   2.92953E+00 -1.28715E+00 -3.82871E+00  9.30605E-01  5.72162E+00  5.26789E-01 -6.59142E+00  4.73513E+00 -1.09127E+00 -4.75266E+00
  -7.16114E+00 -4.45994E+00 -1.20450E+01 -4.43840E-01 -1.97606E+01  2.67507E+00 -2.05610E+01  5.08227E+00 -4.46128E+00  7.94586E+00
   6.40206E+00  7.65065E+00  1.05823E+01 -1.56255E+00  4.38401E-01 -3.99698E+00 -1.19356E+01  2.20078E+00 -5.50394E+00 -3.78506E+00
  -6.98364E+00 -8.65226E+00 -3.83146E+00 -4.51760E+00  7.89446E+00  3.22789E+00 -5.74556E+00 -1.07151E+01  1.18360E+00  1.43688E+01
  -1.01188E+01 -1.07878E+00  1.25745E+01  6.83187E+00  2.09767E+01  2.59731E+00  1.61636E+01 -3.89063E-01 -3.97557E+00  1.10511E+00
   8.88805E-01  1.83075E+00  9.74731E+00 -1.02066E+00 -1.32661E+01  3.17326E+00  5.62677E+00 -9.81576E-01 -5.81098E+00  9.00529E-01
  -4.00319E+00 -1.80263E+00 -1.32354E+00 -8.60340E+00 -4.94609E+00 -3.06399E+00 -1.04859E+01 -1.36017E+00  2.51391E+00 -3.65606E+00
   1.00342E-01  3.40591E-01 -1.42724E+01 -4.55566E-01  1.54098E+00  4.27939E+00  5.61145E+00 -2.28477E-01 -4.16498E+00 -7.18487E-01
  -7.57796E+00  2.76706E+00  3.79611E+00 -1.52973E+00  1.67313E+00 -6.74991E+00  5.64314E+00  7.83143E+00 -1.41097E+00 -8.11140E+00
  -3.91664E+00 -2.38160E+00  1.11911E+01 -1.17915E+01 -5.86909E+00  2.41844E+00  1.09708E+01  5.94491E+00  9.13580E+00  1.46307E+01
   3.01348E+01  2.23721E+01  1.21640E+01  8.86193E+00  6.19632E+00  6.79229E+00  1.17507E+00  1.11703E+01 -1.20428E+01  1.54194E+00
  -7.02937E-01 -3.27362E+00 -1.10658E+01 -1.10255E+00  1.64250E+00  1.00008E+01 -6.03921E+00 -5.40586E+00  7.23953E+00  2.23628E+00
  -1.57141E+01 -3.42240E+00  1.24750E+00 -8.79717E+00 -5.79934E+00 -1.83669E+00  1.68033E+00  9.84758E+00 -2.92387E+00 -1.07705E+00
  -1.39890E+00 -2.31645E+00 -1.15094E+01 -1.09516E-01  1.02867E+01  9.69728E-01 -1.83400E+01  5.17558E-01  2.23982E+00  1.59937E+00
  -4.80533E+00  2.46557E+00 -2.53622E+00  4.07819E+00 -2.08508E+00 -1.25871E+00  5.30170E+00 -6.37569E+00 -7.21077E+00  4.62702E+00
   4.26509E+00  1.29271E+01 -8.45563E-01  1.77185E-01  3.65355E+00 -2.39321E+00 -7.55633E+00 -2.43477E+00 -5.31428E-01 -7.60496E+00
   9.28894E-01 -4.50668E+00 -3.57244E-02 -1.30543E+01 -1.62101E+01 -9.96851E-01 -9.16254E+00 -1.39227E+01 -9.82320E+00 -8.85771E+00
  -3.31592E+00  6.84664E+00  6.69792E+00  4.98514E+00  5.67240E+00  2.37822E+00  1.19307E+00 -3.92358E+00 -8.25371E+00 -7.62635E+00
  -6.15646E+00 -3.54830E+00  5.56496E-01 -6.86454E-01 -2.69682E+00 -4.04044E-01  1.08957E+01 -4.83145E+00 -7.08185E-01 -5.33361E-01
   1.03807E+01  9.59625E+00  2.94272E-01  2.41963E+01  1.33087E+01  6.36636E+00  1.30403E+01  1.20317E+00  8.72184E+00  3.97124E-01
   9.96762E+00 -6.67751E+00  6.83525E+00 -6.92102E+00  9.51241E+00  8.25450E+00  4.08259E+00  6.75285E+00 -1.04753E+01 -7.60031E+00
   3.82197E-01 -6.20283E+00  5.27079E-02 -3.09660E+00  7.09632E+00 -7.50550E+00 -7.43436E+00 -1.67329E+01 -1.25782E+01 -9.51386E+00
  -9.41108E+00 -7.99415E+00 -1.93942E+01 -5.28104E+00 -5.79932E+00 -6.94898E+00 -1.11100E+01 -9.54412E+00 -2.07812E+01 -2.38788E+01
  -2.80761E+00  1.30272E+00 -6.38258E+00 -4.99227E-01 -2.90443E+00  8.38462E+00 -9.44721E-01 -5.02554E-01 -1.29894E+01 -1.77759E+01
   7.11865E+00 -1.69217E+01  1.64071E+00  9.75453E+00 -6.59727E+00 -6.06263E+00 -2.31124E+00  7.79323E+00 -9.63603E+00 -1.33934E+01
  -2.21991E+01 -5.58339E+00 -3.68759E+00 -1.31144E+00 -8.86037E+00 -8.41838E+00  6.35501E-01 -3.05271E+00  1.08519E+00 -7.19803E+00
   6.91890E+00 -8.75829E-01  3.42278E+00  4.82608E+00 -4.89490E+00 -1.20142E+01  8.53409E+00  3.47116E+00  2.74665E+00  1.27329E+00
   2.66834E+00 -4.03849E+00 -7.59037E-01 -1.63598E+00 -5.26567E-01  5.10455E+00  3.20291E+00  7.71952E+00  1.15358E+01  2.91237E+00
  -7.70933E+00 -1.01041E+01  1.09851E+01 -5.74859E+00 -1.10924E+01 -9.94552E+00 -2.10253E+01  4.68848E-01 -1.46776E+01  4.20767E+00
   8.06571E+00  4.66671E+00 -4.00801E-01  2.34550E+00  7.37311E+00  6.05301E-01  9.07437E+00 -7.18773E+00  2.25291E+00  2.03367E+00
  -9.83118E+00 -2.36815E+00 -1.11142E+00 -3.13339E+00  1.92896E+01  3.85788E+00 -1.85269E+00  5.39180E+00  7.50581E+00 -8.50557E+00
  -6.13402E+00 -1.02576E+01  4.51900E+00  2.59159E+00  5.58846E+00  7.33904E+00 -2.35842E+00 -2.71914E-01  2.09859E+00  1.68661E+01
  -3.64365E+00 -1.10037E+01 -7.60439E+00  1.67097E+00 -1.07024E+00  4.49110E+00 -9.70175E+00  7.19915E+00  5.36970E-01 -8.57681E+00
  -3.70034E+00  3.93963E+00 -7.08154E+00 -5.04632E+00  8.41987E+00 -1.08117E+01 -1.31943E+01 -1.45373E+00
 NY points of the fit to the data follow
   4.15865E+00  3.69063E+00  3.32183E+00  2.94028E+00  2.18835E+00  2.09686E+00  4.14509E+00  8.13364E+00  1.19897E+01  1.36377E+01
   1.28786E+01  1.09829E+01  8.92808E+00  6.98737E+00  5.25172E+00  4.02179E+00  3.48391E+00  3.20006E+00  2.96064E+00  2.83610E+00
   2.82194E+00  2.82556E+00  2.77776E+00  2.70511E+00  2.62315E+00  2.45694E+00  2.39322E+00  2.77233E+00  3.62107E+00  4.51909E+00
   4.97991E+00  4.91325E+00  4.55853E+00  4.12390E+00  3.82179E+00  3.84903E+00  4.14351E+00  4.32948E+00  4.01867E+00  3.33844E+00
   2.70284E+00  2.23811E+00  1.70844E+00  1.15966E+00  1.45643E+00  3.41956E+00  6.53606E+00  9.14306E+00  9.91057E+00  8.87374E+00
   6.99366E+00  5.06076E+00  3.38550E+00  2.14405E+00  1.45676E+00  1.26071E+00  1.43868E+00  2.00291E+00  3.01406E+00  4.21162E+00
   5.08040E+00  5.28128E+00  4.81994E+00  3.97898E+00  3.09250E+00  2.42599E+00  2.14908E+00  2.16374E+00  2.35237E+00  2.73407E+00
   3.25515E+00  3.74804E+00  4.04505E+00  4.13317E+00  4.11537E+00  4.01959E+00  3.80716E+00  3.46679E+00  3.09601E+00  2.82821E+00
   2.66882E+00  2.55710E+00  2.58007E+00  2.83286E+00  3.14428E+00  3.10781E+00  2.48029E+00  1.47935E+00  6.11203E-01  1.94644E-01
   2.11490E-01  4.76162E-01  8.78070E-01  1.40775E+00  1.93048E+00  2.26849E+00  2.26723E+00  1.66583E+00  5.37739E-01  4.16329E-01
   2.57269E+00  6.30695E+00  9.41733E+00  1.02940E+01  9.26323E+00  7.57971E+00  5.88590E+00  4.22218E+00  2.69289E+00  1.70380E+00
   1.39249E+00  1.31524E+00  1.28477E+00  1.26850E+00  1.25168E+00  1.24150E+00  1.21959E+00  1.16286E+00  1.07672E+00  9.81419E-01
   8.45129E-01  3.02861E-01 -9.26337E-01 -8.12260E-01  2.81249E+00  9.19885E+00  1.48777E+01  1.68901E+01  1.53978E+01  1.25154E+01
   9.60157E+00  6.86916E+00  4.34319E+00  2.50312E+00  1.62145E+00  1.08569E+00  6.69722E-01  4.30522E-01  4.10189E-01  5.59289E-01
   7.72506E-01  9.48227E-01  1.04701E+00  1.10102E+00  1.12391E+00  1.10055E+00  1.03561E+00  9.52856E-01  8.79521E-01  8.31017E-01
   7.95755E-01  7.36357E-01  6.27479E-01  4.94339E-01  3.96051E-01  4.08056E-01  5.53759E-01  7.09113E-01  6.92979E-01  4.47308E-01
   9.03580E-02 -1.40929E-01 -1.16766E-01  7.69218E-02  2.61457E-01  3.35604E-01  2.92809E-01  1.49131E-01 -5.41997E-02 -2.22945E-01
  -2.70318E-01 -1.85672E-01 -1.02564E-01 -2.27368E-01 -5.46385E-01 -8.25046E-01 -8.38929E-01 -6.32792E-01 -4.65251E-01 -5.20971E-01
  -7.15800E-01 -8.16186E-01 -7.08671E-01 -5.45155E-01 -5.23978E-01 -6.25303E-01 -6.59089E-01 -4.66421E-01 -6.35041E-02  4.11260E-01
   8.07118E-01  1.02960E+00  1.05018E+00  9.56018E-01  8.08744E-01  6.02397E-01  3.53859E-01  1.46668E-01  5.90465E-02  5.07155E-02
   7.90068E-02  1.89163E-01  4.17944E-01  6.80983E-01  8.37428E-01  8.11142E-01  6.53368E-01  4.42173E-01  2.45325E-01  5.56460E-02
  -1.83317E-01 -4.72828E-01 -6.99920E-01 -7.15755E-01 -5.27381E-01 -2.91747E-01 -1.37147E-01 -6.66959E-02 -5.04980E-02 -1.10671E-01
  -2.46096E-01 -3.46525E-01 -3.09861E-01 -1.40248E-01  6.14057E-02  2.10529E-01  3.06035E-01  3.28601E-01  2.01945E-01 -8.55079E-02
  -4.19992E-01 -6.26078E-01 -6.06642E-01 -3.83172E-01 -2.36521E-02  3.62809E-01  6.35322E-01  6.91000E-01  5.08226E-01  1.50007E-01
  -2.83574E-01 -6.78260E-01 -8.91523E-01 -8.43513E-01 -5.81613E-01 -2.49038E-01  1.97310E-02  1.67820E-01  1.93348E-01  1.16808E-01
  -1.06867E-01 -6.85097E-01 -1.01891E+00  2.91046E-02  2.49488E+00  4.42170E+00  4.65623E+00  5.82724E+00  1.05086E+01  1.72287E+01
   2.16348E+01  2.11881E+01  1.74321E+01  1.31709E+01  9.29705E+00  5.64933E+00  2.49605E+00  6.09325E-01 -5.75608E-02 -3.45501E-01
  -4.95046E-01 -5.53338E-01 -5.48911E-01 -5.09381E-01 -4.74567E-01 -4.84810E-01 -5.48236E-01 -6.40486E-01 -7.34205E-01 -8.20139E-01
  -8.89600E-01 -9.31912E-01 -9.42626E-01 -9.32267E-01 -9.20079E-01 -9.14731E-01 -9.17550E-01 -9.38096E-01 -9.79190E-01 -1.02353E+00
  -1.04768E+00 -1.04549E+00 -1.03236E+00 -1.02298E+00 -1.01990E+00 -1.02401E+00 -1.04228E+00 -1.07914E+00 -1.12633E+00 -1.16570E+00
  -1.18973E+00 -1.20313E+00 -1.21140E+00 -1.21715E+00 -1.22186E+00 -1.22787E+00 -1.23761E+00 -1.24992E+00 -1.26308E+00 -1.27651E+00
  -1.28975E+00 -1.30284E+00 -1.31605E+00 -1.32954E+00 -1.34325E+00 -1.35701E+00 -1.37075E+00 -1.38443E+00 -1.39799E+00 -1.41132E+00
  -1.42447E+00 -1.43759E+00 -1.45073E+00 -1.46383E+00 -1.47681E+00 -1.48966E+00 -1.50244E+00 -1.51521E+00 -1.52799E+00 -1.54072E+00
  -1.55335E+00 -1.56587E+00 -1.57829E+00 -1.59055E+00 -1.60246E+00 -1.61359E+00 -1.62313E+00 -1.62957E+00 -1.63017E+00 -1.62007E+00
  -1.59132E+00 -1.53164E+00 -1.42335E+00 -1.24275E+00 -9.60528E-01 -5.44079E-01  3.79218E-02  8.08478E-01  1.77369E+00  2.91436E+00
   4.18011E+00  5.48869E+00  6.73211E+00  7.78995E+00  8.54794E+00  8.91796E+00  8.85468E+00  8.36444E+00  7.50391E+00  6.36915E+00
   5.07767E+00  3.74850E+00  2.48452E+00  1.36074E+00  4.19818E-01 -3.25754E-01 -8.86908E-01 -1.28931E+00 -1.56505E+00 -1.74622E+00
  -1.86094E+00 -1.93147E+00 -1.97409E+00 -1.99983E+00 -2.01569E+00 -2.02585E+00 -2.03267E+00 -2.03738E+00 -2.04057E+00 -2.04243E+00
  -2.04294E+00 -2.04204E+00 -2.03963E+00 -2.03557E+00 -2.02971E+00 -2.02186E+00 -2.01184E+00 -1.99953E+00 -1.98484E+00 -1.96770E+00
  -1.94807E+00 -1.92596E+00 -1.90147E+00 -1.87483E+00 -1.84633E+00 -1.81637E+00 -1.78544E+00 -1.75412E+00 -1.72311E+00 -1.69321E+00
  -1.66524E+00 -1.64006E+00 -1.61849E+00 -1.60135E+00 -1.58939E+00 -1.58326E+00 -1.58344E+00 -1.59027E+00 -1.60387E+00 -1.62421E+00
  -1.65109E+00 -1.68414E+00 -1.72279E+00 -1.76636E+00 -1.81406E+00 -1.86508E+00 -1.91857E+00 -1.97368E+00 -2.02961E+00 -2.08558E+00
  -2.14094E+00 -2.19513E+00 -2.24772E+00 -2.29833E+00 -2.34670E+00 -2.39264E+00 -2.43610E+00 -2.47706E+00 -2.51560E+00 -2.55180E+00
  -2.58575E+00 -2.61761E+00 -2.64755E+00 -2.67574E+00 -2.70235E+00 -2.72752E+00 -2.75138E+00 -2.77408E+00 -2.79576E+00 -2.81654E+00
  -2.83651E+00 -2.85577E+00 -2.87437E+00 -2.89241E+00 -2.90995E+00 -2.92706E+00 -2.94377E+00 -2.96011E+00 -2.97612E+00 -2.99184E+00
  -3.00732E+00 -3.02258E+00 -3.03762E+00 -3.05245E+00 -3.06711E+00 -3.08161E+00 -3.09598E+00 -3.11022E+00 -3.12433E+00 -3.13832E+00
  -3.15220E+00 -3.16599E+00 -3.17971E+00 -3.19335E+00 -3.20691E+00 -3.22038E+00 -3.23379E+00 -3.24715E+00 -3.26046E+00 -3.27372E+00
  -3.28691E+00 -3.30005E+00 -3.31315E+00 -3.32623E+00 -3.33928E+00 -3.35227E+00 -3.36522E+00 -3.37813E+00 -3.39103E+00 -3.40391E+00
  -3.41676E+00 -3.42957E+00 -3.44234E+00 -3.45509E+00 -3.46784E+00 -3.48058E+00 -3.49328E+00 -3.50594E+00 -3.51858E+00 -3.53121E+00
  -3.54384E+00 -3.55646E+00 -3.56903E+00 -3.58157E+00 -3.59410E+00 -3.60662E+00 -3.61915E+00 -3.63165E+00
 NY background values follow
     2.367E+00    2.355E+00    2.343E+00    2.330E+00    2.318E+00    2.306E+00    2.294E+00    2.282E+00    2.270E+00    2.258E+00
     2.246E+00    2.233E+00    2.221E+00    2.209E+00    2.197E+00    2.185E+00    2.173E+00    2.161E+00    2.149E+00    2.136E+00
     2.124E+00    2.112E+00    2.100E+00    2.088E+00    2.076E+00    2.064E+00    2.051E+00    2.039E+00    2.027E+00    2.015E+00
     2.003E+00    1.991E+00    1.979E+00    1.967E+00    1.954E+00    1.942E+00    1.930E+00    1.918E+00    1.906E+00    1.894E+00
     1.882E+00    1.870E+00    1.857E+00    1.845E+00    1.833E+00    1.821E+00    1.809E+00    1.797E+00    1.785E+00    1.772E+00
     1.760E+00    1.748E+00    1.736E+00    1.724E+00    1.712E+00    1.700E+00    1.688E+00    1.675E+00    1.663E+00    1.651E+00
     1.639E+00    1.627E+00    1.615E+00    1.603E+00    1.591E+00    1.578E+00    1.566E+00    1.554E+00    1.542E+00    1.530E+00
     1.518E+00    1.506E+00    1.493E+00    1.481E+00    1.469E+00    1.457E+00    1.445E+00    1.433E+00    1.421E+00    1.409E+00
     1.396E+00    1.384E+00    1.372E+00    1.360E+00    1.348E+00    1.336E+00    1.324E+00    1.312E+00    1.299E+00    1.287E+00
     1.275E+00    1.263E+00    1.251E+00    1.239E+00    1.227E+00    1.214E+00    1.202E+00    1.190E+00    1.178E+00    1.166E+00
     1.154E+00    1.142E+00    1.130E+00    1.117E+00    1.105E+00    1.093E+00    1.081E+00    1.069E+00    1.057E+00    1.045E+00
     1.033E+00    1.020E+00    1.008E+00    9.961E-01    9.840E-01    9.719E-01    9.598E-01    9.476E-01    9.355E-01    9.234E-01
     9.112E-01    8.991E-01    8.870E-01    8.748E-01    8.627E-01    8.506E-01    8.385E-01    8.263E-01    8.142E-01    8.021E-01
     7.899E-01    7.778E-01    7.657E-01    7.535E-01    7.414E-01    7.293E-01    7.172E-01    7.050E-01    6.929E-01    6.808E-01
     6.686E-01    6.565E-01    6.444E-01    6.322E-01    6.201E-01    6.080E-01    5.959E-01    5.837E-01    5.716E-01    5.595E-01
     5.473E-01    5.352E-01    5.231E-01    5.109E-01    4.988E-01    4.867E-01    4.746E-01    4.624E-01    4.503E-01    4.382E-01
     4.260E-01    4.139E-01    4.018E-01    3.896E-01    3.775E-01    3.654E-01    3.533E-01    3.411E-01    3.290E-01    3.169E-01
     3.047E-01    2.926E-01    2.805E-01    2.683E-01    2.562E-01    2.441E-01    2.320E-01    2.198E-01    2.077E-01    1.956E-01
     1.834E-01    1.713E-01    1.592E-01    1.470E-01    1.349E-01    1.228E-01    1.107E-01    9.853E-02    8.640E-02    7.427E-02
     6.214E-02    5.001E-02    3.788E-02    2.575E-02    1.362E-02    1.487E-03   -1.064E-02   -2.277E-02   -3.490E-02   -4.703E-02
    -5.916E-02   -7.129E-02   -8.342E-02   -9.555E-02   -1.077E-01   -1.198E-01   -1.319E-01   -1.441E-01   -1.562E-01   -1.683E-01
    -1.805E-01   -1.926E-01   -2.047E-01   -2.168E-01   -2.290E-01   -2.411E-01   -2.532E-01   -2.654E-01   -2.775E-01   -2.896E-01
    -3.018E-01   -3.139E-01   -3.260E-01   -3.381E-01   -3.503E-01   -3.624E-01   -3.745E-01   -3.867E-01   -3.988E-01   -4.109E-01
    -4.231E-01   -4.352E-01   -4.473E-01   -4.594E-01   -4.716E-01   -4.837E-01   -4.958E-01   -5.080E-01   -5.201E-01   -5.322E-01
    -5.443E-01   -5.565E-01   -5.686E-01   -5.807E-01   -5.929E-01   -6.050E-01   -6.171E-01   -6.293E-01   -6.414E-01   -6.535E-01
    -6.656E-01   -6.778E-01   -6.899E-01   -7.020E-01   -7.142E-01   -7.263E-01   -7.384E-01   -7.505E-01   -7.627E-01   -7.748E-01
    -7.869E-01   -7.991E-01   -8.112E-01   -8.233E-01   -8.354E-01   -8.476E-01   -8.597E-01   -8.718E-01   -8.840E-01   -8.961E-01
    -9.082E-01   -9.204E-01   -9.325E-01   -9.446E-01   -9.567E-01   -9.689E-01   -9.810E-01   -9.931E-01   -1.005E+00   -1.017E+00
    -1.030E+00   -1.042E+00   -1.054E+00   -1.066E+00   -1.078E+00   -1.090E+00   -1.102E+00   -1.114E+00   -1.127E+00   -1.139E+00
    -1.151E+00   -1.163E+00   -1.175E+00   -1.187E+00   -1.199E+00   -1.211E+00   -1.224E+00   -1.236E+00   -1.248E+00   -1.260E+00
    -1.272E+00   -1.284E+00   -1.296E+00   -1.308E+00   -1.321E+00   -1.333E+00   -1.345E+00   -1.357E+00   -1.369E+00   -1.381E+00
    -1.393E+00   -1.405E+00   -1.418E+00   -1.430E+00   -1.442E+00   -1.454E+00   -1.466E+00   -1.478E+00   -1.490E+00   -1.503E+00
    -1.515E+00   -1.527E+00   -1.539E+00   -1.551E+00   -1.563E+00   -1.575E+00   -1.587E+00   -1.600E+00   -1.612E+00   -1.624E+00
    -1.636E+00   -1.648E+00   -1.660E+00   -1.672E+00   -1.684E+00   -1.697E+00   -1.709E+00   -1.721E+00   -1.733E+00   -1.745E+00
    -1.757E+00   -1.769E+00   -1.781E+00   -1.794E+00   -1.806E+00   -1.818E+00   -1.830E+00   -1.842E+00   -1.854E+00   -1.866E+00
    -1.878E+00   -1.891E+00   -1.903E+00   -1.915E+00   -1.927E+00   -1.939E+00   -1.951E+00   -1.963E+00   -1.976E+00   -1.988E+00
    -2.000E+00   -2.012E+00   -2.024E+00   -2.036E+00   -2.048E+00   -2.060E+00   -2.073E+00   -2.085E+00   -2.097E+00   -2.109E+00
    -2.121E+00   -2.133E+00   -2.145E+00   -2.157E+00   -2.170E+00   -2.182E+00   -2.194E+00   -2.206E+00   -2.218E+00   -2.230E+00
    -2.242E+00   -2.254E+00   -2.267E+00   -2.279E+00   -2.291E+00   -2.303E+00   -2.315E+00   -2.327E+00   -2.339E+00   -2.351E+00
    -2.364E+00   -2.376E+00   -2.388E+00   -2.400E+00   -2.412E+00   -2.424E+00   -2.436E+00   -2.448E+00   -2.461E+00   -2.473E+00
    -2.485E+00   -2.497E+00   -2.509E+00   -2.521E+00   -2.533E+00   -2.546E+00   -2.558E+00   -2.570E+00   -2.582E+00   -2.594E+00
    -2.606E+00   -2.618E+00   -2.630E+00   -2.643E+00   -2.655E+00   -2.667E+00   -2.679E+00   -2.691E+00   -2.703E+00   -2.715E+00
    -2.727E+00   -2.740E+00   -2.752E+00   -2.764E+00   -2.776E+00   -2.788E+00   -2.800E+00   -2.812E+00   -2.824E+00   -2.837E+00
    -2.849E+00   -2.861E+00   -2.873E+00   -2.885E+00   -2.897E+00   -2.909E+00   -2.921E+00   -2.934E+00   -2.946E+00   -2.958E+00
    -2.970E+00   -2.982E+00   -2.994E+00   -3.006E+00   -3.018E+00   -3.031E+00   -3.043E+00   -3.055E+00   -3.067E+00   -3.079E+00
    -3.091E+00   -3.103E+00   -3.115E+00   -3.128E+00   -3.140E+00   -3.152E+00   -3.164E+00   -3.176E+00   -3.188E+00   -3.200E+00
    -3.213E+00   -3.225E+00   -3.237E+00   -3.249E+00   -3.261E+00   -3.273E+00   -3.285E+00   -3.297E+00   -3.310E+00   -3.322E+00
    -3.334E+00   -3.346E+00   -3.358E+00   -3.370E+00   -3.382E+00   -3.394E+00   -3.407E+00   -3.419E+00   -3.431E+00   -3.443E+00
    -3.455E+00   -3.467E+00   -3.479E+00   -3.491E+00   -3.504E+00   -3.516E+00   -3.528E+00   -3.540E+00   -3.552E+00   -3.564E+00
    -3.576E+00   -3.588E+00   -3.601E+00   -3.613E+00   -3.625E+00   -3.637E+00   -3.649E+00   -3.661E+00
 Asp      Conc. = 4.89E+01
