 LCModel (Version 6.3-1L) Copyright: S.W. Provencher.          Ref.: Magn. Reson. Med. 30:672-679 (1993).                
 Slice#2 Row#9 Col#1  PD_05_press_2_raw_act
 36 lines in following concentration table = NCONC+1
    Conc.  %SD /Cr+PCr  Metabolite                                         
 1.53E+04  34%   0.000 Ala                                                 
   29.779 904%   0.000 Asp                                                 
    0.000 999%   0.000 Cr                                                  
    0.000 999%   0.000 PCr                                                 
   59.490 275%   0.000 GABA                                                
   99.105 165%   0.000 Glc                                                 
 5.44E+04   8%   0.000 Gln                                                 
    0.000 999%   0.000 Glu                                                 
  368.349  33%   0.000 GPC                                                 
    0.000 999%   0.000 PCh                                                 
    0.000 999%   0.000 GSH                                                 
  441.420 370%   0.000 Ins                                                 
    0.000 999%   0.000 Lac                                                 
    0.000 999%   0.000 NAA                                                 
  208.987 374%   0.000 NAAG                                                
  115.654  46%   0.000 Scyllo                                              
  438.088  61%   0.000 Tau                                                 
    0.000 999%   0.000 -CrCH2                                              
  368.349  33%   0.000 GPC+PCh                                             
  208.987 374%   0.000 NAA+NAAG                                            
    0.000 999%   0.000 Cr+PCr                                              
 5.44E+04   8%   0.000 Glu+Gln                                             
 2.12E+04  25%   0.000 Lip13a                                              
 3.92E+03  87%   0.000 Lip13b                                              
    0.000 999%   0.000-Lip09                                               
 1.75E+04   9%   0.000 MM09                                                
 1.36E+04   7%   0.000+Lip20                                               
 2.66E+04   9%   0.000 MM20                                                
 5.25E+03   9%   0.000 MM12                                                
 1.32E+04  10%   0.000 MM14                                                
 6.48E+03  11%   0.000 MM17                                                
 2.51E+04  15%   0.000 Lip13a+Lip13b                                       
 4.36E+04   9%   0.000 MM14+Lip13a+Lip13b+MM12                             
 1.75E+04   9%   0.000 MM09+Lip09                                          
 4.02E+04   6%   0.000 MM20+Lip20                                          
   6 lines in following misc. output table
  FWHM = 0.138 ppm    S/N =   9                                            
  Data shift =-0.183 ppm                                                   
  Ph:-157 deg      59.4 deg/ppm                                            
  alphaB,S = 3.4E-01,   2.0E+02                                            
    9 spline knots.   Ns = 9(2)                                            
  (12) 2 infls.   ( 1) 1 extrs.                                            
  498 points on ppm-axis = NY
      4.000000     3.992357     3.984714     3.977070     3.969427     3.961784     3.954141     3.946497     3.938854     3.931211
      3.923568     3.915925     3.908281     3.900638     3.892995     3.885352     3.877708     3.870065     3.862422     3.854779
      3.847136     3.839492     3.831849     3.824206     3.816563     3.808919     3.801276     3.793633     3.785990     3.778347
      3.770703     3.763060     3.755417     3.747774     3.740130     3.732487     3.724844     3.717201     3.709558     3.701914
      3.694271     3.686628     3.678985     3.671341     3.663698     3.656055     3.648412     3.640769     3.633125     3.625482
      3.617839     3.610196     3.602552     3.594909     3.587266     3.579623     3.571980     3.564336     3.556693     3.549050
      3.541407     3.533763     3.526120     3.518477     3.510834     3.503191     3.495547     3.487904     3.480261     3.472618
      3.464974     3.457331     3.449688     3.442045     3.434402     3.426758     3.419115     3.411472     3.403829     3.396185
      3.388542     3.380899     3.373256     3.365613     3.357969     3.350326     3.342683     3.335040     3.327396     3.319753
      3.312110     3.304467     3.296824     3.289180     3.281537     3.273894     3.266251     3.258607     3.250964     3.243321
      3.235678     3.228034     3.220391     3.212748     3.205105     3.197462     3.189818     3.182175     3.174532     3.166889
      3.159245     3.151602     3.143959     3.136316     3.128673     3.121029     3.113386     3.105743     3.098100     3.090456
      3.082813     3.075170     3.067527     3.059884     3.052240     3.044597     3.036954     3.029311     3.021667     3.014024
      3.006381     2.998738     2.991095     2.983451     2.975808     2.968165     2.960522     2.952878     2.945235     2.937592
      2.929949     2.922306     2.914662     2.907019     2.899376     2.891733     2.884089     2.876446     2.868803     2.861160
      2.853517     2.845873     2.838230     2.830587     2.822944     2.815300     2.807657     2.800014     2.792371     2.784728
      2.777084     2.769441     2.761798     2.754155     2.746511     2.738868     2.731225     2.723582     2.715939     2.708295
      2.700652     2.693009     2.685366     2.677722     2.670079     2.662436     2.654793     2.647150     2.639506     2.631863
      2.624220     2.616577     2.608933     2.601290     2.593647     2.586004     2.578361     2.570717     2.563074     2.555431
      2.547788     2.540144     2.532501     2.524858     2.517215     2.509572     2.501928     2.494285     2.486642     2.478999
      2.471355     2.463712     2.456069     2.448426     2.440783     2.433139     2.425496     2.417853     2.410210     2.402566
      2.394923     2.387280     2.379637     2.371994     2.364350     2.356707     2.349064     2.341421     2.333777     2.326134
      2.318491     2.310848     2.303205     2.295561     2.287918     2.280275     2.272632     2.264988     2.257345     2.249702
      2.242059     2.234416     2.226772     2.219129     2.211486     2.203843     2.196199     2.188556     2.180913     2.173270
      2.165627     2.157983     2.150340     2.142697     2.135054     2.127410     2.119767     2.112124     2.104481     2.096838
      2.089194     2.081551     2.073908     2.066265     2.058621     2.050978     2.043335     2.035692     2.028049     2.020405
      2.012762     2.005119     1.997476     1.989833     1.982190     1.974546     1.966903     1.959260     1.951617     1.943974
      1.936331     1.928688     1.921045     1.913402     1.905759     1.898115     1.890472     1.882829     1.875186     1.867543
      1.859900     1.852257     1.844614     1.836971     1.829327     1.821684     1.814041     1.806398     1.798755     1.791112
      1.783469     1.775826     1.768183     1.760540     1.752896     1.745253     1.737610     1.729967     1.722324     1.714681
      1.707038     1.699395     1.691752     1.684108     1.676465     1.668822     1.661179     1.653536     1.645893     1.638250
      1.630607     1.622964     1.615321     1.607677     1.600034     1.592391     1.584748     1.577105     1.569462     1.561819
      1.554176     1.546533     1.538890     1.531246     1.523603     1.515960     1.508317     1.500674     1.493031     1.485388
      1.477745     1.470102     1.462458     1.454815     1.447172     1.439529     1.431886     1.424243     1.416600     1.408957
      1.401314     1.393671     1.386027     1.378384     1.370741     1.363098     1.355455     1.347812     1.340169     1.332526
      1.324883     1.317240     1.309596     1.301953     1.294310     1.286667     1.279024     1.271381     1.263738     1.256095
      1.248452     1.240808     1.233165     1.225522     1.217879     1.210236     1.202593     1.194950     1.187307     1.179664
      1.172021     1.164377     1.156734     1.149091     1.141448     1.133805     1.126162     1.118519     1.110876     1.103233
      1.095590     1.087946     1.080303     1.072660     1.065017     1.057374     1.049731     1.042088     1.034445     1.026802
      1.019158     1.011515     1.003872     0.996229     0.988586     0.980943     0.973300     0.965657     0.958014     0.950371
      0.942727     0.935084     0.927441     0.919798     0.912155     0.904512     0.896869     0.889226     0.881583     0.873940
      0.866296     0.858653     0.851010     0.843367     0.835724     0.828081     0.820438     0.812795     0.805152     0.797508
      0.789865     0.782222     0.774579     0.766936     0.759293     0.751650     0.744007     0.736364     0.728721     0.721077
      0.713434     0.705791     0.698148     0.690505     0.682862     0.675219     0.667576     0.659933     0.652290     0.644646
      0.637003     0.629360     0.621717     0.614074     0.606431     0.598788     0.591145     0.583502     0.575858     0.568215
      0.560572     0.552929     0.545286     0.537643     0.530000     0.522357     0.514714     0.507071     0.499427     0.491784
      0.484141     0.476498     0.468855     0.461212     0.453569     0.445925     0.438282     0.430639     0.422996     0.415353
      0.407710     0.400067     0.392424     0.384780     0.377137     0.369494     0.361851     0.354208     0.346565     0.338922
      0.331278     0.323635     0.315992     0.308349     0.300706     0.293063     0.285420     0.277777     0.270133     0.262490
      0.254847     0.247204     0.239561     0.231918     0.224275     0.216631     0.208988     0.201345
 NY phased data points follow
   1.45311E+02  1.45052E+02  1.44972E+02  1.44767E+02  1.47339E+02  1.48546E+02  1.51294E+02  1.47988E+02  1.54052E+02  1.48572E+02
   1.50280E+02  1.44927E+02  1.52202E+02  1.47029E+02  1.47774E+02  1.42426E+02  1.45457E+02  1.45402E+02  1.51705E+02  1.44992E+02
   1.47066E+02  1.42774E+02  1.39260E+02  1.38577E+02  1.39871E+02  1.37914E+02  1.35720E+02  1.34278E+02  1.36416E+02  1.32573E+02
   1.38121E+02  1.29707E+02  1.34972E+02  1.25968E+02  1.21459E+02  1.20230E+02  1.19691E+02  1.21306E+02  1.21501E+02  1.20435E+02
   1.23226E+02  1.15148E+02  1.17971E+02  1.10035E+02  1.16588E+02  1.10768E+02  1.15092E+02  1.11319E+02  1.08872E+02  1.06396E+02
   1.07309E+02  1.01787E+02  1.08023E+02  1.01760E+02  1.06317E+02  9.59444E+01  9.58203E+01  9.46469E+01  1.00128E+02  9.95669E+01
   9.59590E+01  9.20658E+01  9.21725E+01  9.34949E+01  9.18322E+01  9.14147E+01  9.72473E+01  9.07347E+01  8.75582E+01  8.82896E+01
   8.46199E+01  8.78211E+01  9.05731E+01  8.67707E+01  8.78235E+01  8.69365E+01  8.92066E+01  8.64749E+01  8.59794E+01  8.87228E+01
   8.17809E+01  7.52093E+01  8.44077E+01  7.62214E+01  7.94193E+01  7.30280E+01  7.64172E+01  7.63777E+01  7.26997E+01  7.36822E+01
   7.37394E+01  7.38854E+01  7.28172E+01  6.56348E+01  7.65014E+01  6.63410E+01  6.71865E+01  6.61178E+01  6.73234E+01  6.31105E+01
   6.72178E+01  6.26829E+01  6.76408E+01  5.94829E+01  6.40442E+01  5.84062E+01  5.89127E+01  5.85218E+01  5.55364E+01  4.82937E+01
   5.56212E+01  5.32667E+01  5.12108E+01  4.97929E+01  5.13866E+01  4.62166E+01  4.77543E+01  4.56422E+01  5.43255E+01  4.77788E+01
   4.76866E+01  4.09289E+01  5.01255E+01  3.53448E+01  3.62687E+01  4.15385E+01  3.21721E+01  3.12950E+01  3.48706E+01  2.51100E+01
   2.94826E+01  3.67831E+01  3.82362E+01  2.85350E+01  2.68063E+01  3.00651E+01  3.30658E+01  2.22470E+01  3.62766E+01  2.97527E+01
   2.18250E+01  2.08051E+01  2.37940E+01  1.97469E+01  2.73444E+01  2.45319E+01  2.38150E+01  1.58049E+01  2.21373E+01  1.67323E+01
   1.62047E+01  2.22950E+01  2.53048E+01  2.31740E+01  2.60973E+01  3.40495E+01  4.00426E+01  4.05437E+01  4.07955E+01  4.08051E+01
   4.35128E+01  5.32006E+01  5.09636E+01  5.06524E+01  4.73293E+01  4.84881E+01  4.82296E+01  5.21403E+01  5.42476E+01  5.24718E+01
   5.08800E+01  4.75298E+01  4.88617E+01  5.26504E+01  4.85649E+01  4.27645E+01  4.40646E+01  3.75987E+01  4.39888E+01  3.28791E+01
   3.48902E+01  3.48800E+01  2.88238E+01  3.25335E+01  3.01114E+01  2.99331E+01  2.28247E+01  2.44780E+01  1.98266E+01  1.71547E+01
   1.80687E+01  1.71743E+01  1.22142E+01  8.51371E+00  1.39573E+01  5.57639E+00  9.07488E+00  5.35077E+00  9.87674E+00  4.81945E+00
   6.44135E+00  8.98334E+00  1.44784E+00  6.39648E-01  4.79986E+00  1.07443E+01  8.28788E+00  8.13445E+00  1.72415E+01  1.50677E+01
   2.61850E+01  2.53782E+01  3.38220E+01  3.47539E+01  3.56750E+01  5.38694E+01  6.21444E+01  7.41465E+01  8.09525E+01  9.28102E+01
   1.00350E+02  1.16994E+02  1.28371E+02  1.37835E+02  1.47757E+02  1.60270E+02  1.65539E+02  1.77624E+02  1.82003E+02  1.93352E+02
   2.04389E+02  2.00463E+02  2.13924E+02  2.11938E+02  2.12949E+02  2.20018E+02  2.20654E+02  2.15477E+02  2.13986E+02  2.11949E+02
   2.14932E+02  2.26071E+02  2.24603E+02  2.24355E+02  2.24738E+02  2.25468E+02  2.22130E+02  2.28342E+02  2.26602E+02  2.32948E+02
   2.34205E+02  2.33362E+02  2.32132E+02  2.40478E+02  2.35030E+02  2.32262E+02  2.41723E+02  2.32572E+02  2.42309E+02  2.31975E+02
   2.35038E+02  2.26176E+02  2.19473E+02  2.15794E+02  2.14326E+02  2.08378E+02  1.93982E+02  1.91816E+02  1.76723E+02  1.72831E+02
   1.70638E+02  1.59249E+02  1.51569E+02  1.41082E+02  1.42556E+02  1.35235E+02  1.23895E+02  1.17892E+02  1.03572E+02  9.89594E+01
   9.74686E+01  8.47174E+01  8.03799E+01  8.18279E+01  7.83836E+01  7.62262E+01  7.23255E+01  6.87370E+01  6.96565E+01  6.24058E+01
   5.56768E+01  5.38224E+01  4.81075E+01  4.57639E+01  3.77406E+01  3.58952E+01  3.24226E+01  2.95843E+01  2.47983E+01  2.14389E+01
   1.83768E+01  1.07959E+01  1.27620E+01  3.71217E+00  6.62602E+00  4.62511E+00 -3.85095E-01 -3.92078E+00 -3.03099E+00 -3.48002E+00
  -3.70461E+00 -7.34190E+00 -4.99900E+00 -3.65737E+00 -3.02526E+00 -6.37502E-01 -4.60389E+00 -4.73255E+00 -2.66847E+00  1.07498E+00
   1.13832E+01  6.44082E+00  1.38850E+01  7.03570E+00  1.81589E+01  2.06867E+01  1.84373E+01  2.17962E+01  2.13997E+01  3.00518E+01
   2.94239E+01  3.08859E+01  3.85308E+01  3.12317E+01  4.88884E+01  4.53317E+01  4.49564E+01  5.02611E+01  5.08462E+01  4.98750E+01
   5.27611E+01  5.11548E+01  6.89871E+01  6.88526E+01  6.91246E+01  7.38128E+01  8.32176E+01  8.19089E+01  8.69261E+01  8.90709E+01
   8.24752E+01  9.26912E+01  8.80681E+01  8.57343E+01  7.34106E+01  6.84471E+01  6.70205E+01  6.19094E+01  5.46088E+01  4.07252E+01
   3.51932E+01  2.59389E+01  1.66208E+01  9.78387E+00  1.67364E+00 -7.30688E+00 -7.90613E+00 -1.50325E+01 -1.80391E+01 -1.98902E+01
  -2.07293E+01 -2.61849E+01 -2.76919E+01 -2.92659E+01 -3.42425E+01 -3.48120E+01 -3.22852E+01 -3.82282E+01 -3.69297E+01 -3.93226E+01
  -4.13999E+01 -4.19664E+01 -4.67245E+01 -4.95018E+01 -5.27823E+01 -4.58130E+01 -4.98088E+01 -4.93140E+01 -5.42300E+01 -5.12201E+01
  -4.94637E+01 -5.59782E+01 -5.43301E+01 -4.99697E+01 -5.17899E+01 -4.86807E+01 -5.52920E+01 -4.90897E+01 -4.88622E+01 -4.87511E+01
  -5.04878E+01 -4.71345E+01 -4.59886E+01 -4.93229E+01 -4.64497E+01 -4.32808E+01 -3.96032E+01 -5.38834E+01 -5.17092E+01 -5.34596E+01
  -5.31078E+01 -5.31957E+01 -5.40476E+01 -4.97592E+01 -5.82686E+01 -5.38991E+01 -6.20875E+01 -5.31284E+01 -5.78472E+01 -5.54936E+01
  -6.19000E+01 -5.45938E+01 -6.00285E+01 -5.98114E+01 -5.56576E+01 -5.54118E+01 -5.56485E+01 -6.27609E+01 -5.87596E+01 -6.34191E+01
  -5.92888E+01 -6.20274E+01 -6.03865E+01 -5.79073E+01 -5.55174E+01 -6.48008E+01 -6.27856E+01 -6.11371E+01 -6.16508E+01 -5.79839E+01
  -5.53464E+01 -6.08944E+01 -6.05674E+01 -5.82706E+01 -6.29007E+01 -6.45916E+01 -5.93834E+01 -6.19871E+01 -6.15966E+01 -6.35947E+01
  -5.92395E+01 -5.97721E+01 -6.13395E+01 -6.40683E+01 -5.34884E+01 -5.75915E+01 -6.06605E+01 -5.85655E+01 -5.37761E+01 -6.25071E+01
  -5.80481E+01 -6.07658E+01 -5.80799E+01 -5.90449E+01 -6.08898E+01 -5.66530E+01 -5.59826E+01 -5.48682E+01 -5.85278E+01 -5.28702E+01
  -6.08170E+01 -5.46007E+01 -6.21810E+01 -5.80534E+01 -5.79351E+01 -6.00072E+01 -5.76981E+01 -5.78931E+01 -6.07492E+01 -5.62268E+01
  -5.66350E+01 -5.52564E+01 -5.31774E+01 -5.77439E+01 -5.51171E+01 -5.07542E+01 -6.17481E+01 -5.75197E+01 -5.18884E+01 -4.91519E+01
  -5.48708E+01 -4.90670E+01 -5.54016E+01 -5.04422E+01 -5.43311E+01 -4.84170E+01 -5.23796E+01 -5.43586E+01
 NY points of the fit to the data follow
   1.50884E+02  1.49508E+02  1.48094E+02  1.46897E+02  1.45610E+02  1.44713E+02  1.43710E+02  1.43479E+02  1.42801E+02  1.42875E+02
   1.41959E+02  1.42090E+02  1.40725E+02  1.41057E+02  1.39426E+02  1.40937E+02  1.39158E+02  1.41777E+02  1.39369E+02  1.42012E+02
   1.38212E+02  1.41245E+02  1.36807E+02  1.40537E+02  1.36153E+02  1.40681E+02  1.36557E+02  1.40734E+02  1.36893E+02  1.39589E+02
   1.36242E+02  1.37623E+02  1.35649E+02  1.35236E+02  1.34851E+02  1.33064E+02  1.34610E+02  1.30899E+02  1.34329E+02  1.29155E+02
   1.33756E+02  1.26829E+02  1.31876E+02  1.23074E+02  1.27686E+02  1.18597E+02  1.23613E+02  1.16647E+02  1.21638E+02  1.14925E+02
   1.17439E+02  1.10566E+02  1.10732E+02  1.04155E+02  1.03526E+02  1.01791E+02  1.02083E+02  1.00935E+02  1.00241E+02  9.88050E+01
   9.64883E+01  9.44083E+01  9.24061E+01  9.07044E+01  8.90381E+01  8.76089E+01  8.61492E+01  8.49164E+01  8.36454E+01  8.25307E+01
   8.14305E+01  8.03822E+01  7.93783E+01  7.83349E+01  7.74414E+01  7.63715E+01  7.55815E+01  7.44492E+01  7.37558E+01  7.25218E+01
   7.18806E+01  7.05560E+01  6.99427E+01  6.85814E+01  6.81463E+01  6.67686E+01  6.65163E+01  6.51338E+01  6.50472E+01  6.37094E+01
   6.38557E+01  6.26005E+01  6.30036E+01  6.18035E+01  6.25089E+01  6.13288E+01  6.21871E+01  6.10107E+01  6.19499E+01  6.07137E+01
   6.16838E+01  6.03612E+01  6.12325E+01  5.98248E+01  6.05676E+01  5.90817E+01  5.95204E+01  5.80294E+01  5.83091E+01  5.68203E+01
   5.67534E+01  5.53101E+01  5.49276E+01  5.36496E+01  5.31039E+01  5.20820E+01  5.15388E+01  5.07962E+01  5.03592E+01  4.98098E+01
   4.93112E+01  4.88900E+01  4.82874E+01  4.80396E+01  4.78982E+01  4.75978E+01  4.72249E+01  4.66802E+01  4.60136E+01  4.51855E+01
   4.42414E+01  4.31453E+01  4.19598E+01  4.06605E+01  3.93165E+01  3.79156E+01  3.65283E+01  3.51523E+01  3.38544E+01  3.26387E+01
   3.15632E+01  3.06364E+01  2.98978E+01  2.93628E+01  2.90450E+01  2.89602E+01  2.91009E+01  2.94781E+01  3.00608E+01  3.08548E+01
   3.18063E+01  3.29164E+01  3.41169E+01  3.54026E+01  3.66938E+01  3.79897E+01  3.92039E+01  4.03412E+01  4.13222E+01  4.21526E+01
   4.27693E+01  4.31872E+01  4.33598E+01  4.33152E+01  4.30222E+01  4.25301E+01  4.18195E+01  4.09533E+01  3.99207E+01  3.87884E+01
   3.75662E+01  3.63093E+01  3.50311E+01  3.38022E+01  3.26090E+01  3.15465E+01  3.05223E+01  2.95194E+01  2.86422E+01  2.73975E+01
   2.64605E+01  2.48749E+01  2.37241E+01  2.17547E+01  2.07249E+01  1.87464E+01  1.81038E+01  1.62022E+01  1.62543E+01  1.44843E+01
   1.53682E+01  1.40479E+01  1.53661E+01  1.33747E+01  1.55300E+01  1.34733E+01  1.67687E+01  1.48063E+01  1.88231E+01  1.59467E+01
   2.01020E+01  1.63202E+01  2.03720E+01  1.56784E+01  2.02795E+01  1.65133E+01  2.19116E+01  1.94600E+01  2.55939E+01  2.44190E+01
   3.09838E+01  3.13949E+01  3.81272E+01  4.03018E+01  4.76989E+01  5.33972E+01  6.18753E+01  7.03703E+01  8.01101E+01  9.06773E+01
   1.00854E+02  1.12769E+02  1.23159E+02  1.35400E+02  1.46391E+02  1.58161E+02  1.68366E+02  1.77384E+02  1.86872E+02  1.94013E+02
   2.01386E+02  2.05592E+02  2.08452E+02  2.06854E+02  2.07655E+02  2.07648E+02  2.07086E+02  2.08866E+02  2.06776E+02  2.10379E+02
   2.07151E+02  2.13375E+02  2.08842E+02  2.17506E+02  2.12130E+02  2.22955E+02  2.16417E+02  2.28825E+02  2.21212E+02  2.33866E+02
   2.25011E+02  2.36876E+02  2.27289E+02  2.37947E+02  2.29260E+02  2.39405E+02  2.32073E+02  2.41220E+02  2.33363E+02  2.37498E+02
   2.28374E+02  2.30141E+02  2.20872E+02  2.20984E+02  2.12981E+02  2.10802E+02  2.00278E+02  1.95683E+02  1.83795E+02  1.76874E+02
   1.64725E+02  1.56868E+02  1.45406E+02  1.37734E+02  1.28675E+02  1.22265E+02  1.15298E+02  1.10018E+02  1.04889E+02  1.00159E+02
   9.59136E+01  9.16518E+01  8.76018E+01  8.37144E+01  8.00082E+01  7.63843E+01  7.28250E+01  6.92747E+01  6.57460E+01  6.21514E+01
   5.85388E+01  5.48375E+01  5.11098E+01  4.73011E+01  4.34832E+01  3.96111E+01  3.57569E+01  3.18814E+01  2.80577E+01  2.42652E+01
   2.05689E+01  1.69504E+01  1.34709E+01  1.01324E+01  6.98549E+00  4.06012E+00  1.42421E+00 -8.15915E-01 -2.42837E+00 -3.14536E+00
  -4.04655E+00 -3.52029E+00 -4.14631E+00 -2.76576E+00 -3.14520E+00 -8.10577E-01 -1.60549E+00  2.02870E+00  1.23135E+00  6.15743E+00
   5.13929E+00  1.00275E+01  8.56992E+00  1.32418E+01  1.21555E+01  1.66690E+01  1.64854E+01  2.06996E+01  2.25813E+01  2.60258E+01
   2.97113E+01  3.11613E+01  3.67019E+01  3.63890E+01  4.36638E+01  4.10509E+01  4.97084E+01  4.53852E+01  5.57558E+01  5.02625E+01
   6.16172E+01  5.62027E+01  6.80027E+01  6.29332E+01  7.38637E+01  6.86837E+01  7.85561E+01  7.45860E+01  8.40560E+01  8.34733E+01
   8.92732E+01  8.73795E+01  8.95029E+01  8.50378E+01  8.21964E+01  7.41405E+01  6.59630E+01  5.79918E+01  4.98903E+01  4.17374E+01
   3.37347E+01  2.60823E+01  1.89277E+01  1.23470E+01  6.35001E+00  8.95708E-01 -4.08606E+00 -8.67582E+00 -1.29491E+01 -1.69678E+01
  -2.07761E+01 -2.44011E+01 -2.78543E+01 -3.11360E+01 -3.42383E+01 -3.71489E+01 -3.98530E+01 -4.23362E+01 -4.45848E+01 -4.65879E+01
  -4.83369E+01 -4.98268E+01 -5.10559E+01 -5.20260E+01 -5.27419E+01 -5.32119E+01 -5.34474E+01 -5.34625E+01 -5.32738E+01 -5.29005E+01
  -5.23637E+01 -5.16862E+01 -5.08923E+01 -5.00074E+01 -4.90575E+01 -4.80693E+01 -4.70690E+01 -4.60824E+01 -4.51344E+01 -4.42486E+01
  -4.34465E+01 -4.27475E+01 -4.21685E+01 -4.17233E+01 -4.14227E+01 -4.12741E+01 -4.12818E+01 -4.14464E+01 -4.17656E+01 -4.22339E+01
  -4.28432E+01 -4.35828E+01 -4.44402E+01 -4.54011E+01 -4.64501E+01 -4.75713E+01 -4.87483E+01 -4.99654E+01 -5.12070E+01 -5.24582E+01
  -5.37053E+01 -5.49354E+01 -5.61373E+01 -5.73008E+01 -5.84173E+01 -5.94795E+01 -6.04815E+01 -6.14188E+01 -6.22879E+01 -6.30866E+01
  -6.38137E+01 -6.44684E+01 -6.50514E+01 -6.55635E+01 -6.60062E+01 -6.63813E+01 -6.66913E+01 -6.69385E+01 -6.71256E+01 -6.72557E+01
  -6.73314E+01 -6.73560E+01 -6.73322E+01 -6.72630E+01 -6.71515E+01 -6.70004E+01 -6.68125E+01 -6.65905E+01 -6.63370E+01 -6.60547E+01
  -6.57458E+01 -6.54129E+01 -6.50580E+01 -6.46835E+01 -6.42913E+01 -6.38836E+01 -6.34622E+01 -6.30291E+01 -6.25860E+01 -6.21346E+01
  -6.16767E+01 -6.12137E+01 -6.07474E+01 -6.02791E+01 -5.98104E+01 -5.93426E+01 -5.88772E+01 -5.84154E+01 -5.79587E+01 -5.75081E+01
  -5.70650E+01 -5.66305E+01 -5.62060E+01 -5.57924E+01 -5.53910E+01 -5.50028E+01 -5.46291E+01 -5.42706E+01 -5.39288E+01 -5.36043E+01
  -5.32985E+01 -5.30122E+01 -5.27464E+01 -5.25022E+01 -5.22805E+01 -5.20823E+01 -5.19086E+01 -5.17602E+01 -5.16381E+01 -5.15434E+01
  -5.14769E+01 -5.14395E+01 -5.14322E+01 -5.14560E+01 -5.15118E+01 -5.16005E+01 -5.17231E+01 -5.18806E+01
 NY background values follow
     1.510E+02    1.493E+02    1.477E+02    1.461E+02    1.445E+02    1.429E+02    1.414E+02    1.399E+02    1.385E+02    1.370E+02
     1.356E+02    1.342E+02    1.329E+02    1.316E+02    1.303E+02    1.290E+02    1.277E+02    1.265E+02    1.253E+02    1.241E+02
     1.230E+02    1.218E+02    1.207E+02    1.196E+02    1.186E+02    1.175E+02    1.165E+02    1.155E+02    1.145E+02    1.135E+02
     1.125E+02    1.116E+02    1.107E+02    1.098E+02    1.089E+02    1.080E+02    1.071E+02    1.062E+02    1.054E+02    1.046E+02
     1.037E+02    1.029E+02    1.021E+02    1.013E+02    1.005E+02    9.975E+01    9.898E+01    9.822E+01    9.746E+01    9.670E+01
     9.596E+01    9.521E+01    9.448E+01    9.374E+01    9.301E+01    9.228E+01    9.155E+01    9.082E+01    9.009E+01    8.937E+01
     8.864E+01    8.791E+01    8.718E+01    8.644E+01    8.571E+01    8.497E+01    8.422E+01    8.348E+01    8.272E+01    8.196E+01
     8.120E+01    8.042E+01    7.964E+01    7.885E+01    7.805E+01    7.725E+01    7.643E+01    7.560E+01    7.476E+01    7.391E+01
     7.305E+01    7.217E+01    7.129E+01    7.038E+01    6.947E+01    6.853E+01    6.759E+01    6.664E+01    6.567E+01    6.469E+01
     6.370E+01    6.271E+01    6.170E+01    6.069E+01    5.967E+01    5.865E+01    5.762E+01    5.659E+01    5.555E+01    5.451E+01
     5.347E+01    5.242E+01    5.138E+01    5.034E+01    4.930E+01    4.826E+01    4.722E+01    4.618E+01    4.515E+01    4.413E+01
     4.311E+01    4.210E+01    4.109E+01    4.009E+01    3.910E+01    3.812E+01    3.715E+01    3.620E+01    3.525E+01    3.432E+01
     3.340E+01    3.249E+01    3.160E+01    3.073E+01    2.987E+01    2.903E+01    2.820E+01    2.740E+01    2.661E+01    2.585E+01
     2.510E+01    2.438E+01    2.368E+01    2.301E+01    2.236E+01    2.173E+01    2.113E+01    2.056E+01    2.001E+01    1.949E+01
     1.900E+01    1.854E+01    1.811E+01    1.771E+01    1.734E+01    1.701E+01    1.671E+01    1.644E+01    1.621E+01    1.601E+01
     1.585E+01    1.573E+01    1.565E+01    1.560E+01    1.560E+01    1.563E+01    1.571E+01    1.583E+01    1.599E+01    1.619E+01
     1.644E+01    1.673E+01    1.707E+01    1.745E+01    1.789E+01    1.837E+01    1.890E+01    1.947E+01    2.010E+01    2.077E+01
     2.148E+01    2.224E+01    2.304E+01    2.388E+01    2.476E+01    2.567E+01    2.662E+01    2.760E+01    2.862E+01    2.966E+01
     3.074E+01    3.184E+01    3.297E+01    3.412E+01    3.530E+01    3.650E+01    3.771E+01    3.895E+01    4.020E+01    4.147E+01
     4.275E+01    4.405E+01    4.535E+01    4.667E+01    4.799E+01    4.932E+01    5.066E+01    5.200E+01    5.334E+01    5.468E+01
     5.602E+01    5.735E+01    5.868E+01    6.001E+01    6.133E+01    6.264E+01    6.394E+01    6.523E+01    6.651E+01    6.777E+01
     6.901E+01    7.024E+01    7.144E+01    7.263E+01    7.380E+01    7.494E+01    7.605E+01    7.714E+01    7.820E+01    7.923E+01
     8.023E+01    8.119E+01    8.212E+01    8.302E+01    8.388E+01    8.470E+01    8.547E+01    8.621E+01    8.690E+01    8.755E+01
     8.815E+01    8.871E+01    8.921E+01    8.966E+01    9.006E+01    9.041E+01    9.070E+01    9.093E+01    9.111E+01    9.122E+01
     9.128E+01    9.127E+01    9.119E+01    9.105E+01    9.084E+01    9.057E+01    9.022E+01    8.980E+01    8.931E+01    8.874E+01
     8.809E+01    8.737E+01    8.658E+01    8.572E+01    8.479E+01    8.379E+01    8.273E+01    8.160E+01    8.040E+01    7.915E+01
     7.783E+01    7.645E+01    7.502E+01    7.353E+01    7.198E+01    7.038E+01    6.872E+01    6.702E+01    6.527E+01    6.347E+01
     6.162E+01    5.972E+01    5.779E+01    5.581E+01    5.379E+01    5.173E+01    4.963E+01    4.749E+01    4.532E+01    4.312E+01
     4.088E+01    3.862E+01    3.632E+01    3.400E+01    3.165E+01    2.927E+01    2.687E+01    2.445E+01    2.200E+01    1.954E+01
     1.706E+01    1.456E+01    1.205E+01    9.524E+00    6.985E+00    4.435E+00    1.876E+00   -6.914E-01   -3.265E+00   -5.845E+00
    -8.428E+00   -1.101E+01   -1.360E+01   -1.619E+01   -1.877E+01   -2.135E+01   -2.393E+01   -2.650E+01   -2.906E+01   -3.161E+01
    -3.415E+01   -3.668E+01   -3.920E+01   -4.170E+01   -4.419E+01   -4.666E+01   -4.911E+01   -5.154E+01   -5.395E+01   -5.633E+01
    -5.869E+01   -6.103E+01   -6.333E+01   -6.561E+01   -6.785E+01   -7.007E+01   -7.225E+01   -7.440E+01   -7.651E+01   -7.858E+01
    -8.062E+01   -8.261E+01   -8.456E+01   -8.647E+01   -8.834E+01   -9.017E+01   -9.195E+01   -9.370E+01   -9.540E+01   -9.706E+01
    -9.869E+01   -1.003E+02   -1.018E+02   -1.033E+02   -1.048E+02   -1.062E+02   -1.076E+02   -1.089E+02   -1.102E+02   -1.115E+02
    -1.128E+02   -1.139E+02   -1.151E+02   -1.162E+02   -1.173E+02   -1.184E+02   -1.194E+02   -1.203E+02   -1.213E+02   -1.222E+02
    -1.231E+02   -1.239E+02   -1.247E+02   -1.255E+02   -1.262E+02   -1.269E+02   -1.276E+02   -1.282E+02   -1.288E+02   -1.293E+02
    -1.299E+02   -1.304E+02   -1.308E+02   -1.313E+02   -1.317E+02   -1.320E+02   -1.324E+02   -1.327E+02   -1.330E+02   -1.332E+02
    -1.334E+02   -1.336E+02   -1.338E+02   -1.339E+02   -1.340E+02   -1.341E+02   -1.341E+02   -1.341E+02   -1.341E+02   -1.341E+02
    -1.340E+02   -1.339E+02   -1.338E+02   -1.336E+02   -1.335E+02   -1.332E+02   -1.330E+02   -1.328E+02   -1.325E+02   -1.322E+02
    -1.318E+02   -1.315E+02   -1.311E+02   -1.307E+02   -1.303E+02   -1.298E+02   -1.293E+02   -1.288E+02   -1.283E+02   -1.278E+02
    -1.272E+02   -1.266E+02   -1.260E+02   -1.253E+02   -1.247E+02   -1.240E+02   -1.233E+02   -1.226E+02   -1.218E+02   -1.211E+02
    -1.203E+02   -1.195E+02   -1.187E+02   -1.179E+02   -1.170E+02   -1.162E+02   -1.153E+02   -1.144E+02   -1.135E+02   -1.126E+02
    -1.117E+02   -1.108E+02   -1.099E+02   -1.089E+02   -1.080E+02   -1.070E+02   -1.061E+02   -1.051E+02   -1.041E+02   -1.031E+02
    -1.021E+02   -1.012E+02   -1.002E+02   -9.918E+01   -9.819E+01   -9.720E+01   -9.621E+01   -9.522E+01   -9.424E+01   -9.325E+01
    -9.227E+01   -9.130E+01   -9.033E+01   -8.936E+01   -8.840E+01   -8.745E+01   -8.651E+01   -8.557E+01   -8.465E+01   -8.373E+01
    -8.282E+01   -8.193E+01   -8.105E+01   -8.018E+01   -7.932E+01   -7.848E+01   -7.765E+01   -7.684E+01   -7.605E+01   -7.527E+01
    -7.451E+01   -7.377E+01   -7.305E+01   -7.234E+01   -7.166E+01   -7.100E+01   -7.036E+01   -6.975E+01   -6.915E+01   -6.858E+01
    -6.804E+01   -6.752E+01   -6.703E+01   -6.657E+01   -6.613E+01   -6.572E+01   -6.534E+01   -6.499E+01   -6.467E+01   -6.438E+01
    -6.413E+01   -6.390E+01   -6.371E+01   -6.356E+01   -6.343E+01   -6.335E+01   -6.330E+01   -6.329E+01
 Ala      Conc. = 1.53E+04
