 LCModel (Version 6.3-1L) Copyright: S.W. Provencher.          Ref.: Magn. Reson. Med. 30:672-679 (1993).                
 Slice#3 Row#7 Col#9  PD_05_press_2_raw_act
 36 lines in following concentration table = NCONC+1
    Conc.  %SD /Cr+PCr  Metabolite                                         
  178.512 109% 7.0E-02 Ala                                                 
    0.000 999%   0.000 Asp                                                 
    0.000 999%   0.000 Cr                                                  
 2.54E+03   4%   1.000 PCr                                                 
   12.678 999% 5.0E-03 GABA                                                
  195.517 143% 7.7E-02 Glc                                                 
 1.15E+03  34%   0.453 Gln                                                 
 2.64E+03  18%   1.039 Glu                                                 
 1.34E+03   3%   0.528 GPC                                                 
    0.000 999%   0.000 PCh                                                 
  801.019  17%   0.315 GSH                                                 
 2.15E+03  21%   0.845 Ins                                                 
   72.656 304% 2.9E-02 Lac                                                 
 4.20E+03   3%   1.651 NAA                                                 
    0.000 999%   0.000 NAAG                                                
  356.859  15%   0.140 Scyllo                                              
    0.000 999%   0.000 Tau                                                 
  922.604  20%   0.363 -CrCH2                                              
 1.34E+03   3%   0.528 GPC+PCh                                             
 4.20E+03   3%   1.651 NAA+NAAG                                            
 2.54E+03   4%   1.000 Cr+PCr                                              
 3.80E+03  17%   1.492 Glu+Gln                                             
  396.921 330%   0.156 Lip13a                                              
  615.474 143%   0.242 Lip13b                                              
    0.000 999%   0.000 Lip09                                               
 2.34E+03  16%   0.918 MM09                                                
  227.131  99% 8.9E-02 Lip20                                               
 6.20E+03  11%   2.436 MM20                                                
  790.047  37%   0.311 MM12                                                
  450.473 115%   0.177 MM14                                                
 1.56E+03  28%   0.614 MM17                                                
 1.01E+03  63%   0.398 Lip13a+Lip13b                                       
 2.25E+03  29%   0.886 MM14+Lip13a+Lip13b+MM12                             
 2.34E+03  16%   0.918 MM09+Lip09                                          
 6.42E+03  11%   2.525 MM20+Lip20                                          
   6 lines in following misc. output table
  FWHM = 0.054 ppm    S/N =  12                                            
  Data shift = 0.023 ppm                                                   
  Ph: -74 deg     -24.1 deg/ppm                                            
  alphaB,S = 2.0E+00,   2.5E+01                                            
   14 spline knots.   Ns = 6(1)                                            
  ( 9) 2 infls.   ( 1) 1 extrs.                                            
  498 points on ppm-axis = NY
      4.000000     3.992357     3.984714     3.977070     3.969427     3.961784     3.954141     3.946497     3.938854     3.931211
      3.923568     3.915925     3.908281     3.900638     3.892995     3.885352     3.877708     3.870065     3.862422     3.854779
      3.847136     3.839492     3.831849     3.824206     3.816563     3.808919     3.801276     3.793633     3.785990     3.778347
      3.770703     3.763060     3.755417     3.747774     3.740130     3.732487     3.724844     3.717201     3.709558     3.701914
      3.694271     3.686628     3.678985     3.671341     3.663698     3.656055     3.648412     3.640769     3.633125     3.625482
      3.617839     3.610196     3.602552     3.594909     3.587266     3.579623     3.571980     3.564336     3.556693     3.549050
      3.541407     3.533763     3.526120     3.518477     3.510834     3.503191     3.495547     3.487904     3.480261     3.472618
      3.464974     3.457331     3.449688     3.442045     3.434402     3.426758     3.419115     3.411472     3.403829     3.396185
      3.388542     3.380899     3.373256     3.365613     3.357969     3.350326     3.342683     3.335040     3.327396     3.319753
      3.312110     3.304467     3.296824     3.289180     3.281537     3.273894     3.266251     3.258607     3.250964     3.243321
      3.235678     3.228034     3.220391     3.212748     3.205105     3.197462     3.189818     3.182175     3.174532     3.166889
      3.159245     3.151602     3.143959     3.136316     3.128673     3.121029     3.113386     3.105743     3.098100     3.090456
      3.082813     3.075170     3.067527     3.059884     3.052240     3.044597     3.036954     3.029311     3.021667     3.014024
      3.006381     2.998738     2.991095     2.983451     2.975808     2.968165     2.960522     2.952878     2.945235     2.937592
      2.929949     2.922306     2.914662     2.907019     2.899376     2.891733     2.884089     2.876446     2.868803     2.861160
      2.853517     2.845873     2.838230     2.830587     2.822944     2.815300     2.807657     2.800014     2.792371     2.784728
      2.777084     2.769441     2.761798     2.754155     2.746511     2.738868     2.731225     2.723582     2.715939     2.708295
      2.700652     2.693009     2.685366     2.677722     2.670079     2.662436     2.654793     2.647150     2.639506     2.631863
      2.624220     2.616577     2.608933     2.601290     2.593647     2.586004     2.578361     2.570717     2.563074     2.555431
      2.547788     2.540144     2.532501     2.524858     2.517215     2.509572     2.501928     2.494285     2.486642     2.478999
      2.471355     2.463712     2.456069     2.448426     2.440783     2.433139     2.425496     2.417853     2.410210     2.402566
      2.394923     2.387280     2.379637     2.371994     2.364350     2.356707     2.349064     2.341421     2.333777     2.326134
      2.318491     2.310848     2.303205     2.295561     2.287918     2.280275     2.272632     2.264988     2.257345     2.249702
      2.242059     2.234416     2.226772     2.219129     2.211486     2.203843     2.196199     2.188556     2.180913     2.173270
      2.165627     2.157983     2.150340     2.142697     2.135054     2.127410     2.119767     2.112124     2.104481     2.096838
      2.089194     2.081551     2.073908     2.066265     2.058621     2.050978     2.043335     2.035692     2.028049     2.020405
      2.012762     2.005119     1.997476     1.989833     1.982190     1.974546     1.966903     1.959260     1.951617     1.943974
      1.936331     1.928688     1.921045     1.913402     1.905759     1.898115     1.890472     1.882829     1.875186     1.867543
      1.859900     1.852257     1.844614     1.836971     1.829327     1.821684     1.814041     1.806398     1.798755     1.791112
      1.783469     1.775826     1.768183     1.760540     1.752896     1.745253     1.737610     1.729967     1.722324     1.714681
      1.707038     1.699395     1.691752     1.684108     1.676465     1.668822     1.661179     1.653536     1.645893     1.638250
      1.630607     1.622964     1.615321     1.607677     1.600034     1.592391     1.584748     1.577105     1.569462     1.561819
      1.554176     1.546533     1.538890     1.531246     1.523603     1.515960     1.508317     1.500674     1.493031     1.485388
      1.477745     1.470102     1.462458     1.454815     1.447172     1.439529     1.431886     1.424243     1.416600     1.408957
      1.401314     1.393671     1.386027     1.378384     1.370741     1.363098     1.355455     1.347812     1.340169     1.332526
      1.324883     1.317240     1.309596     1.301953     1.294310     1.286667     1.279024     1.271381     1.263738     1.256095
      1.248452     1.240808     1.233165     1.225522     1.217879     1.210236     1.202593     1.194950     1.187307     1.179664
      1.172021     1.164377     1.156734     1.149091     1.141448     1.133805     1.126162     1.118519     1.110876     1.103233
      1.095590     1.087946     1.080303     1.072660     1.065017     1.057374     1.049731     1.042088     1.034445     1.026802
      1.019158     1.011515     1.003872     0.996229     0.988586     0.980943     0.973300     0.965657     0.958014     0.950371
      0.942727     0.935084     0.927441     0.919798     0.912155     0.904512     0.896869     0.889226     0.881583     0.873940
      0.866296     0.858653     0.851010     0.843367     0.835724     0.828081     0.820438     0.812795     0.805152     0.797508
      0.789865     0.782222     0.774579     0.766936     0.759293     0.751650     0.744007     0.736364     0.728721     0.721077
      0.713434     0.705791     0.698148     0.690505     0.682862     0.675219     0.667576     0.659933     0.652290     0.644646
      0.637003     0.629360     0.621717     0.614074     0.606431     0.598788     0.591145     0.583502     0.575858     0.568215
      0.560572     0.552929     0.545286     0.537643     0.530000     0.522357     0.514714     0.507071     0.499427     0.491784
      0.484141     0.476498     0.468855     0.461212     0.453569     0.445925     0.438282     0.430639     0.422996     0.415353
      0.407710     0.400067     0.392424     0.384780     0.377137     0.369494     0.361851     0.354208     0.346565     0.338922
      0.331278     0.323635     0.315992     0.308349     0.300706     0.293063     0.285420     0.277777     0.270133     0.262490
      0.254847     0.247204     0.239561     0.231918     0.224275     0.216631     0.208988     0.201345
 NY phased data points follow
  -7.76066E+01 -7.13077E+01 -6.60481E+01 -6.23099E+01 -4.80066E+01 -3.76379E+01 -2.57315E+01 -1.69194E+01 -1.43414E+01 -1.51284E+01
  -1.09471E+01 -2.55651E+01 -2.83546E+01 -4.35530E+01 -5.48428E+01 -4.84986E+01 -5.14482E+01 -6.12147E+01 -5.03333E+01 -5.53481E+01
  -5.31146E+01 -6.29408E+01 -5.37785E+01 -5.48846E+01 -4.08953E+01 -3.28432E+01 -3.21977E+01 -3.34802E+01 -3.50402E+01 -4.67888E+01
  -3.89235E+01 -3.94918E+01 -2.36100E+01 -3.55019E+01 -4.16311E+01 -2.55382E+01 -3.93600E+01 -3.81462E+01 -4.75064E+01 -4.02527E+01
  -4.14868E+01 -3.43793E+01 -3.61971E+01 -3.23656E+01 -2.28439E+01 -2.34255E+01 -2.02192E+01 -2.68142E+01 -1.94831E+01 -2.29275E+01
  -3.12069E+01 -3.19535E+01 -3.67636E+01 -3.67790E+01 -2.99244E+01 -2.78924E+01 -4.08435E+01 -4.33277E+01 -3.77914E+01 -4.13169E+01
  -4.73700E+01 -5.60931E+01 -5.47843E+01 -5.72572E+01 -4.75803E+01 -5.11741E+01 -5.63870E+01 -4.77378E+01 -3.41417E+01 -4.60082E+01
  -5.26249E+01 -3.82475E+01 -3.96407E+01 -5.62621E+01 -3.96780E+01 -4.62548E+01 -3.95438E+01 -3.91633E+01 -3.61616E+01 -3.60385E+01
  -2.25623E+01 -3.71702E+01 -2.78068E+01 -2.87114E+01 -2.94945E+01 -2.44305E+01 -3.53220E+01 -1.82747E+01 -1.79036E+01 -2.08168E+01
  -1.81958E+01 -2.42151E+01 -2.03304E+01 -2.20457E+01 -1.73129E+01 -1.35455E+01 -1.98462E+01 -5.33935E+00  1.99790E+01  3.64132E+01
   5.70257E+01  8.25379E+01  9.27336E+01  8.81256E+01  7.00772E+01  4.91351E+01  2.08278E+01  1.01724E+01 -9.41337E+00 -1.82623E+01
  -2.24144E+01 -2.41975E+01 -1.25015E+01 -3.12557E+01 -2.50766E+01 -2.69007E+01 -2.88339E+01 -2.71673E+01 -2.59989E+01 -1.72526E+01
  -2.14903E+01 -1.36435E+01 -1.26200E+00  1.74560E+01  3.47642E+01  5.61982E+01  6.90647E+01  5.85614E+01  4.94186E+01  3.10585E+01
   2.54502E+01 -4.03584E+00 -4.27701E+00 -1.15578E+01 -1.87274E+01 -1.67066E+01 -3.35507E+01 -2.49276E+01 -2.47215E+01 -3.08492E+01
  -1.64780E+01 -2.61300E+01 -1.90770E+01 -2.11158E+01 -2.66533E+01 -3.06851E+01 -1.00089E+01 -2.29522E+01 -2.43386E+01 -2.28660E+01
  -1.70826E+01 -1.47732E+01 -2.20019E+01 -2.34452E+01 -2.63131E+01 -2.38433E+01 -2.23773E+01 -1.98273E+01 -1.98720E+01 -2.74925E+01
  -2.39058E+01 -2.69642E+01 -2.12737E+01 -2.75315E+01 -2.42032E+01 -2.44894E+01 -1.92417E+01 -2.65146E+01 -3.15272E+01 -3.67239E+01
  -3.49014E+01 -3.49477E+01 -3.58211E+01 -4.04668E+01 -3.46887E+01 -3.77747E+01 -3.47096E+01 -3.76401E+01 -3.76356E+01 -3.02756E+01
  -2.68753E+01 -2.37241E+01 -3.32663E+01 -3.30514E+01 -3.81987E+01 -3.20912E+01 -3.79904E+01 -2.81309E+01 -2.41061E+01 -2.00645E+01
  -7.73869E+00 -1.00619E+01 -1.24432E+00 -1.39902E+01 -1.83102E+01 -2.39749E+01 -2.13193E+01 -2.15875E+01 -8.66532E+00 -9.80434E+00
  -8.76101E+00 -1.40270E+01 -1.47377E+01 -6.47830E+00  3.46663E+00 -1.11719E+01 -1.63427E+01 -1.38268E+01 -2.17884E+01 -2.26921E+01
  -1.91116E+01 -1.43998E+01 -2.14331E-01  7.78662E+00  1.53680E+00  3.33770E+00  1.64522E+01  3.55252E+00  5.92257E+00 -9.15957E+00
  -2.14859E+00 -1.07584E+01 -1.46817E+01 -1.34698E+01  5.78204E-01 -1.92259E+00 -7.32743E-01  6.60166E+00  6.00007E+00  1.24381E+01
   8.49729E+00  1.19161E+01  5.26002E+00  8.33326E+00  1.27912E+01  4.72789E+00  5.90711E+00  1.29703E+01  2.90425E+00  9.54696E+00
   6.99340E+00  9.31889E-01 -1.21051E-01  1.78593E+00  1.93291E+00  1.84232E+01  1.64392E+01  2.32977E+01  2.31515E+01  1.50172E+01
   2.48586E+01  2.75052E+01  1.94251E+01  2.34160E+01  4.06543E+01  4.67889E+01  8.25906E+01  1.08004E+02  1.35394E+02  1.60781E+02
   1.51734E+02  1.49571E+02  1.22382E+02  9.57019E+01  7.88673E+01  6.22836E+01  3.09843E+01  2.31598E+01  1.20742E+01  1.39195E+01
   1.35332E+01  4.35357E+00  2.34402E+01  1.47656E+01  1.21150E+01  3.05948E+00  1.35120E+01  1.08103E+01  7.03404E+00  8.08263E+00
   1.27087E+01  3.51966E+00  1.74713E+01  1.00453E+01  2.32253E+01  3.53049E+00  1.14907E+01  1.05188E+01  1.04385E+01 -2.30620E-01
   1.19288E+01  1.28518E+01  1.15608E+01  1.42234E+01  5.48469E+00  8.92380E+00  6.44206E+00  1.41217E+01  1.21517E+01  1.58940E+01
   6.30654E+00  7.98983E+00  5.35849E+00  1.42677E+01  9.63047E+00  4.41453E+00  9.39569E+00  1.07733E+01  1.12687E+01  1.21713E+00
   8.02985E+00  8.82778E+00  1.45931E+01  7.15912E+00  8.83335E+00  6.65452E+00  1.20570E+01  1.31373E+01  1.74017E+01  1.27077E+01
   2.49424E+01  2.83401E+00  1.55156E+01  7.75676E+00  4.56774E+00  1.43710E+01  5.26929E+00  5.02766E+00  8.57144E+00  1.10552E+01
   7.95185E+00  5.40140E+00  6.59505E+00  4.42344E+00  4.99399E+00  1.49284E+01  1.31110E+01  1.04922E+01  4.43050E+00  3.21889E+00
   1.31628E+01  7.40128E+00  1.09171E+01  1.83074E+01  1.56731E+01  1.72066E+01  1.71232E+01  1.34077E+01  1.68056E+01  1.89213E+01
   1.87078E+01  1.07569E+01  1.48488E+01  2.27509E+01  2.58869E+01  2.48161E+01  1.89060E+01  1.87267E+01  2.08650E+01  2.11099E+01
   1.69974E+01  1.97881E+01  1.30843E+01  1.91268E+01  1.60439E+01  2.15083E+01  2.21746E+01  2.33594E+01  2.52423E+01  1.81210E+01
   1.76310E+01  9.61307E+00  1.75008E+01  1.30537E+01  1.71131E+01  1.95922E+01  2.10667E+01  1.69308E+01  1.46674E+01  1.26833E+01
   1.36246E+01  1.65531E+01  7.84204E+00  1.20868E+01  1.30263E+01  2.19525E+01  1.55527E+01  2.09249E+01  1.87088E+01  2.43159E+01
   2.23241E+01  3.17554E+01  2.29238E+01  1.93050E+01  2.11740E+01  2.63471E+01  1.35262E+01  2.98257E+01  1.40742E+01  2.15324E+01
   1.78538E+01  2.68723E+01  2.49927E+01  2.03215E+01  3.16956E+01  2.68523E+01  2.42122E+01  2.65010E+01  2.69361E+01  2.72954E+01
   3.37827E+01  1.86804E+01  3.23722E+01  2.48391E+01  1.67932E+01  2.68147E+01  2.78956E+01  2.32776E+01  2.98766E+01  1.77148E+01
   2.66356E+01  1.85469E+01  2.74404E+01  1.54119E+01  1.82517E+01  1.56717E+01  1.58722E+01  1.30388E+01  2.53821E+01  2.79396E+01
   2.13481E+01  1.89478E+01  2.69429E+01  1.33346E+01  2.57138E+01  1.36148E+01  1.97841E+01  2.43473E+01  2.09804E+01  2.03944E+01
   3.04354E+01  2.02862E+01  1.79659E+01  2.36686E+01  2.00192E+01  1.93383E+01  2.81844E+01  2.25603E+01  1.90062E+01  1.48285E+01
   1.85132E+01  2.08704E+01  2.29208E+01  2.58116E+01  2.18071E+01  1.59482E+01  1.71673E+01  1.59936E+01  1.54572E+01  2.25484E+01
   2.32659E+01  1.12114E+01  1.99087E+01  1.43625E+01  1.20490E+01  1.68869E+01  1.53465E+01  8.58473E+00  1.29483E+01  1.56034E+01
   5.51487E+00  1.33550E+01  1.17401E+01  2.05708E+01  1.41124E+01  1.79240E+01  2.04317E+01  1.42374E+01  2.02618E+01  1.67297E+01
   1.68028E+01  1.54873E+01  1.26412E+01  1.48704E+01  1.72120E+01  1.98179E+01  1.18725E+01  1.61972E+01  2.42682E+01  1.56785E+01
   1.51182E+01  2.01008E+01  1.60873E+01  2.21755E+01  9.85416E+00  2.19996E+01  1.98823E+01  1.70926E+01
 NY points of the fit to the data follow
  -5.93140E+01 -5.85531E+01 -5.66575E+01 -5.15969E+01 -4.41640E+01 -3.59115E+01 -2.75708E+01 -1.93435E+01 -1.43767E+01 -1.44900E+01
  -1.83357E+01 -2.45347E+01 -3.08041E+01 -3.64706E+01 -4.11921E+01 -4.43743E+01 -4.71102E+01 -4.86320E+01 -4.91938E+01 -4.95710E+01
  -4.98812E+01 -5.01871E+01 -5.05112E+01 -5.01227E+01 -4.84922E+01 -4.61134E+01 -4.30872E+01 -3.92664E+01 -3.49802E+01 -3.18842E+01
  -3.02225E+01 -2.99671E+01 -3.10360E+01 -3.29628E+01 -3.60768E+01 -3.94101E+01 -4.24421E+01 -4.48550E+01 -4.60279E+01 -4.62460E+01
  -4.50215E+01 -4.22150E+01 -3.86963E+01 -3.50118E+01 -3.13369E+01 -2.82454E+01 -2.66873E+01 -2.72899E+01 -2.96781E+01 -3.29686E+01
  -3.63570E+01 -3.93018E+01 -4.15342E+01 -4.27935E+01 -4.30996E+01 -4.25294E+01 -4.14170E+01 -4.01714E+01 -3.92296E+01 -3.89260E+01
  -3.94053E+01 -4.05093E+01 -4.18095E+01 -4.29498E+01 -4.36235E+01 -4.36154E+01 -4.30627E+01 -4.20924E+01 -4.10054E+01 -3.98980E+01
  -3.89041E+01 -3.82927E+01 -3.80280E+01 -3.80437E+01 -3.81827E+01 -3.83134E+01 -3.84578E+01 -3.85228E+01 -3.85454E+01 -3.84807E+01
  -3.82008E+01 -3.69110E+01 -3.42605E+01 -3.10943E+01 -2.78020E+01 -2.43600E+01 -2.15957E+01 -2.09759E+01 -2.22344E+01 -2.46522E+01
  -2.71985E+01 -2.92638E+01 -3.09599E+01 -3.19367E+01 -3.22134E+01 -3.09564E+01 -2.39085E+01 -7.62563E+00  1.40286E+01  3.81175E+01
   6.30519E+01  8.46875E+01  9.32511E+01  8.69576E+01  6.98661E+01  4.75753E+01  2.61092E+01  6.77817E+00 -8.30161E+00 -1.91536E+01
  -2.69601E+01 -2.99107E+01 -3.06232E+01 -3.07464E+01 -3.06572E+01 -3.04563E+01 -3.01618E+01 -2.97549E+01 -2.91087E+01 -2.78444E+01
  -2.38253E+01 -1.28195E+01  2.42682E+00  1.93481E+01  3.68773E+01  5.37904E+01  6.22952E+01  6.00435E+01  4.98151E+01  3.48699E+01
   2.02457E+01  6.54326E+00 -5.13580E+00 -1.40649E+01 -2.16127E+01 -2.50870E+01 -2.59202E+01 -2.55499E+01 -2.45343E+01 -2.31933E+01
  -2.20449E+01 -2.13564E+01 -2.10669E+01 -2.12327E+01 -2.16421E+01 -2.21406E+01 -2.26853E+01 -2.31277E+01 -2.35478E+01 -2.38770E+01
  -2.40867E+01 -2.42003E+01 -2.42165E+01 -2.41281E+01 -2.39812E+01 -2.40632E+01 -2.43999E+01 -2.48722E+01 -2.53649E+01 -2.57205E+01
  -2.57920E+01 -2.54813E+01 -2.48691E+01 -2.41399E+01 -2.38338E+01 -2.40849E+01 -2.46609E+01 -2.53938E+01 -2.60069E+01 -2.66522E+01
  -2.74708E+01 -2.83391E+01 -2.90398E+01 -2.94268E+01 -2.95796E+01 -2.95707E+01 -2.91356E+01 -2.84206E+01 -2.77668E+01 -2.74786E+01
  -2.74444E+01 -2.74413E+01 -2.73788E+01 -2.69510E+01 -2.60584E+01 -2.46912E+01 -2.24309E+01 -1.94591E+01 -1.64018E+01 -1.38788E+01
  -1.24579E+01 -1.21785E+01 -1.28295E+01 -1.39775E+01 -1.51347E+01 -1.59385E+01 -1.61214E+01 -1.53266E+01 -1.34816E+01 -1.08966E+01
  -8.00492E+00 -5.34753E+00 -3.44479E+00 -2.82367E+00 -4.04515E+00 -6.73062E+00 -1.03865E+01 -1.43879E+01 -1.80271E+01 -1.99686E+01
  -1.93266E+01 -1.62432E+01 -1.14470E+01 -5.83920E+00 -4.27669E-01  3.71354E+00  4.59472E+00  2.06083E+00 -2.93493E+00 -8.72343E+00
  -1.36705E+01 -1.72673E+01 -1.82747E+01 -1.61426E+01 -1.19566E+01 -6.87817E+00 -2.34974E+00  1.03900E+00  3.22995E+00  4.21618E+00
   4.44051E+00  4.70860E+00  5.23399E+00  6.09355E+00  7.25937E+00  8.69797E+00  9.92247E+00  1.02789E+01  9.87874E+00  9.08261E+00
   8.25768E+00  7.60076E+00  7.62621E+00  8.84951E+00  1.08228E+01  1.30368E+01  1.50432E+01  1.66402E+01  1.79187E+01  1.89063E+01
   1.98025E+01  2.08962E+01  2.25094E+01  2.58100E+01  3.65245E+01  5.68663E+01  8.14153E+01  1.07465E+02  1.34332E+02  1.55284E+02
   1.59576E+02  1.48020E+02  1.25682E+02  9.97225E+01  7.54680E+01  5.38090E+01  3.74331E+01  2.48521E+01  1.61100E+01  1.27443E+01
   1.11836E+01  1.02547E+01  9.70778E+00  9.48421E+00  9.35547E+00  9.17649E+00  8.92193E+00  8.60190E+00  8.23532E+00  7.85236E+00
   7.51044E+00  7.24800E+00  7.09085E+00  7.05097E+00  7.10197E+00  7.22221E+00  7.39595E+00  7.60551E+00  7.85312E+00  8.12759E+00
   8.42013E+00  8.73172E+00  9.05555E+00  9.38300E+00  9.70458E+00  1.00091E+01  1.02886E+01  1.05335E+01  1.07380E+01  1.08977E+01
   1.10084E+01  1.10681E+01  1.10779E+01  1.10381E+01  1.09513E+01  1.08217E+01  1.06557E+01  1.04611E+01  1.02465E+01  1.00202E+01
   9.79103E+00  9.56629E+00  9.35414E+00  9.16134E+00  8.99422E+00  8.85837E+00  8.75937E+00  8.70309E+00  8.69785E+00  8.75795E+00
   8.91755E+00  9.23561E+00  9.60497E+00  9.87145E+00  9.99761E+00  9.95274E+00  9.59602E+00  8.89790E+00  8.05881E+00  7.35968E+00
   7.07715E+00  7.20000E+00  7.66494E+00  8.50931E+00  9.60594E+00  1.06895E+01  1.15818E+01  1.21589E+01  1.24873E+01  1.26972E+01
   1.28469E+01  1.30593E+01  1.33221E+01  1.35855E+01  1.39235E+01  1.43025E+01  1.46488E+01  1.49338E+01  1.52384E+01  1.56863E+01
   1.63422E+01  1.71675E+01  1.80945E+01  1.90969E+01  2.00387E+01  2.07796E+01  2.12473E+01  2.13887E+01  2.12569E+01  2.09142E+01
   2.04186E+01  1.98477E+01  1.92361E+01  1.86421E+01  1.81102E+01  1.76431E+01  1.72421E+01  1.69054E+01  1.66272E+01  1.64001E+01
   1.62161E+01  1.60680E+01  1.59505E+01  1.58598E+01  1.57943E+01  1.57535E+01  1.57386E+01  1.57511E+01  1.57933E+01  1.58677E+01
   1.59770E+01  1.61239E+01  1.63111E+01  1.65408E+01  1.68154E+01  1.71366E+01  1.75059E+01  1.79242E+01  1.83916E+01  1.89075E+01
   1.94702E+01  2.00769E+01  2.07233E+01  2.14039E+01  2.21113E+01  2.28369E+01  2.35702E+01  2.42999E+01  2.50132E+01  2.56966E+01
   2.63364E+01  2.69191E+01  2.74315E+01  2.78623E+01  2.82013E+01  2.84410E+01  2.85762E+01  2.86046E+01  2.85268E+01  2.83464E+01
   2.80696E+01  2.77051E+01  2.72635E+01  2.67570E+01  2.61987E+01  2.56020E+01  2.49804E+01  2.43466E+01  2.37122E+01  2.30879E+01
   2.24826E+01  2.19036E+01  2.13566E+01  2.08457E+01  2.03735E+01  1.99413E+01  1.95493E+01  1.91968E+01  1.88824E+01  1.86040E+01
   1.83594E+01  1.81460E+01  1.79612E+01  1.78024E+01  1.76670E+01  1.75527E+01  1.74571E+01  1.73783E+01  1.73144E+01  1.72636E+01
   1.72245E+01  1.71958E+01  1.71763E+01  1.71649E+01  1.71608E+01  1.71631E+01  1.71711E+01  1.71843E+01  1.72020E+01  1.72239E+01
   1.72494E+01  1.72782E+01  1.73100E+01  1.73446E+01  1.73815E+01  1.74208E+01  1.74621E+01  1.75052E+01  1.75500E+01  1.75964E+01
   1.76441E+01  1.76933E+01  1.77435E+01  1.77949E+01  1.78473E+01  1.79007E+01  1.79550E+01  1.80101E+01  1.80660E+01  1.81225E+01
   1.81797E+01  1.82376E+01  1.82961E+01  1.83552E+01  1.84147E+01  1.84748E+01  1.85353E+01  1.85963E+01  1.86578E+01  1.87197E+01
   1.87819E+01  1.88445E+01  1.89076E+01  1.89710E+01  1.90348E+01  1.90989E+01  1.91633E+01  1.92282E+01  1.92934E+01  1.93589E+01
   1.94248E+01  1.94910E+01  1.95576E+01  1.96246E+01  1.96920E+01  1.97598E+01  1.98279E+01  1.98966E+01
 NY background values follow
    -6.594E+01   -6.566E+01   -6.538E+01   -6.511E+01   -6.483E+01   -6.455E+01   -6.427E+01   -6.399E+01   -6.372E+01   -6.344E+01
    -6.316E+01   -6.288E+01   -6.260E+01   -6.233E+01   -6.205E+01   -6.177E+01   -6.149E+01   -6.122E+01   -6.094E+01   -6.066E+01
    -6.038E+01   -6.011E+01   -5.983E+01   -5.955E+01   -5.928E+01   -5.900E+01   -5.872E+01   -5.845E+01   -5.817E+01   -5.789E+01
    -5.762E+01   -5.734E+01   -5.707E+01   -5.679E+01   -5.652E+01   -5.624E+01   -5.597E+01   -5.569E+01   -5.542E+01   -5.515E+01
    -5.487E+01   -5.460E+01   -5.433E+01   -5.405E+01   -5.378E+01   -5.351E+01   -5.324E+01   -5.297E+01   -5.269E+01   -5.242E+01
    -5.215E+01   -5.188E+01   -5.161E+01   -5.134E+01   -5.107E+01   -5.080E+01   -5.054E+01   -5.027E+01   -5.000E+01   -4.973E+01
    -4.946E+01   -4.920E+01   -4.893E+01   -4.866E+01   -4.840E+01   -4.813E+01   -4.787E+01   -4.760E+01   -4.734E+01   -4.708E+01
    -4.681E+01   -4.655E+01   -4.629E+01   -4.602E+01   -4.576E+01   -4.550E+01   -4.524E+01   -4.498E+01   -4.472E+01   -4.446E+01
    -4.420E+01   -4.394E+01   -4.369E+01   -4.343E+01   -4.317E+01   -4.292E+01   -4.266E+01   -4.241E+01   -4.215E+01   -4.190E+01
    -4.164E+01   -4.139E+01   -4.114E+01   -4.088E+01   -4.063E+01   -4.038E+01   -4.013E+01   -3.988E+01   -3.963E+01   -3.938E+01
    -3.913E+01   -3.889E+01   -3.864E+01   -3.839E+01   -3.815E+01   -3.790E+01   -3.765E+01   -3.741E+01   -3.717E+01   -3.692E+01
    -3.668E+01   -3.644E+01   -3.619E+01   -3.595E+01   -3.571E+01   -3.547E+01   -3.523E+01   -3.499E+01   -3.475E+01   -3.452E+01
    -3.428E+01   -3.404E+01   -3.380E+01   -3.357E+01   -3.333E+01   -3.310E+01   -3.286E+01   -3.263E+01   -3.239E+01   -3.216E+01
    -3.193E+01   -3.170E+01   -3.147E+01   -3.123E+01   -3.100E+01   -3.077E+01   -3.054E+01   -3.032E+01   -3.009E+01   -2.986E+01
    -2.963E+01   -2.941E+01   -2.918E+01   -2.895E+01   -2.873E+01   -2.850E+01   -2.828E+01   -2.806E+01   -2.783E+01   -2.761E+01
    -2.739E+01   -2.716E+01   -2.694E+01   -2.672E+01   -2.650E+01   -2.628E+01   -2.606E+01   -2.584E+01   -2.562E+01   -2.540E+01
    -2.519E+01   -2.497E+01   -2.475E+01   -2.453E+01   -2.432E+01   -2.410E+01   -2.388E+01   -2.367E+01   -2.345E+01   -2.324E+01
    -2.302E+01   -2.281E+01   -2.260E+01   -2.238E+01   -2.217E+01   -2.196E+01   -2.174E+01   -2.153E+01   -2.132E+01   -2.111E+01
    -2.090E+01   -2.069E+01   -2.048E+01   -2.027E+01   -2.006E+01   -1.985E+01   -1.964E+01   -1.943E+01   -1.922E+01   -1.901E+01
    -1.880E+01   -1.860E+01   -1.839E+01   -1.818E+01   -1.798E+01   -1.777E+01   -1.756E+01   -1.736E+01   -1.715E+01   -1.695E+01
    -1.675E+01   -1.654E+01   -1.634E+01   -1.614E+01   -1.593E+01   -1.573E+01   -1.553E+01   -1.533E+01   -1.513E+01   -1.493E+01
    -1.473E+01   -1.453E+01   -1.433E+01   -1.414E+01   -1.394E+01   -1.374E+01   -1.355E+01   -1.335E+01   -1.316E+01   -1.296E+01
    -1.277E+01   -1.258E+01   -1.238E+01   -1.219E+01   -1.200E+01   -1.181E+01   -1.162E+01   -1.143E+01   -1.124E+01   -1.105E+01
    -1.087E+01   -1.068E+01   -1.049E+01   -1.031E+01   -1.012E+01   -9.938E+00   -9.754E+00   -9.571E+00   -9.389E+00   -9.207E+00
    -9.026E+00   -8.846E+00   -8.666E+00   -8.487E+00   -8.309E+00   -8.131E+00   -7.954E+00   -7.778E+00   -7.602E+00   -7.427E+00
    -7.253E+00   -7.079E+00   -6.906E+00   -6.733E+00   -6.562E+00   -6.391E+00   -6.220E+00   -6.051E+00   -5.881E+00   -5.713E+00
    -5.545E+00   -5.378E+00   -5.212E+00   -5.046E+00   -4.881E+00   -4.717E+00   -4.553E+00   -4.390E+00   -4.228E+00   -4.066E+00
    -3.905E+00   -3.745E+00   -3.586E+00   -3.427E+00   -3.268E+00   -3.111E+00   -2.954E+00   -2.798E+00   -2.642E+00   -2.488E+00
    -2.333E+00   -2.180E+00   -2.027E+00   -1.875E+00   -1.723E+00   -1.572E+00   -1.422E+00   -1.273E+00   -1.124E+00   -9.754E-01
    -8.278E-01   -6.808E-01   -5.345E-01   -3.888E-01   -2.438E-01   -9.939E-02    4.438E-02    1.875E-01    3.300E-01    4.719E-01
     6.131E-01    7.537E-01    8.937E-01    1.033E+00    1.172E+00    1.310E+00    1.448E+00    1.584E+00    1.721E+00    1.856E+00
     1.991E+00    2.126E+00    2.260E+00    2.393E+00    2.526E+00    2.658E+00    2.789E+00    2.920E+00    3.050E+00    3.180E+00
     3.309E+00    3.438E+00    3.566E+00    3.693E+00    3.820E+00    3.946E+00    4.072E+00    4.197E+00    4.321E+00    4.445E+00
     4.569E+00    4.692E+00    4.814E+00    4.936E+00    5.057E+00    5.178E+00    5.298E+00    5.417E+00    5.536E+00    5.655E+00
     5.773E+00    5.891E+00    6.008E+00    6.124E+00    6.240E+00    6.355E+00    6.470E+00    6.585E+00    6.699E+00    6.812E+00
     6.925E+00    7.038E+00    7.150E+00    7.261E+00    7.372E+00    7.483E+00    7.593E+00    7.702E+00    7.811E+00    7.920E+00
     8.028E+00    8.136E+00    8.243E+00    8.350E+00    8.456E+00    8.562E+00    8.668E+00    8.773E+00    8.877E+00    8.981E+00
     9.085E+00    9.188E+00    9.291E+00    9.394E+00    9.496E+00    9.597E+00    9.698E+00    9.799E+00    9.899E+00    9.999E+00
     1.010E+01    1.020E+01    1.030E+01    1.039E+01    1.049E+01    1.059E+01    1.069E+01    1.078E+01    1.088E+01    1.098E+01
     1.107E+01    1.117E+01    1.126E+01    1.136E+01    1.145E+01    1.154E+01    1.164E+01    1.173E+01    1.182E+01    1.191E+01
     1.201E+01    1.210E+01    1.219E+01    1.228E+01    1.237E+01    1.246E+01    1.255E+01    1.264E+01    1.273E+01    1.282E+01
     1.291E+01    1.299E+01    1.308E+01    1.317E+01    1.326E+01    1.334E+01    1.343E+01    1.352E+01    1.360E+01    1.369E+01
     1.377E+01    1.386E+01    1.394E+01    1.403E+01    1.411E+01    1.419E+01    1.428E+01    1.436E+01    1.444E+01    1.453E+01
     1.461E+01    1.469E+01    1.477E+01    1.485E+01    1.494E+01    1.502E+01    1.510E+01    1.518E+01    1.526E+01    1.534E+01
     1.542E+01    1.550E+01    1.558E+01    1.565E+01    1.573E+01    1.581E+01    1.589E+01    1.597E+01    1.604E+01    1.612E+01
     1.620E+01    1.628E+01    1.635E+01    1.643E+01    1.651E+01    1.658E+01    1.666E+01    1.673E+01    1.681E+01    1.688E+01
     1.696E+01    1.703E+01    1.711E+01    1.718E+01    1.726E+01    1.733E+01    1.741E+01    1.748E+01    1.755E+01    1.763E+01
     1.770E+01    1.777E+01    1.785E+01    1.792E+01    1.799E+01    1.807E+01    1.814E+01    1.821E+01    1.828E+01    1.836E+01
     1.843E+01    1.850E+01    1.858E+01    1.865E+01    1.872E+01    1.879E+01    1.887E+01    1.894E+01    1.901E+01    1.908E+01
     1.916E+01    1.923E+01    1.930E+01    1.937E+01    1.945E+01    1.952E+01    1.959E+01    1.966E+01
 Ala      Conc. = 1.79E+02
