 LCModel (Version 6.3-1L) Copyright: S.W. Provencher.          Ref.: Magn. Reson. Med. 30:672-679 (1993).                
 Slice#1 Row#6 Col#5  PD_05_press_2_raw_act
 36 lines in following concentration table = NCONC+1
    Conc.  %SD /Cr+PCr  Metabolite                                         
  467.782  67%   0.364 Ala                                                 
  211.615 144%   0.165 Asp                                                 
  419.415 117%   0.326 Cr                                                  
  866.422  57%   0.674 PCr                                                 
   63.871 292% 5.0E-02 GABA                                                
  208.871  90%   0.162 Glc                                                 
  682.812  95%   0.531 Gln                                                 
 1.17E+03  61%   0.911 Glu                                                 
  454.550  12%   0.354 GPC                                                 
    0.000 999%   0.000 PCh                                                 
  659.445  31%   0.513 GSH                                                 
 3.92E+03  16%   3.051 Ins                                                 
  362.228  95%   0.282 Lac                                                 
 2.70E+03  10%   2.099 NAA                                                 
  521.239  58%   0.405 NAAG                                                
   45.021 111% 3.5E-02 Scyllo                                              
  131.500 222%   0.102 Tau                                                 
    0.000 999%   0.000 -CrCH2                                              
  454.550  12%   0.354 GPC+PCh                                             
 3.22E+03   7%   2.504 NAA+NAAG                                            
 1.29E+03  10%   1.000 Cr+PCr                                              
 1.85E+03  54%   1.442 Glu+Gln                                             
 1.48E+03  47%   1.149 Lip13a                                              
    0.000 999%   0.000 Lip13b                                              
  420.070  95%   0.327 Lip09                                               
 1.82E+03  25%   1.417 MM09                                                
  183.015 158%   0.142 Lip20                                               
 2.47E+03  30%   1.924 MM20                                                
  712.211  40%   0.554 MM12                                                
    0.000 999%   0.000 MM14                                                
 1.04E+03  38%   0.806 MM17                                                
 1.48E+03  47%   1.149 Lip13a+Lip13b                                       
 2.19E+03  29%   1.703 MM14+Lip13a+Lip13b+MM12                             
 2.24E+03  17%   1.744 MM09+Lip09                                          
 2.66E+03  28%   2.066 MM20+Lip20                                          
   6 lines in following misc. output table
  FWHM = 0.054 ppm    S/N =   5                                            
  Data shift = 0.008 ppm                                                   
  Ph:   4 deg      15.2 deg/ppm                                            
  alphaB,S = 8.5E+01,   1.6E+02                                            
   14 spline knots.   Ns = 6(1)                                            
   2 inflections.     1 extrema                                            
  498 points on ppm-axis = NY
      4.000000     3.992357     3.984714     3.977070     3.969427     3.961784     3.954141     3.946497     3.938854     3.931211
      3.923568     3.915925     3.908281     3.900638     3.892995     3.885352     3.877708     3.870065     3.862422     3.854779
      3.847136     3.839492     3.831849     3.824206     3.816563     3.808919     3.801276     3.793633     3.785990     3.778347
      3.770703     3.763060     3.755417     3.747774     3.740130     3.732487     3.724844     3.717201     3.709558     3.701914
      3.694271     3.686628     3.678985     3.671341     3.663698     3.656055     3.648412     3.640769     3.633125     3.625482
      3.617839     3.610196     3.602552     3.594909     3.587266     3.579623     3.571980     3.564336     3.556693     3.549050
      3.541407     3.533763     3.526120     3.518477     3.510834     3.503191     3.495547     3.487904     3.480261     3.472618
      3.464974     3.457331     3.449688     3.442045     3.434402     3.426758     3.419115     3.411472     3.403829     3.396185
      3.388542     3.380899     3.373256     3.365613     3.357969     3.350326     3.342683     3.335040     3.327396     3.319753
      3.312110     3.304467     3.296824     3.289180     3.281537     3.273894     3.266251     3.258607     3.250964     3.243321
      3.235678     3.228034     3.220391     3.212748     3.205105     3.197462     3.189818     3.182175     3.174532     3.166889
      3.159245     3.151602     3.143959     3.136316     3.128673     3.121029     3.113386     3.105743     3.098100     3.090456
      3.082813     3.075170     3.067527     3.059884     3.052240     3.044597     3.036954     3.029311     3.021667     3.014024
      3.006381     2.998738     2.991095     2.983451     2.975808     2.968165     2.960522     2.952878     2.945235     2.937592
      2.929949     2.922306     2.914662     2.907019     2.899376     2.891733     2.884089     2.876446     2.868803     2.861160
      2.853517     2.845873     2.838230     2.830587     2.822944     2.815300     2.807657     2.800014     2.792371     2.784728
      2.777084     2.769441     2.761798     2.754155     2.746511     2.738868     2.731225     2.723582     2.715939     2.708295
      2.700652     2.693009     2.685366     2.677722     2.670079     2.662436     2.654793     2.647150     2.639506     2.631863
      2.624220     2.616577     2.608933     2.601290     2.593647     2.586004     2.578361     2.570717     2.563074     2.555431
      2.547788     2.540144     2.532501     2.524858     2.517215     2.509572     2.501928     2.494285     2.486642     2.478999
      2.471355     2.463712     2.456069     2.448426     2.440783     2.433139     2.425496     2.417853     2.410210     2.402566
      2.394923     2.387280     2.379637     2.371994     2.364350     2.356707     2.349064     2.341421     2.333777     2.326134
      2.318491     2.310848     2.303205     2.295561     2.287918     2.280275     2.272632     2.264988     2.257345     2.249702
      2.242059     2.234416     2.226772     2.219129     2.211486     2.203843     2.196199     2.188556     2.180913     2.173270
      2.165627     2.157983     2.150340     2.142697     2.135054     2.127410     2.119767     2.112124     2.104481     2.096838
      2.089194     2.081551     2.073908     2.066265     2.058621     2.050978     2.043335     2.035692     2.028049     2.020405
      2.012762     2.005119     1.997476     1.989833     1.982190     1.974546     1.966903     1.959260     1.951617     1.943974
      1.936331     1.928688     1.921045     1.913402     1.905759     1.898115     1.890472     1.882829     1.875186     1.867543
      1.859900     1.852257     1.844614     1.836971     1.829327     1.821684     1.814041     1.806398     1.798755     1.791112
      1.783469     1.775826     1.768183     1.760540     1.752896     1.745253     1.737610     1.729967     1.722324     1.714681
      1.707038     1.699395     1.691752     1.684108     1.676465     1.668822     1.661179     1.653536     1.645893     1.638250
      1.630607     1.622964     1.615321     1.607677     1.600034     1.592391     1.584748     1.577105     1.569462     1.561819
      1.554176     1.546533     1.538890     1.531246     1.523603     1.515960     1.508317     1.500674     1.493031     1.485388
      1.477745     1.470102     1.462458     1.454815     1.447172     1.439529     1.431886     1.424243     1.416600     1.408957
      1.401314     1.393671     1.386027     1.378384     1.370741     1.363098     1.355455     1.347812     1.340169     1.332526
      1.324883     1.317240     1.309596     1.301953     1.294310     1.286667     1.279024     1.271381     1.263738     1.256095
      1.248452     1.240808     1.233165     1.225522     1.217879     1.210236     1.202593     1.194950     1.187307     1.179664
      1.172021     1.164377     1.156734     1.149091     1.141448     1.133805     1.126162     1.118519     1.110876     1.103233
      1.095590     1.087946     1.080303     1.072660     1.065017     1.057374     1.049731     1.042088     1.034445     1.026802
      1.019158     1.011515     1.003872     0.996229     0.988586     0.980943     0.973300     0.965657     0.958014     0.950371
      0.942727     0.935084     0.927441     0.919798     0.912155     0.904512     0.896869     0.889226     0.881583     0.873940
      0.866296     0.858653     0.851010     0.843367     0.835724     0.828081     0.820438     0.812795     0.805152     0.797508
      0.789865     0.782222     0.774579     0.766936     0.759293     0.751650     0.744007     0.736364     0.728721     0.721077
      0.713434     0.705791     0.698148     0.690505     0.682862     0.675219     0.667576     0.659933     0.652290     0.644646
      0.637003     0.629360     0.621717     0.614074     0.606431     0.598788     0.591145     0.583502     0.575858     0.568215
      0.560572     0.552929     0.545286     0.537643     0.530000     0.522357     0.514714     0.507071     0.499427     0.491784
      0.484141     0.476498     0.468855     0.461212     0.453569     0.445925     0.438282     0.430639     0.422996     0.415353
      0.407710     0.400067     0.392424     0.384780     0.377137     0.369494     0.361851     0.354208     0.346565     0.338922
      0.331278     0.323635     0.315992     0.308349     0.300706     0.293063     0.285420     0.277777     0.270133     0.262490
      0.254847     0.247204     0.239561     0.231918     0.224275     0.216631     0.208988     0.201345
 NY phased data points follow
   3.63222E+01  3.61696E+01  4.14832E+01  5.19763E+01  4.13428E+01  4.90684E+01  4.75575E+01  6.00518E+01  4.02928E+01  6.06006E+01
   3.44462E+01  5.73314E+01  5.69923E+01  4.87878E+01  3.88223E+01  4.16352E+01  2.95373E+01  4.53235E+01  3.65856E+01  5.37801E+01
   4.45083E+01  3.94857E+01  3.04304E+01  4.75952E+01  3.41752E+01  4.32767E+01  3.97148E+01  3.88211E+01  3.46544E+01  4.78500E+01
   2.90374E+01  3.38824E+01  2.21941E+01  3.92006E+01  2.89666E+01  4.83310E+01  4.18806E+01  3.34011E+01  2.77581E+01  3.08965E+01
   3.16223E+01  4.86726E+01  3.02714E+01  2.64591E+01  2.63252E+01  4.83380E+01  2.93068E+01  5.52443E+01  4.09510E+01  5.03948E+01
   3.97442E+01  4.28784E+01  3.57486E+01  3.46622E+01  2.71649E+01  4.01747E+01  1.56606E+01  4.26187E+01  4.13610E+01  4.11402E+01
   3.64804E+01  2.88320E+01  4.17202E+01  2.81673E+01  2.36742E+01  3.04098E+01  1.43629E+01  1.44867E+01  2.56156E+01  2.89337E+01
   4.75438E+00  3.50197E+01  2.74444E+01  4.17057E+01  1.99318E+01  2.93002E+01  2.52546E+01  3.24688E+01  2.46581E+01  2.89029E+01
   2.02162E+01  2.27133E+01  1.70304E+01  2.33103E+01  1.21452E+01  1.80556E+01  2.32083E+01  1.83246E+01  6.57471E+00  1.74400E+01
   1.20133E+00  2.51759E+01  1.92467E+01  2.31399E+01  1.60826E+01  2.43240E+01  2.41527E+01  1.12279E+01  3.53864E+01  3.61993E+01
   2.19952E+01  4.26317E+01  5.79869E+01  6.07443E+01  5.18891E+01  6.41595E+01  3.08597E+01  3.27281E+01  1.69954E+01  2.69959E+01
   1.32918E+01  2.05970E+01  2.11309E+01  1.73935E+01  2.05636E+01  3.12376E+01  1.14538E+01  2.98704E+01  2.38267E+01  8.81496E+00
   2.69258E+01  2.66713E+01  3.02138E+01  2.44877E+01  3.38349E+01  4.06383E+01  5.07918E+01  6.68519E+01  6.07951E+01  5.50884E+01
   4.34340E+01  3.78747E+01  2.54960E+01  4.32580E+01  1.97883E+01  2.48297E+01  2.16965E+01  3.03584E+01  3.02086E+01  3.48422E+01
   1.55597E+01  2.76192E+01  2.17434E+01  3.55835E+01 -2.60223E-01  1.18484E+01  5.62157E+00  2.20706E+01  3.50512E+00  9.14548E+00
   1.77615E+01  1.97346E+01  1.43842E+01  1.36032E+01  1.96253E+01  1.41454E+01  1.73140E+01  1.27897E+01  1.51902E+01  1.95639E+01
   1.08494E+01  7.85537E+00 -1.47806E+00  1.63317E+01  1.25690E+01  7.70188E+00  9.87158E+00  2.83832E+01  3.94157E+00  1.88263E+01
   1.02824E+00  3.29782E+00 -8.65097E+00 -3.05321E+00  7.41932E+00  2.65220E+00 -7.07796E+00 -1.70436E+01 -2.10583E+01 -6.83645E+00
  -1.29518E+01  1.54101E+00 -2.60611E+01  1.82815E+00 -3.69156E-01  1.14158E+01  1.19974E+01  1.49431E+01  1.14443E+01  1.36020E+01
   9.93029E+00 -8.29146E-01  6.09047E+00  4.58269E+00 -9.69523E+00 -3.04332E+00 -4.69674E+00  7.91924E+00  2.88494E+00  2.22094E+00
   9.03116E+00  3.46654E+00  1.68555E+01  1.90380E+01 -4.35952E+00  8.42152E-01  2.06236E+00  1.49389E+01  3.41610E+00  2.25152E+01
   1.21664E+01  1.55051E+01  2.59781E+01  1.55462E+00  1.62694E+01  2.65355E+01  3.30898E+00  1.66792E+01  1.73967E+01  3.79393E+00
   1.50093E+01  1.24894E+01  5.97934E-01  1.50460E+01  6.55396E+00  1.91897E+00  2.21039E+01  2.02052E+01  1.83822E+01  2.99493E+01
   1.93009E+01  4.69637E+00  5.59805E+00  1.06144E+01  2.31782E+01  1.11250E+01  8.73135E+00  2.78205E+01  6.83044E+00  1.60868E+01
   2.64073E+00  4.89291E+00 -1.05424E+01 -6.84434E+00  7.71765E+00  5.48031E+00  1.05777E+01  5.35260E+00  1.73110E+01  2.71827E+01
   2.23252E+01  2.93060E+01  3.67081E+01  3.42122E+01  3.71299E+01  6.54320E+01  5.58317E+01  7.01923E+01  7.79087E+01  1.04782E+02
   1.17665E+02  1.23381E+02  1.14762E+02  7.40342E+01  4.43132E+01  3.23807E+01  1.41755E+01  3.56960E+01  2.44145E+01  1.05220E+01
   1.87631E+01  2.73001E+01  1.39821E+01  2.87444E+01  4.32731E+00  7.15435E+00  5.10103E+00  6.69168E+00  5.53862E+00  2.82652E+01
   2.13434E+00  1.67596E+01 -2.18642E-01  3.78199E+00  2.90001E+00  9.55269E+00  7.71913E+00  1.73173E+01 -9.66852E-01  6.35683E+00
   9.13237E+00  4.55388E+00 -2.84314E-01  8.14841E+00  1.50271E+01  4.34599E+00 -4.50006E+00  9.31602E+00  9.13412E+00  2.76356E+01
   9.99887E+00  1.27627E+00  4.15513E+00  1.99405E+01  2.18629E+01  1.84044E+01  1.57711E+01  2.83102E+01  2.13657E+01  1.96796E+01
   1.16976E+01 -6.02608E+00 -5.05775E+00  4.22126E+00 -6.06860E+00 -9.34761E+00 -1.06168E+00  1.35089E+00 -2.37584E+00  1.49918E-01
  -5.25016E+00 -1.24830E+01  1.56093E+01  1.39707E+01 -8.62947E+00 -1.94110E+00 -2.28987E+01 -1.18566E+01 -8.43897E+00 -6.04735E+00
  -1.24953E+01 -1.14790E+01 -2.85685E+00 -1.60432E+01 -1.66990E+01 -2.46332E+01  1.56010E+01 -1.06999E+01 -3.38394E+00  2.07421E+00
  -4.20836E+00  2.19575E+01  1.70442E+01  4.97788E+00  2.94376E+00  2.10350E+01 -2.40198E+00  5.33622E+00 -1.83482E+00 -5.26218E+00
  -3.85150E+00  8.07266E-01  3.91025E+00  5.33918E+00  9.21039E-01  6.22933E+00  2.02733E+00  7.05470E+00  9.94124E+00  3.45720E+00
   1.26793E+01  8.90163E+00  8.44808E+00  2.89397E+01  1.98475E+01  1.96055E+01  2.24395E+01  1.06188E+01  5.92974E+00  1.60728E+01
   2.19720E+01  2.48087E+01  2.02429E+01  1.10270E+01  1.87684E+01  4.68989E+00  7.71736E+00  1.97837E+01 -6.19889E+00  2.48983E+00
  -1.37488E+01  9.35785E+00 -3.11125E+00  7.62680E+00 -1.94112E+00 -1.86614E+00 -1.00577E+01 -4.81142E+00 -3.73333E+00 -4.97083E-01
  -9.52736E+00  1.41948E+00 -1.77117E+00  1.23336E+01  2.12342E+01  1.22961E+01  1.58567E+01  1.47920E+01  1.45118E+01  6.47401E+00
   2.42892E+01  1.92523E+01  1.27453E+01 -9.22703E+00  1.17247E+01  1.23386E+01  1.31241E+01  9.20487E+00  3.95580E+00  8.18872E+00
   7.66332E+00  2.03785E+01  1.25514E+01  2.05100E+01  9.00469E+00 -2.87098E-01  1.39646E+01 -9.09787E+00 -1.03861E+01 -6.88060E-01
   1.78606E+00 -2.54539E+00  1.30567E+00  1.20762E+01 -1.22529E+00 -1.26630E+00  1.00273E-01 -8.53702E+00 -1.74734E+01 -1.90992E+01
  -1.18127E+01  3.51862E+00 -7.10055E+00  4.69530E-01 -1.23103E+01 -1.17093E+01  5.06517E+00  4.22270E+00 -1.10489E+01 -9.67691E+00
  -5.88575E+00 -5.87654E+00 -5.27759E+00 -4.88208E+00 -9.36429E+00 -1.63988E+01 -1.62014E+00 -2.84034E+01 -4.83543E+00  1.24618E+00
   5.62139E+00 -1.61304E+01 -1.63911E+01 -2.13692E+00 -5.05620E+00  2.16432E+00 -2.01811E+01 -7.10860E+00 -1.00252E+01 -1.01742E+01
   1.23173E+00 -5.97640E+00  3.60479E+00  1.17313E+01  5.81096E+00 -4.80963E+00 -3.95636E+01  3.53673E+00 -5.21430E+00 -1.70319E+00
   8.02320E+00 -1.88754E+01  3.81453E-01  9.39336E+00 -9.66834E+00 -6.75942E+00 -7.12041E+00 -8.42521E+00 -7.26188E+00 -4.96730E+00
  -8.95502E+00 -2.16513E+00 -7.64419E+00 -1.06041E+00 -8.72969E+00 -1.63651E+01 -1.38215E+01 -1.50329E+01 -9.67349E-01  1.32868E+01
   2.73197E-01 -3.26032E+00 -1.25135E+01 -1.11274E+01 -7.35219E+00 -1.21845E+01 -1.35123E+01 -2.43669E+00
 NY points of the fit to the data follow
   3.38211E+01  3.18520E+01  3.10195E+01  3.18148E+01  3.42131E+01  3.77267E+01  4.20495E+01  4.65523E+01  5.04588E+01  5.30591E+01
   5.38506E+01  5.26645E+01  4.96953E+01  4.55116E+01  4.08509E+01  3.64150E+01  3.28377E+01  3.05144E+01  2.90844E+01  2.83639E+01
   2.82229E+01  2.81982E+01  2.80970E+01  2.84221E+01  2.96325E+01  3.13639E+01  3.34385E+01  3.58434E+01  3.84603E+01  4.08064E+01
   4.22981E+01  4.25969E+01  4.17986E+01  4.02476E+01  3.81074E+01  3.55211E+01  3.28616E+01  3.07217E+01  2.91391E+01  2.76668E+01
   2.65054E+01  2.63787E+01  2.82177E+01  3.20009E+01  3.68715E+01  4.19485E+01  4.65512E+01  4.98200E+01  5.07451E+01  4.87802E+01
   4.42751E+01  3.83142E+01  3.21228E+01  2.68861E+01  2.36260E+01  2.27853E+01  2.42269E+01  2.69463E+01  2.97757E+01  3.19956E+01
   3.32430E+01  3.33321E+01  3.23065E+01  3.04595E+01  2.83079E+01  2.63482E+01  2.51043E+01  2.49199E+01  2.57422E+01  2.71852E+01
   2.88520E+01  3.03129E+01  3.12556E+01  3.15510E+01  3.12096E+01  3.03819E+01  2.92962E+01  2.81378E+01  2.70346E+01  2.60675E+01
   2.54406E+01  2.49549E+01  2.42004E+01  2.29757E+01  2.13148E+01  1.93261E+01  1.71549E+01  1.50372E+01  1.33397E+01  1.24374E+01
   1.25519E+01  1.36758E+01  1.54080E+01  1.72852E+01  1.89452E+01  2.01216E+01  2.12289E+01  2.41092E+01  2.89612E+01  3.47509E+01
   4.09903E+01  4.72136E+01  5.24407E+01  5.52771E+01  5.46766E+01  5.05953E+01  4.39728E+01  3.63653E+01  2.91403E+01  2.31591E+01
   1.90650E+01  1.73920E+01  1.70395E+01  1.69349E+01  1.68708E+01  1.67902E+01  1.66955E+01  1.66054E+01  1.65957E+01  1.68339E+01
   1.79772E+01  2.15587E+01  2.75616E+01  3.47557E+01  4.22831E+01  4.94534E+01  5.52761E+01  5.85571E+01  5.83155E+01  5.43902E+01
   4.77209E+01  3.97831E+01  3.18694E+01  2.48943E+01  1.95854E+01  1.66203E+01  1.52889E+01  1.47639E+01  1.48518E+01  1.54026E+01
   1.62053E+01  1.70059E+01  1.75091E+01  1.75664E+01  1.72435E+01  1.66656E+01  1.59706E+01  1.52963E+01  1.46608E+01  1.40990E+01
   1.36043E+01  1.31697E+01  1.28218E+01  1.25860E+01  1.24174E+01  1.21730E+01  1.18205E+01  1.14042E+01  1.09575E+01  1.05661E+01
   1.02200E+01  9.93327E+00  9.76818E+00  9.73727E+00  9.75468E+00  9.69733E+00  9.50375E+00  9.17034E+00  8.70317E+00  8.09575E+00
   7.37268E+00  6.62759E+00  6.04080E+00  5.65330E+00  5.33905E+00  4.99940E+00  4.70331E+00  4.57187E+00  4.61603E+00  4.73596E+00
   4.81652E+00  4.76902E+00  4.73290E+00  4.93637E+00  5.46489E+00  6.38677E+00  7.75574E+00  9.40718E+00  1.11030E+01  1.25764E+01
   1.35695E+01  1.38919E+01  1.34740E+01  1.24999E+01  1.12665E+01  1.00903E+01  9.33530E+00  9.27055E+00  9.99827E+00  1.13790E+01
   1.30807E+01  1.46645E+01  1.58064E+01  1.62071E+01  1.55748E+01  1.40544E+01  1.19399E+01  9.50397E+00  7.19624E+00  5.60052E+00
   5.23164E+00  6.06979E+00  7.82024E+00  1.00551E+01  1.22748E+01  1.39178E+01  1.44497E+01  1.36417E+01  1.18183E+01  9.68038E+00
   7.72959E+00  6.34383E+00  5.89757E+00  6.57002E+00  8.18003E+00  1.00447E+01  1.16456E+01  1.27783E+01  1.33757E+01  1.34510E+01
   1.31386E+01  1.28988E+01  1.30568E+01  1.35848E+01  1.42972E+01  1.50395E+01  1.55186E+01  1.54551E+01  1.48587E+01  1.39236E+01
   1.29288E+01  1.21458E+01  1.17945E+01  1.19604E+01  1.26153E+01  1.36596E+01  1.48099E+01  1.58479E+01  1.67458E+01  1.78107E+01
   1.97314E+01  2.24897E+01  2.58340E+01  3.02036E+01  3.83481E+01  5.15664E+01  6.66987E+01  8.13078E+01  9.41931E+01  1.03990E+02
   1.08667E+02  1.06372E+02  9.67021E+01  8.14668E+01  6.39802E+01  4.69662E+01  3.21772E+01  2.09302E+01  1.46503E+01  1.23886E+01
   1.13318E+01  1.06726E+01  1.02333E+01  9.90204E+00  9.60211E+00  9.28671E+00  8.92347E+00  8.52096E+00  8.10997E+00  7.72413E+00
   7.39720E+00  7.15540E+00  7.00664E+00  6.93717E+00  6.92038E+00  6.93180E+00  6.97379E+00  7.05531E+00  7.17900E+00  7.34841E+00
   7.57219E+00  7.85369E+00  8.18072E+00  8.52692E+00  8.87367E+00  9.20449E+00  9.50553E+00  9.76880E+00  9.98806E+00  1.01600E+01
   1.02861E+01  1.03604E+01  1.03722E+01  1.03128E+01  1.01767E+01  9.96344E+00  9.67591E+00  9.32040E+00  8.91060E+00  8.46156E+00
   7.98762E+00  7.50342E+00  7.02257E+00  6.55791E+00  6.12170E+00  5.72582E+00  5.38225E+00  5.10444E+00  4.91036E+00  4.83080E+00
   4.93630E+00  5.36540E+00  5.96987E+00  6.37706E+00  6.44015E+00  6.09092E+00  5.22450E+00  3.73881E+00  1.64734E+00 -6.34224E-01
  -2.39875E+00 -3.30161E+00 -3.25105E+00 -2.27352E+00 -4.85189E-01  1.85369E+00  4.19502E+00  6.03005E+00  7.22033E+00  7.83373E+00
   8.09578E+00  8.30771E+00  8.50640E+00  8.64443E+00  8.78015E+00  8.74248E+00  8.36061E+00  7.50902E+00  6.20993E+00  4.88492E+00
   3.97660E+00  3.68627E+00  4.08323E+00  5.13547E+00  6.71053E+00  8.55568E+00  1.02154E+01  1.13216E+01  1.18179E+01  1.17901E+01
   1.13827E+01  1.07298E+01  9.96876E+00  9.30630E+00  8.77036E+00  8.27534E+00  7.78757E+00  7.29695E+00  6.80215E+00  6.30585E+00
   5.81277E+00  5.32864E+00  4.85954E+00  4.41153E+00  3.99049E+00  3.60201E+00  3.25132E+00  2.94331E+00  2.68251E+00  2.47316E+00
   2.31924E+00  2.22458E+00  2.19284E+00  2.22747E+00  2.33163E+00  2.50802E+00  2.75878E+00  3.08521E+00  3.48744E+00  3.96413E+00
   4.51205E+00  5.12580E+00  5.79757E+00  6.51692E+00  7.27071E+00  8.04319E+00  8.81624E+00  9.56989E+00  1.02830E+01  1.09339E+01
   1.15015E+01  1.19661E+01  1.23104E+01  1.25204E+01  1.25863E+01  1.25026E+01  1.22688E+01  1.18892E+01  1.13727E+01  1.07321E+01
   9.98376E+00  9.14630E+00  8.23986E+00  7.28509E+00  6.30222E+00  5.31031E+00  4.32655E+00  3.36579E+00  2.44023E+00  1.55937E+00
   7.30005E-01 -4.35329E-02 -7.59160E-01 -1.41671E+00 -2.01757E+00 -2.56429E+00 -3.06024E+00 -3.50932E+00 -3.91572E+00 -4.28369E+00
  -4.61740E+00 -4.92080E+00 -5.19753E+00 -5.45089E+00 -5.68387E+00 -5.89915E+00 -6.09903E+00 -6.28554E+00 -6.46039E+00 -6.62507E+00
  -6.78089E+00 -6.92896E+00 -7.07023E+00 -7.20550E+00 -7.33545E+00 -7.46067E+00 -7.58171E+00 -7.69902E+00 -7.81299E+00 -7.92393E+00
  -8.03213E+00 -8.13787E+00 -8.24137E+00 -8.34285E+00 -8.44247E+00 -8.54037E+00 -8.63670E+00 -8.73159E+00 -8.82518E+00 -8.91757E+00
  -9.00882E+00 -9.09902E+00 -9.18825E+00 -9.27658E+00 -9.36409E+00 -9.45083E+00 -9.53682E+00 -9.62213E+00 -9.70679E+00 -9.79087E+00
  -9.87440E+00 -9.95741E+00 -1.00399E+01 -1.01219E+01 -1.02035E+01 -1.02846E+01 -1.03654E+01 -1.04458E+01 -1.05258E+01 -1.06055E+01
  -1.06848E+01 -1.07639E+01 -1.08427E+01 -1.09211E+01 -1.09993E+01 -1.10773E+01 -1.11550E+01 -1.12324E+01 -1.13096E+01 -1.13866E+01
  -1.14634E+01 -1.15399E+01 -1.16162E+01 -1.16924E+01 -1.17682E+01 -1.18439E+01 -1.19193E+01 -1.19946E+01
 NY background values follow
     2.284E+01    2.277E+01    2.270E+01    2.263E+01    2.256E+01    2.249E+01    2.242E+01    2.235E+01    2.227E+01    2.220E+01
     2.213E+01    2.206E+01    2.199E+01    2.192E+01    2.185E+01    2.178E+01    2.171E+01    2.164E+01    2.157E+01    2.150E+01
     2.143E+01    2.135E+01    2.128E+01    2.121E+01    2.114E+01    2.107E+01    2.100E+01    2.093E+01    2.086E+01    2.079E+01
     2.072E+01    2.065E+01    2.058E+01    2.051E+01    2.043E+01    2.036E+01    2.029E+01    2.022E+01    2.015E+01    2.008E+01
     2.001E+01    1.994E+01    1.987E+01    1.980E+01    1.973E+01    1.966E+01    1.959E+01    1.951E+01    1.944E+01    1.937E+01
     1.930E+01    1.923E+01    1.916E+01    1.909E+01    1.902E+01    1.895E+01    1.888E+01    1.881E+01    1.874E+01    1.866E+01
     1.859E+01    1.852E+01    1.845E+01    1.838E+01    1.831E+01    1.824E+01    1.817E+01    1.810E+01    1.803E+01    1.796E+01
     1.789E+01    1.782E+01    1.774E+01    1.767E+01    1.760E+01    1.753E+01    1.746E+01    1.739E+01    1.732E+01    1.725E+01
     1.718E+01    1.711E+01    1.704E+01    1.697E+01    1.690E+01    1.682E+01    1.675E+01    1.668E+01    1.661E+01    1.654E+01
     1.647E+01    1.640E+01    1.633E+01    1.626E+01    1.619E+01    1.612E+01    1.605E+01    1.597E+01    1.590E+01    1.583E+01
     1.576E+01    1.569E+01    1.562E+01    1.555E+01    1.548E+01    1.541E+01    1.534E+01    1.527E+01    1.520E+01    1.513E+01
     1.505E+01    1.498E+01    1.491E+01    1.484E+01    1.477E+01    1.470E+01    1.463E+01    1.456E+01    1.449E+01    1.442E+01
     1.435E+01    1.428E+01    1.421E+01    1.413E+01    1.406E+01    1.399E+01    1.392E+01    1.385E+01    1.378E+01    1.371E+01
     1.364E+01    1.357E+01    1.350E+01    1.343E+01    1.336E+01    1.329E+01    1.321E+01    1.314E+01    1.307E+01    1.300E+01
     1.293E+01    1.286E+01    1.279E+01    1.272E+01    1.265E+01    1.258E+01    1.251E+01    1.244E+01    1.237E+01    1.229E+01
     1.222E+01    1.215E+01    1.208E+01    1.201E+01    1.194E+01    1.187E+01    1.180E+01    1.173E+01    1.166E+01    1.159E+01
     1.152E+01    1.144E+01    1.137E+01    1.130E+01    1.123E+01    1.116E+01    1.109E+01    1.102E+01    1.095E+01    1.088E+01
     1.081E+01    1.074E+01    1.067E+01    1.060E+01    1.052E+01    1.045E+01    1.038E+01    1.031E+01    1.024E+01    1.017E+01
     1.010E+01    1.003E+01    9.959E+00    9.888E+00    9.817E+00    9.746E+00    9.676E+00    9.605E+00    9.534E+00    9.463E+00
     9.392E+00    9.322E+00    9.251E+00    9.180E+00    9.109E+00    9.039E+00    8.968E+00    8.897E+00    8.826E+00    8.755E+00
     8.685E+00    8.614E+00    8.543E+00    8.472E+00    8.402E+00    8.331E+00    8.260E+00    8.189E+00    8.119E+00    8.048E+00
     7.977E+00    7.906E+00    7.835E+00    7.765E+00    7.694E+00    7.623E+00    7.552E+00    7.482E+00    7.411E+00    7.340E+00
     7.269E+00    7.199E+00    7.128E+00    7.057E+00    6.986E+00    6.915E+00    6.845E+00    6.774E+00    6.703E+00    6.632E+00
     6.562E+00    6.491E+00    6.420E+00    6.349E+00    6.279E+00    6.208E+00    6.137E+00    6.066E+00    5.995E+00    5.925E+00
     5.854E+00    5.783E+00    5.712E+00    5.642E+00    5.571E+00    5.500E+00    5.429E+00    5.359E+00    5.288E+00    5.217E+00
     5.146E+00    5.076E+00    5.005E+00    4.934E+00    4.863E+00    4.792E+00    4.722E+00    4.651E+00    4.580E+00    4.509E+00
     4.439E+00    4.368E+00    4.297E+00    4.226E+00    4.156E+00    4.085E+00    4.014E+00    3.943E+00    3.873E+00    3.802E+00
     3.731E+00    3.660E+00    3.590E+00    3.519E+00    3.448E+00    3.377E+00    3.306E+00    3.236E+00    3.165E+00    3.094E+00
     3.023E+00    2.953E+00    2.882E+00    2.811E+00    2.740E+00    2.670E+00    2.599E+00    2.528E+00    2.457E+00    2.387E+00
     2.316E+00    2.245E+00    2.174E+00    2.104E+00    2.033E+00    1.962E+00    1.891E+00    1.821E+00    1.750E+00    1.679E+00
     1.608E+00    1.538E+00    1.467E+00    1.396E+00    1.325E+00    1.255E+00    1.184E+00    1.113E+00    1.042E+00    9.715E-01
     9.007E-01    8.300E-01    7.592E-01    6.885E-01    6.177E-01    5.470E-01    4.762E-01    4.055E-01    3.347E-01    2.640E-01
     1.932E-01    1.225E-01    5.171E-02   -1.904E-02   -8.979E-02   -1.605E-01   -2.313E-01   -3.020E-01   -3.728E-01   -4.435E-01
    -5.143E-01   -5.851E-01   -6.558E-01   -7.266E-01   -7.973E-01   -8.681E-01   -9.388E-01   -1.010E+00   -1.080E+00   -1.151E+00
    -1.222E+00   -1.293E+00   -1.363E+00   -1.434E+00   -1.505E+00   -1.576E+00   -1.646E+00   -1.717E+00   -1.788E+00   -1.859E+00
    -1.929E+00   -2.000E+00   -2.071E+00   -2.142E+00   -2.212E+00   -2.283E+00   -2.354E+00   -2.425E+00   -2.495E+00   -2.566E+00
    -2.637E+00   -2.708E+00   -2.778E+00   -2.849E+00   -2.920E+00   -2.990E+00   -3.061E+00   -3.132E+00   -3.203E+00   -3.273E+00
    -3.344E+00   -3.415E+00   -3.486E+00   -3.556E+00   -3.627E+00   -3.698E+00   -3.769E+00   -3.839E+00   -3.910E+00   -3.981E+00
    -4.052E+00   -4.122E+00   -4.193E+00   -4.264E+00   -4.335E+00   -4.405E+00   -4.476E+00   -4.547E+00   -4.618E+00   -4.688E+00
    -4.759E+00   -4.830E+00   -4.901E+00   -4.971E+00   -5.042E+00   -5.113E+00   -5.184E+00   -5.254E+00   -5.325E+00   -5.396E+00
    -5.467E+00   -5.537E+00   -5.608E+00   -5.679E+00   -5.750E+00   -5.820E+00   -5.891E+00   -5.962E+00   -6.032E+00   -6.103E+00
    -6.174E+00   -6.245E+00   -6.315E+00   -6.386E+00   -6.457E+00   -6.528E+00   -6.598E+00   -6.669E+00   -6.740E+00   -6.811E+00
    -6.881E+00   -6.952E+00   -7.023E+00   -7.094E+00   -7.164E+00   -7.235E+00   -7.306E+00   -7.377E+00   -7.447E+00   -7.518E+00
    -7.589E+00   -7.660E+00   -7.730E+00   -7.801E+00   -7.872E+00   -7.942E+00   -8.013E+00   -8.084E+00   -8.155E+00   -8.225E+00
    -8.296E+00   -8.367E+00   -8.438E+00   -8.508E+00   -8.579E+00   -8.650E+00   -8.721E+00   -8.791E+00   -8.862E+00   -8.933E+00
    -9.004E+00   -9.074E+00   -9.145E+00   -9.216E+00   -9.287E+00   -9.357E+00   -9.428E+00   -9.499E+00   -9.569E+00   -9.640E+00
    -9.711E+00   -9.782E+00   -9.852E+00   -9.923E+00   -9.994E+00   -1.006E+01   -1.014E+01   -1.021E+01   -1.028E+01   -1.035E+01
    -1.042E+01   -1.049E+01   -1.056E+01   -1.063E+01   -1.070E+01   -1.077E+01   -1.084E+01   -1.091E+01   -1.098E+01   -1.106E+01
    -1.113E+01   -1.120E+01   -1.127E+01   -1.134E+01   -1.141E+01   -1.148E+01   -1.155E+01   -1.162E+01   -1.169E+01   -1.176E+01
    -1.183E+01   -1.190E+01   -1.197E+01   -1.205E+01   -1.212E+01   -1.219E+01   -1.226E+01   -1.233E+01
 Ala      Conc. = 4.68E+02
