 LCModel (Version 6.3-1L) Copyright: S.W. Provencher.          Ref.: Magn. Reson. Med. 30:672-679 (1993).                
 Slice#3 Row#1 Col#2  PD_05_press_2_raw_act
 36 lines in following concentration table = NCONC+1
    Conc.  %SD /Cr+PCr  Metabolite                                         
    0.000 999%   0.000 Ala                                                 
   45.679  51%   0.339 Asp                                                 
  134.660  67%   1.000 Cr                                                  
    0.000 999%   0.000 PCr                                                 
   27.035  52%   0.201 GABA                                                
   25.740  55%   0.191 Glc                                                 
   99.946 634%   0.742 Gln                                                 
  659.173 110%   4.895 Glu                                                 
    0.000 999%   0.000 GPC                                                 
   61.722  54%   0.458 PCh                                                 
    0.000 999%   0.000 GSH                                                 
    0.000 999%   0.000 Ins                                                 
    0.000 999%   0.000 Lac                                                 
  574.925  19%   4.269 NAA                                                 
    0.000 999%   0.000 NAAG                                                
    8.809  53% 6.5E-02 Scyllo                                              
   41.844  55%   0.311 Tau                                                 
   25.584 141%   0.190 -CrCH2                                              
   61.722  54%   0.458 GPC+PCh                                             
  574.925  19%   4.269 NAA+NAAG                                            
  134.660  67%   1.000 Cr+PCr                                              
  759.120 149%   5.637 Glu+Gln                                             
    0.000 999%   0.000 Lip13a                                              
    0.000 999%   0.000 Lip13b                                              
    0.000 999%   0.000 Lip09                                               
   88.233 202%   0.655 MM09                                                
    0.608 999% 4.5E-03 Lip20                                               
  132.357 202%   0.983 MM20                                                
   26.468 202%   0.197 MM12                                                
   66.158 202%   0.491 MM14                                                
   33.097 201%   0.246 MM17                                                
    0.000 999%   0.000 Lip13a+Lip13b                                       
   92.627 202%   0.688 MM14+Lip13a+Lip13b+MM12                             
   88.233 202%   0.655 MM09+Lip09                                          
  132.964 201%   0.987 MM20+Lip20                                          
   6 lines in following misc. output table
  FWHM = 0.076 ppm    S/N =   1                                            
  Data shift = 0.008 ppm                                                   
  Ph:  20 deg     -21.6 deg/ppm                                            
  alphaB,S = 8.5E+01,   1.0E+02                                            
   14 spline knots.   Ns =10(1)                                            
   2 inflections.     1 extrema                                            
  498 points on ppm-axis = NY
      4.000000     3.992357     3.984714     3.977070     3.969427     3.961784     3.954141     3.946497     3.938854     3.931211
      3.923568     3.915925     3.908281     3.900638     3.892995     3.885352     3.877708     3.870065     3.862422     3.854779
      3.847136     3.839492     3.831849     3.824206     3.816563     3.808919     3.801276     3.793633     3.785990     3.778347
      3.770703     3.763060     3.755417     3.747774     3.740130     3.732487     3.724844     3.717201     3.709558     3.701914
      3.694271     3.686628     3.678985     3.671341     3.663698     3.656055     3.648412     3.640769     3.633125     3.625482
      3.617839     3.610196     3.602552     3.594909     3.587266     3.579623     3.571980     3.564336     3.556693     3.549050
      3.541407     3.533763     3.526120     3.518477     3.510834     3.503191     3.495547     3.487904     3.480261     3.472618
      3.464974     3.457331     3.449688     3.442045     3.434402     3.426758     3.419115     3.411472     3.403829     3.396185
      3.388542     3.380899     3.373256     3.365613     3.357969     3.350326     3.342683     3.335040     3.327396     3.319753
      3.312110     3.304467     3.296824     3.289180     3.281537     3.273894     3.266251     3.258607     3.250964     3.243321
      3.235678     3.228034     3.220391     3.212748     3.205105     3.197462     3.189818     3.182175     3.174532     3.166889
      3.159245     3.151602     3.143959     3.136316     3.128673     3.121029     3.113386     3.105743     3.098100     3.090456
      3.082813     3.075170     3.067527     3.059884     3.052240     3.044597     3.036954     3.029311     3.021667     3.014024
      3.006381     2.998738     2.991095     2.983451     2.975808     2.968165     2.960522     2.952878     2.945235     2.937592
      2.929949     2.922306     2.914662     2.907019     2.899376     2.891733     2.884089     2.876446     2.868803     2.861160
      2.853517     2.845873     2.838230     2.830587     2.822944     2.815300     2.807657     2.800014     2.792371     2.784728
      2.777084     2.769441     2.761798     2.754155     2.746511     2.738868     2.731225     2.723582     2.715939     2.708295
      2.700652     2.693009     2.685366     2.677722     2.670079     2.662436     2.654793     2.647150     2.639506     2.631863
      2.624220     2.616577     2.608933     2.601290     2.593647     2.586004     2.578361     2.570717     2.563074     2.555431
      2.547788     2.540144     2.532501     2.524858     2.517215     2.509572     2.501928     2.494285     2.486642     2.478999
      2.471355     2.463712     2.456069     2.448426     2.440783     2.433139     2.425496     2.417853     2.410210     2.402566
      2.394923     2.387280     2.379637     2.371994     2.364350     2.356707     2.349064     2.341421     2.333777     2.326134
      2.318491     2.310848     2.303205     2.295561     2.287918     2.280275     2.272632     2.264988     2.257345     2.249702
      2.242059     2.234416     2.226772     2.219129     2.211486     2.203843     2.196199     2.188556     2.180913     2.173270
      2.165627     2.157983     2.150340     2.142697     2.135054     2.127410     2.119767     2.112124     2.104481     2.096838
      2.089194     2.081551     2.073908     2.066265     2.058621     2.050978     2.043335     2.035692     2.028049     2.020405
      2.012762     2.005119     1.997476     1.989833     1.982190     1.974546     1.966903     1.959260     1.951617     1.943974
      1.936331     1.928688     1.921045     1.913402     1.905759     1.898115     1.890472     1.882829     1.875186     1.867543
      1.859900     1.852257     1.844614     1.836971     1.829327     1.821684     1.814041     1.806398     1.798755     1.791112
      1.783469     1.775826     1.768183     1.760540     1.752896     1.745253     1.737610     1.729967     1.722324     1.714681
      1.707038     1.699395     1.691752     1.684108     1.676465     1.668822     1.661179     1.653536     1.645893     1.638250
      1.630607     1.622964     1.615321     1.607677     1.600034     1.592391     1.584748     1.577105     1.569462     1.561819
      1.554176     1.546533     1.538890     1.531246     1.523603     1.515960     1.508317     1.500674     1.493031     1.485388
      1.477745     1.470102     1.462458     1.454815     1.447172     1.439529     1.431886     1.424243     1.416600     1.408957
      1.401314     1.393671     1.386027     1.378384     1.370741     1.363098     1.355455     1.347812     1.340169     1.332526
      1.324883     1.317240     1.309596     1.301953     1.294310     1.286667     1.279024     1.271381     1.263738     1.256095
      1.248452     1.240808     1.233165     1.225522     1.217879     1.210236     1.202593     1.194950     1.187307     1.179664
      1.172021     1.164377     1.156734     1.149091     1.141448     1.133805     1.126162     1.118519     1.110876     1.103233
      1.095590     1.087946     1.080303     1.072660     1.065017     1.057374     1.049731     1.042088     1.034445     1.026802
      1.019158     1.011515     1.003872     0.996229     0.988586     0.980943     0.973300     0.965657     0.958014     0.950371
      0.942727     0.935084     0.927441     0.919798     0.912155     0.904512     0.896869     0.889226     0.881583     0.873940
      0.866296     0.858653     0.851010     0.843367     0.835724     0.828081     0.820438     0.812795     0.805152     0.797508
      0.789865     0.782222     0.774579     0.766936     0.759293     0.751650     0.744007     0.736364     0.728721     0.721077
      0.713434     0.705791     0.698148     0.690505     0.682862     0.675219     0.667576     0.659933     0.652290     0.644646
      0.637003     0.629360     0.621717     0.614074     0.606431     0.598788     0.591145     0.583502     0.575858     0.568215
      0.560572     0.552929     0.545286     0.537643     0.530000     0.522357     0.514714     0.507071     0.499427     0.491784
      0.484141     0.476498     0.468855     0.461212     0.453569     0.445925     0.438282     0.430639     0.422996     0.415353
      0.407710     0.400067     0.392424     0.384780     0.377137     0.369494     0.361851     0.354208     0.346565     0.338922
      0.331278     0.323635     0.315992     0.308349     0.300706     0.293063     0.285420     0.277777     0.270133     0.262490
      0.254847     0.247204     0.239561     0.231918     0.224275     0.216631     0.208988     0.201345
 NY phased data points follow
  -9.21528E+00 -1.48429E+01 -1.70250E+01 -1.08657E+01 -5.53244E+00  8.23908E-01 -1.00135E+01  2.42789E+00 -9.55497E+00  5.13443E-01
   6.88053E+00 -1.42595E+00 -1.92203E+01 -1.22283E+01 -1.25414E+01  5.89532E+00 -4.89720E+00 -6.31198E+00  5.65466E+00 -8.36810E+00
  -1.34594E+01 -7.52149E+00 -5.58818E+00 -1.19948E+01 -3.50072E+00  4.14214E+00 -5.26532E+00 -7.91827E+00 -5.69983E+00 -5.31484E+00
  -2.76911E+00  3.41334E+00  1.66850E+00 -9.40224E+00  4.88721E+00 -5.42844E+00 -4.15045E+00 -2.78855E+00 -5.36016E+00 -9.04818E+00
  -2.85800E+00 -1.30081E+01  4.36149E+00 -1.87130E+00 -8.31391E+00 -1.79909E+00 -1.69966E-02  4.98776E+00 -3.68040E+00 -1.47826E+00
   4.34401E+00 -3.61200E+00 -1.28532E+01  5.19786E+00 -1.06261E+01 -2.88237E+00  1.21138E+00  2.56940E+00 -2.21004E+00 -5.73987E+00
  -1.03805E+01 -9.02666E+00 -3.77886E+00 -5.60758E+00  1.37009E+00 -8.43612E+00 -9.72064E+00 -5.53016E+00  2.14268E+00 -2.09892E+00
  -3.15576E+00 -4.41866E+00 -1.01006E+01 -1.63982E+01 -1.83214E+01 -1.11612E+01 -1.41236E+01 -3.64076E+00 -5.00029E+00  8.28611E-01
  -3.11138E+00 -1.64922E+01 -3.24127E+00 -7.97544E+00 -1.32834E+00  6.36133E+00 -4.29977E+00 -8.25933E+00  1.27589E+00 -6.03755E+00
   1.08225E+00 -9.43909E+00 -1.38108E+01 -7.95820E-01 -9.50648E+00  5.98979E+00 -5.37746E+00  3.34316E+00  3.62089E+00  4.54043E+00
  -5.99627E+00  2.12287E+00  2.04330E+00  1.59237E+00 -2.83562E+00  3.59591E+00 -1.58571E+00 -7.99811E+00  8.65858E-01 -5.89878E+00
  -5.27820E+00 -1.69045E+01 -9.18830E+00 -1.14403E+01 -8.18005E+00 -1.49986E+01 -5.57624E+00  4.59662E-01  2.60567E+00 -2.18440E-01
   7.49464E+00  4.98113E+00  3.50243E+00 -8.06311E+00  6.15715E+00  5.10582E+00 -1.95103E+00 -8.90816E+00 -2.61152E+00  1.27032E+00
   5.37053E+00 -2.92922E+00 -2.51852E+00 -3.23703E+00 -4.93300E+00 -2.76817E+00 -1.95462E+01 -4.60182E+00  2.66207E+00 -5.67705E+00
   2.95567E+00 -1.05841E+01 -1.38223E+01 -5.29984E+00 -1.12402E+01 -3.77815E-01 -1.92681E+00 -8.95294E+00 -1.20547E+01 -4.64010E+00
   5.71696E+00 -5.51717E+00 -6.97811E+00 -8.24878E+00  7.32045E-01 -7.99607E+00 -5.00570E+00  5.86648E+00 -8.29725E+00 -4.05453E+00
  -1.82596E+01  2.22371E-01 -1.92288E+00 -6.35241E+00  1.37291E+00 -4.57920E+00 -4.80944E+00 -1.12600E+01 -7.00800E-01  8.42281E-01
  -2.31718E+00  3.04047E+00 -7.30258E+00 -2.63215E-01 -3.67354E+00  1.90637E+00 -9.64685E-01  5.18272E-01  1.20519E+01 -9.48702E+00
   6.98599E+00 -2.39983E+00  3.31565E-01  5.07116E+00 -5.18789E+00 -7.76863E+00 -2.57136E+00 -1.09715E+00 -5.45616E+00 -3.76783E+00
  -1.71111E+00 -2.22498E+00 -4.54279E+00  1.54998E+00 -4.05829E-01 -5.21725E+00 -9.69918E+00 -9.76394E+00 -8.15136E+00  1.00365E+01
  -8.92403E+00  1.37388E+00 -4.17130E+00 -2.04304E+00  9.68414E-01 -5.35224E+00 -7.89193E+00  2.88531E+00 -8.01385E+00 -1.03710E+01
  -9.49904E+00 -9.33234E+00 -7.87568E+00 -1.08479E+00  3.17279E+00  5.32224E+00 -1.46108E+01 -4.94435E+00 -3.49570E+00 -1.21544E+01
  -1.66186E+00  1.43033E+00 -4.96098E-01 -7.02703E+00 -3.92015E+00 -6.05063E+00 -7.48675E+00 -9.04096E+00 -5.79364E+00  1.13791E+00
   2.17193E+00 -1.60746E+00 -2.43780E+00 -2.16688E+00 -6.00406E-02 -2.47175E+00 -4.86044E-01  7.53426E+00 -6.04122E+00 -2.26148E+00
  -5.59128E+00 -8.50983E-01 -5.24971E+00  3.61795E-01  7.62855E+00  3.51381E+00 -9.86623E-01  4.23742E+00 -5.36884E-01 -1.55919E+00
   1.10399E+00 -8.28944E+00  5.14776E+00 -9.63750E-01 -4.06970E+00  1.21214E+01  5.06438E+00  1.81327E+01  1.01467E+01  1.58836E+01
   1.01102E+01  5.96525E+00  8.12996E+00  1.38564E+01  2.21775E+00  6.03159E+00 -4.33567E-01  9.07214E+00 -2.94782E+00 -5.01068E+00
  -4.32144E+00  8.77349E+00 -1.26804E+00 -7.41638E+00  2.95796E+00  1.37457E+00 -8.97192E-01  5.69985E+00 -7.60934E+00 -6.42815E+00
   3.25903E+00  4.59432E+00 -4.53015E+00 -2.71077E+00  7.57218E-01  5.77144E+00 -3.36174E+00  4.61588E+00  1.04140E+01 -1.59389E+00
   2.06231E+00 -1.57614E+00  5.07550E+00  8.12268E-01 -3.00445E-01  1.54150E+00  5.58822E+00  3.85977E+00  4.51273E+00  1.42419E+01
   1.51218E+00  5.55929E+00 -2.88947E+00 -2.15288E-01  6.42007E+00 -5.89119E+00  5.74630E+00 -5.92291E+00 -1.10387E+00  3.42654E+00
  -4.30422E+00 -4.55898E+00 -7.19782E+00 -1.45652E+01 -4.10922E+00 -1.46739E+01  9.23873E+00 -4.62574E+00 -2.64576E+00 -6.68343E+00
  -1.28846E+01 -3.01609E+00 -3.80490E+00 -1.23286E+00 -1.75697E+00 -2.17760E+00 -1.11793E+01 -1.60976E+00 -6.50026E+00 -6.17176E+00
  -6.98753E+00 -7.05213E+00 -5.63677E+00 -4.25382E+00  4.65844E-01  3.67602E-01 -5.19456E+00  2.06405E+00 -2.11628E+00 -4.44286E+00
  -6.46624E+00 -4.43056E+00 -8.65545E-01 -8.43739E+00 -3.21574E+00 -1.53773E+00 -2.92824E+00 -6.48394E+00 -2.37531E+00 -2.64048E+00
  -1.29276E+01  9.65222E+00 -3.61404E+00 -6.63997E+00 -5.64210E+00  2.48087E+00 -6.74826E+00 -9.98801E+00 -1.09165E+01 -1.20078E+01
   3.76909E+00 -1.78012E+01 -1.16058E+01  2.72293E+00 -2.04394E+00 -5.39439E+00  3.13315E+00 -1.18869E+01 -9.41115E+00 -1.40552E+00
  -1.06199E+01 -4.63483E+00 -1.15660E+01 -9.03805E+00 -1.36038E+01 -1.98754E+01 -1.61266E+01 -1.39003E+01 -1.09205E+01 -6.59987E+00
   7.18669E+00 -1.33295E+01  1.22804E+00 -4.01523E+00 -7.11778E+00 -7.21291E+00 -4.75486E+00  7.33929E+00  6.83538E-01 -1.25694E+00
   1.12243E+01 -9.69258E+00  9.67252E-01 -3.87250E+00 -8.45449E+00 -6.32672E+00  2.65884E+00 -6.94679E+00  8.15143E+00 -7.38116E+00
  -1.87242E+00 -2.87263E+00  2.59131E+00 -7.36487E-02 -4.46278E+00  2.43937E-01 -4.16115E+00 -3.77474E+00  3.21548E+00 -3.37596E+00
   3.18613E+00 -1.09059E+01  7.29721E+00 -6.68234E-01  4.79573E+00 -2.19063E+00  1.09731E+00 -8.13782E+00  9.94305E+00 -8.70510E+00
  -6.77454E+00 -3.82554E-01 -5.29633E+00 -1.86633E+00  8.01697E+00  1.92084E+00 -8.46181E-01 -2.54597E+00 -3.64732E+00 -1.10724E+01
  -4.78098E+00 -1.24170E+01  1.53735E+00 -3.99315E+00 -7.29187E-01 -9.56936E+00 -1.84058E+00 -1.23009E+00 -1.09589E+01 -5.38059E+00
  -9.39793E+00 -8.70031E+00  3.65633E+00 -8.15436E+00 -4.58031E+00 -1.61311E+00 -5.70157E+00  1.12012E+00  9.02234E+00 -1.69086E+00
   2.24525E+00 -3.74795E+00  3.73813E+00 -1.89596E+00 -1.41115E+01  1.02217E+00  1.19048E+00  2.36420E-01 -1.03631E+01 -1.02230E+01
  -2.16031E+00 -6.79472E+00  2.27930E+00 -1.50675E+00  2.47900E+00 -4.26504E+00 -7.33899E+00  7.55601E+00 -5.64005E+00 -1.36742E+00
  -2.24674E-01  1.13090E+00  6.08529E+00 -3.84127E+00  1.24579E+00 -9.30778E-01 -9.39923E+00 -1.35276E+00  7.26154E+00  1.26651E+00
  -3.73121E+00 -4.56652E+00  1.47371E+00 -5.69472E+00 -2.23287E+00 -2.10922E+00 -1.75509E+00  3.63346E+00 -7.83942E-01 -4.10439E+00
  -1.48995E+00  5.93470E+00  9.74834E-01 -9.65724E-03 -8.24923E+00 -1.15054E+01 -1.73624E+00 -1.35303E+01
 NY points of the fit to the data follow
  -4.28259E+00 -4.24106E+00 -4.12538E+00 -3.93722E+00 -3.68979E+00 -3.40053E+00 -3.09540E+00 -2.80900E+00 -2.57910E+00 -2.43880E+00
  -2.40353E+00 -2.45783E+00 -2.56485E+00 -2.69529E+00 -2.83867E+00 -2.98910E+00 -3.13674E+00 -3.27453E+00 -3.41010E+00 -3.53823E+00
  -3.64365E+00 -3.72763E+00 -3.80454E+00 -3.87406E+00 -3.90669E+00 -3.87114E+00 -3.76431E+00 -3.60621E+00 -3.44219E+00 -3.32642E+00
  -3.28532E+00 -3.31739E+00 -3.40337E+00 -3.50880E+00 -3.59386E+00 -3.63763E+00 -3.65113E+00 -3.66612E+00 -3.70952E+00 -3.78223E+00
  -3.85789E+00 -3.90338E+00 -3.89520E+00 -3.83762E+00 -3.76264E+00 -3.70716E+00 -3.69334E+00 -3.72238E+00 -3.77659E+00 -3.83114E+00
  -3.86750E+00 -3.88534E+00 -3.89640E+00 -3.90676E+00 -3.91639E+00 -3.92419E+00 -3.92918E+00 -3.93052E+00 -3.92948E+00 -3.92688E+00
  -3.92368E+00 -3.92083E+00 -3.91827E+00 -3.91583E+00 -3.91451E+00 -3.91204E+00 -3.90365E+00 -3.88800E+00 -3.86636E+00 -3.84111E+00
  -3.81616E+00 -3.79612E+00 -3.78368E+00 -3.77935E+00 -3.78185E+00 -3.78664E+00 -3.78220E+00 -3.75969E+00 -3.72048E+00 -3.67028E+00
  -3.61547E+00 -3.56259E+00 -3.51638E+00 -3.48107E+00 -3.46093E+00 -3.45863E+00 -3.47468E+00 -3.50741E+00 -3.55150E+00 -3.59901E+00
  -3.64344E+00 -3.67538E+00 -3.67103E+00 -3.55260E+00 -3.24476E+00 -2.75375E+00 -2.12341E+00 -1.41428E+00 -7.01767E-01 -6.88193E-02
   4.08325E-01  6.70255E-01  6.92714E-01  5.02519E-01  1.66399E-01 -2.54609E-01 -7.34986E-01 -1.26454E+00 -1.82455E+00 -2.38531E+00
  -2.90498E+00 -3.32655E+00 -3.59617E+00 -3.70841E+00 -3.72069E+00 -3.70589E+00 -3.67148E+00 -3.54153E+00 -3.27567E+00 -2.88840E+00
  -2.41183E+00 -1.88664E+00 -1.36845E+00 -9.20653E-01 -6.01061E-01 -4.49590E-01 -4.73578E-01 -6.42143E-01 -9.04330E-01 -1.22369E+00
  -1.58838E+00 -1.99019E+00 -2.41326E+00 -2.83215E+00 -3.20997E+00 -3.50065E+00 -3.67023E+00 -3.72817E+00 -3.72735E+00 -3.71990E+00
  -3.71543E+00 -3.70948E+00 -3.70395E+00 -3.70136E+00 -3.70257E+00 -3.70658E+00 -3.71151E+00 -3.71568E+00 -3.71810E+00 -3.71873E+00
  -3.72066E+00 -3.73361E+00 -3.76413E+00 -3.81034E+00 -3.86505E+00 -3.91638E+00 -3.95777E+00 -3.98785E+00 -4.00518E+00 -4.00898E+00
  -4.00276E+00 -3.99505E+00 -3.99597E+00 -4.01143E+00 -4.04045E+00 -4.07846E+00 -4.12543E+00 -4.18493E+00 -4.25356E+00 -4.32784E+00
  -4.40558E+00 -4.48452E+00 -4.55433E+00 -4.59918E+00 -4.61230E+00 -4.59889E+00 -4.57292E+00 -4.55040E+00 -4.53080E+00 -4.49934E+00
  -4.44586E+00 -4.36937E+00 -4.27412E+00 -4.16518E+00 -4.04639E+00 -3.92050E+00 -3.78868E+00 -3.64919E+00 -3.50752E+00 -3.37658E+00
  -3.26716E+00 -3.17971E+00 -3.10843E+00 -3.04490E+00 -2.98066E+00 -2.91132E+00 -2.83113E+00 -2.73793E+00 -2.63496E+00 -2.53744E+00
  -2.48951E+00 -2.52659E+00 -2.65819E+00 -2.87815E+00 -3.15145E+00 -3.41313E+00 -3.57212E+00 -3.57868E+00 -3.43990E+00 -3.18823E+00
  -2.87394E+00 -2.57441E+00 -2.38948E+00 -2.40107E+00 -2.62726E+00 -3.02291E+00 -3.51474E+00 -4.01280E+00 -4.44104E+00 -4.75328E+00
  -4.92426E+00 -4.94715E+00 -4.83589E+00 -4.61923E+00 -4.31327E+00 -3.92356E+00 -3.48237E+00 -3.04829E+00 -2.67635E+00 -2.39024E+00
  -2.20891E+00 -2.14996E+00 -2.20046E+00 -2.32131E+00 -2.45443E+00 -2.56363E+00 -2.64629E+00 -2.70865E+00 -2.74439E+00 -2.75079E+00
  -2.73752E+00 -2.71991E+00 -2.70812E+00 -2.70311E+00 -2.70343E+00 -2.70139E+00 -2.68070E+00 -2.62447E+00 -2.52515E+00 -2.35149E+00
  -1.91141E+00 -9.57463E-01  5.11609E-01  2.38936E+00  4.54312E+00  6.78385E+00  8.84826E+00  1.04753E+01  1.14529E+01  1.16707E+01
   1.11794E+01  1.01819E+01  8.88843E+00  7.39523E+00  5.73250E+00  3.95035E+00  2.13700E+00  4.25850E-01 -9.98992E-01 -1.95134E+00
  -2.37999E+00 -2.44859E+00 -2.41493E+00 -2.40717E+00 -2.40909E+00 -2.41598E+00 -2.42905E+00 -2.44633E+00 -2.46724E+00 -2.49402E+00
  -2.52630E+00 -2.56179E+00 -2.59629E+00 -2.62453E+00 -2.64316E+00 -2.65294E+00 -2.65637E+00 -2.65545E+00 -2.65207E+00 -2.64821E+00
  -2.64512E+00 -2.64288E+00 -2.64070E+00 -2.63772E+00 -2.63359E+00 -2.62806E+00 -2.62112E+00 -2.61318E+00 -2.60473E+00 -2.59610E+00
  -2.58760E+00 -2.57965E+00 -2.57266E+00 -2.56687E+00 -2.56238E+00 -2.55924E+00 -2.55734E+00 -2.55658E+00 -2.55681E+00 -2.55785E+00
  -2.55946E+00 -2.56136E+00 -2.56319E+00 -2.56465E+00 -2.56546E+00 -2.56543E+00 -2.56441E+00 -2.56222E+00 -2.55873E+00 -2.55387E+00
  -2.54761E+00 -2.53998E+00 -2.53106E+00 -2.52097E+00 -2.50986E+00 -2.49793E+00 -2.48541E+00 -2.47256E+00 -2.45963E+00 -2.44689E+00
  -2.43462E+00 -2.42307E+00 -2.41248E+00 -2.40307E+00 -2.39500E+00 -2.38841E+00 -2.38338E+00 -2.37997E+00 -2.37816E+00 -2.37790E+00
  -2.37909E+00 -2.38158E+00 -2.38521E+00 -2.38977E+00 -2.39504E+00 -2.40081E+00 -2.40682E+00 -2.41287E+00 -2.41874E+00 -2.42426E+00
  -2.42927E+00 -2.43365E+00 -2.43729E+00 -2.44015E+00 -2.44221E+00 -2.44350E+00 -2.44405E+00 -2.44393E+00 -2.44323E+00 -2.44206E+00
  -2.44053E+00 -2.43876E+00 -2.43685E+00 -2.43490E+00 -2.43299E+00 -2.43118E+00 -2.42952E+00 -2.42803E+00 -2.42669E+00 -2.42545E+00
  -2.42428E+00 -2.42308E+00 -2.42175E+00 -2.42018E+00 -2.41822E+00 -2.41572E+00 -2.41251E+00 -2.40844E+00 -2.40331E+00 -2.39693E+00
  -2.38910E+00 -2.37962E+00 -2.36829E+00 -2.35490E+00 -2.33927E+00 -2.32121E+00 -2.30056E+00 -2.27721E+00 -2.25109E+00 -2.22221E+00
  -2.19065E+00 -2.15657E+00 -2.12027E+00 -2.08215E+00 -2.04273E+00 -2.00265E+00 -1.96264E+00 -1.92353E+00 -1.88620E+00 -1.85156E+00
  -1.82048E+00 -1.79381E+00 -1.77224E+00 -1.75638E+00 -1.74662E+00 -1.74320E+00 -1.74610E+00 -1.75513E+00 -1.76989E+00 -1.78982E+00
  -1.81420E+00 -1.84223E+00 -1.87303E+00 -1.90571E+00 -1.93941E+00 -1.97333E+00 -2.00674E+00 -2.03902E+00 -2.06967E+00 -2.09831E+00
  -2.12468E+00 -2.14861E+00 -2.17006E+00 -2.18902E+00 -2.20559E+00 -2.21990E+00 -2.23210E+00 -2.24237E+00 -2.25091E+00 -2.25789E+00
  -2.26351E+00 -2.26792E+00 -2.27129E+00 -2.27374E+00 -2.27542E+00 -2.27641E+00 -2.27682E+00 -2.27672E+00 -2.27618E+00 -2.27527E+00
  -2.27402E+00 -2.27249E+00 -2.27071E+00 -2.26870E+00 -2.26650E+00 -2.26413E+00 -2.26160E+00 -2.25894E+00 -2.25615E+00 -2.25325E+00
  -2.25026E+00 -2.24717E+00 -2.24400E+00 -2.24075E+00 -2.23743E+00 -2.23405E+00 -2.23062E+00 -2.22713E+00 -2.22359E+00 -2.22001E+00
  -2.21638E+00 -2.21271E+00 -2.20901E+00 -2.20528E+00 -2.20151E+00 -2.19771E+00 -2.19389E+00 -2.19004E+00 -2.18616E+00 -2.18226E+00
  -2.17834E+00 -2.17440E+00 -2.17043E+00 -2.16645E+00 -2.16245E+00 -2.15843E+00 -2.15439E+00 -2.15034E+00 -2.14627E+00 -2.14219E+00
  -2.13809E+00 -2.13398E+00 -2.12985E+00 -2.12572E+00 -2.12157E+00 -2.11741E+00 -2.11323E+00 -2.10904E+00 -2.10484E+00 -2.10062E+00
  -2.09639E+00 -2.09215E+00 -2.08789E+00 -2.08362E+00 -2.07933E+00 -2.07502E+00 -2.07070E+00 -2.06635E+00
 NY background values follow
    -4.383E+00   -4.379E+00   -4.374E+00   -4.369E+00   -4.365E+00   -4.360E+00   -4.356E+00   -4.351E+00   -4.346E+00   -4.342E+00
    -4.337E+00   -4.333E+00   -4.328E+00   -4.323E+00   -4.319E+00   -4.314E+00   -4.310E+00   -4.305E+00   -4.300E+00   -4.296E+00
    -4.291E+00   -4.287E+00   -4.282E+00   -4.277E+00   -4.273E+00   -4.268E+00   -4.264E+00   -4.259E+00   -4.254E+00   -4.250E+00
    -4.245E+00   -4.241E+00   -4.236E+00   -4.231E+00   -4.227E+00   -4.222E+00   -4.218E+00   -4.213E+00   -4.208E+00   -4.204E+00
    -4.199E+00   -4.195E+00   -4.190E+00   -4.185E+00   -4.181E+00   -4.176E+00   -4.172E+00   -4.167E+00   -4.162E+00   -4.158E+00
    -4.153E+00   -4.148E+00   -4.144E+00   -4.139E+00   -4.135E+00   -4.130E+00   -4.125E+00   -4.121E+00   -4.116E+00   -4.112E+00
    -4.107E+00   -4.102E+00   -4.098E+00   -4.093E+00   -4.089E+00   -4.084E+00   -4.079E+00   -4.075E+00   -4.070E+00   -4.066E+00
    -4.061E+00   -4.056E+00   -4.052E+00   -4.047E+00   -4.043E+00   -4.038E+00   -4.033E+00   -4.029E+00   -4.024E+00   -4.020E+00
    -4.015E+00   -4.010E+00   -4.006E+00   -4.001E+00   -3.997E+00   -3.992E+00   -3.987E+00   -3.983E+00   -3.978E+00   -3.974E+00
    -3.969E+00   -3.964E+00   -3.960E+00   -3.955E+00   -3.951E+00   -3.946E+00   -3.941E+00   -3.937E+00   -3.932E+00   -3.928E+00
    -3.923E+00   -3.918E+00   -3.914E+00   -3.909E+00   -3.905E+00   -3.900E+00   -3.895E+00   -3.891E+00   -3.886E+00   -3.882E+00
    -3.877E+00   -3.872E+00   -3.868E+00   -3.863E+00   -3.859E+00   -3.854E+00   -3.849E+00   -3.845E+00   -3.840E+00   -3.836E+00
    -3.831E+00   -3.826E+00   -3.822E+00   -3.817E+00   -3.813E+00   -3.808E+00   -3.803E+00   -3.799E+00   -3.794E+00   -3.790E+00
    -3.785E+00   -3.780E+00   -3.776E+00   -3.771E+00   -3.767E+00   -3.762E+00   -3.757E+00   -3.753E+00   -3.748E+00   -3.744E+00
    -3.739E+00   -3.734E+00   -3.730E+00   -3.725E+00   -3.721E+00   -3.716E+00   -3.711E+00   -3.707E+00   -3.702E+00   -3.698E+00
    -3.693E+00   -3.688E+00   -3.684E+00   -3.679E+00   -3.675E+00   -3.670E+00   -3.665E+00   -3.661E+00   -3.656E+00   -3.652E+00
    -3.647E+00   -3.643E+00   -3.638E+00   -3.633E+00   -3.629E+00   -3.624E+00   -3.620E+00   -3.615E+00   -3.610E+00   -3.606E+00
    -3.601E+00   -3.597E+00   -3.592E+00   -3.587E+00   -3.583E+00   -3.578E+00   -3.574E+00   -3.569E+00   -3.564E+00   -3.560E+00
    -3.555E+00   -3.551E+00   -3.546E+00   -3.541E+00   -3.537E+00   -3.532E+00   -3.528E+00   -3.523E+00   -3.518E+00   -3.514E+00
    -3.509E+00   -3.505E+00   -3.500E+00   -3.495E+00   -3.491E+00   -3.486E+00   -3.482E+00   -3.477E+00   -3.472E+00   -3.468E+00
    -3.463E+00   -3.459E+00   -3.454E+00   -3.449E+00   -3.445E+00   -3.440E+00   -3.436E+00   -3.431E+00   -3.426E+00   -3.422E+00
    -3.417E+00   -3.413E+00   -3.408E+00   -3.403E+00   -3.399E+00   -3.394E+00   -3.390E+00   -3.385E+00   -3.380E+00   -3.376E+00
    -3.371E+00   -3.367E+00   -3.362E+00   -3.357E+00   -3.353E+00   -3.348E+00   -3.344E+00   -3.339E+00   -3.334E+00   -3.330E+00
    -3.325E+00   -3.321E+00   -3.316E+00   -3.311E+00   -3.307E+00   -3.302E+00   -3.298E+00   -3.293E+00   -3.288E+00   -3.284E+00
    -3.279E+00   -3.275E+00   -3.270E+00   -3.265E+00   -3.261E+00   -3.256E+00   -3.252E+00   -3.247E+00   -3.242E+00   -3.238E+00
    -3.233E+00   -3.229E+00   -3.224E+00   -3.219E+00   -3.215E+00   -3.210E+00   -3.206E+00   -3.201E+00   -3.196E+00   -3.192E+00
    -3.187E+00   -3.183E+00   -3.178E+00   -3.173E+00   -3.169E+00   -3.164E+00   -3.160E+00   -3.155E+00   -3.150E+00   -3.146E+00
    -3.141E+00   -3.137E+00   -3.132E+00   -3.127E+00   -3.123E+00   -3.118E+00   -3.114E+00   -3.109E+00   -3.104E+00   -3.100E+00
    -3.095E+00   -3.091E+00   -3.086E+00   -3.081E+00   -3.077E+00   -3.072E+00   -3.068E+00   -3.063E+00   -3.058E+00   -3.054E+00
    -3.049E+00   -3.045E+00   -3.040E+00   -3.035E+00   -3.031E+00   -3.026E+00   -3.022E+00   -3.017E+00   -3.012E+00   -3.008E+00
    -3.003E+00   -2.999E+00   -2.994E+00   -2.989E+00   -2.985E+00   -2.980E+00   -2.976E+00   -2.971E+00   -2.966E+00   -2.962E+00
    -2.957E+00   -2.953E+00   -2.948E+00   -2.944E+00   -2.939E+00   -2.934E+00   -2.930E+00   -2.925E+00   -2.921E+00   -2.916E+00
    -2.911E+00   -2.907E+00   -2.902E+00   -2.898E+00   -2.893E+00   -2.888E+00   -2.884E+00   -2.879E+00   -2.875E+00   -2.870E+00
    -2.865E+00   -2.861E+00   -2.856E+00   -2.852E+00   -2.847E+00   -2.842E+00   -2.838E+00   -2.833E+00   -2.829E+00   -2.824E+00
    -2.819E+00   -2.815E+00   -2.810E+00   -2.806E+00   -2.801E+00   -2.796E+00   -2.792E+00   -2.787E+00   -2.783E+00   -2.778E+00
    -2.773E+00   -2.769E+00   -2.764E+00   -2.760E+00   -2.755E+00   -2.750E+00   -2.746E+00   -2.741E+00   -2.737E+00   -2.732E+00
    -2.727E+00   -2.723E+00   -2.718E+00   -2.714E+00   -2.709E+00   -2.704E+00   -2.700E+00   -2.695E+00   -2.691E+00   -2.686E+00
    -2.681E+00   -2.677E+00   -2.672E+00   -2.668E+00   -2.663E+00   -2.658E+00   -2.654E+00   -2.649E+00   -2.645E+00   -2.640E+00
    -2.635E+00   -2.631E+00   -2.626E+00   -2.622E+00   -2.617E+00   -2.612E+00   -2.608E+00   -2.603E+00   -2.599E+00   -2.594E+00
    -2.589E+00   -2.585E+00   -2.580E+00   -2.576E+00   -2.571E+00   -2.567E+00   -2.562E+00   -2.557E+00   -2.553E+00   -2.548E+00
    -2.544E+00   -2.539E+00   -2.534E+00   -2.530E+00   -2.525E+00   -2.521E+00   -2.516E+00   -2.511E+00   -2.507E+00   -2.502E+00
    -2.498E+00   -2.493E+00   -2.488E+00   -2.484E+00   -2.479E+00   -2.475E+00   -2.470E+00   -2.465E+00   -2.461E+00   -2.456E+00
    -2.452E+00   -2.447E+00   -2.442E+00   -2.438E+00   -2.433E+00   -2.429E+00   -2.424E+00   -2.419E+00   -2.415E+00   -2.410E+00
    -2.406E+00   -2.401E+00   -2.396E+00   -2.392E+00   -2.387E+00   -2.383E+00   -2.378E+00   -2.373E+00   -2.369E+00   -2.364E+00
    -2.360E+00   -2.355E+00   -2.350E+00   -2.346E+00   -2.341E+00   -2.337E+00   -2.332E+00   -2.327E+00   -2.323E+00   -2.318E+00
    -2.314E+00   -2.309E+00   -2.304E+00   -2.300E+00   -2.295E+00   -2.291E+00   -2.286E+00   -2.281E+00   -2.277E+00   -2.272E+00
    -2.268E+00   -2.263E+00   -2.258E+00   -2.254E+00   -2.249E+00   -2.245E+00   -2.240E+00   -2.235E+00   -2.231E+00   -2.226E+00
    -2.222E+00   -2.217E+00   -2.212E+00   -2.208E+00   -2.203E+00   -2.199E+00   -2.194E+00   -2.190E+00   -2.185E+00   -2.180E+00
    -2.176E+00   -2.171E+00   -2.167E+00   -2.162E+00   -2.157E+00   -2.153E+00   -2.148E+00   -2.144E+00   -2.139E+00   -2.134E+00
    -2.130E+00   -2.125E+00   -2.121E+00   -2.116E+00   -2.111E+00   -2.107E+00   -2.102E+00   -2.098E+00
 Asp      Conc. = 4.57E+01
