 LCModel (Version 6.3-1L) Copyright: S.W. Provencher.          Ref.: Magn. Reson. Med. 30:672-679 (1993).                
 Slice#2 Row#1 Col#12  PD_05_press_2_raw_act
 36 lines in following concentration table = NCONC+1
    Conc.  %SD /Cr+PCr  Metabolite                                         
   92.478 158%   0.547 Ala                                                 
   14.225 103% 8.4E-02 Asp                                                 
    0.000 999%   0.000 Cr                                                  
  169.149  38%   1.000 PCr                                                 
    8.710 101% 5.1E-02 GABA                                                
    8.782 101% 5.2E-02 Glc                                                 
   39.140 750%   0.231 Gln                                                 
  564.306  60%   3.336 Glu                                                 
    0.000 999%   0.000 GPC                                                 
    0.000 999%   0.000 PCh                                                 
    0.000 999%   0.000 GSH                                                 
    0.000 999%   0.000 Ins                                                 
   67.206 242%   0.397 Lac                                                 
  124.572  56%   0.736 NAA                                                 
    0.000 999%   0.000 NAAG                                                
    3.134  94% 1.9E-02 Scyllo                                              
   14.456 102% 8.5E-02 Tau                                                 
    2.626 999% 1.6E-02 -CrCH2                                              
    0.000 999%   0.000 GPC+PCh                                             
  124.572  56%   0.736 NAA+NAAG                                            
  169.149  38%   1.000 Cr+PCr                                              
  603.446  77%   3.568 Glu+Gln                                             
 1.03E+03  35%   6.105 Lip13a                                              
    0.000 999%   0.000 Lip13b                                              
  295.815  43%   1.749 Lip09                                               
   76.232 132%   0.451 MM09                                                
  139.416  62%   0.824 Lip20                                               
    0.000 999%   0.000 MM20                                                
   25.325 216%   0.150 MM12                                                
   97.855 198%   0.579 MM14                                                
  163.396  76%   0.966 MM17                                                
 1.03E+03  35%   6.105 Lip13a+Lip13b                                       
 1.16E+03  30%   6.833 MM14+Lip13a+Lip13b+MM12                             
  372.047  35%   2.200 MM09+Lip09                                          
  139.416  62%   0.824 MM20+Lip20                                          
   6 lines in following misc. output table
  FWHM = 0.061 ppm    S/N =   1                                            
  Data shift = 0.038 ppm                                                   
  Ph:  60 deg      -3.3 deg/ppm                                            
  alphaB,S = 8.5E+01,   2.6E+01                                            
   14 spline knots.   Ns = 5(1)                                            
   2 inflections.     1 extrema                                            
  498 points on ppm-axis = NY
      4.000000     3.992357     3.984714     3.977070     3.969427     3.961784     3.954141     3.946497     3.938854     3.931211
      3.923568     3.915925     3.908281     3.900638     3.892995     3.885352     3.877708     3.870065     3.862422     3.854779
      3.847136     3.839492     3.831849     3.824206     3.816563     3.808919     3.801276     3.793633     3.785990     3.778347
      3.770703     3.763060     3.755417     3.747774     3.740130     3.732487     3.724844     3.717201     3.709558     3.701914
      3.694271     3.686628     3.678985     3.671341     3.663698     3.656055     3.648412     3.640769     3.633125     3.625482
      3.617839     3.610196     3.602552     3.594909     3.587266     3.579623     3.571980     3.564336     3.556693     3.549050
      3.541407     3.533763     3.526120     3.518477     3.510834     3.503191     3.495547     3.487904     3.480261     3.472618
      3.464974     3.457331     3.449688     3.442045     3.434402     3.426758     3.419115     3.411472     3.403829     3.396185
      3.388542     3.380899     3.373256     3.365613     3.357969     3.350326     3.342683     3.335040     3.327396     3.319753
      3.312110     3.304467     3.296824     3.289180     3.281537     3.273894     3.266251     3.258607     3.250964     3.243321
      3.235678     3.228034     3.220391     3.212748     3.205105     3.197462     3.189818     3.182175     3.174532     3.166889
      3.159245     3.151602     3.143959     3.136316     3.128673     3.121029     3.113386     3.105743     3.098100     3.090456
      3.082813     3.075170     3.067527     3.059884     3.052240     3.044597     3.036954     3.029311     3.021667     3.014024
      3.006381     2.998738     2.991095     2.983451     2.975808     2.968165     2.960522     2.952878     2.945235     2.937592
      2.929949     2.922306     2.914662     2.907019     2.899376     2.891733     2.884089     2.876446     2.868803     2.861160
      2.853517     2.845873     2.838230     2.830587     2.822944     2.815300     2.807657     2.800014     2.792371     2.784728
      2.777084     2.769441     2.761798     2.754155     2.746511     2.738868     2.731225     2.723582     2.715939     2.708295
      2.700652     2.693009     2.685366     2.677722     2.670079     2.662436     2.654793     2.647150     2.639506     2.631863
      2.624220     2.616577     2.608933     2.601290     2.593647     2.586004     2.578361     2.570717     2.563074     2.555431
      2.547788     2.540144     2.532501     2.524858     2.517215     2.509572     2.501928     2.494285     2.486642     2.478999
      2.471355     2.463712     2.456069     2.448426     2.440783     2.433139     2.425496     2.417853     2.410210     2.402566
      2.394923     2.387280     2.379637     2.371994     2.364350     2.356707     2.349064     2.341421     2.333777     2.326134
      2.318491     2.310848     2.303205     2.295561     2.287918     2.280275     2.272632     2.264988     2.257345     2.249702
      2.242059     2.234416     2.226772     2.219129     2.211486     2.203843     2.196199     2.188556     2.180913     2.173270
      2.165627     2.157983     2.150340     2.142697     2.135054     2.127410     2.119767     2.112124     2.104481     2.096838
      2.089194     2.081551     2.073908     2.066265     2.058621     2.050978     2.043335     2.035692     2.028049     2.020405
      2.012762     2.005119     1.997476     1.989833     1.982190     1.974546     1.966903     1.959260     1.951617     1.943974
      1.936331     1.928688     1.921045     1.913402     1.905759     1.898115     1.890472     1.882829     1.875186     1.867543
      1.859900     1.852257     1.844614     1.836971     1.829327     1.821684     1.814041     1.806398     1.798755     1.791112
      1.783469     1.775826     1.768183     1.760540     1.752896     1.745253     1.737610     1.729967     1.722324     1.714681
      1.707038     1.699395     1.691752     1.684108     1.676465     1.668822     1.661179     1.653536     1.645893     1.638250
      1.630607     1.622964     1.615321     1.607677     1.600034     1.592391     1.584748     1.577105     1.569462     1.561819
      1.554176     1.546533     1.538890     1.531246     1.523603     1.515960     1.508317     1.500674     1.493031     1.485388
      1.477745     1.470102     1.462458     1.454815     1.447172     1.439529     1.431886     1.424243     1.416600     1.408957
      1.401314     1.393671     1.386027     1.378384     1.370741     1.363098     1.355455     1.347812     1.340169     1.332526
      1.324883     1.317240     1.309596     1.301953     1.294310     1.286667     1.279024     1.271381     1.263738     1.256095
      1.248452     1.240808     1.233165     1.225522     1.217879     1.210236     1.202593     1.194950     1.187307     1.179664
      1.172021     1.164377     1.156734     1.149091     1.141448     1.133805     1.126162     1.118519     1.110876     1.103233
      1.095590     1.087946     1.080303     1.072660     1.065017     1.057374     1.049731     1.042088     1.034445     1.026802
      1.019158     1.011515     1.003872     0.996229     0.988586     0.980943     0.973300     0.965657     0.958014     0.950371
      0.942727     0.935084     0.927441     0.919798     0.912155     0.904512     0.896869     0.889226     0.881583     0.873940
      0.866296     0.858653     0.851010     0.843367     0.835724     0.828081     0.820438     0.812795     0.805152     0.797508
      0.789865     0.782222     0.774579     0.766936     0.759293     0.751650     0.744007     0.736364     0.728721     0.721077
      0.713434     0.705791     0.698148     0.690505     0.682862     0.675219     0.667576     0.659933     0.652290     0.644646
      0.637003     0.629360     0.621717     0.614074     0.606431     0.598788     0.591145     0.583502     0.575858     0.568215
      0.560572     0.552929     0.545286     0.537643     0.530000     0.522357     0.514714     0.507071     0.499427     0.491784
      0.484141     0.476498     0.468855     0.461212     0.453569     0.445925     0.438282     0.430639     0.422996     0.415353
      0.407710     0.400067     0.392424     0.384780     0.377137     0.369494     0.361851     0.354208     0.346565     0.338922
      0.331278     0.323635     0.315992     0.308349     0.300706     0.293063     0.285420     0.277777     0.270133     0.262490
      0.254847     0.247204     0.239561     0.231918     0.224275     0.216631     0.208988     0.201345
 NY phased data points follow
  -3.92274E+00 -1.07832E+01  5.82304E+00  4.08068E+00  5.81135E+00  3.29448E+00  3.08756E+00  8.12478E+00  5.87997E+00 -3.96634E+00
   2.58477E+00  8.76965E+00  4.74407E+00  3.68608E+00 -9.88097E+00  2.06309E+00 -1.11228E+00  6.60991E-01  1.13490E+00 -2.14123E+00
   2.14728E-01  5.22158E+00  7.96350E+00 -5.29894E+00 -9.66484E-01  7.60684E+00 -6.03697E+00 -1.35909E+00  7.75582E+00 -4.82621E+00
  -1.94233E+00 -4.50325E+00 -2.24227E+00 -2.53793E+00  4.99773E-01  2.23658E+00 -3.42833E-01 -1.80747E-02  1.18688E+00  1.80664E+00
  -9.51308E+00  8.58926E+00  2.28109E+00 -5.26266E+00 -4.69487E+00 -5.16883E+00  5.31751E+00  8.55231E-01  3.86232E+00 -6.48372E+00
  -4.65684E+00 -1.20894E+00  2.10917E+00 -4.17386E+00 -3.61701E+00 -1.05828E+01  1.85127E+00  2.15076E+00  3.11006E+00  3.28316E+00
   5.63586E+00 -5.23759E+00  4.01190E+00 -2.24896E+00  5.43373E-01  3.89897E+00  3.48863E-01 -4.84051E+00  8.24248E+00 -1.41953E+00
   3.71263E+00  2.79749E+00 -9.07522E+00  2.44122E-02  4.25573E+00  2.37658E+00  4.30789E+00  5.53691E+00 -6.72205E+00 -2.73869E+00
  -1.38857E+00 -1.35050E+01  1.28007E+00 -6.10975E+00  3.60122E+00  4.31649E+00  2.77003E+00  8.26725E+00 -1.39198E+00  2.83618E+00
   1.61145E+00 -3.94312E-02 -2.15681E+00 -6.70185E-01 -3.36694E+00  4.83479E+00  2.26475E+00 -1.42828E+01  1.81290E+00 -6.33607E+00
   1.05621E+00 -1.31292E+00 -6.31835E+00 -6.70079E+00 -3.12033E+00  9.13827E-02 -8.64824E+00  7.68101E+00 -3.03078E+00  2.49378E+00
  -4.36029E+00 -1.64068E+00  1.93080E+00 -1.05030E+01 -8.84624E+00  1.14262E+01  1.02873E+01  1.48055E+00  5.40986E-02 -3.11242E+00
  -8.70878E+00  4.53010E+00  7.07338E+00  7.25177E+00 -2.81021E+00  1.07580E+01  1.86383E+00  5.28784E+00 -1.35174E+00  5.17081E+00
  -2.63658E+00 -7.20031E-01  6.46605E+00  2.78908E+00  1.97374E+00 -5.34899E+00 -2.03950E+00  2.65320E+00 -3.50300E+00  3.88961E+00
   6.00375E+00 -5.06965E+00  6.49406E+00 -6.74119E+00  1.98456E+00  2.27148E+00  4.32410E+00  5.39771E-01 -2.02238E+00 -4.54428E+00
  -2.27233E+00 -1.06452E+00  6.03012E+00  1.75003E+00  5.74500E-01  2.10266E+00 -2.85466E+00  3.04507E+00 -1.55860E+01 -1.17877E+01
   1.07944E+01 -2.34733E+00  4.21428E+00  5.25302E+00  3.91696E+00  8.46669E+00 -2.97372E+00 -3.52798E+00  8.10703E+00  3.23564E+00
   1.21221E+00 -5.68028E+00  5.60191E+00 -4.72106E+00 -1.87693E+00 -8.89781E-01 -2.93892E+00 -6.83783E-03 -7.39300E+00  4.04028E+00
  -5.04005E+00  4.11741E+00 -7.68294E+00 -3.61522E+00 -1.61092E-02 -4.52282E+00 -6.39917E+00 -6.33193E+00 -6.03642E+00  2.33905E+00
   2.90227E+00  3.20253E+00 -2.06636E+00  8.82540E-01  6.44685E+00 -2.57836E+00  2.86487E+00 -7.09972E+00  4.19097E+00 -1.03501E+01
   4.21071E+00 -1.06855E+00  5.33584E+00  5.23779E+00 -3.91215E+00 -4.68374E-01 -2.49063E+00 -4.10374E+00  2.18729E+00  7.42861E+00
   4.07815E+00  5.85383E+00  3.58682E+00  8.04297E-01  7.18266E+00  2.88076E+00  1.01193E+01  1.33154E-02 -2.54672E+00 -5.80480E+00
   1.18800E+00  4.39313E+00 -6.36904E+00 -3.04435E+00 -1.85008E+00 -5.21987E+00 -1.25123E+00  5.39830E+00  6.72350E+00 -7.92482E+00
   2.26736E+00 -1.74773E-02 -3.03421E+00 -1.44874E+01  2.33031E+00 -8.58542E-01  3.77364E-01  3.54280E+00 -3.30044E+00 -1.03783E-01
   3.83361E-01  8.04407E+00  2.85439E+00  4.34453E+00 -2.26561E+00 -2.41554E+00 -4.15871E+00  9.15445E-01 -6.28193E+00  3.32662E+00
  -3.00247E+00  1.91906E+00 -3.12103E+00 -2.30814E+00 -7.40032E+00 -1.24290E+00  3.08042E+00  7.14771E+00  4.02894E+00  2.29748E+00
   6.98968E+00  3.69661E+00  6.04838E+00  4.96964E+00  3.05426E+00  1.00347E+00 -4.42733E-01  3.54630E+00 -5.80408E-01 -8.93462E+00
  -1.38857E+00 -3.74673E+00  6.16395E+00  4.95516E-02  5.51109E+00  1.91179E+00  3.84625E+00 -7.34455E+00 -1.24775E+00  1.60444E+00
   6.21482E+00 -2.93379E+00 -1.53377E+00  7.92474E+00  8.35701E+00  3.67508E+00  1.83310E+00  2.91091E+00  5.71490E+00  3.87701E+00
   5.71357E+00 -1.85756E+00  5.13801E+00  7.68496E+00 -3.31898E+00 -3.06527E-01  8.83542E+00  5.53157E+00 -5.85139E-01 -1.95682E+00
   4.25971E+00  2.18807E+00  7.74674E+00  5.28764E+00 -2.81771E+00  4.97119E+00 -1.84371E+00  1.06463E+01 -3.83837E+00  3.51221E+00
  -3.44917E+00  2.51561E+00  5.12159E+00 -1.68575E+00 -2.73039E-01  4.82039E+00  1.16287E+01  2.71850E+00  9.49279E+00  8.00026E+00
   1.17473E+01 -2.15084E-01  6.36285E+00  4.69035E+00  2.15837E+00 -2.17549E+00  2.66134E-01 -5.69346E+00  5.43597E+00  6.02940E+00
  -6.21560E+00  6.29304E+00  3.25536E+00  2.33984E+00  4.70975E+00  6.13007E+00 -5.25952E+00  9.37778E+00  4.44504E-01  4.53297E+00
  -4.61411E+00  4.83678E+00  8.07696E-01  7.76254E+00  1.65167E+00  8.08971E+00  3.36172E+00 -3.50245E+00 -2.52540E+00  9.21121E+00
   2.96976E+00  7.11682E+00 -3.61466E+00  7.59231E+00  5.89982E+00 -1.33907E+00  1.19640E+01  7.43895E+00  5.39930E+00  3.26637E+00
   3.31664E+00  2.29459E+00 -3.67906E+00  4.23150E+00  2.97020E+00  9.06556E+00  1.23658E+01  6.93464E-01  2.04827E+00  1.73183E+00
   9.28620E+00  3.72113E+00  1.05705E+01 -1.01763E+00  3.13579E+00  3.78927E+00  6.49054E-01 -7.20056E+00 -2.11230E+00 -8.51432E-01
   7.70119E+00  7.46394E+00  4.47645E+00 -1.38276E+00  4.96620E+00  3.39537E+00  5.00830E+00  6.19169E+00  1.34035E+00  1.03054E+01
   2.50478E+00  8.08687E+00  3.19616E+00  3.68018E+00 -2.10072E+00 -1.07867E-01  2.73511E+00  4.01625E+00 -9.23540E-01  6.80769E+00
   4.63429E+00  3.82292E+00 -6.48603E+00  3.88650E+00  1.34214E+01  4.47145E+00 -5.03513E+00 -4.41943E+00  8.00026E+00  7.35926E+00
   7.02298E+00  1.71872E+00 -9.23701E+00  3.52533E+00 -6.32599E-01  1.17247E+00  3.45129E+00  1.06411E+00 -4.69443E+00  6.27189E+00
   2.71170E+00 -4.66284E+00  6.76152E+00  4.79986E+00  6.60152E+00 -3.09267E+00  1.31796E+01 -3.72214E+00  3.31793E+00  1.82195E+00
   2.18261E+00 -5.23428E+00  2.17582E-01 -3.16397E+00  2.79641E+00  3.48410E+00 -3.64661E-02 -2.35997E+00  4.92019E+00  3.60466E+00
   4.52365E-01  6.02653E+00  3.85922E+00  1.31191E+01  1.38469E+01  4.39033E+00 -5.68078E+00  4.75640E+00  2.09306E+00 -5.47948E+00
   1.02703E+01 -1.84765E+00 -3.39505E+00 -8.53054E-01  3.11538E+00 -8.74705E+00 -2.91606E+00 -1.09911E+01 -3.24807E-02  3.80500E+00
   9.88085E-01  2.42269E+00  5.36487E-01 -7.68902E+00  2.52311E+00 -6.82367E+00 -2.66553E+00 -8.63212E+00  7.65552E-01 -1.11310E+00
   5.71925E+00 -1.59708E+00  9.04966E+00  3.16793E+00  6.03847E+00 -4.88259E+00 -1.09853E+00 -4.19828E+00 -9.79217E+00  2.02333E+00
   8.49146E+00 -6.49918E+00 -6.50581E+00 -4.08531E+00  3.95603E+00 -4.07234E-01  2.47120E+00 -3.33208E+00 -1.22009E+01 -1.02470E+00
  -8.70497E+00 -5.12739E+00  3.84551E+00  3.65116E+00 -5.31560E+00  2.25211E-01  1.37841E+00 -4.99384E+00
 NY points of the fit to the data follow
  -4.07231E-01 -3.52775E-01 -2.42251E-01  1.08644E-01  1.00389E+00  2.04412E+00  2.78018E+00  3.11773E+00  3.14899E+00  3.00943E+00
   2.76084E+00  2.35629E+00  1.75445E+00  1.03191E+00  3.67323E-01 -6.31259E-02 -1.94539E-01 -1.77895E-01 -1.01094E-01  3.02535E-02
   2.34185E-01  4.73704E-01  5.99554E-01  4.34583E-01  5.32162E-02 -3.82553E-01 -7.36134E-01 -8.58418E-01 -6.72338E-01 -2.31121E-01
   2.48555E-01  5.89845E-01  7.46692E-01  6.97047E-01  4.89995E-01  2.69751E-01  6.18271E-02 -1.65621E-01 -3.83110E-01 -5.04047E-01
  -4.65361E-01 -2.83815E-01 -6.68672E-02  8.57401E-02  1.33993E-01  8.48843E-02 -6.39355E-03 -7.99516E-02 -1.34744E-01 -1.76033E-01
  -2.06429E-01 -2.28167E-01 -2.44771E-01 -2.59608E-01 -2.73190E-01 -2.83914E-01 -2.90386E-01 -2.93778E-01 -2.95497E-01 -2.95784E-01
  -2.94164E-01 -2.88886E-01 -2.80124E-01 -2.73891E-01 -2.69820E-01 -2.69992E-01 -2.75245E-01 -2.81700E-01 -2.86711E-01 -2.90389E-01
  -2.83441E-01 -2.60292E-01 -2.34963E-01 -2.18958E-01 -2.14894E-01 -2.21899E-01 -2.33471E-01 -2.42700E-01 -2.49192E-01 -2.55410E-01
  -2.56411E-01 -2.29159E-01 -1.73414E-01 -1.19290E-01 -8.56389E-02 -7.36757E-02 -7.59256E-02 -8.46220E-02 -1.03193E-01 -1.39798E-01
  -1.91505E-01 -2.44948E-01 -2.85361E-01 -2.98144E-01 -2.83873E-01 -2.64001E-01 -2.48891E-01 -2.35987E-01 -2.25051E-01 -2.17232E-01
  -2.11403E-01 -2.10121E-01 -2.14688E-01 -2.19277E-01 -2.21836E-01 -2.20924E-01 -2.15730E-01 -2.09345E-01 -2.02964E-01 -1.96740E-01
  -1.91991E-01 -1.88565E-01 -1.84275E-01 -1.77887E-01 -1.69029E-01 -1.58029E-01 -1.43015E-01 -1.19214E-01 -8.18184E-02 -1.45879E-02
   1.53522E-01  7.95359E-01  2.25632E+00  3.79490E+00  4.79624E+00  5.18745E+00  5.14734E+00  4.88079E+00  4.44479E+00  3.74521E+00
   2.75450E+00  1.64858E+00  6.90371E-01  1.07430E-01 -7.95110E-02 -1.27284E-01 -1.42537E-01 -1.46736E-01 -1.46410E-01 -1.41793E-01
  -1.32163E-01 -1.16840E-01 -9.98955E-02 -8.64654E-02 -7.73535E-02 -7.00482E-02 -6.19453E-02 -5.31555E-02 -4.54048E-02 -4.02357E-02
  -3.66268E-02 -3.23705E-02 -2.63274E-02 -1.85558E-02 -1.17837E-02 -1.29825E-02 -3.48086E-02 -7.03976E-02 -1.00070E-01 -1.11655E-01
  -9.78431E-02 -7.71395E-02 -6.73221E-02 -6.66067E-02 -6.72342E-02 -6.55885E-02 -6.58249E-02 -7.64713E-02 -1.02486E-01 -1.37288E-01
  -1.72941E-01 -2.13252E-01 -2.53845E-01 -2.73389E-01 -2.70406E-01 -2.58987E-01 -2.60766E-01 -2.74783E-01 -2.80546E-01 -2.67331E-01
  -2.40351E-01 -2.19851E-01 -2.24557E-01 -2.36616E-01 -2.22653E-01 -1.78135E-01 -1.22086E-01 -7.31605E-02 -4.10318E-02 -1.80158E-02
   8.86332E-03  4.00728E-02  7.51873E-02  1.01107E-01  1.09690E-01  1.11673E-01  1.26868E-01  1.67685E-01  2.39724E-01  3.46805E-01
   4.83215E-01  6.27050E-01  6.87154E-01  6.56221E-01  5.27908E-01  2.30066E-01 -1.54522E-01 -4.98822E-01 -7.17043E-01 -6.88558E-01
  -2.93479E-01  5.99432E-01  1.56676E+00  2.21323E+00  2.43386E+00  2.26765E+00  1.69255E+00  5.79510E-01 -8.90332E-01 -2.19085E+00
  -2.94717E+00 -3.13590E+00 -2.82583E+00 -2.13928E+00 -1.27397E+00 -3.30668E-01  5.44859E-01  1.18980E+00  1.51626E+00  1.52621E+00
   1.35403E+00  1.15508E+00  9.98608E-01  8.92481E-01  8.50026E-01  8.10184E-01  7.40298E-01  6.31263E-01  4.44957E-01  2.98186E-01
   2.81939E-01  3.51325E-01  4.40560E-01  5.60448E-01  6.88229E-01  7.47003E-01  7.05572E-01  6.07653E-01  5.46321E-01  5.48224E-01
   5.90076E-01  6.59491E-01  7.38351E-01  7.82002E-01  9.24047E-01  1.59281E+00  2.85795E+00  4.03040E+00  4.72454E+00  4.98879E+00
   4.95737E+00  4.75684E+00  4.42637E+00  3.87006E+00  3.06629E+00  2.15063E+00  1.34182E+00  8.24238E-01  6.04314E-01  5.33498E-01
   5.47763E-01  6.06094E-01  6.68114E-01  7.25369E-01  7.84520E-01  8.31019E-01  8.49704E-01  8.40506E-01  8.09450E-01  7.67604E-01
   7.32265E-01  7.13352E-01  7.09940E-01  7.19125E-01  7.39470E-01  7.68928E-01  8.03005E-01  8.36999E-01  8.70806E-01  9.06663E-01
   9.45539E-01  9.88155E-01  1.03487E+00  1.08537E+00  1.13870E+00  1.19352E+00  1.24891E+00  1.30408E+00  1.35825E+00  1.41028E+00
   1.45878E+00  1.50239E+00  1.54019E+00  1.57162E+00  1.59646E+00  1.61463E+00  1.62619E+00  1.63155E+00  1.63151E+00  1.62726E+00
   1.62031E+00  1.61212E+00  1.60421E+00  1.59825E+00  1.59612E+00  1.59995E+00  1.61225E+00  1.63612E+00  1.67587E+00  1.73855E+00
   1.83857E+00  2.01297E+00  2.29902E+00  2.49839E+00  2.44887E+00  2.21219E+00  1.90003E+00  1.58192E+00  1.26167E+00  9.18358E-01
   7.30460E-01  8.71528E-01  1.26342E+00  1.77777E+00  2.31534E+00  2.78782E+00  3.18905E+00  3.53458E+00  3.79236E+00  3.93757E+00
   3.99776E+00  4.05748E+00  4.24488E+00  4.47045E+00  4.54447E+00  4.47091E+00  4.32442E+00  4.15860E+00  3.98125E+00  3.78909E+00
   3.71872E+00  3.84329E+00  4.09461E+00  4.39756E+00  4.69901E+00  4.94331E+00  5.10994E+00  5.20048E+00  5.19036E+00  5.06764E+00
   4.85517E+00  4.60356E+00  4.37616E+00  4.17939E+00  3.99207E+00  3.80718E+00  3.62339E+00  3.44128E+00  3.26215E+00  3.08762E+00
   2.91930E+00  2.75871E+00  2.60717E+00  2.46576E+00  2.33536E+00  2.21666E+00  2.11016E+00  2.01619E+00  1.93492E+00  1.86642E+00
   1.81068E+00  1.76766E+00  1.73728E+00  1.71942E+00  1.71392E+00  1.72059E+00  1.73921E+00  1.76948E+00  1.81104E+00  1.86334E+00
   1.92569E+00  1.99718E+00  2.07669E+00  2.16286E+00  2.25406E+00  2.34838E+00  2.44367E+00  2.53759E+00  2.62768E+00  2.71141E+00
   2.78625E+00  2.84979E+00  2.89985E+00  2.93456E+00  2.95246E+00  2.95257E+00  2.93442E+00  2.89805E+00  2.84406E+00  2.77356E+00
   2.68812E+00  2.58964E+00  2.48031E+00  2.36248E+00  2.23859E+00  2.11103E+00  1.98211E+00  1.85392E+00  1.72831E+00  1.60683E+00
   1.49075E+00  1.38105E+00  1.27841E+00  1.18322E+00  1.09563E+00  1.01561E+00  9.42958E-01  8.77370E-01  8.18430E-01  7.65659E-01
   7.18549E-01  6.76586E-01  6.39279E-01  6.06151E-01  5.76746E-01  5.50636E-01  5.27436E-01  5.06808E-01  4.88459E-01  4.72120E-01
   4.57549E-01  4.44527E-01  4.32872E-01  4.22433E-01  4.13079E-01  4.04689E-01  3.97149E-01  3.90361E-01  3.84249E-01  3.78752E-01
   3.73814E-01  3.69376E-01  3.65385E-01  3.61795E-01  3.58577E-01  3.55703E-01  3.53146E-01  3.50870E-01  3.48849E-01  3.47059E-01
   3.45493E-01  3.44136E-01  3.42972E-01  3.41978E-01  3.41139E-01  3.40446E-01  3.39898E-01  3.39487E-01  3.39199E-01  3.39018E-01
   3.38941E-01  3.38964E-01  3.39091E-01  3.39312E-01  3.39618E-01  3.39996E-01  3.40448E-01  3.40973E-01  3.41573E-01  3.42240E-01
   3.42966E-01  3.43744E-01  3.44579E-01  3.45473E-01  3.46427E-01  3.47432E-01  3.48483E-01  3.49579E-01  3.50723E-01  3.51920E-01
   3.53170E-01  3.54465E-01  3.55803E-01  3.57186E-01  3.58622E-01  3.60113E-01  3.61661E-01  3.63263E-01
 NY background values follow
    -4.778E-01   -4.760E-01   -4.742E-01   -4.725E-01   -4.707E-01   -4.690E-01   -4.672E-01   -4.655E-01   -4.637E-01   -4.620E-01
    -4.602E-01   -4.585E-01   -4.567E-01   -4.549E-01   -4.532E-01   -4.514E-01   -4.497E-01   -4.479E-01   -4.462E-01   -4.444E-01
    -4.427E-01   -4.409E-01   -4.392E-01   -4.374E-01   -4.356E-01   -4.339E-01   -4.321E-01   -4.304E-01   -4.286E-01   -4.269E-01
    -4.251E-01   -4.234E-01   -4.216E-01   -4.198E-01   -4.181E-01   -4.163E-01   -4.146E-01   -4.128E-01   -4.111E-01   -4.093E-01
    -4.076E-01   -4.058E-01   -4.040E-01   -4.023E-01   -4.005E-01   -3.988E-01   -3.970E-01   -3.953E-01   -3.935E-01   -3.918E-01
    -3.900E-01   -3.882E-01   -3.865E-01   -3.847E-01   -3.830E-01   -3.812E-01   -3.795E-01   -3.777E-01   -3.760E-01   -3.742E-01
    -3.724E-01   -3.707E-01   -3.689E-01   -3.672E-01   -3.654E-01   -3.637E-01   -3.619E-01   -3.602E-01   -3.584E-01   -3.566E-01
    -3.549E-01   -3.531E-01   -3.514E-01   -3.496E-01   -3.479E-01   -3.461E-01   -3.443E-01   -3.426E-01   -3.408E-01   -3.391E-01
    -3.373E-01   -3.356E-01   -3.338E-01   -3.321E-01   -3.303E-01   -3.285E-01   -3.268E-01   -3.250E-01   -3.233E-01   -3.215E-01
    -3.198E-01   -3.180E-01   -3.162E-01   -3.145E-01   -3.127E-01   -3.110E-01   -3.092E-01   -3.075E-01   -3.057E-01   -3.040E-01
    -3.022E-01   -3.004E-01   -2.987E-01   -2.969E-01   -2.952E-01   -2.934E-01   -2.917E-01   -2.899E-01   -2.881E-01   -2.864E-01
    -2.846E-01   -2.829E-01   -2.811E-01   -2.794E-01   -2.776E-01   -2.759E-01   -2.741E-01   -2.723E-01   -2.706E-01   -2.688E-01
    -2.671E-01   -2.653E-01   -2.636E-01   -2.618E-01   -2.600E-01   -2.583E-01   -2.565E-01   -2.548E-01   -2.530E-01   -2.513E-01
    -2.495E-01   -2.478E-01   -2.460E-01   -2.442E-01   -2.425E-01   -2.407E-01   -2.390E-01   -2.372E-01   -2.355E-01   -2.337E-01
    -2.320E-01   -2.302E-01   -2.284E-01   -2.267E-01   -2.249E-01   -2.232E-01   -2.214E-01   -2.197E-01   -2.179E-01   -2.161E-01
    -2.144E-01   -2.126E-01   -2.109E-01   -2.091E-01   -2.074E-01   -2.056E-01   -2.039E-01   -2.021E-01   -2.003E-01   -1.986E-01
    -1.968E-01   -1.951E-01   -1.933E-01   -1.916E-01   -1.898E-01   -1.881E-01   -1.863E-01   -1.845E-01   -1.828E-01   -1.810E-01
    -1.793E-01   -1.775E-01   -1.758E-01   -1.740E-01   -1.723E-01   -1.705E-01   -1.688E-01   -1.670E-01   -1.652E-01   -1.635E-01
    -1.617E-01   -1.600E-01   -1.582E-01   -1.565E-01   -1.547E-01   -1.530E-01   -1.512E-01   -1.494E-01   -1.477E-01   -1.459E-01
    -1.442E-01   -1.424E-01   -1.407E-01   -1.389E-01   -1.372E-01   -1.354E-01   -1.337E-01   -1.319E-01   -1.301E-01   -1.284E-01
    -1.266E-01   -1.249E-01   -1.231E-01   -1.214E-01   -1.196E-01   -1.179E-01   -1.161E-01   -1.144E-01   -1.126E-01   -1.109E-01
    -1.091E-01   -1.073E-01   -1.056E-01   -1.038E-01   -1.021E-01   -1.003E-01   -9.857E-02   -9.682E-02   -9.507E-02   -9.331E-02
    -9.156E-02   -8.981E-02   -8.805E-02   -8.630E-02   -8.455E-02   -8.279E-02   -8.104E-02   -7.929E-02   -7.754E-02   -7.578E-02
    -7.403E-02   -7.228E-02   -7.052E-02   -6.877E-02   -6.702E-02   -6.527E-02   -6.351E-02   -6.176E-02   -6.001E-02   -5.826E-02
    -5.650E-02   -5.475E-02   -5.300E-02   -5.125E-02   -4.950E-02   -4.774E-02   -4.599E-02   -4.424E-02   -4.249E-02   -4.074E-02
    -3.899E-02   -3.723E-02   -3.548E-02   -3.373E-02   -3.198E-02   -3.023E-02   -2.848E-02   -2.673E-02   -2.497E-02   -2.322E-02
    -2.147E-02   -1.972E-02   -1.797E-02   -1.622E-02   -1.447E-02   -1.272E-02   -1.097E-02   -9.217E-03   -7.467E-03   -5.716E-03
    -3.966E-03   -2.216E-03   -4.657E-04    1.284E-03    3.034E-03    4.784E-03    6.534E-03    8.284E-03    1.003E-02    1.178E-02
     1.353E-02    1.528E-02    1.703E-02    1.878E-02    2.053E-02    2.228E-02    2.403E-02    2.578E-02    2.753E-02    2.927E-02
     3.102E-02    3.277E-02    3.452E-02    3.627E-02    3.802E-02    3.977E-02    4.151E-02    4.326E-02    4.501E-02    4.676E-02
     4.851E-02    5.025E-02    5.200E-02    5.375E-02    5.550E-02    5.724E-02    5.899E-02    6.074E-02    6.249E-02    6.423E-02
     6.598E-02    6.773E-02    6.947E-02    7.122E-02    7.297E-02    7.471E-02    7.646E-02    7.821E-02    7.995E-02    8.170E-02
     8.345E-02    8.519E-02    8.694E-02    8.868E-02    9.043E-02    9.217E-02    9.392E-02    9.567E-02    9.741E-02    9.916E-02
     1.009E-01    1.026E-01    1.044E-01    1.061E-01    1.079E-01    1.096E-01    1.114E-01    1.131E-01    1.149E-01    1.166E-01
     1.183E-01    1.201E-01    1.218E-01    1.236E-01    1.253E-01    1.271E-01    1.288E-01    1.306E-01    1.323E-01    1.340E-01
     1.358E-01    1.375E-01    1.393E-01    1.410E-01    1.428E-01    1.445E-01    1.462E-01    1.480E-01    1.497E-01    1.515E-01
     1.532E-01    1.549E-01    1.567E-01    1.584E-01    1.602E-01    1.619E-01    1.637E-01    1.654E-01    1.671E-01    1.689E-01
     1.706E-01    1.724E-01    1.741E-01    1.758E-01    1.776E-01    1.793E-01    1.811E-01    1.828E-01    1.845E-01    1.863E-01
     1.880E-01    1.898E-01    1.915E-01    1.932E-01    1.950E-01    1.967E-01    1.985E-01    2.002E-01    2.019E-01    2.037E-01
     2.054E-01    2.071E-01    2.089E-01    2.106E-01    2.124E-01    2.141E-01    2.158E-01    2.176E-01    2.193E-01    2.211E-01
     2.228E-01    2.245E-01    2.263E-01    2.280E-01    2.297E-01    2.315E-01    2.332E-01    2.349E-01    2.367E-01    2.384E-01
     2.402E-01    2.419E-01    2.436E-01    2.454E-01    2.471E-01    2.488E-01    2.506E-01    2.523E-01    2.540E-01    2.558E-01
     2.575E-01    2.592E-01    2.610E-01    2.627E-01    2.644E-01    2.662E-01    2.679E-01    2.696E-01    2.714E-01    2.731E-01
     2.748E-01    2.766E-01    2.783E-01    2.800E-01    2.818E-01    2.835E-01    2.852E-01    2.870E-01    2.887E-01    2.904E-01
     2.922E-01    2.939E-01    2.956E-01    2.974E-01    2.991E-01    3.008E-01    3.026E-01    3.043E-01    3.060E-01    3.077E-01
     3.095E-01    3.112E-01    3.129E-01    3.147E-01    3.164E-01    3.181E-01    3.199E-01    3.216E-01    3.233E-01    3.250E-01
     3.268E-01    3.285E-01    3.302E-01    3.320E-01    3.337E-01    3.354E-01    3.371E-01    3.389E-01    3.406E-01    3.423E-01
     3.441E-01    3.458E-01    3.475E-01    3.492E-01    3.510E-01    3.527E-01    3.544E-01    3.561E-01    3.579E-01    3.596E-01
     3.613E-01    3.630E-01    3.648E-01    3.665E-01    3.682E-01    3.699E-01    3.717E-01    3.734E-01    3.751E-01    3.768E-01
     3.786E-01    3.803E-01    3.820E-01    3.837E-01    3.855E-01    3.872E-01    3.889E-01    3.906E-01
 Ala      Conc. = 9.25E+01
