 LCModel (Version 6.3-1L) Copyright: S.W. Provencher.          Ref.: Magn. Reson. Med. 30:672-679 (1993).                
 Slice#1 Row#11 Col#4  PD_05_press_2_raw_act
 36 lines in following concentration table = NCONC+1
    Conc.  %SD /Cr+PCr  Metabolite                                         
    0.000 999%   0.000 Ala                                                 
   35.305 146%   0.209 Asp                                                 
   97.818 100%   0.578 Cr                                                  
   71.471 141%   0.422 PCr                                                 
   20.409 152%   0.121 GABA                                                
   21.252 148%   0.126 Glc                                                 
    0.000 999%   0.000 Gln                                                 
  270.726  50%   1.599 Glu                                                 
   68.456  18%   0.404 GPC                                                 
    0.000 999%   0.000 PCh                                                 
   82.074  53%   0.485 GSH                                                 
  492.609  32%   2.910 Ins                                                 
    0.000 999%   0.000 Lac                                                 
  346.074  11%   2.044 NAA                                                 
    0.000 999%   0.000 NAAG                                                
   18.622  50%   0.110 Scyllo                                              
   28.045 183%   0.166 Tau                                                 
   74.398  64%   0.439 -CrCH2                                              
   68.456  18%   0.404 GPC+PCh                                             
  346.074  11%   2.044 NAA+NAAG                                            
  169.289  20%   1.000 Cr+PCr                                              
  270.726  50%   1.599 Glu+Gln                                             
    0.000 999%   0.000 Lip13a                                              
    0.000 999%   0.000 Lip13b                                              
   25.075 388%   0.148 Lip09                                               
  191.167  53%   1.129 MM09                                                
    0.000 999%   0.000 Lip20                                               
    0.000 999%   0.000 MM20                                                
   25.813 253%   0.152 MM12                                                
    0.000 999%   0.000 MM14                                                
  967.327   9%   5.714+MM17                                                
    0.000 999%   0.000 Lip13a+Lip13b                                       
   25.813 253%   0.152 MM14+Lip13a+Lip13b+MM12                             
  216.242  49%   1.277 MM09+Lip09                                          
    0.000 999%   0.000 MM20+Lip20                                          
   6 lines in following misc. output table
  FWHM = 0.054 ppm    S/N =   3                                            
  Data shift = 0.031 ppm                                                   
  Ph: -31 deg     -11.8 deg/ppm                                            
  alphaB,S = 5.2E-01,   2.1E+01                                            
   14 spline knots.   Ns = 5(1)                                            
  ( 8) 1 infls.   (10) 2 extrs.                                            
  498 points on ppm-axis = NY
      4.000000     3.992357     3.984714     3.977070     3.969427     3.961784     3.954141     3.946497     3.938854     3.931211
      3.923568     3.915925     3.908281     3.900638     3.892995     3.885352     3.877708     3.870065     3.862422     3.854779
      3.847136     3.839492     3.831849     3.824206     3.816563     3.808919     3.801276     3.793633     3.785990     3.778347
      3.770703     3.763060     3.755417     3.747774     3.740130     3.732487     3.724844     3.717201     3.709558     3.701914
      3.694271     3.686628     3.678985     3.671341     3.663698     3.656055     3.648412     3.640769     3.633125     3.625482
      3.617839     3.610196     3.602552     3.594909     3.587266     3.579623     3.571980     3.564336     3.556693     3.549050
      3.541407     3.533763     3.526120     3.518477     3.510834     3.503191     3.495547     3.487904     3.480261     3.472618
      3.464974     3.457331     3.449688     3.442045     3.434402     3.426758     3.419115     3.411472     3.403829     3.396185
      3.388542     3.380899     3.373256     3.365613     3.357969     3.350326     3.342683     3.335040     3.327396     3.319753
      3.312110     3.304467     3.296824     3.289180     3.281537     3.273894     3.266251     3.258607     3.250964     3.243321
      3.235678     3.228034     3.220391     3.212748     3.205105     3.197462     3.189818     3.182175     3.174532     3.166889
      3.159245     3.151602     3.143959     3.136316     3.128673     3.121029     3.113386     3.105743     3.098100     3.090456
      3.082813     3.075170     3.067527     3.059884     3.052240     3.044597     3.036954     3.029311     3.021667     3.014024
      3.006381     2.998738     2.991095     2.983451     2.975808     2.968165     2.960522     2.952878     2.945235     2.937592
      2.929949     2.922306     2.914662     2.907019     2.899376     2.891733     2.884089     2.876446     2.868803     2.861160
      2.853517     2.845873     2.838230     2.830587     2.822944     2.815300     2.807657     2.800014     2.792371     2.784728
      2.777084     2.769441     2.761798     2.754155     2.746511     2.738868     2.731225     2.723582     2.715939     2.708295
      2.700652     2.693009     2.685366     2.677722     2.670079     2.662436     2.654793     2.647150     2.639506     2.631863
      2.624220     2.616577     2.608933     2.601290     2.593647     2.586004     2.578361     2.570717     2.563074     2.555431
      2.547788     2.540144     2.532501     2.524858     2.517215     2.509572     2.501928     2.494285     2.486642     2.478999
      2.471355     2.463712     2.456069     2.448426     2.440783     2.433139     2.425496     2.417853     2.410210     2.402566
      2.394923     2.387280     2.379637     2.371994     2.364350     2.356707     2.349064     2.341421     2.333777     2.326134
      2.318491     2.310848     2.303205     2.295561     2.287918     2.280275     2.272632     2.264988     2.257345     2.249702
      2.242059     2.234416     2.226772     2.219129     2.211486     2.203843     2.196199     2.188556     2.180913     2.173270
      2.165627     2.157983     2.150340     2.142697     2.135054     2.127410     2.119767     2.112124     2.104481     2.096838
      2.089194     2.081551     2.073908     2.066265     2.058621     2.050978     2.043335     2.035692     2.028049     2.020405
      2.012762     2.005119     1.997476     1.989833     1.982190     1.974546     1.966903     1.959260     1.951617     1.943974
      1.936331     1.928688     1.921045     1.913402     1.905759     1.898115     1.890472     1.882829     1.875186     1.867543
      1.859900     1.852257     1.844614     1.836971     1.829327     1.821684     1.814041     1.806398     1.798755     1.791112
      1.783469     1.775826     1.768183     1.760540     1.752896     1.745253     1.737610     1.729967     1.722324     1.714681
      1.707038     1.699395     1.691752     1.684108     1.676465     1.668822     1.661179     1.653536     1.645893     1.638250
      1.630607     1.622964     1.615321     1.607677     1.600034     1.592391     1.584748     1.577105     1.569462     1.561819
      1.554176     1.546533     1.538890     1.531246     1.523603     1.515960     1.508317     1.500674     1.493031     1.485388
      1.477745     1.470102     1.462458     1.454815     1.447172     1.439529     1.431886     1.424243     1.416600     1.408957
      1.401314     1.393671     1.386027     1.378384     1.370741     1.363098     1.355455     1.347812     1.340169     1.332526
      1.324883     1.317240     1.309596     1.301953     1.294310     1.286667     1.279024     1.271381     1.263738     1.256095
      1.248452     1.240808     1.233165     1.225522     1.217879     1.210236     1.202593     1.194950     1.187307     1.179664
      1.172021     1.164377     1.156734     1.149091     1.141448     1.133805     1.126162     1.118519     1.110876     1.103233
      1.095590     1.087946     1.080303     1.072660     1.065017     1.057374     1.049731     1.042088     1.034445     1.026802
      1.019158     1.011515     1.003872     0.996229     0.988586     0.980943     0.973300     0.965657     0.958014     0.950371
      0.942727     0.935084     0.927441     0.919798     0.912155     0.904512     0.896869     0.889226     0.881583     0.873940
      0.866296     0.858653     0.851010     0.843367     0.835724     0.828081     0.820438     0.812795     0.805152     0.797508
      0.789865     0.782222     0.774579     0.766936     0.759293     0.751650     0.744007     0.736364     0.728721     0.721077
      0.713434     0.705791     0.698148     0.690505     0.682862     0.675219     0.667576     0.659933     0.652290     0.644646
      0.637003     0.629360     0.621717     0.614074     0.606431     0.598788     0.591145     0.583502     0.575858     0.568215
      0.560572     0.552929     0.545286     0.537643     0.530000     0.522357     0.514714     0.507071     0.499427     0.491784
      0.484141     0.476498     0.468855     0.461212     0.453569     0.445925     0.438282     0.430639     0.422996     0.415353
      0.407710     0.400067     0.392424     0.384780     0.377137     0.369494     0.361851     0.354208     0.346565     0.338922
      0.331278     0.323635     0.315992     0.308349     0.300706     0.293063     0.285420     0.277777     0.270133     0.262490
      0.254847     0.247204     0.239561     0.231918     0.224275     0.216631     0.208988     0.201345
 NY phased data points follow
  -6.87325E+01 -6.78643E+01 -6.77115E+01 -7.00524E+01 -6.64682E+01 -6.50486E+01 -6.23187E+01 -5.98392E+01 -6.03559E+01 -5.71281E+01
  -5.49082E+01 -6.10485E+01 -5.94244E+01 -5.66010E+01 -5.38762E+01 -5.35429E+01 -5.44195E+01 -5.82220E+01 -5.53977E+01 -5.63930E+01
  -5.68487E+01 -5.40906E+01 -5.58294E+01 -5.35755E+01 -5.42326E+01 -5.08292E+01 -4.85004E+01 -5.00169E+01 -4.82861E+01 -4.71224E+01
  -4.52336E+01 -4.67763E+01 -5.10137E+01 -4.45883E+01 -4.41830E+01 -4.26219E+01 -4.52874E+01 -4.45550E+01 -4.22342E+01 -3.99491E+01
  -4.25585E+01 -4.08261E+01 -4.21535E+01 -3.98952E+01 -3.92898E+01 -3.74953E+01 -3.98306E+01 -3.97816E+01 -3.69505E+01 -4.03124E+01
  -3.93409E+01 -4.01787E+01 -3.69962E+01 -3.81663E+01 -3.56254E+01 -3.76330E+01 -3.69709E+01 -3.63952E+01 -3.33030E+01 -3.54119E+01
  -3.34311E+01 -3.30048E+01 -3.62053E+01 -4.04602E+01 -3.61772E+01 -3.50910E+01 -3.60141E+01 -3.63604E+01 -3.48941E+01 -3.84411E+01
  -3.39686E+01 -3.19888E+01 -3.63192E+01 -3.01627E+01 -3.68772E+01 -3.21794E+01 -3.17481E+01 -3.43644E+01 -3.55960E+01 -3.22333E+01
  -3.05399E+01 -3.17994E+01 -3.06680E+01 -2.90582E+01 -2.85526E+01 -2.69009E+01 -2.77680E+01 -3.03061E+01 -2.99118E+01 -2.86485E+01
  -2.84128E+01 -3.22498E+01 -2.82485E+01 -2.81089E+01 -2.92461E+01 -2.88925E+01 -3.02417E+01 -2.38140E+01 -3.02414E+01 -2.94576E+01
  -2.50780E+01 -2.35972E+01 -1.94599E+01 -2.15841E+01 -1.91055E+01 -2.07991E+01 -2.22238E+01 -2.35647E+01 -2.61053E+01 -2.59005E+01
  -2.47423E+01 -2.18685E+01 -2.63271E+01 -2.49225E+01 -2.43220E+01 -2.70485E+01 -2.58700E+01 -2.46872E+01 -3.06947E+01 -2.64772E+01
  -2.95425E+01 -2.54985E+01 -2.19194E+01 -2.16344E+01 -2.03190E+01 -1.68147E+01 -1.57365E+01 -1.93002E+01 -1.47045E+01 -1.79254E+01
  -1.70677E+01 -2.01616E+01 -2.06365E+01 -2.20339E+01 -2.34536E+01 -1.97368E+01 -2.35936E+01 -2.50200E+01 -2.31936E+01 -2.09013E+01
  -2.34152E+01 -1.83301E+01 -2.04166E+01 -2.32384E+01 -2.45480E+01 -2.20601E+01 -1.85362E+01 -1.88704E+01 -2.11043E+01 -1.81900E+01
  -1.88317E+01 -1.96032E+01 -1.91780E+01 -1.81854E+01 -1.90831E+01 -1.89920E+01 -2.07413E+01 -1.93014E+01 -1.89771E+01 -1.87888E+01
  -1.93549E+01 -2.30749E+01 -2.01608E+01 -1.74890E+01 -1.78975E+01 -1.94318E+01 -1.87522E+01 -2.22454E+01 -1.65752E+01 -1.98803E+01
  -1.65655E+01 -1.87778E+01 -2.20344E+01 -1.45012E+01 -2.07690E+01 -1.86017E+01 -2.15915E+01 -1.65074E+01 -1.68312E+01 -1.55493E+01
  -1.56443E+01 -1.52020E+01 -1.91915E+01 -1.45625E+01 -1.82095E+01 -1.47873E+01 -1.56107E+01 -1.53567E+01 -1.56500E+01 -1.89576E+01
  -1.56174E+01 -1.38383E+01 -1.85317E+01 -1.33672E+01 -1.39697E+01 -1.68990E+01 -1.56405E+01 -1.48908E+01 -1.63551E+01 -1.90673E+01
  -1.58693E+01 -1.50184E+01 -1.82831E+01 -1.85713E+01 -1.62732E+01 -1.40174E+01 -1.60187E+01 -1.81265E+01 -1.50130E+01 -1.55953E+01
  -1.52583E+01 -1.66617E+01 -1.33516E+01 -9.42557E+00 -1.29939E+01 -1.35858E+01 -1.17531E+01 -1.49967E+01 -1.18787E+01 -1.48120E+01
  -1.88513E+01 -1.49336E+01 -1.50465E+01 -1.35142E+01 -1.57449E+01 -1.48477E+01 -1.70815E+01 -1.41125E+01 -1.08192E+01 -1.63671E+01
  -1.30975E+01 -1.72235E+01 -1.35606E+01 -1.47683E+01 -1.49558E+01 -1.21844E+01 -1.35828E+01 -1.47903E+01 -1.84565E+01 -1.57438E+01
  -1.42398E+01 -1.24481E+01 -1.11349E+01 -1.45526E+01 -1.22903E+01 -1.41055E+01 -1.43827E+01 -1.19130E+01 -1.43162E+01 -1.72641E+01
  -1.32185E+01 -1.33085E+01 -1.51066E+01 -1.76023E+01 -1.45377E+01 -1.48654E+01 -7.86721E+00 -6.39541E+00 -4.32363E+00  3.76310E-01
   1.35520E+00 -4.25062E-02  3.66093E-01 -7.78860E+00 -5.02051E+00 -1.28456E+01 -1.11535E+01 -1.38892E+01 -1.28048E+01 -1.53353E+01
  -1.40409E+01 -1.42900E+01 -1.28154E+01 -1.38955E+01 -1.36308E+01 -1.16378E+01 -1.65473E+01 -1.19713E+01 -1.54628E+01 -9.57958E+00
  -1.51215E+01 -7.03272E+00 -1.35691E+01 -1.24635E+01 -1.04254E+01 -1.15841E+01 -1.19551E+01 -8.48357E+00 -9.94543E+00 -8.44443E+00
  -1.04347E+01 -9.76449E+00 -1.00230E+01 -9.66513E+00 -1.30387E+01 -9.03835E+00 -1.14159E+01 -1.19764E+01 -9.32502E+00 -1.00406E+01
  -7.21525E+00 -7.29821E+00 -4.80389E+00 -8.67434E+00 -8.98314E+00 -9.27790E+00 -4.11513E+00 -6.78236E+00 -7.02131E+00 -8.37086E+00
  -9.15835E+00 -7.08765E+00 -7.78430E+00 -7.44299E+00 -1.20262E+01 -1.06736E+01 -8.51459E+00 -7.87604E+00 -8.27325E+00 -5.81700E+00
  -1.10905E+01 -1.02415E+01 -1.18027E+01 -1.08836E+01 -1.35703E+01 -1.50251E+01 -1.50860E+01 -1.71302E+01 -1.67649E+01 -1.72855E+01
  -1.80128E+01 -1.96682E+01 -2.22207E+01 -2.13287E+01 -2.41709E+01 -1.80042E+01 -2.39273E+01 -2.24758E+01 -2.31073E+01 -2.33852E+01
  -2.20170E+01 -2.06312E+01 -2.25051E+01 -2.09754E+01 -2.18605E+01 -2.29402E+01 -1.84821E+01 -2.09275E+01 -1.81948E+01 -1.79475E+01
  -1.62681E+01 -1.43098E+01 -1.89587E+01 -1.53845E+01 -1.60855E+01 -1.79737E+01 -1.94836E+01 -1.59526E+01 -1.46914E+01 -1.57135E+01
  -1.96439E+01 -1.45705E+01 -1.42162E+01 -1.78042E+01 -1.26996E+01 -1.73726E+01 -1.44312E+01 -1.54621E+01 -1.68809E+01 -1.30890E+01
  -1.44931E+01 -1.49282E+01 -1.38938E+01 -1.43218E+01 -1.08599E+01 -1.34664E+01 -1.40825E+01 -1.51396E+01 -1.66718E+01 -1.04001E+01
  -1.20508E+01 -1.57795E+01 -1.38198E+01 -1.33876E+01 -1.16733E+01 -1.08447E+01 -1.40102E+01 -1.01552E+01 -1.31493E+01 -1.37416E+01
  -1.33409E+01 -1.35936E+01 -1.21467E+01 -1.24340E+01 -1.04590E+01 -1.58106E+01 -9.31754E+00 -1.05933E+01 -1.34673E+01 -1.75970E+01
  -1.40743E+01 -1.36285E+01 -1.09235E+01 -1.35759E+01 -1.47903E+01 -9.90720E+00 -9.38675E+00 -9.79370E+00 -1.20519E+01 -1.15782E+01
  -1.06351E+01 -9.40872E+00 -1.33255E+01 -9.96945E+00 -9.63266E+00 -1.16022E+01 -1.31134E+01 -1.29511E+01 -1.34484E+01 -1.06553E+01
  -1.39884E+01 -8.96064E+00 -1.24006E+01 -8.75200E+00 -1.42245E+01 -1.13775E+01 -1.15605E+01 -1.20601E+01 -1.05398E+01 -1.15293E+01
  -1.25944E+01 -1.41104E+01 -1.12549E+01 -9.06909E+00 -1.09146E+01 -7.04243E+00 -1.29017E+01 -1.16979E+01 -7.78118E+00 -1.17049E+01
  -1.19291E+01 -8.58806E+00 -1.04736E+01 -6.14866E+00 -9.52240E+00 -8.20108E+00 -6.32380E+00 -8.75944E+00 -6.93144E+00 -7.14951E+00
  -1.24196E+01 -8.83263E+00 -7.93403E+00 -8.61168E+00 -9.94343E+00 -1.00868E+01 -1.17534E+01 -9.32282E+00 -8.05125E+00 -8.14875E+00
  -1.02276E+01 -1.05332E+01 -1.10045E+01 -8.88832E+00 -4.73052E+00 -8.27083E+00 -7.38904E+00 -1.16777E+01 -1.03789E+01 -7.83301E+00
  -1.06949E+01 -8.69413E+00 -8.06955E+00 -4.72920E+00 -7.26682E+00 -6.48583E+00 -7.33879E+00 -9.56335E+00 -9.38449E+00 -6.63202E+00
  -4.00579E+00 -6.73717E+00 -8.22083E+00 -9.40477E+00 -5.38726E+00 -6.68159E+00 -5.52238E+00 -4.92587E+00 -8.43915E+00 -4.89593E+00
  -3.76449E+00 -6.93190E+00 -9.77712E+00 -6.25998E+00 -9.03702E+00 -4.51316E+00 -4.54474E+00 -6.92953E+00
 NY points of the fit to the data follow
  -6.43081E+01 -6.40394E+01 -6.36574E+01 -6.31593E+01 -6.26216E+01 -6.20888E+01 -6.15181E+01 -6.07122E+01 -5.95717E+01 -5.83268E+01
  -5.72605E+01 -5.65158E+01 -5.60509E+01 -5.57838E+01 -5.56477E+01 -5.56031E+01 -5.56131E+01 -5.55583E+01 -5.52973E+01 -5.48533E+01
  -5.43739E+01 -5.39053E+01 -5.34186E+01 -5.28989E+01 -5.24182E+01 -5.19516E+01 -5.12413E+01 -5.02602E+01 -4.91874E+01 -4.81983E+01
  -4.73458E+01 -4.66736E+01 -4.62439E+01 -4.59770E+01 -4.58568E+01 -4.59311E+01 -4.60483E+01 -4.60413E+01 -4.59360E+01 -4.57340E+01
  -4.53934E+01 -4.49251E+01 -4.42712E+01 -4.31538E+01 -4.15419E+01 -3.99028E+01 -3.87612E+01 -3.82595E+01 -3.83088E+01 -3.87314E+01
  -3.93247E+01 -3.99283E+01 -4.04001E+01 -4.05743E+01 -4.03300E+01 -3.97129E+01 -3.88904E+01 -3.79878E+01 -3.71494E+01 -3.65155E+01
  -3.61545E+01 -3.60538E+01 -3.61020E+01 -3.61712E+01 -3.61856E+01 -3.60624E+01 -3.57784E+01 -3.53363E+01 -3.47541E+01 -3.41355E+01
  -3.35902E+01 -3.31723E+01 -3.28538E+01 -3.26114E+01 -3.24229E+01 -3.22787E+01 -3.21627E+01 -3.20640E+01 -3.19328E+01 -3.17491E+01
  -3.15371E+01 -3.12916E+01 -3.09447E+01 -3.05476E+01 -3.02777E+01 -3.02122E+01 -3.02839E+01 -3.03664E+01 -3.03761E+01 -3.02604E+01
  -3.00168E+01 -2.96829E+01 -2.92527E+01 -2.87818E+01 -2.84011E+01 -2.81763E+01 -2.80517E+01 -2.79444E+01 -2.77159E+01 -2.67183E+01
  -2.47344E+01 -2.24859E+01 -2.07974E+01 -2.00458E+01 -2.01269E+01 -2.08673E+01 -2.20000E+01 -2.32845E+01 -2.45695E+01 -2.55652E+01
  -2.59276E+01 -2.58322E+01 -2.56457E+01 -2.54495E+01 -2.52561E+01 -2.50675E+01 -2.48930E+01 -2.47271E+01 -2.45540E+01 -2.43609E+01
  -2.41333E+01 -2.38463E+01 -2.33540E+01 -2.21135E+01 -2.01984E+01 -1.83113E+01 -1.70928E+01 -1.67207E+01 -1.70057E+01 -1.77656E+01
  -1.87428E+01 -1.98389E+01 -2.09740E+01 -2.18964E+01 -2.23339E+01 -2.24750E+01 -2.24975E+01 -2.23885E+01 -2.21557E+01 -2.18471E+01
  -2.15042E+01 -2.11835E+01 -2.09286E+01 -2.07475E+01 -2.06387E+01 -2.05809E+01 -2.05407E+01 -2.04954E+01 -2.04340E+01 -2.03562E+01
  -2.02751E+01 -2.01931E+01 -2.01013E+01 -1.99922E+01 -1.98693E+01 -1.97408E+01 -1.96191E+01 -1.95444E+01 -1.95276E+01 -1.95271E+01
  -1.94903E+01 -1.93702E+01 -1.91875E+01 -1.89927E+01 -1.88260E+01 -1.86970E+01 -1.85952E+01 -1.85261E+01 -1.84926E+01 -1.84759E+01
  -1.84550E+01 -1.84221E+01 -1.83940E+01 -1.84018E+01 -1.83934E+01 -1.83175E+01 -1.81777E+01 -1.80398E+01 -1.79418E+01 -1.78557E+01
  -1.77504E+01 -1.76230E+01 -1.75116E+01 -1.74619E+01 -1.74423E+01 -1.73414E+01 -1.71096E+01 -1.67689E+01 -1.63965E+01 -1.60601E+01
  -1.57994E+01 -1.56361E+01 -1.55659E+01 -1.55799E+01 -1.56899E+01 -1.58278E+01 -1.59124E+01 -1.59145E+01 -1.58465E+01 -1.57278E+01
  -1.55369E+01 -1.52941E+01 -1.50426E+01 -1.48597E+01 -1.47791E+01 -1.48050E+01 -1.49279E+01 -1.51136E+01 -1.53278E+01 -1.55328E+01
  -1.56463E+01 -1.55459E+01 -1.51240E+01 -1.45423E+01 -1.40601E+01 -1.38326E+01 -1.38975E+01 -1.42409E+01 -1.48706E+01 -1.56618E+01
  -1.63489E+01 -1.66545E+01 -1.64965E+01 -1.59616E+01 -1.52761E+01 -1.45956E+01 -1.40265E+01 -1.36697E+01 -1.35744E+01 -1.36912E+01
  -1.38592E+01 -1.39289E+01 -1.38673E+01 -1.36893E+01 -1.34331E+01 -1.32086E+01 -1.31234E+01 -1.32176E+01 -1.34570E+01 -1.37655E+01
  -1.40247E+01 -1.41247E+01 -1.40168E+01 -1.37415E+01 -1.33648E+01 -1.29778E+01 -1.26951E+01 -1.25773E+01 -1.25930E+01 -1.26557E+01
  -1.26975E+01 -1.26491E+01 -1.24807E+01 -1.22032E+01 -1.18455E+01 -1.13108E+01 -9.79938E+00 -6.65529E+00 -3.07315E+00 -5.50773E-01
   1.81928E-01 -6.46112E-01 -2.59229E+00 -5.22915E+00 -8.02614E+00 -1.07564E+01 -1.29864E+01 -1.41312E+01 -1.42912E+01 -1.42408E+01
  -1.41473E+01 -1.40187E+01 -1.38806E+01 -1.37475E+01 -1.36257E+01 -1.35300E+01 -1.34710E+01 -1.34504E+01 -1.34601E+01 -1.34868E+01
  -1.35123E+01 -1.35249E+01 -1.35211E+01 -1.34999E+01 -1.34648E+01 -1.34198E+01 -1.33661E+01 -1.33053E+01 -1.32362E+01 -1.31539E+01
  -1.30540E+01 -1.29318E+01 -1.27813E+01 -1.25966E+01 -1.23740E+01 -1.21108E+01 -1.18046E+01 -1.14552E+01 -1.10651E+01 -1.06387E+01
  -1.01827E+01 -9.70743E+00 -9.22578E+00 -8.75301E+00 -8.30617E+00 -7.90340E+00 -7.56290E+00 -7.30203E+00 -7.13621E+00 -7.07771E+00
  -7.13469E+00 -7.31065E+00 -7.60399E+00 -8.00801E+00 -8.51127E+00 -9.09828E+00 -9.75038E+00 -1.04469E+01 -1.11666E+01 -1.18888E+01
  -1.25943E+01 -1.32666E+01 -1.38922E+01 -1.44612E+01 -1.49671E+01 -1.54069E+01 -1.57808E+01 -1.60913E+01 -1.63429E+01 -1.65414E+01
  -1.66935E+01 -1.68059E+01 -1.68855E+01 -1.69384E+01 -1.69703E+01 -1.69860E+01 -1.69894E+01 -1.69839E+01 -1.69720E+01 -1.69556E+01
  -1.69360E+01 -1.69142E+01 -1.68908E+01 -1.68662E+01 -1.68406E+01 -1.68141E+01 -1.67865E+01 -1.67578E+01 -1.67279E+01 -1.66968E+01
  -1.66643E+01 -1.66302E+01 -1.65946E+01 -1.65573E+01 -1.65183E+01 -1.64775E+01 -1.64350E+01 -1.63906E+01 -1.63443E+01 -1.62960E+01
  -1.62459E+01 -1.61937E+01 -1.61395E+01 -1.60831E+01 -1.60245E+01 -1.59639E+01 -1.59011E+01 -1.58360E+01 -1.57686E+01 -1.56986E+01
  -1.56260E+01 -1.55507E+01 -1.54725E+01 -1.53910E+01 -1.53062E+01 -1.52178E+01 -1.51255E+01 -1.50292E+01 -1.49285E+01 -1.48233E+01
  -1.47133E+01 -1.45983E+01 -1.44782E+01 -1.43528E+01 -1.42222E+01 -1.40863E+01 -1.39453E+01 -1.37996E+01 -1.36497E+01 -1.34963E+01
  -1.33403E+01 -1.31828E+01 -1.30251E+01 -1.28688E+01 -1.27157E+01 -1.25674E+01 -1.24257E+01 -1.22926E+01 -1.21697E+01 -1.20584E+01
  -1.19601E+01 -1.18756E+01 -1.18052E+01 -1.17492E+01 -1.17070E+01 -1.16778E+01 -1.16603E+01 -1.16530E+01 -1.16539E+01 -1.16611E+01
  -1.16724E+01 -1.16857E+01 -1.16990E+01 -1.17104E+01 -1.17184E+01 -1.17218E+01 -1.17195E+01 -1.17109E+01 -1.16955E+01 -1.16732E+01
  -1.16441E+01 -1.16084E+01 -1.15666E+01 -1.15191E+01 -1.14663E+01 -1.14090E+01 -1.13477E+01 -1.12830E+01 -1.12153E+01 -1.11452E+01
  -1.10730E+01 -1.09992E+01 -1.09240E+01 -1.08478E+01 -1.07707E+01 -1.06930E+01 -1.06148E+01 -1.05363E+01 -1.04575E+01 -1.03786E+01
  -1.02997E+01 -1.02206E+01 -1.01416E+01 -1.00627E+01 -9.98384E+00 -9.90510E+00 -9.82646E+00 -9.74794E+00 -9.66955E+00 -9.59132E+00
  -9.51324E+00 -9.43531E+00 -9.35751E+00 -9.27984E+00 -9.20232E+00 -9.12497E+00 -9.04778E+00 -8.97072E+00 -8.89380E+00 -8.81702E+00
  -8.74041E+00 -8.66396E+00 -8.58765E+00 -8.51148E+00 -8.43543E+00 -8.35953E+00 -8.28379E+00 -8.20819E+00 -8.13272E+00 -8.05736E+00
  -7.98213E+00 -7.90703E+00 -7.83207E+00 -7.75723E+00 -7.68249E+00 -7.60786E+00 -7.53333E+00 -7.45893E+00 -7.38464E+00 -7.31044E+00
  -7.23633E+00 -7.16230E+00 -7.08836E+00 -7.01452E+00 -6.94077E+00 -6.86707E+00 -6.79343E+00 -6.71985E+00 -6.64634E+00 -6.57288E+00
  -6.49947E+00 -6.42607E+00 -6.35269E+00 -6.27932E+00 -6.20598E+00 -6.13263E+00 -6.05924E+00 -5.98580E+00
 NY background values follow
    -6.537E+01   -6.486E+01   -6.435E+01   -6.384E+01   -6.333E+01   -6.282E+01   -6.231E+01   -6.180E+01   -6.130E+01   -6.079E+01
    -6.028E+01   -5.977E+01   -5.927E+01   -5.876E+01   -5.826E+01   -5.776E+01   -5.726E+01   -5.676E+01   -5.626E+01   -5.577E+01
    -5.527E+01   -5.478E+01   -5.429E+01   -5.380E+01   -5.332E+01   -5.284E+01   -5.236E+01   -5.188E+01   -5.141E+01   -5.094E+01
    -5.047E+01   -5.000E+01   -4.954E+01   -4.909E+01   -4.863E+01   -4.818E+01   -4.773E+01   -4.729E+01   -4.685E+01   -4.642E+01
    -4.599E+01   -4.556E+01   -4.514E+01   -4.473E+01   -4.432E+01   -4.391E+01   -4.351E+01   -4.311E+01   -4.272E+01   -4.234E+01
    -4.195E+01   -4.158E+01   -4.121E+01   -4.084E+01   -4.048E+01   -4.012E+01   -3.977E+01   -3.942E+01   -3.907E+01   -3.873E+01
    -3.840E+01   -3.807E+01   -3.774E+01   -3.742E+01   -3.710E+01   -3.678E+01   -3.647E+01   -3.617E+01   -3.587E+01   -3.557E+01
    -3.527E+01   -3.498E+01   -3.469E+01   -3.441E+01   -3.413E+01   -3.385E+01   -3.358E+01   -3.331E+01   -3.304E+01   -3.278E+01
    -3.252E+01   -3.227E+01   -3.201E+01   -3.176E+01   -3.152E+01   -3.127E+01   -3.103E+01   -3.079E+01   -3.056E+01   -3.032E+01
    -3.009E+01   -2.987E+01   -2.964E+01   -2.942E+01   -2.920E+01   -2.899E+01   -2.877E+01   -2.856E+01   -2.835E+01   -2.814E+01
    -2.794E+01   -2.774E+01   -2.754E+01   -2.734E+01   -2.715E+01   -2.695E+01   -2.676E+01   -2.657E+01   -2.639E+01   -2.620E+01
    -2.602E+01   -2.584E+01   -2.566E+01   -2.549E+01   -2.531E+01   -2.514E+01   -2.497E+01   -2.480E+01   -2.464E+01   -2.447E+01
    -2.431E+01   -2.415E+01   -2.399E+01   -2.383E+01   -2.368E+01   -2.352E+01   -2.337E+01   -2.322E+01   -2.307E+01   -2.292E+01
    -2.277E+01   -2.263E+01   -2.248E+01   -2.234E+01   -2.220E+01   -2.206E+01   -2.192E+01   -2.179E+01   -2.165E+01   -2.152E+01
    -2.138E+01   -2.125E+01   -2.112E+01   -2.099E+01   -2.086E+01   -2.074E+01   -2.061E+01   -2.049E+01   -2.036E+01   -2.024E+01
    -2.012E+01   -2.001E+01   -1.989E+01   -1.977E+01   -1.966E+01   -1.955E+01   -1.943E+01   -1.932E+01   -1.921E+01   -1.911E+01
    -1.900E+01   -1.890E+01   -1.879E+01   -1.869E+01   -1.859E+01   -1.849E+01   -1.840E+01   -1.830E+01   -1.821E+01   -1.811E+01
    -1.802E+01   -1.793E+01   -1.784E+01   -1.776E+01   -1.767E+01   -1.759E+01   -1.750E+01   -1.742E+01   -1.734E+01   -1.726E+01
    -1.719E+01   -1.711E+01   -1.704E+01   -1.697E+01   -1.690E+01   -1.683E+01   -1.676E+01   -1.669E+01   -1.663E+01   -1.656E+01
    -1.650E+01   -1.644E+01   -1.638E+01   -1.632E+01   -1.626E+01   -1.621E+01   -1.615E+01   -1.609E+01   -1.604E+01   -1.599E+01
    -1.593E+01   -1.588E+01   -1.583E+01   -1.578E+01   -1.573E+01   -1.568E+01   -1.563E+01   -1.559E+01   -1.554E+01   -1.549E+01
    -1.545E+01   -1.540E+01   -1.536E+01   -1.531E+01   -1.527E+01   -1.522E+01   -1.518E+01   -1.514E+01   -1.509E+01   -1.505E+01
    -1.501E+01   -1.496E+01   -1.492E+01   -1.488E+01   -1.484E+01   -1.479E+01   -1.475E+01   -1.471E+01   -1.466E+01   -1.462E+01
    -1.458E+01   -1.453E+01   -1.449E+01   -1.445E+01   -1.441E+01   -1.436E+01   -1.432E+01   -1.428E+01   -1.424E+01   -1.420E+01
    -1.416E+01   -1.412E+01   -1.408E+01   -1.405E+01   -1.401E+01   -1.397E+01   -1.394E+01   -1.391E+01   -1.387E+01   -1.384E+01
    -1.381E+01   -1.378E+01   -1.376E+01   -1.373E+01   -1.371E+01   -1.368E+01   -1.366E+01   -1.364E+01   -1.362E+01   -1.361E+01
    -1.359E+01   -1.358E+01   -1.357E+01   -1.356E+01   -1.355E+01   -1.355E+01   -1.354E+01   -1.354E+01   -1.354E+01   -1.355E+01
    -1.355E+01   -1.356E+01   -1.357E+01   -1.358E+01   -1.360E+01   -1.362E+01   -1.363E+01   -1.366E+01   -1.368E+01   -1.371E+01
    -1.373E+01   -1.376E+01   -1.379E+01   -1.382E+01   -1.386E+01   -1.389E+01   -1.393E+01   -1.397E+01   -1.401E+01   -1.405E+01
    -1.409E+01   -1.413E+01   -1.418E+01   -1.422E+01   -1.427E+01   -1.431E+01   -1.436E+01   -1.441E+01   -1.446E+01   -1.450E+01
    -1.455E+01   -1.460E+01   -1.465E+01   -1.470E+01   -1.475E+01   -1.480E+01   -1.485E+01   -1.490E+01   -1.495E+01   -1.500E+01
    -1.505E+01   -1.510E+01   -1.515E+01   -1.520E+01   -1.524E+01   -1.529E+01   -1.534E+01   -1.538E+01   -1.542E+01   -1.547E+01
    -1.551E+01   -1.555E+01   -1.559E+01   -1.563E+01   -1.567E+01   -1.571E+01   -1.574E+01   -1.578E+01   -1.581E+01   -1.584E+01
    -1.588E+01   -1.590E+01   -1.593E+01   -1.596E+01   -1.598E+01   -1.601E+01   -1.603E+01   -1.605E+01   -1.607E+01   -1.608E+01
    -1.610E+01   -1.611E+01   -1.612E+01   -1.613E+01   -1.614E+01   -1.614E+01   -1.614E+01   -1.615E+01   -1.614E+01   -1.614E+01
    -1.613E+01   -1.613E+01   -1.611E+01   -1.610E+01   -1.609E+01   -1.607E+01   -1.605E+01   -1.602E+01   -1.600E+01   -1.597E+01
    -1.594E+01   -1.591E+01   -1.587E+01   -1.583E+01   -1.579E+01   -1.574E+01   -1.570E+01   -1.565E+01   -1.559E+01   -1.554E+01
    -1.548E+01   -1.543E+01   -1.537E+01   -1.530E+01   -1.524E+01   -1.517E+01   -1.510E+01   -1.503E+01   -1.496E+01   -1.489E+01
    -1.481E+01   -1.474E+01   -1.466E+01   -1.458E+01   -1.450E+01   -1.442E+01   -1.434E+01   -1.426E+01   -1.417E+01   -1.409E+01
    -1.400E+01   -1.392E+01   -1.383E+01   -1.374E+01   -1.365E+01   -1.357E+01   -1.348E+01   -1.339E+01   -1.330E+01   -1.321E+01
    -1.312E+01   -1.303E+01   -1.294E+01   -1.285E+01   -1.276E+01   -1.267E+01   -1.259E+01   -1.250E+01   -1.241E+01   -1.232E+01
    -1.224E+01   -1.215E+01   -1.207E+01   -1.198E+01   -1.189E+01   -1.181E+01   -1.173E+01   -1.164E+01   -1.156E+01   -1.148E+01
    -1.139E+01   -1.131E+01   -1.123E+01   -1.115E+01   -1.107E+01   -1.099E+01   -1.090E+01   -1.082E+01   -1.074E+01   -1.066E+01
    -1.059E+01   -1.051E+01   -1.043E+01   -1.035E+01   -1.027E+01   -1.019E+01   -1.011E+01   -1.004E+01   -9.960E+00   -9.883E+00
    -9.806E+00   -9.730E+00   -9.653E+00   -9.577E+00   -9.501E+00   -9.425E+00   -9.350E+00   -9.274E+00   -9.199E+00   -9.124E+00
    -9.049E+00   -8.974E+00   -8.899E+00   -8.825E+00   -8.750E+00   -8.676E+00   -8.602E+00   -8.528E+00   -8.454E+00   -8.380E+00
    -8.307E+00   -8.233E+00   -8.160E+00   -8.087E+00   -8.014E+00   -7.941E+00   -7.868E+00   -7.795E+00   -7.722E+00   -7.650E+00
    -7.577E+00   -7.505E+00   -7.433E+00   -7.361E+00   -7.289E+00   -7.217E+00   -7.145E+00   -7.073E+00   -7.002E+00   -6.930E+00
    -6.859E+00   -6.788E+00   -6.717E+00   -6.646E+00   -6.575E+00   -6.504E+00   -6.433E+00   -6.362E+00   -6.291E+00   -6.221E+00
    -6.150E+00   -6.080E+00   -6.010E+00   -5.939E+00   -5.869E+00   -5.799E+00   -5.729E+00   -5.659E+00
 Asp      Conc. = 3.53E+01
