 LCModel (Version 6.3-1L) Copyright: S.W. Provencher.          Ref.: Magn. Reson. Med. 30:672-679 (1993).                
 Slice#1 Row#9 Col#12  PD_05_press_2_raw_act
 36 lines in following concentration table = NCONC+1
    Conc.  %SD /Cr+PCr  Metabolite                                         
   10.781 126%   0.000 Ala                                                 
    2.144 164%   0.000 Asp                                                 
    0.000 999%   0.000 Cr                                                  
    0.000 999%   0.000 PCr                                                 
    1.417 148%   0.000 GABA                                                
    1.199 175%   0.000 Glc                                                 
    0.000 999%   0.000 Gln                                                 
   26.328 114%   0.000 Glu                                                 
    0.000 999%   0.000 GPC                                                 
    3.913 105%   0.000 PCh                                                 
    0.000 999%   0.000 GSH                                                 
   42.068 105%   0.000 Ins                                                 
    0.000 999%   0.000 Lac                                                 
   31.434  91%   0.000 NAA                                                 
    0.000 999%   0.000 NAAG                                                
    0.456 152%   0.000 Scyllo                                              
    2.096 166%   0.000 Tau                                                 
    5.422 146%   0.000 -CrCH2                                              
    3.913 105%   0.000 GPC+PCh                                             
   31.434  91%   0.000 NAA+NAAG                                            
    0.000 999%   0.000 Cr+PCr                                              
   26.328 114%   0.000 Glu+Gln                                             
 5.28E+03  37%   0.000 Lip13a                                              
   13.460 999%   0.000 Lip13b                                              
 2.93E+03  19%   0.000 Lip09                                               
 5.00E+03  15%   0.000 MM09                                                
  976.049  40%   0.000 Lip20                                               
  904.970  45%   0.000 MM20                                                
 4.81E+03  23%   0.000 MM12                                                
 8.20E+03  16%   0.000 MM14                                                
 5.74E+03  17%   0.000 MM17                                                
 5.29E+03  36%   0.000 Lip13a+Lip13b                                       
 1.83E+04   9%   0.000 MM14+Lip13a+Lip13b+MM12                             
 7.93E+03  10%   0.000 MM09+Lip09                                          
 1.88E+03  20%   0.000 MM20+Lip20                                          
   6 lines in following misc. output table
  FWHM = 0.069 ppm    S/N =   9                                            
  Data shift = 0.023 ppm                                                   
  Ph:  25 deg      22.7 deg/ppm                                            
  alphaB,S = 1.1E+00,   3.7E-01                                            
   14 spline knots.   Ns = 5(1)                                            
   4 inflections.     3 extrema                                            
  498 points on ppm-axis = NY
      4.000000     3.992357     3.984714     3.977070     3.969427     3.961784     3.954141     3.946497     3.938854     3.931211
      3.923568     3.915925     3.908281     3.900638     3.892995     3.885352     3.877708     3.870065     3.862422     3.854779
      3.847136     3.839492     3.831849     3.824206     3.816563     3.808919     3.801276     3.793633     3.785990     3.778347
      3.770703     3.763060     3.755417     3.747774     3.740130     3.732487     3.724844     3.717201     3.709558     3.701914
      3.694271     3.686628     3.678985     3.671341     3.663698     3.656055     3.648412     3.640769     3.633125     3.625482
      3.617839     3.610196     3.602552     3.594909     3.587266     3.579623     3.571980     3.564336     3.556693     3.549050
      3.541407     3.533763     3.526120     3.518477     3.510834     3.503191     3.495547     3.487904     3.480261     3.472618
      3.464974     3.457331     3.449688     3.442045     3.434402     3.426758     3.419115     3.411472     3.403829     3.396185
      3.388542     3.380899     3.373256     3.365613     3.357969     3.350326     3.342683     3.335040     3.327396     3.319753
      3.312110     3.304467     3.296824     3.289180     3.281537     3.273894     3.266251     3.258607     3.250964     3.243321
      3.235678     3.228034     3.220391     3.212748     3.205105     3.197462     3.189818     3.182175     3.174532     3.166889
      3.159245     3.151602     3.143959     3.136316     3.128673     3.121029     3.113386     3.105743     3.098100     3.090456
      3.082813     3.075170     3.067527     3.059884     3.052240     3.044597     3.036954     3.029311     3.021667     3.014024
      3.006381     2.998738     2.991095     2.983451     2.975808     2.968165     2.960522     2.952878     2.945235     2.937592
      2.929949     2.922306     2.914662     2.907019     2.899376     2.891733     2.884089     2.876446     2.868803     2.861160
      2.853517     2.845873     2.838230     2.830587     2.822944     2.815300     2.807657     2.800014     2.792371     2.784728
      2.777084     2.769441     2.761798     2.754155     2.746511     2.738868     2.731225     2.723582     2.715939     2.708295
      2.700652     2.693009     2.685366     2.677722     2.670079     2.662436     2.654793     2.647150     2.639506     2.631863
      2.624220     2.616577     2.608933     2.601290     2.593647     2.586004     2.578361     2.570717     2.563074     2.555431
      2.547788     2.540144     2.532501     2.524858     2.517215     2.509572     2.501928     2.494285     2.486642     2.478999
      2.471355     2.463712     2.456069     2.448426     2.440783     2.433139     2.425496     2.417853     2.410210     2.402566
      2.394923     2.387280     2.379637     2.371994     2.364350     2.356707     2.349064     2.341421     2.333777     2.326134
      2.318491     2.310848     2.303205     2.295561     2.287918     2.280275     2.272632     2.264988     2.257345     2.249702
      2.242059     2.234416     2.226772     2.219129     2.211486     2.203843     2.196199     2.188556     2.180913     2.173270
      2.165627     2.157983     2.150340     2.142697     2.135054     2.127410     2.119767     2.112124     2.104481     2.096838
      2.089194     2.081551     2.073908     2.066265     2.058621     2.050978     2.043335     2.035692     2.028049     2.020405
      2.012762     2.005119     1.997476     1.989833     1.982190     1.974546     1.966903     1.959260     1.951617     1.943974
      1.936331     1.928688     1.921045     1.913402     1.905759     1.898115     1.890472     1.882829     1.875186     1.867543
      1.859900     1.852257     1.844614     1.836971     1.829327     1.821684     1.814041     1.806398     1.798755     1.791112
      1.783469     1.775826     1.768183     1.760540     1.752896     1.745253     1.737610     1.729967     1.722324     1.714681
      1.707038     1.699395     1.691752     1.684108     1.676465     1.668822     1.661179     1.653536     1.645893     1.638250
      1.630607     1.622964     1.615321     1.607677     1.600034     1.592391     1.584748     1.577105     1.569462     1.561819
      1.554176     1.546533     1.538890     1.531246     1.523603     1.515960     1.508317     1.500674     1.493031     1.485388
      1.477745     1.470102     1.462458     1.454815     1.447172     1.439529     1.431886     1.424243     1.416600     1.408957
      1.401314     1.393671     1.386027     1.378384     1.370741     1.363098     1.355455     1.347812     1.340169     1.332526
      1.324883     1.317240     1.309596     1.301953     1.294310     1.286667     1.279024     1.271381     1.263738     1.256095
      1.248452     1.240808     1.233165     1.225522     1.217879     1.210236     1.202593     1.194950     1.187307     1.179664
      1.172021     1.164377     1.156734     1.149091     1.141448     1.133805     1.126162     1.118519     1.110876     1.103233
      1.095590     1.087946     1.080303     1.072660     1.065017     1.057374     1.049731     1.042088     1.034445     1.026802
      1.019158     1.011515     1.003872     0.996229     0.988586     0.980943     0.973300     0.965657     0.958014     0.950371
      0.942727     0.935084     0.927441     0.919798     0.912155     0.904512     0.896869     0.889226     0.881583     0.873940
      0.866296     0.858653     0.851010     0.843367     0.835724     0.828081     0.820438     0.812795     0.805152     0.797508
      0.789865     0.782222     0.774579     0.766936     0.759293     0.751650     0.744007     0.736364     0.728721     0.721077
      0.713434     0.705791     0.698148     0.690505     0.682862     0.675219     0.667576     0.659933     0.652290     0.644646
      0.637003     0.629360     0.621717     0.614074     0.606431     0.598788     0.591145     0.583502     0.575858     0.568215
      0.560572     0.552929     0.545286     0.537643     0.530000     0.522357     0.514714     0.507071     0.499427     0.491784
      0.484141     0.476498     0.468855     0.461212     0.453569     0.445925     0.438282     0.430639     0.422996     0.415353
      0.407710     0.400067     0.392424     0.384780     0.377137     0.369494     0.361851     0.354208     0.346565     0.338922
      0.331278     0.323635     0.315992     0.308349     0.300706     0.293063     0.285420     0.277777     0.270133     0.262490
      0.254847     0.247204     0.239561     0.231918     0.224275     0.216631     0.208988     0.201345
 NY phased data points follow
   5.93460E-01 -2.94844E+00 -8.92436E-01  6.02678E-01  1.57554E+00  2.75581E+00 -3.74480E+00  3.14437E-01 -1.97736E+00  3.39317E+00
   1.45609E+00  2.81332E+00 -6.25590E-01 -7.09556E-02  1.19462E+00  2.85465E+00  9.41655E-01  1.03063E-01  3.33915E+00 -3.37324E+00
  -2.44108E+00  7.19219E-01 -4.30390E-01  3.97036E+00  1.62721E+00  5.69225E-01 -1.97018E+00 -2.55089E-01 -1.93108E+00  1.98056E+00
   4.39669E+00 -5.32870E-01  4.12799E+00  1.41771E+00  2.39488E+00  1.51862E+00  4.25012E+00  1.97709E+00  1.06570E+00  4.86072E+00
  -1.02715E-02  2.77758E+00  2.64144E+00 -6.17463E-01  1.36645E+00 -1.67491E+00  4.89008E+00  3.35578E+00  6.68645E-01 -2.67921E+00
  -2.68383E-01  1.42673E+00  4.16385E+00  5.80906E+00  5.10076E+00 -4.82831E-01  2.83131E+00  4.41390E+00  2.19893E+00  8.15281E+00
   5.31487E-01  1.99719E+00  1.45705E+00  4.03402E+00  2.77110E+00  1.67255E+00  1.34980E+00  1.98366E+00  5.03618E-01  4.89228E+00
   3.13667E+00 -1.90057E-01 -3.79725E-01  2.85542E+00  5.07722E-02  1.84473E+00  3.83825E+00 -2.46797E-01  2.77748E+00  2.76866E+00
   1.97600E-01  2.39292E+00 -1.57236E+00  5.69683E+00  3.59364E+00  2.17304E+00 -1.41474E+00  3.58048E+00  3.95309E+00  4.24258E-01
   1.00679E+00  3.51598E+00  3.41137E+00  2.41552E+00 -6.86786E-01  4.14228E+00  3.80456E+00  7.39705E+00 -2.20792E+00  2.04754E+00
   2.63315E+00  8.72957E+00  1.98169E+00  3.82797E+00  1.00646E+00  2.17125E+00  2.37785E+00 -1.49081E+00  6.08139E+00  4.12463E+00
   6.23933E+00  9.25030E-01  4.57990E+00  1.88946E+00  3.97340E+00  6.24792E+00  2.10378E+00  7.64672E+00  5.52777E+00  1.00265E+00
  -1.96232E+00  4.20061E+00  3.11899E+00  3.22715E+00  3.52461E+00  6.64313E+00  3.47199E+00  4.38878E+00  5.52925E+00  7.01290E+00
   4.20088E+00  4.00834E+00  2.88105E+00  5.40038E+00  5.03931E+00  9.36931E+00  5.50135E+00  5.27474E+00  3.23789E+00  3.61704E+00
   6.50192E+00  4.75414E+00  4.26897E+00  2.76662E+00  4.36244E+00  6.05363E+00  2.98676E+00  3.15663E+00  1.88815E+00  4.64491E+00
   3.18179E+00  3.37900E+00  4.13711E+00  6.03242E+00  4.45526E+00  5.41302E+00  5.47005E+00  6.98517E+00  6.34436E+00  4.61203E+00
   7.44046E+00  7.36912E+00  7.50443E+00  5.68600E+00  8.25557E+00  1.02826E+01  1.35032E+00  3.98929E+00  4.62687E+00  9.25284E+00
   3.91268E+00  8.45094E+00  3.83974E+00  7.84540E+00  6.11373E+00  6.86222E+00  5.35268E+00  1.00855E+01  4.65339E+00  5.25787E+00
   7.65907E+00  3.81339E+00  7.89421E+00  6.40833E+00  7.26657E+00  6.39244E+00  8.82237E+00  9.82180E+00  6.99022E+00  1.15434E+01
   1.15688E+01  6.06196E+00  8.16488E+00  3.74008E+00  8.05541E+00  9.28975E+00  8.15128E+00  7.10782E+00  7.02737E+00  8.02358E+00
   6.98721E+00  6.40611E+00  4.86939E+00  7.50452E+00  7.11232E+00  7.96574E+00  7.57084E+00  8.46623E+00  8.40685E+00  6.42327E+00
   8.00021E+00  7.05379E+00  4.80268E+00  1.09049E+01  1.01771E+01  1.39710E+01  1.03891E+01  1.16489E+01  5.23939E+00  6.72354E+00
   8.07104E+00  5.63825E+00  1.23110E+01  1.10045E+01  9.10394E+00  8.95999E+00  1.06465E+01  6.48951E+00  1.05474E+01  1.13698E+01
   1.03877E+01  7.00547E+00  1.34063E+01  1.19892E+01  1.08162E+01  1.25450E+01  1.02779E+01  1.14949E+01  1.28391E+01  1.18737E+01
   9.56722E+00  1.16550E+01  1.20637E+01  1.32274E+01  1.28854E+01  1.20259E+01  1.08778E+01  1.26678E+01  1.61605E+01  9.44206E+00
   1.15502E+01  7.61951E+00  1.15891E+01  7.13042E+00  1.35519E+01  1.23971E+01  1.53080E+01  1.70557E+01  1.83695E+01  1.75644E+01
   1.74130E+01  1.07161E+01  9.26596E+00  6.27434E+00  1.09784E+01  1.62543E+01  1.55945E+01  1.72988E+01  1.17731E+01  1.77410E+01
   1.48075E+01  1.56840E+01  1.91903E+01  1.71904E+01  1.74730E+01  1.67459E+01  1.50381E+01  1.67218E+01  1.51442E+01  1.59993E+01
   1.91092E+01  2.08574E+01  1.76320E+01  1.81085E+01  2.08524E+01  2.25750E+01  1.90070E+01  1.98970E+01  1.97916E+01  2.52966E+01
   2.24274E+01  2.38031E+01  2.11552E+01  2.18168E+01  2.02458E+01  2.24448E+01  2.32076E+01  2.66557E+01  2.64190E+01  2.14666E+01
   2.42257E+01  2.57929E+01  2.46209E+01  2.47663E+01  2.61767E+01  2.69349E+01  2.37532E+01  2.82116E+01  3.20953E+01  2.72636E+01
   2.86720E+01  3.29763E+01  3.61861E+01  3.18637E+01  3.54798E+01  3.21686E+01  3.14457E+01  3.64780E+01  3.49921E+01  3.99758E+01
   4.02268E+01  4.19921E+01  4.02323E+01  3.82417E+01  4.12507E+01  4.53405E+01  4.17753E+01  4.45925E+01  4.53001E+01  4.52478E+01
   5.11188E+01  5.07553E+01  4.56870E+01  4.78515E+01  4.75831E+01  4.69702E+01  4.58949E+01  4.16694E+01  3.90707E+01  4.00784E+01
   3.64351E+01  3.37862E+01  3.32895E+01  3.40866E+01  3.53100E+01  3.11703E+01  2.90881E+01  3.20717E+01  3.52286E+01  2.93220E+01
   2.95314E+01  3.03587E+01  2.98620E+01  3.03492E+01  2.89725E+01  3.22481E+01  3.10189E+01  2.93897E+01  3.54228E+01  3.05166E+01
   2.78626E+01  3.64707E+01  3.24149E+01  3.00815E+01  3.44375E+01  3.41410E+01  3.48852E+01  3.49710E+01  3.27468E+01  3.44557E+01
   3.70760E+01  3.54341E+01  3.49095E+01  3.45469E+01  3.74773E+01  3.70030E+01  3.77979E+01  3.56124E+01  3.72484E+01  3.61762E+01
   3.88286E+01  3.79085E+01  3.23650E+01  3.30886E+01  3.43245E+01  3.27975E+01  3.25569E+01  3.13626E+01  3.04774E+01  2.99509E+01
   3.14410E+01  3.36596E+01  3.01922E+01  3.32599E+01  2.92543E+01  3.06252E+01  3.15205E+01  3.27182E+01  3.11243E+01  2.40345E+01
   2.60592E+01  2.54529E+01  2.72721E+01  2.43637E+01  2.55063E+01  2.28106E+01  2.29898E+01  1.70082E+01  1.96659E+01  1.89556E+01
   2.08106E+01  1.74286E+01  1.66943E+01  1.84288E+01  1.96489E+01  1.95114E+01  1.35535E+01  1.30661E+01  1.25937E+01  1.02606E+01
   6.46124E+00  1.16886E+01  8.70135E+00  6.46202E+00  6.48858E+00  4.34776E+00  1.12433E+00  3.97444E+00  1.62775E+00  4.04069E+00
   3.90115E+00  3.28803E+00 -3.35169E+00  1.29082E+00 -2.96202E+00  2.98143E-01 -3.22719E+00 -4.03780E+00 -7.13493E+00 -2.62893E+00
  -6.00525E+00 -5.35373E+00 -7.19836E+00 -7.16448E+00 -9.14073E+00 -1.25391E+01 -1.56422E+01 -1.58686E+01 -1.50105E+01 -1.32061E+01
  -1.32209E+01 -1.34159E+01 -1.63920E+01 -1.23716E+01 -1.58066E+01 -1.51363E+01 -1.84567E+01 -2.08746E+01 -2.12344E+01 -1.81858E+01
  -1.71744E+01 -1.88033E+01 -2.12877E+01 -2.17682E+01 -2.10190E+01 -1.89594E+01 -2.53765E+01 -2.32368E+01 -2.41567E+01 -2.33471E+01
  -2.60967E+01 -2.46304E+01 -2.28475E+01 -2.47490E+01 -2.46029E+01 -2.37219E+01 -2.50859E+01 -2.79350E+01 -2.42072E+01 -2.36332E+01
  -2.60770E+01 -2.16755E+01 -2.86874E+01 -2.90035E+01 -2.48498E+01 -2.69967E+01 -2.81543E+01 -2.94972E+01 -2.58026E+01 -2.24377E+01
  -2.80753E+01 -2.40514E+01 -2.54980E+01 -2.46374E+01 -2.35231E+01 -2.77708E+01 -2.63725E+01 -2.88100E+01
 NY points of the fit to the data follow
   2.90556E-01  5.06798E-01  4.32306E-01  3.84497E-01  3.92091E-01  2.02027E-01 -1.52722E-01 -2.83825E-01 -6.22876E-02  5.07455E-01
   1.07018E+00  1.33943E+00  1.03415E+00  3.91236E-01  1.70676E-01  4.02037E-01  5.74323E-01  6.52259E-01  7.50850E-01  8.72686E-01
   9.85759E-01  1.05667E+00  1.06092E+00  1.03482E+00  9.36580E-01  6.52051E-01  4.07566E-01  3.33652E-01  5.68569E-01  1.08473E+00
   1.70769E+00  2.15222E+00  2.13227E+00  1.66590E+00  1.16187E+00  6.71505E-01  3.66710E-01  5.68265E-01  1.02572E+00  1.34271E+00
   1.48275E+00  1.64816E+00  1.73781E+00  1.67232E+00  2.07632E+00  2.98258E+00  3.33612E+00  2.51428E+00  9.36809E-01 -4.49796E-01
  -7.20241E-01  5.50770E-01  2.34879E+00  3.02950E+00  2.51351E+00  1.94848E+00  1.92058E+00  2.17086E+00  2.38329E+00  2.38673E+00
   2.10032E+00  1.61972E+00  1.14852E+00  1.19978E+00  1.74102E+00  2.28437E+00  2.62738E+00  2.63393E+00  2.46767E+00  2.38334E+00
   2.32021E+00  2.31176E+00  2.27972E+00  2.23072E+00  2.15578E+00  2.16637E+00  2.36909E+00  2.49531E+00  2.44577E+00  2.46680E+00
   2.56317E+00  2.61745E+00  2.65097E+00  2.67583E+00  2.54909E+00  2.31019E+00  2.10530E+00  2.14328E+00  2.44636E+00  2.95220E+00
   3.38919E+00  3.42074E+00  3.11856E+00  2.90481E+00  2.84924E+00  2.83145E+00  2.77151E+00  2.71807E+00  2.72898E+00  2.98637E+00
   4.04408E+00  5.28013E+00  5.43861E+00  4.52636E+00  2.83057E+00  1.44958E+00  1.12891E+00  2.55571E+00  4.46021E+00  4.70656E+00
   4.01693E+00  3.81964E+00  3.83195E+00  3.87572E+00  3.91696E+00  3.97201E+00  4.03611E+00  4.10282E+00  4.18095E+00  4.26525E+00
   4.34769E+00  4.43029E+00  4.50829E+00  4.58350E+00  4.66030E+00  4.74508E+00  4.82619E+00  4.88602E+00  4.93650E+00  4.99482E+00
   5.05488E+00  5.11067E+00  5.16548E+00  5.22991E+00  5.30771E+00  5.39340E+00  5.46465E+00  5.52245E+00  5.57084E+00  5.60960E+00
   5.65677E+00  5.70408E+00  5.75997E+00  5.84602E+00  5.92758E+00  5.97449E+00  5.98953E+00  6.00588E+00  6.05361E+00  6.12295E+00
   6.19638E+00  6.25043E+00  6.27912E+00  6.30728E+00  6.34204E+00  6.37743E+00  6.41202E+00  6.40323E+00  6.32074E+00  6.25329E+00
   6.26808E+00  6.42238E+00  6.65417E+00  6.77236E+00  6.67398E+00  6.36825E+00  6.12547E+00  6.11501E+00  6.24873E+00  6.41420E+00
   6.43906E+00  6.32585E+00  6.23075E+00  6.13405E+00  6.07828E+00  6.15275E+00  6.29631E+00  6.40258E+00  6.32983E+00  6.14855E+00
   5.94512E+00  5.92219E+00  6.16266E+00  6.32920E+00  6.21453E+00  6.02954E+00  6.02470E+00  6.24548E+00  6.45537E+00  6.47663E+00
   6.31941E+00  6.09190E+00  6.06052E+00  6.28548E+00  6.48754E+00  6.51037E+00  6.43322E+00  6.30318E+00  6.22805E+00  6.26312E+00
   6.47390E+00  6.80198E+00  6.97817E+00  6.96649E+00  6.83113E+00  6.66770E+00  6.54483E+00  6.53351E+00  6.72448E+00  6.87143E+00
   6.97827E+00  7.18039E+00  7.59572E+00  8.28378E+00  8.63059E+00  8.38350E+00  7.73716E+00  6.96750E+00  6.60457E+00  6.78033E+00
   7.42340E+00  8.16793E+00  8.72311E+00  9.33416E+00  9.89986E+00  9.90252E+00  9.30593E+00  8.61544E+00  8.53509E+00  8.97365E+00
   9.30776E+00  9.50383E+00  9.77544E+00  1.00294E+01  1.02004E+01  1.02781E+01  1.03397E+01  1.04301E+01  1.05386E+01  1.06614E+01
   1.08156E+01  1.11129E+01  1.15008E+01  1.19143E+01  1.21785E+01  1.22983E+01  1.23525E+01  1.23232E+01  1.23236E+01  1.25168E+01
   1.28037E+01  1.31013E+01  1.34413E+01  1.37189E+01  1.36968E+01  1.32868E+01  1.34974E+01  1.59657E+01  1.89072E+01  1.92379E+01
   1.65826E+01  1.18531E+01  7.97113E+00  7.19879E+00  1.13668E+01  1.63129E+01  1.64600E+01  1.44237E+01  1.38975E+01  1.38912E+01
   1.39375E+01  1.41255E+01  1.44260E+01  1.46986E+01  1.49453E+01  1.51904E+01  1.54526E+01  1.57814E+01  1.62095E+01  1.66920E+01
   1.71905E+01  1.77170E+01  1.82666E+01  1.88295E+01  1.93932E+01  1.99456E+01  2.05012E+01  2.10620E+01  2.16081E+01  2.21380E+01
   2.26485E+01  2.31258E+01  2.35625E+01  2.39594E+01  2.43184E+01  2.46345E+01  2.49068E+01  2.51405E+01  2.53388E+01  2.55078E+01
   2.56577E+01  2.57977E+01  2.59380E+01  2.60903E+01  2.62670E+01  2.64815E+01  2.67477E+01  2.70797E+01  2.74889E+01  2.79843E+01
   2.85738E+01  2.92639E+01  3.00580E+01  3.09560E+01  3.19542E+01  3.30449E+01  3.42168E+01  3.54554E+01  3.67431E+01  3.80590E+01
   3.93799E+01  4.06795E+01  4.19624E+01  4.33442E+01  4.46358E+01  4.53008E+01  4.54283E+01  4.52884E+01  4.53637E+01  4.58099E+01
   4.64934E+01  4.70312E+01  4.69370E+01  4.63823E+01  4.59164E+01  4.50547E+01  4.34973E+01  4.15494E+01  3.97946E+01  3.89446E+01
   3.84946E+01  3.74917E+01  3.61911E+01  3.50246E+01  3.39760E+01  3.30346E+01  3.22060E+01  3.14974E+01  3.09142E+01  3.04594E+01
   3.01332E+01  2.99335E+01  2.98553E+01  2.98913E+01  3.00326E+01  3.02687E+01  3.05885E+01  3.09804E+01  3.14323E+01  3.19313E+01
   3.24637E+01  3.30153E+01  3.35714E+01  3.41161E+01  3.46336E+01  3.51078E+01  3.55238E+01  3.58682E+01  3.61307E+01  3.63035E+01
   3.63827E+01  3.63681E+01  3.62636E+01  3.60770E+01  3.58198E+01  3.55062E+01  3.51522E+01  3.47752E+01  3.43927E+01  3.40217E+01
   3.36770E+01  3.33707E+01  3.31114E+01  3.29036E+01  3.27478E+01  3.26399E+01  3.25719E+01  3.25317E+01  3.25047E+01  3.24737E+01
   3.24211E+01  3.23289E+01  3.21803E+01  3.19601E+01  3.16563E+01  3.12604E+01  3.07681E+01  3.01790E+01  2.94969E+01  2.87293E+01
   2.78871E+01  2.69837E+01  2.60346E+01  2.50558E+01  2.40633E+01  2.30721E+01  2.20956E+01  2.11451E+01  2.02288E+01  1.93517E+01
   1.85157E+01  1.77195E+01  1.69591E+01  1.62279E+01  1.55176E+01  1.48181E+01  1.41190E+01  1.34098E+01  1.26806E+01  1.19228E+01
   1.11292E+01  1.02944E+01  9.41537E+00  8.49127E+00  7.52351E+00  6.51534E+00  5.47182E+00  4.39929E+00  3.30534E+00  2.19816E+00
   1.08633E+00 -2.18816E-02 -1.11853E+00 -2.19643E+00 -3.24907E+00 -4.27098E+00 -5.25771E+00 -6.20609E+00 -7.11386E+00 -7.97981E+00
  -8.80338E+00 -9.58488E+00 -1.03252E+01 -1.10259E+01 -1.16887E+01 -1.23158E+01 -1.29091E+01 -1.34711E+01 -1.40039E+01 -1.45100E+01
  -1.49914E+01 -1.54504E+01 -1.58886E+01 -1.63079E+01 -1.67100E+01 -1.70966E+01 -1.74688E+01 -1.78281E+01 -1.81753E+01 -1.85117E+01
  -1.88382E+01 -1.91556E+01 -1.94647E+01 -1.97661E+01 -2.00603E+01 -2.03481E+01 -2.06298E+01 -2.09061E+01 -2.11772E+01 -2.14435E+01
  -2.17053E+01 -2.19630E+01 -2.22169E+01 -2.24672E+01 -2.27141E+01 -2.29577E+01 -2.31984E+01 -2.34364E+01 -2.36717E+01 -2.39046E+01
  -2.41351E+01 -2.43634E+01 -2.45895E+01 -2.48138E+01 -2.50362E+01 -2.52568E+01 -2.54755E+01 -2.56927E+01 -2.59084E+01 -2.61226E+01
  -2.63354E+01 -2.65469E+01 -2.67569E+01 -2.69657E+01 -2.71734E+01 -2.73800E+01 -2.75854E+01 -2.77897E+01
 NY background values follow
    -3.201E-02   -6.176E-03    1.966E-02    4.549E-02    7.132E-02    9.715E-02    1.230E-01    1.488E-01    1.746E-01    2.004E-01
     2.262E-01    2.520E-01    2.778E-01    3.036E-01    3.294E-01    3.551E-01    3.809E-01    4.066E-01    4.324E-01    4.581E-01
     4.837E-01    5.094E-01    5.351E-01    5.607E-01    5.863E-01    6.119E-01    6.375E-01    6.631E-01    6.886E-01    7.141E-01
     7.396E-01    7.650E-01    7.905E-01    8.159E-01    8.412E-01    8.666E-01    8.919E-01    9.172E-01    9.424E-01    9.676E-01
     9.928E-01    1.018E+00    1.043E+00    1.068E+00    1.093E+00    1.118E+00    1.143E+00    1.168E+00    1.193E+00    1.218E+00
     1.243E+00    1.267E+00    1.292E+00    1.317E+00    1.342E+00    1.366E+00    1.391E+00    1.416E+00    1.440E+00    1.465E+00
     1.490E+00    1.514E+00    1.539E+00    1.563E+00    1.588E+00    1.613E+00    1.637E+00    1.662E+00    1.687E+00    1.711E+00
     1.736E+00    1.761E+00    1.786E+00    1.810E+00    1.835E+00    1.860E+00    1.885E+00    1.910E+00    1.935E+00    1.960E+00
     1.985E+00    2.010E+00    2.035E+00    2.060E+00    2.085E+00    2.111E+00    2.136E+00    2.161E+00    2.187E+00    2.212E+00
     2.238E+00    2.264E+00    2.289E+00    2.315E+00    2.341E+00    2.367E+00    2.393E+00    2.419E+00    2.445E+00    2.471E+00
     2.498E+00    2.524E+00    2.550E+00    2.577E+00    2.603E+00    2.630E+00    2.656E+00    2.683E+00    2.709E+00    2.736E+00
     2.763E+00    2.789E+00    2.816E+00    2.843E+00    2.869E+00    2.896E+00    2.923E+00    2.950E+00    2.977E+00    3.004E+00
     3.031E+00    3.057E+00    3.084E+00    3.111E+00    3.138E+00    3.165E+00    3.192E+00    3.219E+00    3.246E+00    3.273E+00
     3.300E+00    3.327E+00    3.354E+00    3.380E+00    3.407E+00    3.434E+00    3.461E+00    3.488E+00    3.515E+00    3.541E+00
     3.568E+00    3.595E+00    3.621E+00    3.647E+00    3.674E+00    3.700E+00    3.726E+00    3.751E+00    3.777E+00    3.802E+00
     3.827E+00    3.852E+00    3.877E+00    3.901E+00    3.926E+00    3.949E+00    3.973E+00    3.996E+00    4.019E+00    4.042E+00
     4.064E+00    4.086E+00    4.107E+00    4.128E+00    4.149E+00    4.169E+00    4.188E+00    4.208E+00    4.226E+00    4.245E+00
     4.262E+00    4.280E+00    4.296E+00    4.312E+00    4.328E+00    4.343E+00    4.357E+00    4.371E+00    4.384E+00    4.397E+00
     4.409E+00    4.420E+00    4.430E+00    4.440E+00    4.449E+00    4.457E+00    4.465E+00    4.472E+00    4.478E+00    4.484E+00
     4.489E+00    4.493E+00    4.496E+00    4.498E+00    4.500E+00    4.501E+00    4.501E+00    4.500E+00    4.499E+00    4.497E+00
     4.494E+00    4.490E+00    4.485E+00    4.480E+00    4.473E+00    4.466E+00    4.458E+00    4.449E+00    4.439E+00    4.428E+00
     4.417E+00    4.404E+00    4.391E+00    4.376E+00    4.361E+00    4.345E+00    4.328E+00    4.310E+00    4.291E+00    4.271E+00
     4.250E+00    4.228E+00    4.205E+00    4.181E+00    4.156E+00    4.130E+00    4.104E+00    4.076E+00    4.047E+00    4.017E+00
     3.986E+00    3.954E+00    3.921E+00    3.888E+00    3.853E+00    3.817E+00    3.780E+00    3.742E+00    3.703E+00    3.664E+00
     3.623E+00    3.581E+00    3.539E+00    3.495E+00    3.450E+00    3.405E+00    3.358E+00    3.311E+00    3.262E+00    3.213E+00
     3.163E+00    3.111E+00    3.059E+00    3.006E+00    2.952E+00    2.897E+00    2.841E+00    2.784E+00    2.727E+00    2.668E+00
     2.608E+00    2.548E+00    2.487E+00    2.424E+00    2.361E+00    2.297E+00    2.232E+00    2.166E+00    2.099E+00    2.032E+00
     1.963E+00    1.894E+00    1.823E+00    1.752E+00    1.680E+00    1.607E+00    1.534E+00    1.459E+00    1.383E+00    1.307E+00
     1.230E+00    1.152E+00    1.073E+00    9.933E-01    9.128E-01    8.314E-01    7.492E-01    6.662E-01    5.824E-01    4.977E-01
     4.123E-01    3.260E-01    2.390E-01    1.511E-01    6.241E-02   -2.705E-02   -1.173E-01   -2.083E-01   -3.001E-01   -3.927E-01
    -4.861E-01   -5.802E-01   -6.752E-01   -7.708E-01   -8.673E-01   -9.644E-01   -1.062E+00   -1.161E+00   -1.260E+00   -1.361E+00
    -1.462E+00   -1.563E+00   -1.666E+00   -1.769E+00   -1.873E+00   -1.977E+00   -2.082E+00   -2.188E+00   -2.295E+00   -2.402E+00
    -2.510E+00   -2.619E+00   -2.729E+00   -2.839E+00   -2.950E+00   -3.061E+00   -3.173E+00   -3.286E+00   -3.400E+00   -3.514E+00
    -3.629E+00   -3.745E+00   -3.861E+00   -3.978E+00   -4.095E+00   -4.213E+00   -4.332E+00   -4.451E+00   -4.571E+00   -4.692E+00
    -4.813E+00   -4.935E+00   -5.058E+00   -5.181E+00   -5.305E+00   -5.429E+00   -5.554E+00   -5.679E+00   -5.805E+00   -5.932E+00
    -6.059E+00   -6.187E+00   -6.316E+00   -6.445E+00   -6.574E+00   -6.705E+00   -6.835E+00   -6.967E+00   -7.098E+00   -7.231E+00
    -7.364E+00   -7.497E+00   -7.631E+00   -7.766E+00   -7.901E+00   -8.036E+00   -8.172E+00   -8.309E+00   -8.446E+00   -8.584E+00
    -8.722E+00   -8.861E+00   -9.000E+00   -9.140E+00   -9.280E+00   -9.421E+00   -9.562E+00   -9.704E+00   -9.847E+00   -9.989E+00
    -1.013E+01   -1.028E+01   -1.042E+01   -1.057E+01   -1.071E+01   -1.086E+01   -1.100E+01   -1.115E+01   -1.130E+01   -1.145E+01
    -1.159E+01   -1.174E+01   -1.189E+01   -1.204E+01   -1.219E+01   -1.234E+01   -1.249E+01   -1.264E+01   -1.280E+01   -1.295E+01
    -1.310E+01   -1.326E+01   -1.341E+01   -1.356E+01   -1.372E+01   -1.387E+01   -1.403E+01   -1.419E+01   -1.434E+01   -1.450E+01
    -1.466E+01   -1.482E+01   -1.497E+01   -1.513E+01   -1.529E+01   -1.545E+01   -1.561E+01   -1.577E+01   -1.593E+01   -1.609E+01
    -1.626E+01   -1.642E+01   -1.658E+01   -1.674E+01   -1.691E+01   -1.707E+01   -1.723E+01   -1.740E+01   -1.756E+01   -1.773E+01
    -1.789E+01   -1.806E+01   -1.822E+01   -1.839E+01   -1.856E+01   -1.872E+01   -1.889E+01   -1.906E+01   -1.922E+01   -1.939E+01
    -1.956E+01   -1.973E+01   -1.990E+01   -2.007E+01   -2.024E+01   -2.041E+01   -2.057E+01   -2.074E+01   -2.091E+01   -2.109E+01
    -2.126E+01   -2.143E+01   -2.160E+01   -2.177E+01   -2.194E+01   -2.211E+01   -2.228E+01   -2.246E+01   -2.263E+01   -2.280E+01
    -2.297E+01   -2.315E+01   -2.332E+01   -2.349E+01   -2.366E+01   -2.384E+01   -2.401E+01   -2.418E+01   -2.436E+01   -2.453E+01
    -2.470E+01   -2.488E+01   -2.505E+01   -2.523E+01   -2.540E+01   -2.557E+01   -2.575E+01   -2.592E+01   -2.610E+01   -2.627E+01
    -2.644E+01   -2.662E+01   -2.679E+01   -2.697E+01   -2.714E+01   -2.732E+01   -2.749E+01   -2.766E+01   -2.784E+01   -2.801E+01
    -2.819E+01   -2.836E+01   -2.853E+01   -2.871E+01   -2.888E+01   -2.906E+01   -2.923E+01   -2.940E+01
 Ala      Conc. = 1.08E+01
