 LCModel (Version 6.3-1L) Copyright: S.W. Provencher.          Ref.: Magn. Reson. Med. 30:672-679 (1993).                
 Slice#2 Row#2 Col#10  PD_05_press_2_raw_act
 36 lines in following concentration table = NCONC+1
    Conc.  %SD /Cr+PCr  Metabolite                                         
    0.000 999%   0.000 Ala                                                 
   99.794  16%   0.147 Asp                                                 
  678.266  23%   1.000 Cr                                                  
    0.000 999%   0.000 PCr                                                 
   59.877  16% 8.8E-02 GABA                                                
   59.877  16% 8.8E-02 Glc                                                 
   48.495 999% 7.1E-02 Gln                                                 
    0.000 999%   0.000 Glu                                                 
  183.451  33%   0.270 GPC                                                 
    0.000 999%   0.000 PCh                                                 
  521.751  52%   0.769 GSH                                                 
 2.45E+03  26%   3.606 Ins                                                 
 2.55E+03  43%   3.753 Lac                                                 
  674.858  58%   0.995 NAA                                                 
   92.420 432%   0.136 NAAG                                                
   19.959  16% 2.9E-02 Scyllo                                              
   99.795  16%   0.147 Tau                                                 
   67.776  23%   0.100 -CrCH2                                              
  183.451  33%   0.270 GPC+PCh                                             
  767.278  22%   1.131 NAA+NAAG                                            
  678.266  23%   1.000 Cr+PCr                                              
   48.495 999% 7.1E-02 Glu+Gln                                             
    0.000 999%   0.000 Lip13a                                              
 1.09E+03  52%   1.603 Lip13b                                              
  290.317  52%   0.428 Lip09                                               
    0.000 999%   0.000 MM09                                                
  163.102  52%   0.240 Lip20                                               
    0.000 999%   0.000 MM20                                                
    0.000 999%   0.000 MM12                                                
  558.711  78%   0.824 MM14                                                
    0.000 999%   0.000 MM17                                                
 1.09E+03  52%   1.603 Lip13a+Lip13b                                       
 1.65E+03  41%   2.427 MM14+Lip13a+Lip13b+MM12                             
  290.317  52%   0.428 MM09+Lip09                                          
  163.102  52%   0.240 MM20+Lip20                                          
   6 lines in following misc. output table
  FWHM = 0.138 ppm    S/N =   1                                            
  Data shift = 0.031 ppm                                                   
  Ph:  63 deg      12.3 deg/ppm                                            
  alphaB,S = 4.3E+01,   7.2E+01                                            
   14 spline knots.   Ns = 6(2)                                            
  (10) 9 infls.   (11) 9 extrs.                                            
  498 points on ppm-axis = NY
      4.000000     3.992357     3.984714     3.977070     3.969427     3.961784     3.954141     3.946497     3.938854     3.931211
      3.923568     3.915925     3.908281     3.900638     3.892995     3.885352     3.877708     3.870065     3.862422     3.854779
      3.847136     3.839492     3.831849     3.824206     3.816563     3.808919     3.801276     3.793633     3.785990     3.778347
      3.770703     3.763060     3.755417     3.747774     3.740130     3.732487     3.724844     3.717201     3.709558     3.701914
      3.694271     3.686628     3.678985     3.671341     3.663698     3.656055     3.648412     3.640769     3.633125     3.625482
      3.617839     3.610196     3.602552     3.594909     3.587266     3.579623     3.571980     3.564336     3.556693     3.549050
      3.541407     3.533763     3.526120     3.518477     3.510834     3.503191     3.495547     3.487904     3.480261     3.472618
      3.464974     3.457331     3.449688     3.442045     3.434402     3.426758     3.419115     3.411472     3.403829     3.396185
      3.388542     3.380899     3.373256     3.365613     3.357969     3.350326     3.342683     3.335040     3.327396     3.319753
      3.312110     3.304467     3.296824     3.289180     3.281537     3.273894     3.266251     3.258607     3.250964     3.243321
      3.235678     3.228034     3.220391     3.212748     3.205105     3.197462     3.189818     3.182175     3.174532     3.166889
      3.159245     3.151602     3.143959     3.136316     3.128673     3.121029     3.113386     3.105743     3.098100     3.090456
      3.082813     3.075170     3.067527     3.059884     3.052240     3.044597     3.036954     3.029311     3.021667     3.014024
      3.006381     2.998738     2.991095     2.983451     2.975808     2.968165     2.960522     2.952878     2.945235     2.937592
      2.929949     2.922306     2.914662     2.907019     2.899376     2.891733     2.884089     2.876446     2.868803     2.861160
      2.853517     2.845873     2.838230     2.830587     2.822944     2.815300     2.807657     2.800014     2.792371     2.784728
      2.777084     2.769441     2.761798     2.754155     2.746511     2.738868     2.731225     2.723582     2.715939     2.708295
      2.700652     2.693009     2.685366     2.677722     2.670079     2.662436     2.654793     2.647150     2.639506     2.631863
      2.624220     2.616577     2.608933     2.601290     2.593647     2.586004     2.578361     2.570717     2.563074     2.555431
      2.547788     2.540144     2.532501     2.524858     2.517215     2.509572     2.501928     2.494285     2.486642     2.478999
      2.471355     2.463712     2.456069     2.448426     2.440783     2.433139     2.425496     2.417853     2.410210     2.402566
      2.394923     2.387280     2.379637     2.371994     2.364350     2.356707     2.349064     2.341421     2.333777     2.326134
      2.318491     2.310848     2.303205     2.295561     2.287918     2.280275     2.272632     2.264988     2.257345     2.249702
      2.242059     2.234416     2.226772     2.219129     2.211486     2.203843     2.196199     2.188556     2.180913     2.173270
      2.165627     2.157983     2.150340     2.142697     2.135054     2.127410     2.119767     2.112124     2.104481     2.096838
      2.089194     2.081551     2.073908     2.066265     2.058621     2.050978     2.043335     2.035692     2.028049     2.020405
      2.012762     2.005119     1.997476     1.989833     1.982190     1.974546     1.966903     1.959260     1.951617     1.943974
      1.936331     1.928688     1.921045     1.913402     1.905759     1.898115     1.890472     1.882829     1.875186     1.867543
      1.859900     1.852257     1.844614     1.836971     1.829327     1.821684     1.814041     1.806398     1.798755     1.791112
      1.783469     1.775826     1.768183     1.760540     1.752896     1.745253     1.737610     1.729967     1.722324     1.714681
      1.707038     1.699395     1.691752     1.684108     1.676465     1.668822     1.661179     1.653536     1.645893     1.638250
      1.630607     1.622964     1.615321     1.607677     1.600034     1.592391     1.584748     1.577105     1.569462     1.561819
      1.554176     1.546533     1.538890     1.531246     1.523603     1.515960     1.508317     1.500674     1.493031     1.485388
      1.477745     1.470102     1.462458     1.454815     1.447172     1.439529     1.431886     1.424243     1.416600     1.408957
      1.401314     1.393671     1.386027     1.378384     1.370741     1.363098     1.355455     1.347812     1.340169     1.332526
      1.324883     1.317240     1.309596     1.301953     1.294310     1.286667     1.279024     1.271381     1.263738     1.256095
      1.248452     1.240808     1.233165     1.225522     1.217879     1.210236     1.202593     1.194950     1.187307     1.179664
      1.172021     1.164377     1.156734     1.149091     1.141448     1.133805     1.126162     1.118519     1.110876     1.103233
      1.095590     1.087946     1.080303     1.072660     1.065017     1.057374     1.049731     1.042088     1.034445     1.026802
      1.019158     1.011515     1.003872     0.996229     0.988586     0.980943     0.973300     0.965657     0.958014     0.950371
      0.942727     0.935084     0.927441     0.919798     0.912155     0.904512     0.896869     0.889226     0.881583     0.873940
      0.866296     0.858653     0.851010     0.843367     0.835724     0.828081     0.820438     0.812795     0.805152     0.797508
      0.789865     0.782222     0.774579     0.766936     0.759293     0.751650     0.744007     0.736364     0.728721     0.721077
      0.713434     0.705791     0.698148     0.690505     0.682862     0.675219     0.667576     0.659933     0.652290     0.644646
      0.637003     0.629360     0.621717     0.614074     0.606431     0.598788     0.591145     0.583502     0.575858     0.568215
      0.560572     0.552929     0.545286     0.537643     0.530000     0.522357     0.514714     0.507071     0.499427     0.491784
      0.484141     0.476498     0.468855     0.461212     0.453569     0.445925     0.438282     0.430639     0.422996     0.415353
      0.407710     0.400067     0.392424     0.384780     0.377137     0.369494     0.361851     0.354208     0.346565     0.338922
      0.331278     0.323635     0.315992     0.308349     0.300706     0.293063     0.285420     0.277777     0.270133     0.262490
      0.254847     0.247204     0.239561     0.231918     0.224275     0.216631     0.208988     0.201345
 NY phased data points follow
   3.58829E+00  1.21053E+01  1.93795E+00  3.40937E+01  2.06650E+01  2.39171E+00  2.59774E+00  1.68550E+01  3.02404E+01  2.18825E+01
   6.97744E+00  6.17231E+00  7.36253E+00  7.37417E+00  1.46259E-01  5.86636E+00 -1.07680E+00  1.56481E+01  7.10424E+00  1.20869E+01
   1.16480E+01  1.61804E+00 -2.21053E+00  1.14529E+01  1.59592E+01  2.06936E+01  4.74540E-01  1.22469E+01 -5.84527E+00  7.27023E+00
  -1.32030E+01 -5.88485E+00 -4.01400E+00  7.40224E+00  8.55125E+00  1.99333E+01  6.65093E+00  5.97716E+00 -3.52516E+00  6.49071E+00
   1.32922E+00 -2.79752E+00 -3.09500E+00  8.07951E+00  4.98502E+00  8.96030E+00 -1.73482E+00  8.23969E+00 -3.86062E+00  1.34474E+01
   7.74805E+00  7.97057E+00 -9.00882E+00  1.93014E+01  3.56464E+00  1.25356E+01 -8.51910E+00  7.04089E+00 -1.37647E+00 -7.01314E+00
  -1.08170E+01  5.93544E+00  1.38545E+01  2.06156E+01 -8.36411E+00  5.96569E+00 -9.61215E-01  2.57047E+00  4.24654E+00  1.38483E+01
   2.94547E+00  2.84336E+00  2.09497E+00  1.12212E+00 -1.67788E+01  1.93561E+00 -4.02909E+00 -2.22187E-01  7.32065E+00  9.59177E+00
  -3.91017E+00  1.61514E+01 -3.36776E+00  7.38827E+00 -1.95460E+01  2.06422E+01 -8.33092E+00 -6.72854E-01  7.30010E+00  1.20138E+01
  -5.53111E-01  2.85581E+00  2.11007E+00 -4.92887E-01  6.20444E+00 -1.82419E+00 -3.26040E+00  2.63105E+00  2.27507E+00  4.81930E+00
  -7.93260E+00  9.43157E+00 -7.64341E-01 -8.11719E-01 -3.74413E+00  5.61175E+00 -8.43439E+00 -7.84708E+00  1.19569E+01  3.90189E+00
   1.27959E+00  5.24232E+00  7.93763E+00 -3.61402E+00 -5.93586E+00  6.68965E-02 -3.28481E+00  1.34187E-01 -1.29130E+00 -3.09852E+00
   4.58430E+00 -2.53643E+00 -1.31890E+00  2.67556E+00  7.18598E+00  1.58420E+00  7.02825E+00  2.38160E+00 -7.53414E+00  5.95646E+00
   4.66556E+00  9.60401E+00  8.56849E+00 -8.87640E-01  7.70300E+00 -3.59532E-01 -8.00299E+00  1.03957E+01  3.70386E+00 -6.63074E+00
  -2.72643E-01  3.55869E+00  7.78356E+00  4.71756E+00  1.67138E+00  9.26392E+00 -1.58172E+01  1.15521E+00  1.18815E+00 -9.24965E+00
  -1.36583E+01 -6.72061E+00 -1.32852E+00  8.23548E+00 -7.94379E+00  1.84939E+01  9.03116E+00  6.65442E-02 -1.70895E+01  1.34968E+00
   3.57719E+00  1.60723E+01 -4.50684E+00  2.21908E+00  3.27805E+00 -1.37034E+01  3.61425E+00  8.17367E+00 -6.82391E+00  1.27813E+00
  -6.10384E+00 -8.56821E+00 -1.40441E+01 -6.68492E+00 -1.90691E+01 -7.88131E+00 -4.12113E+00 -2.98269E+00  2.75965E+00 -1.56532E+01
  -5.03590E+00 -8.26162E+00 -9.61570E+00 -1.28542E+01 -1.29355E+00 -2.25344E+00 -2.90457E+00 -1.16434E+01 -3.33683E+00 -1.46598E+01
   7.55503E+00  1.94085E+00 -1.20963E+00  1.03373E+01 -1.28611E+00  6.37044E+00 -6.15517E+00 -1.32088E+01  1.93175E+00  3.08054E+00
   1.74969E+00 -8.90689E+00 -8.95685E-01  5.58605E+00 -5.98200E+00  8.97156E-02  3.49993E-01  2.16943E+00 -9.31871E+00 -8.27628E+00
  -2.09695E+01 -8.66606E+00  4.18168E+00  3.05444E+00 -2.00468E+00  1.75959E+00 -6.05085E+00 -7.03709E+00  2.00965E+00 -8.27341E+00
   2.32808E+00  3.46828E+00 -2.37155E+00  4.14602E-01  2.55430E+00 -5.17651E+00  3.10350E+00  1.74163E+00 -1.31459E+01 -7.33037E-02
  -1.37577E+00 -5.46767E+00 -6.04476E+00  7.26426E+00 -3.16244E+00 -1.01237E+00 -9.53299E+00  9.26860E+00  3.42706E-01 -6.62741E-01
   8.39306E+00 -3.87541E+00  3.04873E+00  1.30580E+01  1.17672E+01 -5.22682E+00  1.95240E+00  3.45242E+00  9.80595E+00 -4.28836E+00
  -8.54480E+00  9.08301E+00  7.13801E+00  8.50626E+00  9.42995E-01  6.39199E+00  2.24232E+01  1.21068E+01  7.52319E+00  2.48148E+01
   9.78681E+00  4.89119E+00  3.59208E+00  1.62045E+01  7.36459E+00  1.18412E+01  4.67109E+00  2.71662E+00 -1.16617E+01 -1.08080E+01
   1.21309E+01  1.45310E+01  9.09250E+00 -1.20823E+01  8.83072E+00  1.02999E+01 -7.64456E+00 -6.45302E+00 -3.22548E+00 -3.98273E+00
  -1.30688E+01 -6.54306E+00 -3.69456E+00  8.06861E+00 -4.23220E+00 -8.19853E+00 -7.69239E+00 -2.64897E+00 -1.28657E+01 -7.78219E+00
  -2.30191E+00 -1.47680E+00 -6.03777E+00  8.49641E-01 -5.21783E+00  3.25927E+00 -5.71402E+00 -5.64593E+00 -5.83406E+00 -8.97473E-02
  -8.11429E+00 -7.68854E+00 -1.51376E+00 -1.47774E+01 -1.53336E+01 -1.81189E+01  3.46340E+00 -5.03134E+00 -9.07214E+00 -4.70706E+00
  -1.15672E+01  8.60299E-01 -1.90150E+01 -1.50031E+01 -1.69650E+01 -3.67129E+00  3.37051E-01  4.87453E+00 -1.83259E+00 -2.16933E+00
   3.05334E+00  2.57753E+00  7.21732E+00  5.23841E+00  1.07785E+01 -9.58307E+00  4.61273E+00  3.66168E+00  1.71617E+01  1.35562E+01
   1.12763E+01  6.08388E+00  1.16110E+01  2.13240E+01  1.06741E+01  8.43447E+00 -8.35353E+00  2.14512E+00  2.35122E+01  1.38694E+01
   1.86789E+01  1.88715E+00  2.81068E+01  2.32697E+01  1.54085E+01  1.42104E+01 -5.68703E+00  2.70956E+01  1.50297E+01  1.67616E+01
   2.13532E+01  1.93896E+01  1.38295E+01  1.59969E+01  1.43133E+01  1.54314E+01  2.30007E+01  1.60628E+00  1.79624E+01  1.47114E+01
   1.29502E+00  9.59117E+00  2.32114E+00  2.18866E+00  6.00809E+00 -3.17928E+00  2.02393E+01  3.97003E+00  8.16773E+00  2.75617E+00
   1.76108E+01  7.18399E+00  1.24913E+01 -6.60208E+00  1.23441E+01  1.23586E+01  5.88165E+00  8.36364E-03  2.71406E+00 -2.56286E+00
  -7.85210E+00 -5.72149E+00 -7.67605E+00  1.23600E+01 -3.61113E+00 -5.68958E+00 -1.10040E+01 -1.02017E+01 -1.07470E+01  3.22428E+00
   3.77733E+00 -2.60134E-01 -7.47807E-01 -4.22862E+00  2.62115E+00 -3.97879E+00 -5.33681E-01 -1.06005E+01  6.54837E+00  2.08198E+00
  -8.88813E+00 -4.84071E+00  1.62592E+00  1.51098E+01 -8.78283E+00  6.89776E+00  2.66180E+00 -7.37567E+00 -3.59172E+00 -1.04026E+00
  -6.61600E+00 -1.55211E+00  3.54395E+00  6.55635E+00  3.73678E+00  6.60210E+00  3.58087E+00  1.00780E+01  1.11755E+01  1.04510E+01
   5.71181E+00 -9.94221E+00 -1.19515E+01  6.65210E+00  6.32387E+00  1.45925E+01 -7.49292E+00  9.75323E+00 -1.85595E+00 -3.84681E+00
  -1.91975E+00 -6.67055E-01  5.00605E+00  5.51775E+00  1.19805E+01  8.41931E+00  1.87934E-02  7.68565E+00  1.53956E+01  8.71444E+00
   6.84997E+00  5.97555E-01  5.75511E+00 -1.12066E+01  1.40531E-01  7.91069E+00  7.14207E+00  1.19291E+01  7.82965E+00 -6.13877E+00
  -1.90393E+00  2.11749E+00  1.80418E+01  4.25004E+00  1.16838E+01  2.01319E+00 -4.83512E-02  5.36629E+00  6.62342E-02  4.47452E+00
   6.77141E+00  1.46277E+01 -5.36363E+00  4.72761E+00  6.94784E-01  6.93380E+00  5.00651E+00 -8.87955E+00  1.02435E+01  2.14677E+00
   1.90438E+00  4.50901E+00 -2.26518E-01  9.14981E+00  8.50940E+00  9.62333E+00  7.94911E+00  1.05735E+01 -4.56431E+00  1.12703E+01
   3.95103E+00  5.62710E+00  1.24500E+00  3.93715E+00  8.67399E+00  2.84054E+00 -1.39778E+01  1.40883E+00  4.21179E-01  1.01348E+01
   2.34866E+00  4.60768E+00  1.41649E+00  8.76645E+00  3.88314E+00  5.08454E+00  3.42901E+00  1.05945E+01
 NY points of the fit to the data follow
   7.20804E+00  8.04927E+00  6.66490E+00  7.26599E+00  5.85342E+00  6.35979E+00  5.28747E+00  6.22270E+00  5.57918E+00  6.39206E+00
   5.77263E+00  6.50507E+00  5.87814E+00  6.27808E+00  5.47923E+00  5.73613E+00  4.94215E+00  5.19239E+00  4.82540E+00  4.99457E+00
   4.80565E+00  4.83150E+00  4.83393E+00  4.64095E+00  4.78973E+00  4.72817E+00  5.24328E+00  5.64949E+00  5.81515E+00  5.99394E+00
   5.92222E+00  5.95788E+00  5.83621E+00  5.84317E+00  5.90621E+00  6.17354E+00  6.31347E+00  6.58217E+00  6.60246E+00  6.81773E+00
   6.46663E+00  6.40007E+00  5.71534E+00  5.55959E+00  4.88565E+00  4.73501E+00  4.65434E+00  4.60940E+00  4.51757E+00  4.57495E+00
   4.40555E+00  4.52507E+00  4.17937E+00  4.30872E+00  3.71695E+00  3.59631E+00  2.74980E+00  2.46636E+00  1.49360E+00  1.28657E+00
   5.06022E-01  7.79800E-01  6.28029E-01  1.66765E+00  1.61900E+00  2.41219E+00  2.04701E+00  2.57542E+00  2.02494E+00  2.30708E+00
   1.67807E+00  1.78173E+00  1.22472E+00  1.21602E+00  8.17133E-01  8.46417E-01  4.78266E-01  4.05840E-01 -8.01355E-02 -4.13521E-01
  -9.48465E-01 -1.40917E+00 -1.81294E+00 -2.22285E+00 -2.41152E+00 -2.69248E+00 -2.69302E+00 -2.78453E+00 -2.56549E+00 -2.57993E+00
  -1.90483E+00 -1.48822E+00 -8.05481E-01 -3.73246E-02  4.89246E-01  1.67896E+00  1.75952E+00  3.23863E+00  2.88603E+00  4.54619E+00
   3.59042E+00  5.14278E+00  3.67597E+00  4.95536E+00  3.18319E+00  4.36885E+00  2.46285E+00  3.58060E+00  1.64731E+00  2.68142E+00
   8.46004E-01  1.67383E+00  8.55003E-02  5.88704E-01 -4.09305E-01  3.91990E-01  3.32070E-02  1.19231E+00  1.69699E+00  3.67081E+00
   3.75474E+00  5.82281E+00  5.45998E+00  7.41031E+00  6.44713E+00  7.92506E+00  6.55347E+00  7.63419E+00  6.12357E+00  6.96450E+00
   5.43091E+00  5.88796E+00  4.39252E+00  4.42230E+00  3.06104E+00  2.62058E+00  1.43683E+00  4.79183E-01 -4.73093E-01 -1.92013E+00
  -2.34604E+00 -3.67403E+00 -3.24633E+00 -3.61031E+00 -3.13131E+00 -3.47901E+00 -3.06436E+00 -3.32422E+00 -2.94352E+00 -3.09309E+00
  -2.75962E+00 -2.97621E+00 -2.88346E+00 -3.10996E+00 -3.21376E+00 -3.33939E+00 -3.45138E+00 -3.46296E+00 -3.51493E+00 -3.47702E+00
  -3.52359E+00 -3.46005E+00 -3.51301E+00 -3.45857E+00 -3.53350E+00 -3.46909E+00 -3.53648E+00 -3.48265E+00 -3.55610E+00 -3.54098E+00
  -3.60073E+00 -3.61704E+00 -3.62787E+00 -3.66643E+00 -3.64672E+00 -3.72313E+00 -3.67396E+00 -3.77870E+00 -3.63675E+00 -3.66217E+00
  -3.39507E+00 -3.33441E+00 -3.03811E+00 -2.93262E+00 -2.64004E+00 -2.54052E+00 -2.36006E+00 -2.22015E+00 -2.11684E+00 -1.95082E+00
  -1.95259E+00 -1.72918E+00 -1.77568E+00 -1.48088E+00 -1.51683E+00 -1.18819E+00 -1.21962E+00 -9.50426E-01 -1.00040E+00 -8.02532E-01
  -8.87785E-01 -8.22818E-01 -9.64321E-01 -9.96231E-01 -1.08613E+00 -1.11218E+00 -1.05670E+00 -1.02787E+00 -8.47953E-01 -8.46868E-01
  -6.39230E-01 -7.07887E-01 -5.44062E-01 -6.87649E-01 -6.49426E-01 -7.39761E-01 -6.72375E-01 -7.08657E-01 -6.44695E-01 -6.60537E-01
  -6.24027E-01 -6.22486E-01 -6.09192E-01 -5.80946E-01 -5.78540E-01 -4.56429E-01 -4.12458E-01 -2.75541E-01 -2.65148E-01 -1.72814E-01
  -1.80346E-01 -1.71434E-01 -2.36843E-01 -2.90642E-01 -3.41390E-01 -4.35111E-01 -4.57754E-01 -5.38033E-01 -4.59653E-01 -4.87902E-01
  -3.08706E-01 -3.08462E-01 -5.63057E-02  2.38679E-03  3.69098E-01  4.15528E-01  8.55141E-01  9.91528E-01  2.05847E+00  2.56706E+00
   3.84515E+00  4.69974E+00  6.10005E+00  7.23823E+00  8.29478E+00  9.41127E+00  9.87550E+00  1.08629E+01  1.04940E+01  1.12384E+01
   1.02883E+01  1.08882E+01  9.73313E+00  1.02396E+01  8.81309E+00  9.14711E+00  7.45514E+00  7.57190E+00  5.64469E+00  5.53669E+00
   3.50257E+00  3.20596E+00  1.29263E+00  7.72120E-01 -5.77429E-01 -9.58203E-01 -9.90440E-01 -9.75386E-01 -9.47487E-01 -9.15712E-01
  -8.77002E-01 -8.41671E-01 -7.98139E-01 -7.65537E-01 -7.22697E-01 -6.96736E-01 -6.60492E-01 -6.34549E-01 -5.98116E-01 -5.68880E-01
  -5.28889E-01 -4.94268E-01 -4.49795E-01 -4.11740E-01 -3.67278E-01 -3.28174E-01 -2.83302E-01 -2.44394E-01 -2.00501E-01 -1.59064E-01
  -1.14589E-01 -6.91464E-02 -1.99670E-02  3.06087E-02  8.43504E-02  1.41956E-01  2.02365E-01  2.68068E-01  3.39312E-01  4.16560E-01
   4.99719E-01  5.91033E-01  6.88368E-01  7.96052E-01  9.10304E-01  1.03648E+00  1.17159E+00  1.32020E+00  1.47932E+00  1.65351E+00
   1.83964E+00  2.04217E+00  2.25774E+00  2.49074E+00  2.73816E+00  3.00485E+00  3.28865E+00  3.59564E+00  3.92579E+00  4.28883E+00
   4.69110E+00  5.15353E+00  5.70363E+00  6.40989E+00  7.43950E+00  9.06470E+00  9.96575E+00  1.12538E+01  1.18603E+01  1.25406E+01
   1.25504E+01  1.18580E+01  1.13465E+01  1.07821E+01  1.05464E+01  9.93982E+00  1.03908E+01  1.06255E+01  1.20654E+01  1.29211E+01
   1.47494E+01  1.55890E+01  1.72622E+01  1.70195E+01  1.77862E+01  1.62150E+01  1.59771E+01  1.36429E+01  1.29689E+01  1.05459E+01
   1.02854E+01  9.06867E+00  9.75172E+00  1.03834E+01  1.08124E+01  1.04413E+01  1.04109E+01  8.87980E+00  8.08096E+00  5.82689E+00
   4.48955E+00  3.69953E+00  3.16282E+00  2.77564E+00  2.48159E+00  2.25552E+00  2.07537E+00  1.93386E+00  1.81898E+00  1.72938E+00
   1.65676E+00  1.60240E+00  1.56001E+00  1.53235E+00  1.51403E+00  1.50837E+00  1.51040E+00  1.52385E+00  1.54416E+00  1.57531E+00
   1.61275E+00  1.66031E+00  1.71330E+00  1.77549E+00  1.84204E+00  1.91647E+00  1.99351E+00  2.07624E+00  2.15904E+00  2.24476E+00
   2.32752E+00  2.40993E+00  2.48588E+00  2.55790E+00  2.62004E+00  2.67513E+00  2.71758E+00  2.75067E+00  2.76931E+00  2.77744E+00
   2.77071E+00  2.75387E+00  2.72321E+00  2.68405E+00  2.63320E+00  2.57645E+00  2.51097E+00  2.44276E+00  2.36900E+00  2.29558E+00
   2.21948E+00  2.14640E+00  2.07302E+00  2.00468E+00  1.93766E+00  1.87686E+00  1.81821E+00  1.76636E+00  1.71695E+00  1.67437E+00
   1.63402E+00  1.60012E+00  1.56798E+00  1.54182E+00  1.51689E+00  1.49734E+00  1.47840E+00  1.46427E+00  1.45022E+00  1.44052E+00
   1.43047E+00  1.42434E+00  1.41744E+00  1.41412E+00  1.40975E+00  1.40873E+00  1.40643E+00  1.40723E+00  1.40653E+00  1.40879E+00
   1.40943E+00  1.41292E+00  1.41466E+00  1.41911E+00  1.42172E+00  1.42698E+00  1.43034E+00  1.43630E+00  1.44027E+00  1.44676E+00
   1.45122E+00  1.45819E+00  1.46310E+00  1.47046E+00  1.47571E+00  1.48337E+00  1.48890E+00  1.49685E+00  1.50264E+00  1.51081E+00
   1.51677E+00  1.52508E+00  1.53120E+00  1.53967E+00  1.54591E+00  1.55447E+00  1.56076E+00  1.56937E+00  1.57573E+00  1.58439E+00
   1.59076E+00  1.59939E+00  1.60572E+00  1.61432E+00  1.62061E+00  1.62915E+00  1.63534E+00  1.64374E+00  1.64977E+00  1.65803E+00
   1.66389E+00  1.67194E+00  1.67753E+00  1.68527E+00  1.69055E+00  1.69794E+00  1.70281E+00  1.70972E+00
 NY background values follow
    -3.608E+00   -3.602E+00   -3.597E+00   -3.591E+00   -3.585E+00   -3.579E+00   -3.573E+00   -3.567E+00   -3.561E+00   -3.555E+00
    -3.549E+00   -3.543E+00   -3.537E+00   -3.531E+00   -3.524E+00   -3.518E+00   -3.512E+00   -3.506E+00   -3.500E+00   -3.493E+00
    -3.487E+00   -3.481E+00   -3.474E+00   -3.468E+00   -3.461E+00   -3.455E+00   -3.448E+00   -3.442E+00   -3.435E+00   -3.429E+00
    -3.422E+00   -3.416E+00   -3.409E+00   -3.402E+00   -3.396E+00   -3.389E+00   -3.382E+00   -3.376E+00   -3.369E+00   -3.362E+00
    -3.355E+00   -3.348E+00   -3.342E+00   -3.335E+00   -3.328E+00   -3.321E+00   -3.314E+00   -3.307E+00   -3.300E+00   -3.293E+00
    -3.286E+00   -3.279E+00   -3.271E+00   -3.264E+00   -3.257E+00   -3.250E+00   -3.243E+00   -3.236E+00   -3.228E+00   -3.221E+00
    -3.214E+00   -3.206E+00   -3.199E+00   -3.192E+00   -3.184E+00   -3.177E+00   -3.169E+00   -3.162E+00   -3.154E+00   -3.147E+00
    -3.139E+00   -3.132E+00   -3.124E+00   -3.117E+00   -3.109E+00   -3.101E+00   -3.094E+00   -3.086E+00   -3.078E+00   -3.071E+00
    -3.063E+00   -3.055E+00   -3.047E+00   -3.039E+00   -3.032E+00   -3.024E+00   -3.016E+00   -3.008E+00   -3.000E+00   -2.992E+00
    -2.984E+00   -2.976E+00   -2.968E+00   -2.960E+00   -2.952E+00   -2.944E+00   -2.936E+00   -2.928E+00   -2.919E+00   -2.911E+00
    -2.903E+00   -2.895E+00   -2.887E+00   -2.878E+00   -2.870E+00   -2.862E+00   -2.853E+00   -2.845E+00   -2.837E+00   -2.828E+00
    -2.820E+00   -2.812E+00   -2.803E+00   -2.795E+00   -2.786E+00   -2.778E+00   -2.769E+00   -2.761E+00   -2.752E+00   -2.744E+00
    -2.735E+00   -2.726E+00   -2.718E+00   -2.709E+00   -2.700E+00   -2.692E+00   -2.683E+00   -2.674E+00   -2.666E+00   -2.657E+00
    -2.648E+00   -2.639E+00   -2.630E+00   -2.622E+00   -2.613E+00   -2.604E+00   -2.595E+00   -2.586E+00   -2.577E+00   -2.568E+00
    -2.559E+00   -2.550E+00   -2.541E+00   -2.532E+00   -2.523E+00   -2.514E+00   -2.505E+00   -2.496E+00   -2.487E+00   -2.478E+00
    -2.469E+00   -2.459E+00   -2.450E+00   -2.441E+00   -2.432E+00   -2.423E+00   -2.413E+00   -2.404E+00   -2.395E+00   -2.386E+00
    -2.376E+00   -2.367E+00   -2.358E+00   -2.348E+00   -2.339E+00   -2.329E+00   -2.320E+00   -2.311E+00   -2.301E+00   -2.292E+00
    -2.282E+00   -2.273E+00   -2.263E+00   -2.254E+00   -2.244E+00   -2.235E+00   -2.225E+00   -2.216E+00   -2.206E+00   -2.196E+00
    -2.187E+00   -2.177E+00   -2.167E+00   -2.158E+00   -2.148E+00   -2.138E+00   -2.129E+00   -2.119E+00   -2.109E+00   -2.099E+00
    -2.090E+00   -2.080E+00   -2.070E+00   -2.060E+00   -2.050E+00   -2.041E+00   -2.031E+00   -2.021E+00   -2.011E+00   -2.001E+00
    -1.991E+00   -1.981E+00   -1.971E+00   -1.961E+00   -1.952E+00   -1.942E+00   -1.932E+00   -1.922E+00   -1.912E+00   -1.902E+00
    -1.891E+00   -1.881E+00   -1.871E+00   -1.861E+00   -1.851E+00   -1.841E+00   -1.831E+00   -1.821E+00   -1.811E+00   -1.801E+00
    -1.790E+00   -1.780E+00   -1.770E+00   -1.760E+00   -1.750E+00   -1.739E+00   -1.729E+00   -1.719E+00   -1.709E+00   -1.698E+00
    -1.688E+00   -1.678E+00   -1.668E+00   -1.657E+00   -1.647E+00   -1.637E+00   -1.626E+00   -1.616E+00   -1.606E+00   -1.595E+00
    -1.585E+00   -1.574E+00   -1.564E+00   -1.554E+00   -1.543E+00   -1.533E+00   -1.522E+00   -1.512E+00   -1.501E+00   -1.491E+00
    -1.480E+00   -1.470E+00   -1.459E+00   -1.449E+00   -1.438E+00   -1.428E+00   -1.417E+00   -1.407E+00   -1.396E+00   -1.386E+00
    -1.375E+00   -1.365E+00   -1.354E+00   -1.343E+00   -1.333E+00   -1.322E+00   -1.312E+00   -1.301E+00   -1.290E+00   -1.280E+00
    -1.269E+00   -1.258E+00   -1.248E+00   -1.237E+00   -1.226E+00   -1.216E+00   -1.205E+00   -1.194E+00   -1.183E+00   -1.173E+00
    -1.162E+00   -1.151E+00   -1.140E+00   -1.130E+00   -1.119E+00   -1.108E+00   -1.097E+00   -1.087E+00   -1.076E+00   -1.065E+00
    -1.054E+00   -1.043E+00   -1.033E+00   -1.022E+00   -1.011E+00   -1.000E+00   -9.893E-01   -9.785E-01   -9.676E-01   -9.568E-01
    -9.459E-01   -9.350E-01   -9.242E-01   -9.133E-01   -9.024E-01   -8.915E-01   -8.806E-01   -8.697E-01   -8.588E-01   -8.479E-01
    -8.370E-01   -8.261E-01   -8.152E-01   -8.042E-01   -7.933E-01   -7.824E-01   -7.714E-01   -7.605E-01   -7.496E-01   -7.386E-01
    -7.276E-01   -7.167E-01   -7.057E-01   -6.948E-01   -6.838E-01   -6.728E-01   -6.618E-01   -6.509E-01   -6.399E-01   -6.289E-01
    -6.179E-01   -6.069E-01   -5.959E-01   -5.849E-01   -5.739E-01   -5.629E-01   -5.519E-01   -5.409E-01   -5.299E-01   -5.189E-01
    -5.078E-01   -4.968E-01   -4.858E-01   -4.748E-01   -4.637E-01   -4.527E-01   -4.417E-01   -4.307E-01   -4.196E-01   -4.086E-01
    -3.976E-01   -3.865E-01   -3.755E-01   -3.644E-01   -3.534E-01   -3.424E-01   -3.313E-01   -3.203E-01   -3.092E-01   -2.982E-01
    -2.871E-01   -2.761E-01   -2.650E-01   -2.540E-01   -2.429E-01   -2.319E-01   -2.208E-01   -2.098E-01   -1.987E-01   -1.877E-01
    -1.766E-01   -1.656E-01   -1.545E-01   -1.435E-01   -1.324E-01   -1.214E-01   -1.103E-01   -9.930E-02   -8.826E-02   -7.721E-02
    -6.617E-02   -5.513E-02   -4.409E-02   -3.305E-02   -2.201E-02   -1.097E-02    6.744E-05    1.110E-02    2.214E-02    3.317E-02
     4.420E-02    5.522E-02    6.625E-02    7.727E-02    8.830E-02    9.932E-02    1.103E-01    1.213E-01    1.324E-01    1.434E-01
     1.544E-01    1.654E-01    1.764E-01    1.874E-01    1.984E-01    2.094E-01    2.204E-01    2.314E-01    2.423E-01    2.533E-01
     2.643E-01    2.753E-01    2.862E-01    2.972E-01    3.082E-01    3.191E-01    3.301E-01    3.410E-01    3.520E-01    3.629E-01
     3.739E-01    3.848E-01    3.957E-01    4.066E-01    4.176E-01    4.285E-01    4.394E-01    4.503E-01    4.612E-01    4.721E-01
     4.830E-01    4.939E-01    5.048E-01    5.156E-01    5.265E-01    5.374E-01    5.482E-01    5.591E-01    5.699E-01    5.808E-01
     5.916E-01    6.024E-01    6.133E-01    6.241E-01    6.349E-01    6.457E-01    6.565E-01    6.673E-01    6.781E-01    6.889E-01
     6.996E-01    7.104E-01    7.212E-01    7.319E-01    7.427E-01    7.534E-01    7.641E-01    7.749E-01    7.856E-01    7.963E-01
     8.070E-01    8.177E-01    8.284E-01    8.391E-01    8.497E-01    8.604E-01    8.711E-01    8.817E-01    8.923E-01    9.030E-01
     9.136E-01    9.242E-01    9.348E-01    9.454E-01    9.560E-01    9.666E-01    9.772E-01    9.877E-01    9.983E-01    1.009E+00
     1.019E+00    1.030E+00    1.040E+00    1.051E+00    1.061E+00    1.072E+00    1.082E+00    1.093E+00    1.103E+00    1.114E+00
     1.124E+00    1.135E+00    1.145E+00    1.155E+00    1.166E+00    1.176E+00    1.187E+00    1.197E+00
 Asp      Conc. = 9.98E+01
