 LCModel (Version 6.3-1L) Copyright: S.W. Provencher.          Ref.: Magn. Reson. Med. 30:672-679 (1993).                
 Slice#3 Row#5 Col#1  PD_05_press_2_raw_act
 36 lines in following concentration table = NCONC+1
    Conc.  %SD /Cr+PCr  Metabolite                                         
  120.006  90%   0.260 Ala                                                 
   45.048 198% 9.8E-02 Asp                                                 
   67.271 284%   0.146 Cr                                                  
  394.120  51%   0.854 PCr                                                 
   44.538 121% 9.7E-02 GABA                                                
   55.851  97%   0.121 Glc                                                 
   31.048 684% 6.7E-02 Gln                                                 
  582.137  41%   1.262 Glu                                                 
  135.487  16%   0.294 GPC                                                 
    0.000 999%   0.000 PCh                                                 
  258.487  30%   0.560 GSH                                                 
  962.120  28%   2.085 Ins                                                 
    0.000 999%   0.000 Lac                                                 
  609.271  11%   1.321 NAA                                                 
    0.000 999%   0.000 NAAG                                                
   29.132  56% 6.3E-02 Scyllo                                              
  112.098  79%   0.243 Tau                                                 
  231.558  43%   0.502 -CrCH2                                              
  135.487  16%   0.294 GPC+PCh                                             
  609.271  11%   1.321 NAA+NAAG                                            
  461.391  13%   1.000 Cr+PCr                                              
  613.186  51%   1.329 Glu+Gln                                             
    0.000 999%   0.000 Lip13a                                              
    0.000 999%   0.000 Lip13b                                              
    0.000 999%   0.000 Lip09                                               
  284.690  63%   0.617 MM09                                                
    0.000 999%   0.000 Lip20                                               
   45.432 658% 9.8E-02 MM20                                                
   47.606 175%   0.103 MM12                                                
  760.954  32%   1.649 MM14                                                
  922.392  15%   1.999+MM17                                                
    0.000 999%   0.000 Lip13a+Lip13b                                       
  808.559  35%   1.752 MM14+Lip13a+Lip13b+MM12                             
  284.690  63%   0.617 MM09+Lip09                                          
   45.432 658% 9.8E-02 MM20+Lip20                                          
   6 lines in following misc. output table
  FWHM = 0.046 ppm    S/N =   3                                            
  Data shift = 0.015 ppm                                                   
  Ph:   2 deg     -17.4 deg/ppm                                            
  alphaB,S = 8.9E-01,   4.8E+01                                            
   14 spline knots.   Ns = 5(1)                                            
  ( 7) 2 infls.   ( 3) 1 extrs.                                            
  498 points on ppm-axis = NY
      4.000000     3.992357     3.984714     3.977070     3.969427     3.961784     3.954141     3.946497     3.938854     3.931211
      3.923568     3.915925     3.908281     3.900638     3.892995     3.885352     3.877708     3.870065     3.862422     3.854779
      3.847136     3.839492     3.831849     3.824206     3.816563     3.808919     3.801276     3.793633     3.785990     3.778347
      3.770703     3.763060     3.755417     3.747774     3.740130     3.732487     3.724844     3.717201     3.709558     3.701914
      3.694271     3.686628     3.678985     3.671341     3.663698     3.656055     3.648412     3.640769     3.633125     3.625482
      3.617839     3.610196     3.602552     3.594909     3.587266     3.579623     3.571980     3.564336     3.556693     3.549050
      3.541407     3.533763     3.526120     3.518477     3.510834     3.503191     3.495547     3.487904     3.480261     3.472618
      3.464974     3.457331     3.449688     3.442045     3.434402     3.426758     3.419115     3.411472     3.403829     3.396185
      3.388542     3.380899     3.373256     3.365613     3.357969     3.350326     3.342683     3.335040     3.327396     3.319753
      3.312110     3.304467     3.296824     3.289180     3.281537     3.273894     3.266251     3.258607     3.250964     3.243321
      3.235678     3.228034     3.220391     3.212748     3.205105     3.197462     3.189818     3.182175     3.174532     3.166889
      3.159245     3.151602     3.143959     3.136316     3.128673     3.121029     3.113386     3.105743     3.098100     3.090456
      3.082813     3.075170     3.067527     3.059884     3.052240     3.044597     3.036954     3.029311     3.021667     3.014024
      3.006381     2.998738     2.991095     2.983451     2.975808     2.968165     2.960522     2.952878     2.945235     2.937592
      2.929949     2.922306     2.914662     2.907019     2.899376     2.891733     2.884089     2.876446     2.868803     2.861160
      2.853517     2.845873     2.838230     2.830587     2.822944     2.815300     2.807657     2.800014     2.792371     2.784728
      2.777084     2.769441     2.761798     2.754155     2.746511     2.738868     2.731225     2.723582     2.715939     2.708295
      2.700652     2.693009     2.685366     2.677722     2.670079     2.662436     2.654793     2.647150     2.639506     2.631863
      2.624220     2.616577     2.608933     2.601290     2.593647     2.586004     2.578361     2.570717     2.563074     2.555431
      2.547788     2.540144     2.532501     2.524858     2.517215     2.509572     2.501928     2.494285     2.486642     2.478999
      2.471355     2.463712     2.456069     2.448426     2.440783     2.433139     2.425496     2.417853     2.410210     2.402566
      2.394923     2.387280     2.379637     2.371994     2.364350     2.356707     2.349064     2.341421     2.333777     2.326134
      2.318491     2.310848     2.303205     2.295561     2.287918     2.280275     2.272632     2.264988     2.257345     2.249702
      2.242059     2.234416     2.226772     2.219129     2.211486     2.203843     2.196199     2.188556     2.180913     2.173270
      2.165627     2.157983     2.150340     2.142697     2.135054     2.127410     2.119767     2.112124     2.104481     2.096838
      2.089194     2.081551     2.073908     2.066265     2.058621     2.050978     2.043335     2.035692     2.028049     2.020405
      2.012762     2.005119     1.997476     1.989833     1.982190     1.974546     1.966903     1.959260     1.951617     1.943974
      1.936331     1.928688     1.921045     1.913402     1.905759     1.898115     1.890472     1.882829     1.875186     1.867543
      1.859900     1.852257     1.844614     1.836971     1.829327     1.821684     1.814041     1.806398     1.798755     1.791112
      1.783469     1.775826     1.768183     1.760540     1.752896     1.745253     1.737610     1.729967     1.722324     1.714681
      1.707038     1.699395     1.691752     1.684108     1.676465     1.668822     1.661179     1.653536     1.645893     1.638250
      1.630607     1.622964     1.615321     1.607677     1.600034     1.592391     1.584748     1.577105     1.569462     1.561819
      1.554176     1.546533     1.538890     1.531246     1.523603     1.515960     1.508317     1.500674     1.493031     1.485388
      1.477745     1.470102     1.462458     1.454815     1.447172     1.439529     1.431886     1.424243     1.416600     1.408957
      1.401314     1.393671     1.386027     1.378384     1.370741     1.363098     1.355455     1.347812     1.340169     1.332526
      1.324883     1.317240     1.309596     1.301953     1.294310     1.286667     1.279024     1.271381     1.263738     1.256095
      1.248452     1.240808     1.233165     1.225522     1.217879     1.210236     1.202593     1.194950     1.187307     1.179664
      1.172021     1.164377     1.156734     1.149091     1.141448     1.133805     1.126162     1.118519     1.110876     1.103233
      1.095590     1.087946     1.080303     1.072660     1.065017     1.057374     1.049731     1.042088     1.034445     1.026802
      1.019158     1.011515     1.003872     0.996229     0.988586     0.980943     0.973300     0.965657     0.958014     0.950371
      0.942727     0.935084     0.927441     0.919798     0.912155     0.904512     0.896869     0.889226     0.881583     0.873940
      0.866296     0.858653     0.851010     0.843367     0.835724     0.828081     0.820438     0.812795     0.805152     0.797508
      0.789865     0.782222     0.774579     0.766936     0.759293     0.751650     0.744007     0.736364     0.728721     0.721077
      0.713434     0.705791     0.698148     0.690505     0.682862     0.675219     0.667576     0.659933     0.652290     0.644646
      0.637003     0.629360     0.621717     0.614074     0.606431     0.598788     0.591145     0.583502     0.575858     0.568215
      0.560572     0.552929     0.545286     0.537643     0.530000     0.522357     0.514714     0.507071     0.499427     0.491784
      0.484141     0.476498     0.468855     0.461212     0.453569     0.445925     0.438282     0.430639     0.422996     0.415353
      0.407710     0.400067     0.392424     0.384780     0.377137     0.369494     0.361851     0.354208     0.346565     0.338922
      0.331278     0.323635     0.315992     0.308349     0.300706     0.293063     0.285420     0.277777     0.270133     0.262490
      0.254847     0.247204     0.239561     0.231918     0.224275     0.216631     0.208988     0.201345
 NY phased data points follow
  -7.33787E+01 -6.93888E+01 -7.06476E+01 -6.54636E+01 -5.73230E+01 -5.99438E+01 -5.62509E+01 -6.01371E+01 -4.90575E+01 -4.89038E+01
  -4.62991E+01 -4.42619E+01 -4.79637E+01 -5.38487E+01 -5.31347E+01 -5.16609E+01 -5.41027E+01 -4.84523E+01 -4.49661E+01 -4.23452E+01
  -4.56655E+01 -4.80225E+01 -3.83396E+01 -4.31757E+01 -4.42954E+01 -3.45636E+01 -3.38291E+01 -3.61927E+01 -3.93514E+01 -3.03409E+01
  -3.14723E+01 -3.58457E+01 -3.46112E+01 -3.04098E+01 -2.75295E+01 -2.41973E+01 -2.88251E+01 -3.35506E+01 -2.98520E+01 -2.82723E+01
  -3.29259E+01 -2.64215E+01 -2.05756E+01 -1.86285E+01 -2.59963E+01 -2.07876E+01 -2.06656E+01 -1.34566E+01 -2.73211E+01 -2.54371E+01
  -2.35757E+01 -2.60852E+01 -2.21603E+01 -2.25804E+01 -2.51608E+01 -2.33510E+01 -1.81482E+01 -1.48859E+01 -1.77586E+01 -9.88323E+00
  -1.30265E+01 -1.83657E+01 -2.06286E+01 -2.01113E+01 -1.22976E+01 -1.05285E+01 -1.76842E+01 -2.27024E+01 -1.72040E+01 -1.24916E+01
  -1.10662E+01 -9.92471E+00 -1.10183E+01 -1.34611E+01 -5.35086E+00 -4.97673E+00 -6.01377E+00 -6.57291E+00 -9.68714E+00 -6.31228E-01
  -6.94741E+00 -7.36577E+00 -2.74641E+00 -4.57211E+00 -5.32415E+00 -1.43061E+00 -6.40173E+00 -2.38901E+00 -1.45275E+00 -3.52122E+00
  -6.86542E+00 -8.51050E-02  4.00907E+00  5.29810E-01 -3.74986E+00 -4.63187E+00 -3.44442E+00  5.58522E+00  5.12683E+00  9.15961E+00
   7.69984E+00  1.27375E+01  1.80494E+01  1.45117E+01  8.37813E+00  1.26823E+01  9.35399E+00  5.95726E+00  1.22616E+01  1.26819E+00
  -1.95415E+00  1.20344E+01  8.50463E+00  3.20220E+00  8.59396E+00  5.37270E+00  5.44301E+00  6.91907E+00  4.76072E+00  9.46894E+00
   4.00083E+00  1.21393E+01  6.07006E+00  1.28219E+01  1.40383E+01  2.46775E+01  3.19589E+01  3.16857E+01  2.74309E+01  2.11536E+01
   1.48624E+01  1.87015E+01  1.85823E+01  1.44483E+01  7.98923E+00  6.08560E+00  3.14168E+00  1.13384E+01  1.62334E+01  1.12729E+01
   1.97031E+01  9.37774E+00  9.38776E+00  1.20855E+01  1.82327E+01  1.33391E+01  1.20406E+01  1.45165E+01  1.63029E+01  1.13340E+01
   1.93771E+01  1.82368E+01  1.18487E+01  1.92742E+01  1.69839E+01  1.75206E+01  2.24235E+01  1.92932E+01  1.84599E+01  1.76445E+01
   1.51545E+01  1.96791E+01  2.04506E+01  2.01360E+01  1.21236E+01  1.93645E+01  1.95973E+01  2.28052E+01  1.70674E+01  1.64800E+01
   2.72380E+01  2.18169E+01  2.60642E+01  1.97857E+01  1.70893E+01  2.08771E+01  2.10018E+01  1.50471E+01  2.03706E+01  1.39357E+01
   1.48083E+01  1.58261E+01  1.69006E+01  1.71434E+01  2.09518E+01  1.68881E+01  1.39886E+01  2.27945E+01  1.55246E+01  2.19779E+01
   1.86574E+01  2.38943E+01  2.27221E+01  1.92281E+01  2.76252E+01  2.11659E+01  2.48829E+01  2.04226E+01  1.82210E+01  2.50055E+01
   2.24087E+01  2.74465E+01  2.80862E+01  3.04666E+01  2.23081E+01  2.99281E+01  1.88269E+01  2.20629E+01  2.81860E+01  2.35024E+01
   2.73666E+01  3.23578E+01  2.59710E+01  2.49195E+01  2.34474E+01  2.58593E+01  2.94657E+01  3.18250E+01  2.60949E+01  3.32909E+01
   2.67509E+01  2.68628E+01  1.26691E+01  2.58583E+01  2.64177E+01  2.99810E+01  2.14106E+01  3.79145E+01  2.37349E+01  3.40520E+01
   2.83345E+01  2.99915E+01  2.43422E+01  3.18440E+01  3.13709E+01  3.05888E+01  3.02000E+01  2.74473E+01  2.77125E+01  2.58617E+01
   2.49915E+01  2.63929E+01  2.69915E+01  2.94401E+01  3.34274E+01  2.93452E+01  2.47564E+01  2.82671E+01  3.01839E+01  3.01713E+01
   3.19832E+01  2.93226E+01  3.40536E+01  3.01692E+01  2.97236E+01  3.32652E+01  4.40418E+01  4.10895E+01  5.15931E+01  5.12717E+01
   5.73882E+01  5.93203E+01  5.36294E+01  4.97058E+01  4.14034E+01  4.00555E+01  3.59555E+01  3.41795E+01  3.63864E+01  3.71249E+01
   2.93525E+01  3.23212E+01  3.19290E+01  3.36113E+01  3.48294E+01  3.85452E+01  4.20670E+01  3.19505E+01  3.31542E+01  3.63160E+01
   4.22946E+01  3.85138E+01  2.40409E+01  2.70526E+01  4.08147E+01  4.04554E+01  3.57600E+01  3.60079E+01  3.65019E+01  4.12052E+01
   4.43924E+01  4.23286E+01  4.23958E+01  3.97860E+01  3.66871E+01  3.78060E+01  4.00419E+01  4.53825E+01  4.37616E+01  5.15983E+01
   5.03720E+01  4.40675E+01  4.24996E+01  4.75591E+01  4.86012E+01  5.19043E+01  4.28982E+01  5.36315E+01  4.81802E+01  5.11769E+01
   5.99730E+01  5.45133E+01  5.25468E+01  4.53118E+01  4.97658E+01  5.27174E+01  5.28288E+01  5.29178E+01  5.55483E+01  4.61878E+01
   5.48112E+01  5.49897E+01  5.50601E+01  5.46583E+01  4.93026E+01  4.40930E+01  3.89211E+01  4.74089E+01  4.68498E+01  4.30774E+01
   4.56151E+01  4.64950E+01  4.49368E+01  4.36981E+01  4.74022E+01  4.17718E+01  4.36165E+01  3.87136E+01  4.24383E+01  4.01964E+01
   4.41430E+01  4.95317E+01  4.73758E+01  4.45248E+01  4.30346E+01  4.60550E+01  4.72539E+01  4.44144E+01  4.59139E+01  4.49429E+01
   4.07424E+01  4.41269E+01  3.48612E+01  4.04343E+01  4.34077E+01  4.04923E+01  3.31845E+01  3.87473E+01  3.22510E+01  3.61988E+01
   3.79369E+01  4.08530E+01  3.94319E+01  3.05556E+01  4.15484E+01  2.83466E+01  3.67405E+01  3.40060E+01  3.50760E+01  3.01053E+01
   3.21095E+01  4.29497E+01  4.53540E+01  3.80846E+01  3.42742E+01  3.48342E+01  3.69103E+01  4.35897E+01  3.91484E+01  3.06763E+01
   3.73921E+01  3.72742E+01  4.64499E+01  3.89883E+01  3.68296E+01  3.78556E+01  4.50454E+01  3.82629E+01  3.00188E+01  4.22972E+01
   3.72934E+01  3.89703E+01  3.59855E+01  3.81659E+01  4.32066E+01  3.39209E+01  3.87581E+01  4.17160E+01  4.39422E+01  3.44117E+01
   3.92136E+01  3.95681E+01  4.63007E+01  3.92684E+01  4.26185E+01  3.99160E+01  3.64206E+01  3.71109E+01  3.45190E+01  3.90290E+01
   3.67973E+01  3.28011E+01  3.59109E+01  3.59598E+01  3.08607E+01  3.53329E+01  4.18329E+01  3.34083E+01  3.42513E+01  3.43888E+01
   3.41898E+01  3.36570E+01  3.38247E+01  3.75981E+01  3.33900E+01  4.18766E+01  3.18738E+01  4.62578E+01  3.49597E+01  3.39123E+01
   3.79055E+01  4.14248E+01  3.49826E+01  3.79285E+01  3.17000E+01  3.64081E+01  3.66630E+01  3.25748E+01  3.06124E+01  3.43089E+01
   3.97312E+01  3.02704E+01  3.26325E+01  3.58705E+01  3.51062E+01  3.57165E+01  3.14063E+01  3.36095E+01  3.34045E+01  3.61002E+01
   3.71472E+01  3.45388E+01  2.99302E+01  3.61023E+01  3.44441E+01  3.28547E+01  2.88023E+01  3.15080E+01  2.66317E+01  3.08766E+01
   3.07223E+01  2.86447E+01  3.72444E+01  3.67357E+01  3.67688E+01  3.16231E+01  3.83483E+01  3.10286E+01  3.93070E+01  3.82768E+01
   4.00059E+01  3.34993E+01  2.99336E+01  2.99938E+01  3.59879E+01  3.59319E+01  3.20163E+01  2.45321E+01  2.98638E+01  2.94346E+01
   3.07543E+01  3.29594E+01  3.50473E+01  3.53465E+01  3.18582E+01  3.29820E+01  3.17664E+01  3.04056E+01  3.27921E+01  3.32066E+01
   3.36705E+01  3.84522E+01  2.85455E+01  2.83881E+01  2.58282E+01  3.15476E+01  3.28340E+01  2.67609E+01
 NY points of the fit to the data follow
  -6.14685E+01 -6.09432E+01 -6.02370E+01 -5.94854E+01 -5.85720E+01 -5.70661E+01 -5.51265E+01 -5.29067E+01 -5.06573E+01 -4.88044E+01
  -4.77596E+01 -4.75727E+01 -4.78944E+01 -4.83060E+01 -4.85738E+01 -4.87225E+01 -4.86531E+01 -4.81994E+01 -4.75348E+01 -4.67584E+01
  -4.59354E+01 -4.51144E+01 -4.43158E+01 -4.35648E+01 -4.26347E+01 -4.10688E+01 -3.90909E+01 -3.69718E+01 -3.48332E+01 -3.29948E+01
  -3.18434E+01 -3.14418E+01 -3.13891E+01 -3.14437E+01 -3.17079E+01 -3.22432E+01 -3.28192E+01 -3.31161E+01 -3.31591E+01 -3.29170E+01
  -3.22618E+01 -3.09749E+01 -2.88911E+01 -2.62383E+01 -2.34454E+01 -2.10223E+01 -1.95458E+01 -1.93625E+01 -2.03234E+01 -2.17925E+01
  -2.30801E+01 -2.38707E+01 -2.41826E+01 -2.39536E+01 -2.30576E+01 -2.16880E+01 -2.01176E+01 -1.85770E+01 -1.72832E+01 -1.64294E+01
  -1.61080E+01 -1.61909E+01 -1.63814E+01 -1.64315E+01 -1.62008E+01 -1.56783E+01 -1.48530E+01 -1.38328E+01 -1.27678E+01 -1.17856E+01
  -1.09186E+01 -1.01697E+01 -9.58877E+00 -9.14667E+00 -8.78204E+00 -8.49689E+00 -8.29800E+00 -8.15610E+00 -7.95936E+00 -7.64449E+00
  -7.21062E+00 -6.66972E+00 -6.10612E+00 -5.68878E+00 -5.47947E+00 -5.45242E+00 -5.53040E+00 -5.55336E+00 -5.33617E+00 -4.81276E+00
  -4.06455E+00 -3.22548E+00 -2.47105E+00 -1.85107E+00 -1.35546E+00 -1.00151E+00 -6.44284E-01  3.24144E-01  2.78021E+00  6.24048E+00
   1.00035E+01  1.33527E+01  1.53324E+01  1.52987E+01  1.35013E+01  1.09719E+01  8.64418E+00  6.81992E+00  5.41941E+00  4.58316E+00
   4.50093E+00  4.71984E+00  5.00508E+00  5.30542E+00  5.59872E+00  5.87555E+00  6.13849E+00  6.40008E+00  6.67466E+00  7.00454E+00
   7.46940E+00  8.33353E+00  1.06062E+01  1.44797E+01  1.90055E+01  2.33869E+01  2.66238E+01  2.76652E+01  2.63482E+01  2.35970E+01
   2.05556E+01  1.78615E+01  1.54803E+01  1.33228E+01  1.18756E+01  1.12034E+01  1.10411E+01  1.13678E+01  1.20422E+01  1.28689E+01
   1.36789E+01  1.43204E+01  1.46977E+01  1.48654E+01  1.49220E+01  1.49268E+01  1.49340E+01  1.49613E+01  1.50240E+01  1.51150E+01
   1.52097E+01  1.53230E+01  1.54694E+01  1.56546E+01  1.58735E+01  1.61052E+01  1.62893E+01  1.63908E+01  1.64358E+01  1.64728E+01
   1.65850E+01  1.68046E+01  1.71054E+01  1.74387E+01  1.77242E+01  1.79084E+01  1.80070E+01  1.80741E+01  1.81404E+01  1.82158E+01
   1.82894E+01  1.83274E+01  1.83253E+01  1.83343E+01  1.83835E+01  1.85008E+01  1.86794E+01  1.88910E+01  1.91039E+01  1.92755E+01
   1.93901E+01  1.94895E+01  1.95791E+01  1.96525E+01  1.97841E+01  2.00946E+01  2.06659E+01  2.14907E+01  2.24118E+01  2.32253E+01
   2.37789E+01  2.39920E+01  2.38669E+01  2.34955E+01  2.30724E+01  2.27557E+01  2.26476E+01  2.27948E+01  2.31959E+01  2.37950E+01
   2.44517E+01  2.50740E+01  2.56175E+01  2.60103E+01  2.62039E+01  2.61174E+01  2.58086E+01  2.53897E+01  2.49247E+01  2.45302E+01
   2.44021E+01  2.47816E+01  2.57164E+01  2.69293E+01  2.81159E+01  2.89368E+01  2.90918E+01  2.84005E+01  2.70130E+01  2.54118E+01
   2.40860E+01  2.33127E+01  2.32846E+01  2.41003E+01  2.55055E+01  2.69658E+01  2.80667E+01  2.86761E+01  2.89097E+01  2.88873E+01
   2.87551E+01  2.87781E+01  2.91781E+01  2.98673E+01  3.05623E+01  3.10457E+01  3.11732E+01  3.09015E+01  3.02357E+01  2.93937E+01
   2.87660E+01  2.85894E+01  2.88612E+01  2.95170E+01  3.04470E+01  3.13828E+01  3.20294E+01  3.22858E+01  3.22472E+01  3.20803E+01
   3.19040E+01  3.18527E+01  3.20486E+01  3.24795E+01  3.31798E+01  3.51119E+01  3.92871E+01  4.47036E+01  5.03141E+01  5.49897E+01
   5.72363E+01  5.61690E+01  5.25142E+01  4.79811E+01  4.38658E+01  4.04886E+01  3.77535E+01  3.60163E+01  3.54325E+01  3.52710E+01
   3.52710E+01  3.54020E+01  3.56402E+01  3.59263E+01  3.62194E+01  3.64803E+01  3.66770E+01  3.68096E+01  3.68987E+01  3.69608E+01
   3.70188E+01  3.71008E+01  3.72183E+01  3.73684E+01  3.75432E+01  3.77336E+01  3.79325E+01  3.81362E+01  3.83436E+01  3.85600E+01
   3.87918E+01  3.90443E+01  3.93249E+01  3.96414E+01  3.99998E+01  4.04044E+01  4.08585E+01  4.13640E+01  4.19203E+01  4.25248E+01
   4.31723E+01  4.38543E+01  4.45595E+01  4.52740E+01  4.59814E+01  4.66642E+01  4.73044E+01  4.78847E+01  4.83890E+01  4.88038E+01
   4.91191E+01  4.93292E+01  4.94330E+01  4.94344E+01  4.93416E+01  4.91675E+01  4.89280E+01  4.86422E+01  4.83314E+01  4.80200E+01
   4.77383E+01  4.75371E+01  4.74800E+01  4.74526E+01  4.73047E+01  4.69677E+01  4.63842E+01  4.55586E+01  4.46130E+01  4.37254E+01
   4.31288E+01  4.29471E+01  4.31156E+01  4.35790E+01  4.42502E+01  4.48733E+01  4.52233E+01  4.52611E+01  4.50735E+01  4.47705E+01
   4.44034E+01  4.39879E+01  4.35960E+01  4.32696E+01  4.29778E+01  4.27046E+01  4.24448E+01  4.21964E+01  4.19589E+01  4.17322E+01
   4.15164E+01  4.13118E+01  4.11184E+01  4.09359E+01  4.07641E+01  4.06025E+01  4.04505E+01  4.03076E+01  4.01730E+01  4.00460E+01
   3.99257E+01  3.98116E+01  3.97029E+01  3.95991E+01  3.94994E+01  3.94034E+01  3.93105E+01  3.92205E+01  3.91330E+01  3.90481E+01
   3.89655E+01  3.88853E+01  3.88077E+01  3.87327E+01  3.86608E+01  3.85922E+01  3.85272E+01  3.84665E+01  3.84103E+01  3.83594E+01
   3.83143E+01  3.82756E+01  3.82440E+01  3.82200E+01  3.82043E+01  3.81972E+01  3.81993E+01  3.82106E+01  3.82312E+01  3.82607E+01
   3.82985E+01  3.83436E+01  3.83947E+01  3.84499E+01  3.85071E+01  3.85638E+01  3.86173E+01  3.86646E+01  3.87029E+01  3.87292E+01
   3.87410E+01  3.87359E+01  3.87123E+01  3.86688E+01  3.86050E+01  3.85211E+01  3.84177E+01  3.82965E+01  3.81593E+01  3.80086E+01
   3.78469E+01  3.76773E+01  3.75025E+01  3.73254E+01  3.71484E+01  3.69738E+01  3.68036E+01  3.66392E+01  3.64818E+01  3.63321E+01
   3.61906E+01  3.60573E+01  3.59321E+01  3.58147E+01  3.57047E+01  3.56015E+01  3.55044E+01  3.54130E+01  3.53265E+01  3.52443E+01
   3.51660E+01  3.50911E+01  3.50190E+01  3.49494E+01  3.48820E+01  3.48164E+01  3.47524E+01  3.46898E+01  3.46284E+01  3.45679E+01
   3.45084E+01  3.44496E+01  3.43914E+01  3.43338E+01  3.42766E+01  3.42199E+01  3.41634E+01  3.41073E+01  3.40514E+01  3.39957E+01
   3.39401E+01  3.38846E+01  3.38292E+01  3.37738E+01  3.37185E+01  3.36631E+01  3.36078E+01  3.35524E+01  3.34971E+01  3.34416E+01
   3.33861E+01  3.33306E+01  3.32750E+01  3.32193E+01  3.31635E+01  3.31077E+01  3.30517E+01  3.29956E+01  3.29395E+01  3.28832E+01
   3.28269E+01  3.27704E+01  3.27138E+01  3.26571E+01  3.26002E+01  3.25433E+01  3.24862E+01  3.24290E+01  3.23716E+01  3.23141E+01
   3.22565E+01  3.21988E+01  3.21409E+01  3.20829E+01  3.20247E+01  3.19664E+01  3.19079E+01  3.18494E+01  3.17906E+01  3.17318E+01
   3.16727E+01  3.16136E+01  3.15543E+01  3.14948E+01  3.14353E+01  3.13755E+01  3.13157E+01  3.12557E+01
 NY background values follow
    -6.323E+01   -6.246E+01   -6.168E+01   -6.091E+01   -6.013E+01   -5.936E+01   -5.858E+01   -5.781E+01   -5.704E+01   -5.626E+01
    -5.549E+01   -5.472E+01   -5.395E+01   -5.319E+01   -5.242E+01   -5.165E+01   -5.089E+01   -5.013E+01   -4.937E+01   -4.861E+01
    -4.785E+01   -4.710E+01   -4.635E+01   -4.560E+01   -4.485E+01   -4.410E+01   -4.336E+01   -4.262E+01   -4.188E+01   -4.115E+01
    -4.041E+01   -3.969E+01   -3.896E+01   -3.824E+01   -3.752E+01   -3.680E+01   -3.609E+01   -3.538E+01   -3.468E+01   -3.398E+01
    -3.328E+01   -3.259E+01   -3.190E+01   -3.121E+01   -3.053E+01   -2.986E+01   -2.919E+01   -2.852E+01   -2.786E+01   -2.720E+01
    -2.655E+01   -2.590E+01   -2.526E+01   -2.462E+01   -2.398E+01   -2.335E+01   -2.273E+01   -2.211E+01   -2.149E+01   -2.088E+01
    -2.028E+01   -1.968E+01   -1.908E+01   -1.849E+01   -1.790E+01   -1.732E+01   -1.674E+01   -1.617E+01   -1.560E+01   -1.504E+01
    -1.448E+01   -1.393E+01   -1.338E+01   -1.284E+01   -1.230E+01   -1.177E+01   -1.124E+01   -1.072E+01   -1.020E+01   -9.686E+00
    -9.178E+00   -8.675E+00   -8.177E+00   -7.684E+00   -7.196E+00   -6.714E+00   -6.236E+00   -5.764E+00   -5.296E+00   -4.834E+00
    -4.377E+00   -3.925E+00   -3.478E+00   -3.037E+00   -2.600E+00   -2.169E+00   -1.742E+00   -1.321E+00   -9.039E-01   -4.921E-01
    -8.503E-02    3.172E-01    7.148E-01    1.108E+00    1.496E+00    1.879E+00    2.258E+00    2.633E+00    3.003E+00    3.368E+00
     3.730E+00    4.086E+00    4.439E+00    4.787E+00    5.131E+00    5.471E+00    5.806E+00    6.138E+00    6.465E+00    6.789E+00
     7.108E+00    7.424E+00    7.735E+00    8.043E+00    8.347E+00    8.647E+00    8.943E+00    9.236E+00    9.525E+00    9.810E+00
     1.009E+01    1.037E+01    1.065E+01    1.092E+01    1.118E+01    1.145E+01    1.171E+01    1.197E+01    1.222E+01    1.247E+01
     1.272E+01    1.297E+01    1.321E+01    1.345E+01    1.369E+01    1.392E+01    1.415E+01    1.438E+01    1.460E+01    1.483E+01
     1.505E+01    1.526E+01    1.548E+01    1.569E+01    1.590E+01    1.611E+01    1.631E+01    1.651E+01    1.671E+01    1.691E+01
     1.711E+01    1.730E+01    1.749E+01    1.768E+01    1.787E+01    1.806E+01    1.824E+01    1.842E+01    1.860E+01    1.878E+01
     1.896E+01    1.913E+01    1.931E+01    1.948E+01    1.965E+01    1.982E+01    1.999E+01    2.015E+01    2.032E+01    2.048E+01
     2.064E+01    2.080E+01    2.096E+01    2.112E+01    2.128E+01    2.144E+01    2.159E+01    2.175E+01    2.190E+01    2.206E+01
     2.221E+01    2.236E+01    2.251E+01    2.266E+01    2.282E+01    2.296E+01    2.311E+01    2.326E+01    2.341E+01    2.356E+01
     2.371E+01    2.385E+01    2.400E+01    2.415E+01    2.429E+01    2.444E+01    2.459E+01    2.473E+01    2.488E+01    2.503E+01
     2.517E+01    2.532E+01    2.547E+01    2.562E+01    2.576E+01    2.591E+01    2.606E+01    2.621E+01    2.636E+01    2.651E+01
     2.666E+01    2.681E+01    2.696E+01    2.711E+01    2.727E+01    2.742E+01    2.757E+01    2.773E+01    2.789E+01    2.804E+01
     2.820E+01    2.836E+01    2.852E+01    2.868E+01    2.884E+01    2.900E+01    2.916E+01    2.933E+01    2.949E+01    2.965E+01
     2.982E+01    2.998E+01    3.015E+01    3.031E+01    3.048E+01    3.064E+01    3.081E+01    3.098E+01    3.114E+01    3.131E+01
     3.148E+01    3.165E+01    3.182E+01    3.198E+01    3.215E+01    3.232E+01    3.249E+01    3.266E+01    3.283E+01    3.300E+01
     3.316E+01    3.333E+01    3.350E+01    3.367E+01    3.384E+01    3.401E+01    3.417E+01    3.434E+01    3.451E+01    3.468E+01
     3.484E+01    3.501E+01    3.518E+01    3.534E+01    3.551E+01    3.567E+01    3.583E+01    3.600E+01    3.616E+01    3.632E+01
     3.648E+01    3.664E+01    3.679E+01    3.695E+01    3.710E+01    3.725E+01    3.740E+01    3.755E+01    3.770E+01    3.784E+01
     3.798E+01    3.812E+01    3.826E+01    3.839E+01    3.852E+01    3.865E+01    3.877E+01    3.890E+01    3.901E+01    3.913E+01
     3.924E+01    3.935E+01    3.946E+01    3.956E+01    3.965E+01    3.975E+01    3.984E+01    3.992E+01    4.001E+01    4.008E+01
     4.015E+01    4.022E+01    4.029E+01    4.034E+01    4.040E+01    4.045E+01    4.049E+01    4.053E+01    4.056E+01    4.059E+01
     4.061E+01    4.063E+01    4.065E+01    4.066E+01    4.066E+01    4.066E+01    4.066E+01    4.065E+01    4.064E+01    4.062E+01
     4.060E+01    4.058E+01    4.056E+01    4.053E+01    4.049E+01    4.046E+01    4.042E+01    4.038E+01    4.034E+01    4.029E+01
     4.024E+01    4.019E+01    4.014E+01    4.008E+01    4.002E+01    3.996E+01    3.990E+01    3.984E+01    3.978E+01    3.971E+01
     3.965E+01    3.958E+01    3.951E+01    3.944E+01    3.937E+01    3.930E+01    3.923E+01    3.916E+01    3.909E+01    3.902E+01
     3.895E+01    3.887E+01    3.880E+01    3.873E+01    3.866E+01    3.859E+01    3.852E+01    3.845E+01    3.838E+01    3.832E+01
     3.825E+01    3.818E+01    3.811E+01    3.805E+01    3.798E+01    3.791E+01    3.785E+01    3.778E+01    3.772E+01    3.765E+01
     3.759E+01    3.752E+01    3.746E+01    3.739E+01    3.733E+01    3.727E+01    3.721E+01    3.714E+01    3.708E+01    3.702E+01
     3.696E+01    3.690E+01    3.684E+01    3.678E+01    3.672E+01    3.666E+01    3.660E+01    3.654E+01    3.648E+01    3.643E+01
     3.637E+01    3.631E+01    3.625E+01    3.620E+01    3.614E+01    3.608E+01    3.603E+01    3.597E+01    3.592E+01    3.586E+01
     3.581E+01    3.576E+01    3.570E+01    3.565E+01    3.560E+01    3.554E+01    3.549E+01    3.544E+01    3.539E+01    3.533E+01
     3.528E+01    3.523E+01    3.518E+01    3.513E+01    3.508E+01    3.503E+01    3.498E+01    3.493E+01    3.487E+01    3.482E+01
     3.477E+01    3.472E+01    3.467E+01    3.462E+01    3.457E+01    3.452E+01    3.447E+01    3.442E+01    3.437E+01    3.432E+01
     3.427E+01    3.422E+01    3.417E+01    3.412E+01    3.407E+01    3.402E+01    3.397E+01    3.392E+01    3.387E+01    3.382E+01
     3.377E+01    3.372E+01    3.367E+01    3.361E+01    3.356E+01    3.351E+01    3.346E+01    3.341E+01    3.335E+01    3.330E+01
     3.325E+01    3.320E+01    3.314E+01    3.309E+01    3.304E+01    3.298E+01    3.293E+01    3.287E+01    3.282E+01    3.277E+01
     3.271E+01    3.266E+01    3.260E+01    3.255E+01    3.249E+01    3.244E+01    3.238E+01    3.232E+01    3.227E+01    3.221E+01
     3.216E+01    3.210E+01    3.204E+01    3.199E+01    3.193E+01    3.187E+01    3.181E+01    3.176E+01    3.170E+01    3.164E+01
     3.158E+01    3.153E+01    3.147E+01    3.141E+01    3.135E+01    3.129E+01    3.123E+01    3.117E+01
 Ala      Conc. = 1.20E+02
