 LCModel (Version 6.3-1L) Copyright: S.W. Provencher.          Ref.: Magn. Reson. Med. 30:672-679 (1993).                
 Slice#3 Row#8 Col#11  PD_05_press_2_raw_act
 36 lines in following concentration table = NCONC+1
    Conc.  %SD /Cr+PCr  Metabolite                                         
    0.000 999%   0.000 Ala                                                 
   78.059 290% 7.2E-02 Asp                                                 
    0.000 999%   0.000 Cr                                                  
 1.08E+03   7%   1.000 PCr                                                 
   60.530 241% 5.6E-02 GABA                                                
  110.969 129%   0.103 Glc                                                 
  727.652  46%   0.673 Gln                                                 
 1.99E+03  20%   1.840 Glu                                                 
  207.019  13%   0.191 GPC                                                 
    0.000 999%   0.000 PCh                                                 
   29.586 343% 2.7E-02 GSH                                                 
  284.855 119%   0.263 Ins                                                 
    0.000 999%   0.000 Lac                                                 
 2.90E+03   6%   2.678 NAA                                                 
  248.563  78%   0.230 NAAG                                                
   51.364  62% 4.7E-02 Scyllo                                              
  509.666  42%   0.471 Tau                                                 
 1.02E+03  13%   0.941 -CrCH2                                              
  207.019  13%   0.191 GPC+PCh                                             
 3.15E+03   4%   2.908 NAA+NAAG                                            
 1.08E+03   7%   1.000 Cr+PCr                                              
 2.72E+03  21%   2.513 Glu+Gln                                             
 1.60E+03  27%   1.475 Lip13a                                              
    0.000 999%   0.000 Lip13b                                              
    0.000 999%   0.000 Lip09                                               
 1.65E+03  16%   1.526 MM09                                                
  428.575  49%   0.396 Lip20                                               
 3.10E+03  13%   2.866 MM20                                                
  498.734  21%   0.461 MM12                                                
 1.14E+03  28%   1.056 MM14                                                
  931.915  21%   0.861 MM17                                                
 1.60E+03  27%   1.475 Lip13a+Lip13b                                       
 3.24E+03  15%   2.992 MM14+Lip13a+Lip13b+MM12                             
 1.65E+03  16%   1.526 MM09+Lip09                                          
 3.53E+03  12%   3.262 MM20+Lip20                                          
   6 lines in following misc. output table
  FWHM = 0.054 ppm    S/N =  11                                            
  Data shift = 0.031 ppm                                                   
  Ph: -18 deg      -9.1 deg/ppm                                            
  alphaB,S = 6.2E-01,   1.0E+02                                            
   14 spline knots.   Ns = 7(1)                                            
  (11) 4 infls.   ( 7) 1 extrs.                                            
  498 points on ppm-axis = NY
      4.000000     3.992357     3.984714     3.977070     3.969427     3.961784     3.954141     3.946497     3.938854     3.931211
      3.923568     3.915925     3.908281     3.900638     3.892995     3.885352     3.877708     3.870065     3.862422     3.854779
      3.847136     3.839492     3.831849     3.824206     3.816563     3.808919     3.801276     3.793633     3.785990     3.778347
      3.770703     3.763060     3.755417     3.747774     3.740130     3.732487     3.724844     3.717201     3.709558     3.701914
      3.694271     3.686628     3.678985     3.671341     3.663698     3.656055     3.648412     3.640769     3.633125     3.625482
      3.617839     3.610196     3.602552     3.594909     3.587266     3.579623     3.571980     3.564336     3.556693     3.549050
      3.541407     3.533763     3.526120     3.518477     3.510834     3.503191     3.495547     3.487904     3.480261     3.472618
      3.464974     3.457331     3.449688     3.442045     3.434402     3.426758     3.419115     3.411472     3.403829     3.396185
      3.388542     3.380899     3.373256     3.365613     3.357969     3.350326     3.342683     3.335040     3.327396     3.319753
      3.312110     3.304467     3.296824     3.289180     3.281537     3.273894     3.266251     3.258607     3.250964     3.243321
      3.235678     3.228034     3.220391     3.212748     3.205105     3.197462     3.189818     3.182175     3.174532     3.166889
      3.159245     3.151602     3.143959     3.136316     3.128673     3.121029     3.113386     3.105743     3.098100     3.090456
      3.082813     3.075170     3.067527     3.059884     3.052240     3.044597     3.036954     3.029311     3.021667     3.014024
      3.006381     2.998738     2.991095     2.983451     2.975808     2.968165     2.960522     2.952878     2.945235     2.937592
      2.929949     2.922306     2.914662     2.907019     2.899376     2.891733     2.884089     2.876446     2.868803     2.861160
      2.853517     2.845873     2.838230     2.830587     2.822944     2.815300     2.807657     2.800014     2.792371     2.784728
      2.777084     2.769441     2.761798     2.754155     2.746511     2.738868     2.731225     2.723582     2.715939     2.708295
      2.700652     2.693009     2.685366     2.677722     2.670079     2.662436     2.654793     2.647150     2.639506     2.631863
      2.624220     2.616577     2.608933     2.601290     2.593647     2.586004     2.578361     2.570717     2.563074     2.555431
      2.547788     2.540144     2.532501     2.524858     2.517215     2.509572     2.501928     2.494285     2.486642     2.478999
      2.471355     2.463712     2.456069     2.448426     2.440783     2.433139     2.425496     2.417853     2.410210     2.402566
      2.394923     2.387280     2.379637     2.371994     2.364350     2.356707     2.349064     2.341421     2.333777     2.326134
      2.318491     2.310848     2.303205     2.295561     2.287918     2.280275     2.272632     2.264988     2.257345     2.249702
      2.242059     2.234416     2.226772     2.219129     2.211486     2.203843     2.196199     2.188556     2.180913     2.173270
      2.165627     2.157983     2.150340     2.142697     2.135054     2.127410     2.119767     2.112124     2.104481     2.096838
      2.089194     2.081551     2.073908     2.066265     2.058621     2.050978     2.043335     2.035692     2.028049     2.020405
      2.012762     2.005119     1.997476     1.989833     1.982190     1.974546     1.966903     1.959260     1.951617     1.943974
      1.936331     1.928688     1.921045     1.913402     1.905759     1.898115     1.890472     1.882829     1.875186     1.867543
      1.859900     1.852257     1.844614     1.836971     1.829327     1.821684     1.814041     1.806398     1.798755     1.791112
      1.783469     1.775826     1.768183     1.760540     1.752896     1.745253     1.737610     1.729967     1.722324     1.714681
      1.707038     1.699395     1.691752     1.684108     1.676465     1.668822     1.661179     1.653536     1.645893     1.638250
      1.630607     1.622964     1.615321     1.607677     1.600034     1.592391     1.584748     1.577105     1.569462     1.561819
      1.554176     1.546533     1.538890     1.531246     1.523603     1.515960     1.508317     1.500674     1.493031     1.485388
      1.477745     1.470102     1.462458     1.454815     1.447172     1.439529     1.431886     1.424243     1.416600     1.408957
      1.401314     1.393671     1.386027     1.378384     1.370741     1.363098     1.355455     1.347812     1.340169     1.332526
      1.324883     1.317240     1.309596     1.301953     1.294310     1.286667     1.279024     1.271381     1.263738     1.256095
      1.248452     1.240808     1.233165     1.225522     1.217879     1.210236     1.202593     1.194950     1.187307     1.179664
      1.172021     1.164377     1.156734     1.149091     1.141448     1.133805     1.126162     1.118519     1.110876     1.103233
      1.095590     1.087946     1.080303     1.072660     1.065017     1.057374     1.049731     1.042088     1.034445     1.026802
      1.019158     1.011515     1.003872     0.996229     0.988586     0.980943     0.973300     0.965657     0.958014     0.950371
      0.942727     0.935084     0.927441     0.919798     0.912155     0.904512     0.896869     0.889226     0.881583     0.873940
      0.866296     0.858653     0.851010     0.843367     0.835724     0.828081     0.820438     0.812795     0.805152     0.797508
      0.789865     0.782222     0.774579     0.766936     0.759293     0.751650     0.744007     0.736364     0.728721     0.721077
      0.713434     0.705791     0.698148     0.690505     0.682862     0.675219     0.667576     0.659933     0.652290     0.644646
      0.637003     0.629360     0.621717     0.614074     0.606431     0.598788     0.591145     0.583502     0.575858     0.568215
      0.560572     0.552929     0.545286     0.537643     0.530000     0.522357     0.514714     0.507071     0.499427     0.491784
      0.484141     0.476498     0.468855     0.461212     0.453569     0.445925     0.438282     0.430639     0.422996     0.415353
      0.407710     0.400067     0.392424     0.384780     0.377137     0.369494     0.361851     0.354208     0.346565     0.338922
      0.331278     0.323635     0.315992     0.308349     0.300706     0.293063     0.285420     0.277777     0.270133     0.262490
      0.254847     0.247204     0.239561     0.231918     0.224275     0.216631     0.208988     0.201345
 NY phased data points follow
   5.61283E+00  2.48268E+00  1.05428E+01  3.89860E+00 -7.34531E-02  6.53283E+00  2.88072E+00  7.69263E+00  7.62574E-01  1.37631E+01
   6.20796E+00  2.88093E+00  2.39232E+00 -4.66659E-01  6.30651E+00  7.17154E+00  1.19423E+01  2.06520E+00  7.43411E+00  5.60191E+00
   1.00202E+01  8.97736E+00  5.44798E+00  6.28044E+00  6.56058E+00  1.01558E+01 -1.47238E+00  7.73948E+00  7.26362E+00 -1.14602E+00
   1.84388E+00  4.51442E+00  8.16793E+00  9.62925E+00  7.79066E+00  8.88552E+00  3.85061E+00  9.56804E+00  9.73586E+00  1.34435E+01
   8.34931E+00  7.83710E+00  2.93525E+00  1.18014E+01  2.45539E+00  1.19077E+01  6.58856E+00  4.98710E+00  1.28500E+01  9.73979E+00
   9.42451E+00  9.69549E+00  1.18832E+01  9.99831E+00  1.57405E+01  7.51091E+00  6.25614E+00  8.02657E+00  5.48212E+00  7.07069E+00
   7.38334E+00  2.73664E+00 -3.17641E+00  1.69143E+00  6.20282E+00  6.18976E+00  4.69374E+00  3.11042E+00  6.12624E+00  4.70267E+00
   2.18858E+00  8.62258E+00  8.62513E+00  7.76589E+00  7.25490E+00  1.21895E+01  3.41111E+00  1.05013E+01  4.93173E+00  4.83044E+00
   4.47527E+00  4.86382E+00  4.42551E+00  1.26014E+01  9.42972E+00  3.47403E+00  6.51686E+00  7.33726E+00  4.01137E+00  9.56780E+00
   8.22372E+00  3.13069E+00  8.76051E+00  1.21175E+01  1.25438E+01  1.16000E+01  1.14324E+01  1.39836E+01  1.14866E+01  2.30535E+01
   1.79394E+01  2.98921E+01  2.42599E+01  1.73384E+01  1.92558E+01  1.90335E+01  1.85358E+01  8.24197E+00  1.18017E+01  1.29240E+01
   1.23471E+01  1.30117E+01  9.18279E+00  1.17650E+01  8.75916E+00  8.95518E+00  6.02122E+00  1.08829E+01  1.10646E+01  9.98908E+00
   1.43229E+01  1.89799E+01  1.02591E+01  2.55076E+01  2.74125E+01  3.34458E+01  3.48328E+01  4.55555E+01  3.85776E+01  3.92142E+01
   2.61930E+01  2.66873E+01  1.63700E+01  1.35121E+01  1.42215E+01  1.17818E+01  1.30119E+01  1.24486E+01  7.97671E+00  1.19120E+01
   7.71992E+00  4.64957E+00  2.97278E+00  8.95641E+00  3.39329E+00  6.66511E+00  3.98763E+00  6.98400E+00  7.01472E+00  7.30995E+00
  -7.08066E-01  5.52679E+00  3.97148E+00  4.67761E+00  2.48525E+00 -1.66919E+00  2.93044E+00  1.75452E+00  4.84278E-01  7.22115E+00
   1.98017E+00  2.41869E+00  3.01839E+00  5.24042E+00  1.12710E+00  4.85851E+00 -6.46836E-01  2.80011E+00  4.69384E-01 -5.87194E+00
  -5.52542E+00 -9.72854E+00 -4.61964E+00 -9.48492E+00 -1.52178E+01 -1.43764E+01 -1.63953E+01 -1.23781E+01 -1.10627E+01 -8.32012E+00
  -9.95868E+00 -4.18474E+00 -7.25898E+00 -1.16858E-01 -4.65083E+00 -8.20537E+00 -7.54502E+00 -4.78729E+00  2.07516E+00  3.48761E+00
  -1.51860E+00 -4.15700E+00 -6.03426E+00  5.79608E+00  1.56703E-04  8.17720E-01  5.52767E+00 -3.86958E+00 -8.23132E+00 -7.50158E+00
  -6.63856E+00  5.94530E-01  1.44682E-01  5.52583E+00  9.13107E+00  5.99627E+00  7.34694E+00  8.07583E+00  2.54091E+00  3.56002E+00
   2.38684E+00  1.04303E+00  1.00705E+01  1.31745E+01  1.65921E+01  1.84132E+01  2.02418E+01  2.34862E+01  1.47061E+01  1.74711E+01
   5.25258E+00  5.81496E+00  2.29091E+00  1.20887E+00  7.77423E+00  5.08942E+00  1.27344E+01  1.45520E+01  1.08103E+01  1.51937E+01
   8.11001E+00  1.44940E+01  1.12894E+01  1.38392E+01  1.57711E+01  1.15377E+01  1.56187E+01  1.81083E+01  1.54042E+01  8.66142E+00
   8.56962E+00  1.32749E+01  6.38586E+00  1.47336E+01  8.93830E+00  9.95967E+00  1.63875E+01  2.38941E+01  2.28048E+01  2.78527E+01
   2.08199E+01  2.02192E+01  2.70443E+01  3.77142E+01  3.92960E+01  3.81311E+01  4.40658E+01  5.49111E+01  8.07166E+01  1.05054E+02
   1.13999E+02  1.07361E+02  9.93194E+01  8.64367E+01  6.47730E+01  5.17839E+01  4.63226E+01  3.62681E+01  2.16210E+01  2.42118E+01
   2.03640E+01  1.82794E+01  1.18550E+01  8.39928E+00  1.06314E+01  9.93064E+00  1.10632E+01  1.19648E+01  1.30655E+01  7.83804E+00
   7.82278E+00  5.19284E+00  5.61946E+00  6.71982E+00 -7.32444E-01  1.10406E+01  2.35207E+00  9.73618E+00  5.50668E+00  5.22028E+00
   5.51119E+00  5.47756E+00  4.39200E+00  8.92938E+00 -3.14836E-01  8.75466E+00  7.69615E+00  8.16593E+00  3.96681E+00  1.05961E+01
   2.53309E+00  7.13147E+00  6.47537E+00  6.47889E+00  1.16206E+01  7.72381E+00  1.42052E+01  9.33889E+00  5.38246E+00  1.85530E+01
   1.37127E+01  1.43850E+01  1.52801E+01  1.32612E+01  1.01286E+01  1.19795E+01  8.15018E+00  1.45058E+01  1.35582E+01  4.65552E+00
   8.52708E+00  1.29844E+01  5.88021E+00  6.16633E+00  2.05932E+00  1.08034E+01  3.64448E+00  1.17180E+00  6.90571E+00  1.26174E+01
   9.39060E+00  5.01662E+00  5.97223E+00  9.51243E+00  1.06060E+01  3.77658E+00  7.14845E+00  8.48769E+00  3.69932E+00  9.62344E+00
   6.44722E+00  4.89931E+00  9.89105E+00  7.06516E+00  7.49410E+00  1.65465E+01  1.36717E+01  1.46560E+01  1.17550E+01  1.29187E+01
   9.15622E+00  1.53705E+01  1.28253E+01  1.53101E+01  1.25990E+01  7.71393E+00  6.96134E+00  9.03343E+00  1.86023E+01  1.29346E+01
   7.33589E+00  9.17815E+00  1.13312E+01  9.42695E+00  8.59993E+00  6.63035E+00  5.58725E+00  1.56343E+01  1.13464E+01  1.30735E+01
   7.39356E+00  1.08300E+01  9.59885E-01  9.46472E+00  5.87721E+00  6.56748E+00  7.14170E+00  6.88419E+00  1.30367E+00  9.06069E-01
  -2.56996E+00  3.75340E+00  7.15743E+00  4.14383E+00  7.79679E+00  1.04891E+01  1.37971E+00  6.67769E+00 -2.35593E-01 -3.83983E-01
   3.53883E+00  2.62371E+00  1.42954E+00  7.18801E+00  4.38858E+00  7.09835E+00  5.51468E+00  1.13511E+01  8.38658E+00  7.81292E+00
   3.78941E+00  5.52043E+00  7.63494E+00  1.53907E+00  5.85418E+00  6.60589E+00  2.94763E+00  1.28649E+00  5.01615E+00  5.67968E+00
   2.89846E+00  1.11831E+01 -7.87632E-01  4.79804E+00  8.49546E+00  5.60484E+00 -2.11148E+00 -1.30491E+00 -5.44628E+00  2.48522E+00
   9.61868E+00  4.73808E+00 -3.30596E+00 -5.91380E+00 -9.33607E-02 -3.03550E-01  4.76318E+00 -2.07434E+00 -2.55289E+00 -5.12106E+00
  -2.65039E+00  2.42691E+00 -3.11672E+00 -2.79634E+00  1.90862E+00 -6.76546E-01 -1.37072E+00  3.29870E-01 -4.48961E+00 -5.64668E-02
  -4.79610E+00  5.48340E+00  2.21862E+00 -1.64111E+00 -4.17637E+00  2.04881E-01 -1.23579E-01 -2.54902E+00  2.16507E-01 -3.19932E+00
  -1.16193E+00  1.82976E-01 -2.64950E+00 -7.08013E+00 -3.06419E+00 -1.69639E+00 -5.97122E-01 -2.52685E+00 -2.02447E-01  1.71472E-01
  -5.40406E+00 -1.14607E+00 -2.79235E+00 -1.46887E+00 -1.76364E+00 -2.21146E+00 -2.89156E+00 -3.86110E+00 -2.08865E+00  4.93841E+00
  -2.10834E+00  3.55474E+00 -1.90160E+00 -3.21207E+00 -1.08494E+00  3.08753E+00  1.09975E+00 -4.17595E+00  9.94938E-01  3.01104E+00
  -3.18982E+00 -2.46579E+00 -3.74462E-01 -1.11081E+00  1.47243E+00 -1.81126E+00  2.22157E+00  6.75503E+00  3.42025E+00  2.25478E+00
   4.71384E+00 -2.55720E+00 -6.24748E-01  1.37157E+00  8.66315E-01 -3.70615E+00 -9.12324E+00 -4.53644E+00
 NY points of the fit to the data follow
   5.18363E+00  5.18507E+00  5.29287E+00  5.51131E+00  5.80079E+00  6.13406E+00  6.43505E+00  6.65614E+00  6.79335E+00  6.85348E+00
   6.83734E+00  6.76445E+00  6.68152E+00  6.60285E+00  6.52589E+00  6.43298E+00  6.33867E+00  6.27728E+00  6.28059E+00  6.36917E+00
   6.59085E+00  6.85776E+00  7.03109E+00  7.12097E+00  7.00521E+00  6.57300E+00  5.83925E+00  5.08593E+00  4.83610E+00  5.36672E+00
   6.67458E+00  8.43208E+00  9.99060E+00  1.07245E+01  1.04533E+01  9.31404E+00  7.86196E+00  6.59855E+00  5.82461E+00  5.65110E+00
   5.84733E+00  6.20979E+00  6.61838E+00  7.04415E+00  7.59030E+00  8.18825E+00  8.71349E+00  9.01694E+00  8.93545E+00  8.47665E+00
   7.89263E+00  7.32676E+00  6.84749E+00  6.45669E+00  6.14743E+00  5.90613E+00  5.73881E+00  5.70272E+00  5.80601E+00  5.96565E+00
   6.10032E+00  6.15273E+00  6.18149E+00  6.21385E+00  6.25097E+00  6.31716E+00  6.36149E+00  6.29275E+00  6.19504E+00  6.17799E+00
   6.21252E+00  6.37887E+00  6.76179E+00  7.27329E+00  7.68447E+00  7.79746E+00  7.52126E+00  6.91401E+00  6.27022E+00  5.87807E+00
   5.80833E+00  5.99710E+00  6.40248E+00  6.92656E+00  7.49168E+00  7.97181E+00  8.13306E+00  7.95943E+00  7.60845E+00  7.16223E+00
   6.62635E+00  6.06237E+00  5.51961E+00  4.96603E+00  4.71549E+00  5.53445E+00  7.15650E+00  9.18430E+00  1.21950E+01  1.63522E+01
   2.07142E+01  2.39222E+01  2.50688E+01  2.41973E+01  2.19810E+01  1.91674E+01  1.64189E+01  1.41301E+01  1.21992E+01  1.01688E+01
   8.10494E+00  6.88158E+00  6.44069E+00  6.18333E+00  6.00717E+00  5.88584E+00  5.78534E+00  5.76610E+00  5.89866E+00  6.60348E+00
   8.41962E+00  1.05873E+01  1.37890E+01  1.94291E+01  2.71963E+01  3.47694E+01  3.95729E+01  4.04866E+01  3.80455E+01  3.35607E+01
   2.84124E+01  2.37423E+01  1.98520E+01  1.62146E+01  1.23607E+01  9.01044E+00  7.47596E+00  6.90852E+00  6.59896E+00  6.39014E+00
   6.22414E+00  6.07488E+00  5.94304E+00  5.82681E+00  5.71046E+00  5.58601E+00  5.44423E+00  5.27814E+00  5.10640E+00  4.94741E+00
   4.79953E+00  4.65734E+00  4.52436E+00  4.40578E+00  4.27429E+00  4.13026E+00  4.00128E+00  3.76173E+00  3.32014E+00  2.70366E+00
   2.08730E+00  1.79975E+00  1.94852E+00  2.30796E+00  2.55409E+00  2.47230E+00  2.04070E+00  1.42352E+00  8.31006E-01  3.58317E-01
  -8.80682E-02 -5.70500E-01 -1.17235E+00 -1.93858E+00 -2.63450E+00 -2.97868E+00 -2.87651E+00 -2.51178E+00 -2.21289E+00 -2.12694E+00
  -2.15960E+00 -2.11757E+00 -1.83583E+00 -1.44307E+00 -1.07963E+00 -7.39001E-01 -3.13346E-01  4.44940E-01  1.55941E+00  2.77102E+00
   3.78542E+00  4.36480E+00  4.57963E+00  4.71253E+00  4.95851E+00  5.25359E+00  5.39976E+00  5.45948E+00  5.69277E+00  6.15398E+00
   6.88897E+00  7.84099E+00  8.80939E+00  9.30919E+00  9.08466E+00  7.97326E+00  5.96644E+00  3.44504E+00  1.11448E+00 -3.96218E-01
  -7.64567E-01 -1.67135E-01  1.59900E+00  4.63681E+00  8.21421E+00  1.10399E+01  1.21944E+01  1.15715E+01  9.48455E+00  6.06883E+00
   2.18634E+00 -8.08677E-01 -2.17389E+00 -1.86014E+00 -1.99651E-01  2.35956E+00  5.39164E+00  8.00017E+00  9.80421E+00  1.09408E+01
   1.17839E+01  1.23104E+01  1.22776E+01  1.19455E+01  1.18459E+01  1.21415E+01  1.27157E+01  1.34724E+01  1.41830E+01  1.45401E+01
   1.43858E+01  1.39473E+01  1.36945E+01  1.38811E+01  1.44149E+01  1.50949E+01  1.58770E+01  1.66403E+01  1.73568E+01  1.82798E+01
   1.94486E+01  2.10989E+01  2.35888E+01  2.79896E+01  3.50208E+01  4.19384E+01  5.03674E+01  6.41954E+01  8.28015E+01  1.00166E+02
   1.09808E+02  1.09130E+02  9.97561E+01  8.52423E+01  6.94796E+01  5.58002E+01  4.47151E+01  3.45531E+01  2.40023E+01  1.51077E+01
   1.11830E+01  9.79145E+00  9.08860E+00  8.70831E+00  8.48204E+00  8.22520E+00  7.91268E+00  7.55489E+00  7.15593E+00  6.75199E+00
   6.38265E+00  6.04414E+00  5.72989E+00  5.46914E+00  5.27965E+00  5.14148E+00  5.03132E+00  4.94714E+00  4.90436E+00  4.91222E+00
   4.95978E+00  5.04354E+00  5.16816E+00  5.33241E+00  5.53392E+00  5.77339E+00  6.05222E+00  6.37136E+00  6.72840E+00  7.11719E+00
   7.53093E+00  7.96267E+00  8.39948E+00  8.82391E+00  9.22087E+00  9.57786E+00  9.88479E+00  1.01311E+01  1.03074E+01  1.04103E+01
   1.04391E+01  1.03952E+01  1.02842E+01  1.01143E+01  9.89574E+00  9.63968E+00  9.35915E+00  9.06721E+00  8.77693E+00  8.49959E+00
   8.24516E+00  8.02138E+00  7.83447E+00  7.68803E+00  7.58385E+00  7.52114E+00  7.49792E+00  7.51067E+00  7.55573E+00  7.62854E+00
   7.72473E+00  7.83955E+00  7.96925E+00  8.11048E+00  8.26132E+00  8.42009E+00  8.58619E+00  8.75913E+00  8.93956E+00  9.12816E+00
   9.32621E+00  9.53418E+00  9.75243E+00  9.98021E+00  1.02165E+01  1.04591E+01  1.07050E+01  1.09493E+01  1.11869E+01  1.14110E+01
   1.16151E+01  1.17919E+01  1.19345E+01  1.20355E+01  1.20891E+01  1.20900E+01  1.20348E+01  1.19215E+01  1.17499E+01  1.15210E+01
   1.12380E+01  1.09055E+01  1.05299E+01  1.01180E+01  9.67789E+00  9.21763E+00  8.74596E+00  8.27115E+00  7.80163E+00  7.34464E+00
   6.90707E+00  6.49460E+00  6.11263E+00  5.76532E+00  5.45645E+00  5.18840E+00  4.96332E+00  4.78232E+00  4.64662E+00  4.55647E+00
   4.51210E+00  4.51275E+00  4.55777E+00  4.64575E+00  4.77538E+00  4.94438E+00  5.15024E+00  5.38930E+00  5.65775E+00  5.95068E+00
   6.26290E+00  6.58793E+00  6.91894E+00  7.24799E+00  7.56724E+00  7.86819E+00  8.14273E+00  8.38241E+00  8.57969E+00  8.72740E+00
   8.82003E+00  8.85298E+00  8.82357E+00  8.73022E+00  8.57352E+00  8.35535E+00  8.07975E+00  7.75173E+00  7.37784E+00  6.96499E+00
   6.52119E+00  6.05435E+00  5.57293E+00  5.08450E+00  4.59652E+00  4.11519E+00  3.64639E+00  3.19465E+00  2.76403E+00  2.35705E+00
   1.97575E+00  1.62084E+00  1.29293E+00  9.91591E-01  7.16356E-01  4.65813E-01  2.38729E-01  3.32652E-02 -1.51928E-01 -3.18691E-01
  -4.68421E-01 -6.03018E-01 -7.23810E-01 -8.32427E-01 -9.29836E-01 -1.01739E+00 -1.09592E+00 -1.16670E+00 -1.23035E+00 -1.28783E+00
  -1.33946E+00 -1.38605E+00 -1.42793E+00 -1.46587E+00 -1.50003E+00 -1.53093E+00 -1.55860E+00 -1.58356E+00 -1.60591E+00 -1.62614E+00
  -1.64417E+00 -1.66035E+00 -1.67457E+00 -1.68724E+00 -1.69833E+00 -1.70819E+00 -1.71664E+00 -1.72395E+00 -1.72996E+00 -1.73507E+00
  -1.73914E+00 -1.74247E+00 -1.74479E+00 -1.74638E+00 -1.74706E+00 -1.74720E+00 -1.74662E+00 -1.74556E+00 -1.74374E+00 -1.74143E+00
  -1.73848E+00 -1.73521E+00 -1.73141E+00 -1.72725E+00 -1.72249E+00 -1.71742E+00 -1.71187E+00 -1.70614E+00 -1.69996E+00 -1.69354E+00
  -1.68662E+00 -1.67951E+00 -1.67204E+00 -1.66446E+00 -1.65648E+00 -1.64829E+00 -1.63969E+00 -1.63097E+00 -1.62194E+00 -1.61281E+00
  -1.60328E+00 -1.59356E+00 -1.58344E+00 -1.57322E+00 -1.56266E+00 -1.55193E+00 -1.54071E+00 -1.52924E+00
 NY background values follow
     4.689E+00    4.688E+00    4.687E+00    4.685E+00    4.684E+00    4.683E+00    4.681E+00    4.680E+00    4.679E+00    4.678E+00
     4.676E+00    4.675E+00    4.674E+00    4.672E+00    4.671E+00    4.670E+00    4.668E+00    4.667E+00    4.665E+00    4.664E+00
     4.662E+00    4.660E+00    4.659E+00    4.657E+00    4.655E+00    4.653E+00    4.651E+00    4.649E+00    4.647E+00    4.645E+00
     4.643E+00    4.641E+00    4.638E+00    4.636E+00    4.633E+00    4.630E+00    4.628E+00    4.625E+00    4.622E+00    4.619E+00
     4.615E+00    4.612E+00    4.608E+00    4.605E+00    4.601E+00    4.597E+00    4.593E+00    4.589E+00    4.585E+00    4.580E+00
     4.576E+00    4.571E+00    4.566E+00    4.561E+00    4.555E+00    4.550E+00    4.544E+00    4.538E+00    4.532E+00    4.526E+00
     4.520E+00    4.513E+00    4.506E+00    4.499E+00    4.492E+00    4.485E+00    4.477E+00    4.469E+00    4.461E+00    4.453E+00
     4.444E+00    4.435E+00    4.426E+00    4.417E+00    4.407E+00    4.397E+00    4.387E+00    4.377E+00    4.366E+00    4.355E+00
     4.344E+00    4.332E+00    4.321E+00    4.309E+00    4.296E+00    4.283E+00    4.271E+00    4.257E+00    4.244E+00    4.230E+00
     4.215E+00    4.201E+00    4.186E+00    4.171E+00    4.155E+00    4.140E+00    4.123E+00    4.107E+00    4.090E+00    4.073E+00
     4.056E+00    4.039E+00    4.021E+00    4.003E+00    3.985E+00    3.966E+00    3.947E+00    3.928E+00    3.909E+00    3.890E+00
     3.870E+00    3.850E+00    3.830E+00    3.810E+00    3.789E+00    3.768E+00    3.748E+00    3.727E+00    3.705E+00    3.684E+00
     3.663E+00    3.641E+00    3.619E+00    3.597E+00    3.575E+00    3.553E+00    3.531E+00    3.508E+00    3.486E+00    3.463E+00
     3.440E+00    3.417E+00    3.394E+00    3.371E+00    3.348E+00    3.325E+00    3.302E+00    3.279E+00    3.256E+00    3.232E+00
     3.209E+00    3.186E+00    3.162E+00    3.139E+00    3.116E+00    3.093E+00    3.070E+00    3.047E+00    3.024E+00    3.002E+00
     2.979E+00    2.957E+00    2.935E+00    2.913E+00    2.891E+00    2.870E+00    2.849E+00    2.828E+00    2.807E+00    2.787E+00
     2.767E+00    2.747E+00    2.728E+00    2.709E+00    2.691E+00    2.673E+00    2.655E+00    2.638E+00    2.621E+00    2.604E+00
     2.589E+00    2.573E+00    2.558E+00    2.544E+00    2.530E+00    2.517E+00    2.504E+00    2.492E+00    2.481E+00    2.470E+00
     2.460E+00    2.450E+00    2.441E+00    2.433E+00    2.426E+00    2.419E+00    2.412E+00    2.406E+00    2.401E+00    2.396E+00
     2.392E+00    2.388E+00    2.385E+00    2.382E+00    2.379E+00    2.377E+00    2.376E+00    2.374E+00    2.373E+00    2.373E+00
     2.372E+00    2.372E+00    2.372E+00    2.373E+00    2.373E+00    2.374E+00    2.375E+00    2.376E+00    2.377E+00    2.379E+00
     2.380E+00    2.381E+00    2.383E+00    2.385E+00    2.386E+00    2.388E+00    2.389E+00    2.391E+00    2.392E+00    2.393E+00
     2.395E+00    2.396E+00    2.397E+00    2.397E+00    2.398E+00    2.398E+00    2.398E+00    2.398E+00    2.398E+00    2.397E+00
     2.396E+00    2.395E+00    2.393E+00    2.391E+00    2.389E+00    2.387E+00    2.384E+00    2.381E+00    2.378E+00    2.374E+00
     2.370E+00    2.366E+00    2.362E+00    2.357E+00    2.352E+00    2.346E+00    2.340E+00    2.334E+00    2.328E+00    2.321E+00
     2.313E+00    2.306E+00    2.298E+00    2.290E+00    2.281E+00    2.272E+00    2.262E+00    2.253E+00    2.243E+00    2.232E+00
     2.221E+00    2.210E+00    2.198E+00    2.186E+00    2.173E+00    2.160E+00    2.147E+00    2.133E+00    2.119E+00    2.104E+00
     2.089E+00    2.073E+00    2.057E+00    2.041E+00    2.024E+00    2.007E+00    1.989E+00    1.971E+00    1.953E+00    1.934E+00
     1.914E+00    1.895E+00    1.875E+00    1.854E+00    1.833E+00    1.812E+00    1.791E+00    1.769E+00    1.746E+00    1.724E+00
     1.701E+00    1.678E+00    1.654E+00    1.630E+00    1.606E+00    1.581E+00    1.557E+00    1.532E+00    1.506E+00    1.481E+00
     1.455E+00    1.428E+00    1.402E+00    1.375E+00    1.348E+00    1.321E+00    1.293E+00    1.266E+00    1.238E+00    1.209E+00
     1.181E+00    1.152E+00    1.124E+00    1.095E+00    1.065E+00    1.036E+00    1.006E+00    9.766E-01    9.467E-01    9.166E-01
     8.863E-01    8.559E-01    8.254E-01    7.948E-01    7.640E-01    7.331E-01    7.021E-01    6.711E-01    6.399E-01    6.087E-01
     5.775E-01    5.461E-01    5.148E-01    4.834E-01    4.519E-01    4.205E-01    3.890E-01    3.575E-01    3.261E-01    2.947E-01
     2.632E-01    2.319E-01    2.005E-01    1.693E-01    1.381E-01    1.069E-01    7.585E-02    4.488E-02    1.401E-02   -1.676E-02
    -4.741E-02   -7.794E-02   -1.083E-01   -1.386E-01   -1.687E-01   -1.986E-01   -2.284E-01   -2.580E-01   -2.874E-01   -3.166E-01
    -3.456E-01   -3.744E-01   -4.030E-01   -4.313E-01   -4.595E-01   -4.873E-01   -5.149E-01   -5.423E-01   -5.694E-01   -5.962E-01
    -6.227E-01   -6.490E-01   -6.749E-01   -7.006E-01   -7.259E-01   -7.510E-01   -7.757E-01   -8.001E-01   -8.241E-01   -8.478E-01
    -8.712E-01   -8.942E-01   -9.168E-01   -9.391E-01   -9.609E-01   -9.824E-01   -1.004E+00   -1.024E+00   -1.045E+00   -1.064E+00
    -1.084E+00   -1.103E+00   -1.122E+00   -1.140E+00   -1.157E+00   -1.175E+00   -1.191E+00   -1.208E+00   -1.224E+00   -1.239E+00
    -1.254E+00   -1.268E+00   -1.282E+00   -1.295E+00   -1.308E+00   -1.321E+00   -1.332E+00   -1.344E+00   -1.354E+00   -1.365E+00
    -1.374E+00   -1.383E+00   -1.392E+00   -1.400E+00   -1.408E+00   -1.415E+00   -1.421E+00   -1.428E+00   -1.433E+00   -1.439E+00
    -1.443E+00   -1.448E+00   -1.452E+00   -1.455E+00   -1.458E+00   -1.461E+00   -1.463E+00   -1.465E+00   -1.466E+00   -1.467E+00
    -1.468E+00   -1.468E+00   -1.468E+00   -1.468E+00   -1.467E+00   -1.466E+00   -1.464E+00   -1.463E+00   -1.461E+00   -1.458E+00
    -1.456E+00   -1.453E+00   -1.449E+00   -1.446E+00   -1.442E+00   -1.438E+00   -1.433E+00   -1.429E+00   -1.424E+00   -1.419E+00
    -1.413E+00   -1.408E+00   -1.402E+00   -1.396E+00   -1.390E+00   -1.384E+00   -1.377E+00   -1.370E+00   -1.363E+00   -1.356E+00
    -1.349E+00   -1.342E+00   -1.334E+00   -1.326E+00   -1.318E+00   -1.310E+00   -1.302E+00   -1.294E+00   -1.286E+00   -1.277E+00
    -1.269E+00   -1.260E+00   -1.251E+00   -1.242E+00   -1.233E+00   -1.224E+00   -1.215E+00   -1.206E+00   -1.197E+00   -1.188E+00
    -1.178E+00   -1.169E+00   -1.160E+00   -1.150E+00   -1.141E+00   -1.131E+00   -1.122E+00   -1.112E+00   -1.103E+00   -1.093E+00
    -1.084E+00   -1.075E+00   -1.065E+00   -1.056E+00   -1.047E+00   -1.037E+00   -1.028E+00   -1.019E+00
 Asp      Conc. = 7.81E+01
