 LCModel (Version 6.3-1L) Copyright: S.W. Provencher.          Ref.: Magn. Reson. Med. 30:672-679 (1993).                
 Slice#3 Row#4 Col#5  PD_05_press_2_raw_act
 36 lines in following concentration table = NCONC+1
    Conc.  %SD /Cr+PCr  Metabolite                                         
    0.000 999%   0.000 Ala                                                 
  617.245  86%   0.199 Asp                                                 
    0.000 999%   0.000 Cr                                                  
 3.10E+03   5%   1.000 PCr                                                 
   57.293 615% 1.8E-02 GABA                                                
  197.458 181% 6.4E-02 Glc                                                 
 1.56E+03  35%   0.505 Gln                                                 
 2.29E+03  28%   0.737 Glu                                                 
  793.353  54%   0.256 GPC                                                 
  661.240  66%   0.213 PCh                                                 
  779.482  24%   0.251 GSH                                                 
 3.18E+03  21%   1.025 Ins                                                 
  183.238 158% 5.9E-02 Lac                                                 
 4.88E+03   5%   1.574 NAA                                                 
  384.252  72%   0.124 NAAG                                                
  410.296  17%   0.132 Scyllo                                              
 1.24E+03  42%   0.401 Tau                                                 
  840.008  33%   0.271 -CrCH2                                              
 1.45E+03   4%   0.469 GPC+PCh                                             
 5.27E+03   4%   1.698 NAA+NAAG                                            
 3.10E+03   5%   1.000 Cr+PCr                                              
 3.85E+03  23%   1.242 Glu+Gln                                             
 1.70E+03  59%   0.547 Lip13a                                              
    0.000 999%   0.000 Lip13b                                              
   27.836 999% 9.0E-03 Lip09                                               
 3.28E+03  20%   1.059 MM09                                                
  261.017 115% 8.4E-02 Lip20                                               
 6.68E+03  15%   2.154 MM20                                                
 1.07E+03  34%   0.345 MM12                                                
 1.92E+03  41%   0.620 MM14                                                
 2.60E+03  15%   0.838 MM17                                                
 1.70E+03  59%   0.547 Lip13a+Lip13b                                       
 4.69E+03  23%   1.511 MM14+Lip13a+Lip13b+MM12                             
 3.31E+03  17%   1.068 MM09+Lip09                                          
 6.94E+03  14%   2.238 MM20+Lip20                                          
   6 lines in following misc. output table
  FWHM = 0.054 ppm    S/N =  10                                            
  Data shift = 0.023 ppm                                                   
  Ph: -49 deg     -14.5 deg/ppm                                            
  alphaB,S = 1.0E+00,   1.0E+02                                            
   14 spline knots.   Ns = 6(1)                                            
  ( 9) 4 infls.   ( 3) 1 extrs.                                            
  498 points on ppm-axis = NY
      4.000000     3.992357     3.984714     3.977070     3.969427     3.961784     3.954141     3.946497     3.938854     3.931211
      3.923568     3.915925     3.908281     3.900638     3.892995     3.885352     3.877708     3.870065     3.862422     3.854779
      3.847136     3.839492     3.831849     3.824206     3.816563     3.808919     3.801276     3.793633     3.785990     3.778347
      3.770703     3.763060     3.755417     3.747774     3.740130     3.732487     3.724844     3.717201     3.709558     3.701914
      3.694271     3.686628     3.678985     3.671341     3.663698     3.656055     3.648412     3.640769     3.633125     3.625482
      3.617839     3.610196     3.602552     3.594909     3.587266     3.579623     3.571980     3.564336     3.556693     3.549050
      3.541407     3.533763     3.526120     3.518477     3.510834     3.503191     3.495547     3.487904     3.480261     3.472618
      3.464974     3.457331     3.449688     3.442045     3.434402     3.426758     3.419115     3.411472     3.403829     3.396185
      3.388542     3.380899     3.373256     3.365613     3.357969     3.350326     3.342683     3.335040     3.327396     3.319753
      3.312110     3.304467     3.296824     3.289180     3.281537     3.273894     3.266251     3.258607     3.250964     3.243321
      3.235678     3.228034     3.220391     3.212748     3.205105     3.197462     3.189818     3.182175     3.174532     3.166889
      3.159245     3.151602     3.143959     3.136316     3.128673     3.121029     3.113386     3.105743     3.098100     3.090456
      3.082813     3.075170     3.067527     3.059884     3.052240     3.044597     3.036954     3.029311     3.021667     3.014024
      3.006381     2.998738     2.991095     2.983451     2.975808     2.968165     2.960522     2.952878     2.945235     2.937592
      2.929949     2.922306     2.914662     2.907019     2.899376     2.891733     2.884089     2.876446     2.868803     2.861160
      2.853517     2.845873     2.838230     2.830587     2.822944     2.815300     2.807657     2.800014     2.792371     2.784728
      2.777084     2.769441     2.761798     2.754155     2.746511     2.738868     2.731225     2.723582     2.715939     2.708295
      2.700652     2.693009     2.685366     2.677722     2.670079     2.662436     2.654793     2.647150     2.639506     2.631863
      2.624220     2.616577     2.608933     2.601290     2.593647     2.586004     2.578361     2.570717     2.563074     2.555431
      2.547788     2.540144     2.532501     2.524858     2.517215     2.509572     2.501928     2.494285     2.486642     2.478999
      2.471355     2.463712     2.456069     2.448426     2.440783     2.433139     2.425496     2.417853     2.410210     2.402566
      2.394923     2.387280     2.379637     2.371994     2.364350     2.356707     2.349064     2.341421     2.333777     2.326134
      2.318491     2.310848     2.303205     2.295561     2.287918     2.280275     2.272632     2.264988     2.257345     2.249702
      2.242059     2.234416     2.226772     2.219129     2.211486     2.203843     2.196199     2.188556     2.180913     2.173270
      2.165627     2.157983     2.150340     2.142697     2.135054     2.127410     2.119767     2.112124     2.104481     2.096838
      2.089194     2.081551     2.073908     2.066265     2.058621     2.050978     2.043335     2.035692     2.028049     2.020405
      2.012762     2.005119     1.997476     1.989833     1.982190     1.974546     1.966903     1.959260     1.951617     1.943974
      1.936331     1.928688     1.921045     1.913402     1.905759     1.898115     1.890472     1.882829     1.875186     1.867543
      1.859900     1.852257     1.844614     1.836971     1.829327     1.821684     1.814041     1.806398     1.798755     1.791112
      1.783469     1.775826     1.768183     1.760540     1.752896     1.745253     1.737610     1.729967     1.722324     1.714681
      1.707038     1.699395     1.691752     1.684108     1.676465     1.668822     1.661179     1.653536     1.645893     1.638250
      1.630607     1.622964     1.615321     1.607677     1.600034     1.592391     1.584748     1.577105     1.569462     1.561819
      1.554176     1.546533     1.538890     1.531246     1.523603     1.515960     1.508317     1.500674     1.493031     1.485388
      1.477745     1.470102     1.462458     1.454815     1.447172     1.439529     1.431886     1.424243     1.416600     1.408957
      1.401314     1.393671     1.386027     1.378384     1.370741     1.363098     1.355455     1.347812     1.340169     1.332526
      1.324883     1.317240     1.309596     1.301953     1.294310     1.286667     1.279024     1.271381     1.263738     1.256095
      1.248452     1.240808     1.233165     1.225522     1.217879     1.210236     1.202593     1.194950     1.187307     1.179664
      1.172021     1.164377     1.156734     1.149091     1.141448     1.133805     1.126162     1.118519     1.110876     1.103233
      1.095590     1.087946     1.080303     1.072660     1.065017     1.057374     1.049731     1.042088     1.034445     1.026802
      1.019158     1.011515     1.003872     0.996229     0.988586     0.980943     0.973300     0.965657     0.958014     0.950371
      0.942727     0.935084     0.927441     0.919798     0.912155     0.904512     0.896869     0.889226     0.881583     0.873940
      0.866296     0.858653     0.851010     0.843367     0.835724     0.828081     0.820438     0.812795     0.805152     0.797508
      0.789865     0.782222     0.774579     0.766936     0.759293     0.751650     0.744007     0.736364     0.728721     0.721077
      0.713434     0.705791     0.698148     0.690505     0.682862     0.675219     0.667576     0.659933     0.652290     0.644646
      0.637003     0.629360     0.621717     0.614074     0.606431     0.598788     0.591145     0.583502     0.575858     0.568215
      0.560572     0.552929     0.545286     0.537643     0.530000     0.522357     0.514714     0.507071     0.499427     0.491784
      0.484141     0.476498     0.468855     0.461212     0.453569     0.445925     0.438282     0.430639     0.422996     0.415353
      0.407710     0.400067     0.392424     0.384780     0.377137     0.369494     0.361851     0.354208     0.346565     0.338922
      0.331278     0.323635     0.315992     0.308349     0.300706     0.293063     0.285420     0.277777     0.270133     0.262490
      0.254847     0.247204     0.239561     0.231918     0.224275     0.216631     0.208988     0.201345
 NY phased data points follow
  -1.54868E+02 -1.63346E+02 -1.55022E+02 -1.53951E+02 -1.46489E+02 -1.45664E+02 -1.37594E+02 -1.01868E+02 -8.14726E+01 -7.70671E+01
  -7.62848E+01 -7.44526E+01 -8.60571E+01 -9.36192E+01 -1.00023E+02 -1.00820E+02 -1.16820E+02 -1.39607E+02 -1.35832E+02 -1.37057E+02
  -1.39704E+02 -1.38795E+02 -1.25126E+02 -1.13610E+02 -1.27675E+02 -1.07870E+02 -1.18507E+02 -1.14078E+02 -1.05849E+02 -9.15291E+01
  -9.22833E+01 -9.74544E+01 -9.95964E+01 -1.02959E+02 -9.82729E+01 -9.35302E+01 -1.13005E+02 -8.86289E+01 -1.07508E+02 -9.04852E+01
  -1.01638E+02 -9.73735E+01 -7.64953E+01 -1.04233E+02 -9.49871E+01 -7.72052E+01 -7.10601E+01 -6.96941E+01 -7.89629E+01 -7.89874E+01
  -1.00891E+02 -8.02527E+01 -8.85602E+01 -9.76395E+01 -8.91229E+01 -9.25123E+01 -7.80386E+01 -9.46640E+01 -8.00016E+01 -8.61325E+01
  -8.61898E+01 -8.80588E+01 -9.40827E+01 -9.54518E+01 -8.73170E+01 -8.75196E+01 -8.46335E+01 -1.01363E+02 -9.41434E+01 -9.01701E+01
  -8.12993E+01 -7.81103E+01 -9.17653E+01 -7.45979E+01 -7.09266E+01 -6.98514E+01 -6.59269E+01 -7.41611E+01 -8.30291E+01 -7.79723E+01
  -7.06124E+01 -6.31224E+01 -6.78015E+01 -6.22908E+01 -6.25268E+01 -5.32460E+01 -6.25885E+01 -4.53139E+01 -5.55273E+01 -5.16564E+01
  -5.39119E+01 -5.50058E+01 -5.36454E+01 -4.88911E+01 -5.43204E+01 -4.74381E+01 -5.78281E+01 -4.04857E+01 -2.64672E+01 -2.50170E+01
   1.50687E+01  3.31048E+01  6.32081E+01  7.81604E+01  7.88393E+01  5.00287E+01  3.13924E+01  5.80777E-01 -2.01219E+01 -2.39803E+01
  -2.88934E+01 -2.65194E+01 -4.39579E+01 -4.95736E+01 -4.10049E+01 -6.16507E+01 -4.91522E+01 -4.48459E+01 -4.24349E+01 -3.14678E+01
  -5.75533E+01 -4.93040E+01 -4.31991E+01 -3.71444E+01 -3.24289E+00  1.36940E+01  3.42415E+01  7.13141E+01  5.29793E+01  4.24938E+01
   2.62341E+01  9.82611E+00  1.57285E+00 -1.22271E+01 -2.94877E+01 -4.34401E+01 -5.48469E+01 -5.32118E+01 -4.54251E+01 -3.68194E+01
  -4.63584E+01 -4.59865E+01 -5.25379E+01 -5.00553E+01 -5.07920E+01 -4.49772E+01 -5.19982E+01 -4.61137E+01 -4.30208E+01 -4.31946E+01
  -3.75176E+01 -4.65832E+01 -5.95930E+01 -3.92232E+01 -4.89069E+01 -6.10112E+01 -4.36445E+01 -3.46230E+01 -5.49427E+01 -4.01976E+01
  -4.49060E+01 -4.25183E+01 -5.84816E+01 -3.51380E+01 -4.85632E+01 -4.44253E+01 -4.50663E+01 -3.51716E+01 -3.35616E+01 -3.11358E+01
  -5.62572E+01 -3.92306E+01 -5.01587E+01 -3.43794E+01 -4.64367E+01 -5.87245E+01 -4.80579E+01 -5.03146E+01 -5.60359E+01 -3.41651E+01
  -3.60137E+01 -4.81155E+01 -4.72316E+01 -5.26754E+01 -5.66770E+01 -2.86738E+01 -3.93335E+01 -5.31916E+01 -2.82562E+01 -4.02806E+01
  -2.13551E+01 -2.21859E+01 -1.46458E+01 -9.23991E+00 -1.28204E+01 -8.50713E+00 -2.34305E+01 -3.16485E+01 -3.14372E+01 -2.24701E+01
  -1.58050E+01 -2.07250E+01 -3.60152E+00 -1.16389E+01 -1.84339E+01 -3.90230E+00 -2.32051E+01 -2.03551E+01 -2.84104E+01 -1.99984E+01
  -2.90704E+01 -3.34565E+01 -4.62998E+01 -6.00266E+00 -2.86388E+00  9.49729E+00  6.39154E+00  8.03167E+00  6.77208E+00 -9.47345E-03
  -2.60710E+01 -9.75468E-01 -1.13255E+01 -6.43625E+00 -1.23787E+01 -4.96519E+00 -2.22311E+00  1.50762E-01  9.73004E-01  4.98888E+00
  -7.37040E+00  6.02808E+00  5.91255E+00  1.76388E+01  5.10721E+00  1.14587E+01  2.28736E+00  1.19779E+01  1.27637E+01  1.27216E+01
  -9.49695E+00  9.10344E+00  6.23904E+00 -3.51785E-01  4.42677E+00  1.77681E+01  1.37356E+01  1.22896E+01  1.82371E+01  2.56107E+01
   2.84128E+01  3.54503E+01  2.40734E+01  3.34716E+01  3.60481E+01  5.83034E+01  7.84023E+01  1.02592E+02  1.35143E+02  1.63201E+02
   1.98133E+02  1.95551E+02  1.70048E+02  1.28500E+02  1.08455E+02  8.65712E+01  6.61037E+01  5.33921E+01  3.90700E+01  1.82477E+01
   1.88262E+01  2.18769E+01  3.05327E+01  1.46667E+01  2.22630E+01  1.79770E+01  8.91910E+00  1.02711E+01  2.05365E+01  7.91327E+00
   1.07346E+01  2.96246E+01  3.55245E+00  1.09650E+01  1.65955E+01  2.30379E+01  1.48390E+01  3.07156E+01  7.45282E+00  1.63232E+01
   6.89914E+00  1.04173E+01  1.93287E+01  1.80168E+01  2.12752E+01  2.29394E+01  2.43459E+01  3.04401E+01  1.20495E+01  3.30805E+01
   2.98487E+01  2.93963E+01  2.44881E+01  3.06993E+01  3.45516E+01  3.90084E+01  3.37218E+01  3.44268E+01  3.22313E+01  2.82548E+01
   2.70427E+01  2.53370E+01  2.89695E+01  5.91413E+00  7.73079E+00  2.07854E+01  9.72039E+00  8.73168E+00 -3.41800E+00 -1.19405E+00
  -2.43042E+00  1.11265E+01  3.98942E+00  4.90180E+00  6.50078E+00  5.83410E+00  2.90587E-01  2.18383E+00  1.44930E+01  2.58758E+01
   1.50659E+01  2.04662E+01  1.72824E+01  1.90332E+01  3.04109E+01  2.08108E+01  3.56441E+01  2.61702E+01  1.80624E+01  1.93801E+01
   3.30120E+01  1.93632E+01  2.38255E+01  2.76329E+01  3.24091E+01  2.56769E+01  1.60053E+01  2.60374E+01  5.01086E+01  1.89101E+01
   2.26111E+01  2.45497E+01  2.33421E+01  2.32921E+01  2.85340E+01  3.53653E+01  2.14343E+01  2.64420E+01  2.77135E+01  2.74549E+01
   2.43403E+01  1.81514E+01  3.65474E+01  2.88684E+01  3.01310E+01  2.07222E+01  2.40006E+01  2.07208E+01  3.59643E+01  2.95529E+01
   1.97195E+01  3.11381E+01  3.58265E+01  2.26441E+01  3.12268E+01  2.50915E+01  1.58362E+01  2.21263E+01  1.50208E+01  2.73506E+01
   1.56121E+01  3.43340E+00  2.83296E+01  2.14568E+01  2.41906E+01  1.33375E+01  1.30429E+01  1.05816E-01  2.71173E+01  3.18337E+01
   3.33876E+01  2.41140E+01  1.03488E+01  2.70618E+01  2.86761E+01  2.80913E+01  2.58195E+01  4.18230E+01  2.30102E+01  2.36619E+01
   2.73045E+01  3.19377E+01  4.17115E+01  2.20964E+01  3.37494E+01  2.94222E+01  4.94288E+01  4.13771E+01  5.04812E+01  3.25790E+01
   2.25612E+01  3.06723E+01  3.36404E+01  3.62968E+01  4.37783E+01  4.19703E+01  3.90869E+01  3.96032E+01  3.52091E+01  2.84265E+01
   3.60857E+01  3.53497E+01  2.71593E+01  2.84128E+01  3.70016E+01  2.41576E+01  2.72056E+01  2.68999E+01  3.29451E+01  2.26562E+01
   2.21164E+01  2.23767E+01  2.65158E+01  3.10250E+01  2.41219E+01  3.24644E+01  2.55301E+01  2.27686E+01  1.37881E+01  2.52775E+01
   1.56911E+01  3.20674E+01  1.55612E+01  1.26612E+01  2.99685E+01  1.49100E+01  2.18152E+01  1.64699E+01  1.97303E+01  2.00131E+01
   1.38576E+01  2.89210E+01  2.31584E+01  3.57160E+01  2.53232E+01  2.17844E+01  1.91835E+01  3.17391E+01  2.16460E+01  3.17840E+01
   1.74833E+01  2.34267E+01  2.28351E+01  1.68899E+01  1.75685E+01  1.83797E+01  3.17421E+01  3.50357E+01  2.40701E+01  2.26430E+01
   1.60023E+01  3.57586E+01  2.63045E+01  2.34896E+01  3.65098E+01  3.46373E+01  2.32660E+01  2.90994E+01  2.79069E+01  3.39396E+01
   2.77358E+01  3.12125E+01  2.64519E+01  3.70689E+01  2.87691E+01  1.97808E+01  3.89755E+01  1.91561E+01  2.94197E+01  3.75011E+01
   2.33459E+01  2.64915E+01  1.85336E+01  4.41568E+01  2.41990E+01  2.99621E+01  2.41096E+01  2.56852E+01
 NY points of the fit to the data follow
  -1.42205E+02 -1.42149E+02 -1.42333E+02 -1.41920E+02 -1.38751E+02 -1.32718E+02 -1.23209E+02 -1.09706E+02 -9.41207E+01 -8.10266E+01
  -7.54215E+01 -7.87348E+01 -8.76341E+01 -9.68275E+01 -1.03478E+02 -1.09003E+02 -1.16142E+02 -1.23233E+02 -1.25852E+02 -1.25712E+02
  -1.24790E+02 -1.23662E+02 -1.22812E+02 -1.22243E+02 -1.21193E+02 -1.19286E+02 -1.16128E+02 -1.11451E+02 -1.05660E+02 -9.97165E+01
  -9.51182E+01 -9.28691E+01 -9.30432E+01 -9.48723E+01 -9.75867E+01 -1.00751E+02 -1.04247E+02 -1.07404E+02 -1.08950E+02 -1.09138E+02
  -1.08020E+02 -1.05359E+02 -1.01321E+02 -9.61340E+01 -9.02144E+01 -8.42408E+01 -7.97683E+01 -7.85111E+01 -8.08217E+01 -8.53298E+01
  -8.98981E+01 -9.31929E+01 -9.53283E+01 -9.67646E+01 -9.73087E+01 -9.61853E+01 -9.35114E+01 -9.02531E+01 -8.71916E+01 -8.49915E+01
  -8.40940E+01 -8.43732E+01 -8.52970E+01 -8.60098E+01 -8.60624E+01 -8.55445E+01 -8.46491E+01 -8.34389E+01 -8.20644E+01 -8.04197E+01
  -7.84368E+01 -7.63859E+01 -7.44874E+01 -7.29511E+01 -7.19760E+01 -7.17490E+01 -7.24787E+01 -7.37918E+01 -7.52044E+01 -7.58895E+01
  -7.51771E+01 -7.28466E+01 -6.95564E+01 -6.54620E+01 -6.05981E+01 -5.60065E+01 -5.29478E+01 -5.24283E+01 -5.44147E+01 -5.75891E+01
  -6.03247E+01 -6.22218E+01 -6.38631E+01 -6.55676E+01 -6.66613E+01 -6.54220E+01 -6.12547E+01 -5.24433E+01 -3.73625E+01 -1.56453E+01
   1.19055E+01  4.15138E+01  6.58191E+01  7.68759E+01  7.13395E+01  5.28820E+01  2.98338E+01  8.90937E+00 -9.02184E+00 -2.60807E+01
  -4.17370E+01 -5.19813E+01 -5.60286E+01 -5.69538E+01 -5.71207E+01 -5.70764E+01 -5.67931E+01 -5.63420E+01 -5.57308E+01 -5.48482E+01
  -5.33866E+01 -4.97617E+01 -4.07625E+01 -2.63056E+01 -6.26827E+00  1.80450E+01  4.16615E+01  5.73209E+01  5.93087E+01  4.81923E+01
   3.04072E+01  1.31312E+01 -1.06534E+00 -1.43843E+01 -2.90010E+01 -4.17108E+01 -4.66320E+01 -4.74843E+01 -4.69445E+01 -4.58188E+01
  -4.46219E+01 -4.35336E+01 -4.25936E+01 -4.19439E+01 -4.15829E+01 -4.14881E+01 -4.17191E+01 -4.21719E+01 -4.26619E+01 -4.30558E+01
  -4.32780E+01 -4.34298E+01 -4.35031E+01 -4.34378E+01 -4.31997E+01 -4.29635E+01 -4.29417E+01 -4.32220E+01 -4.38532E+01 -4.46010E+01
  -4.50761E+01 -4.49140E+01 -4.39896E+01 -4.26377E+01 -4.14266E+01 -4.08071E+01 -4.07798E+01 -4.09712E+01 -4.10780E+01 -4.11824E+01
  -4.15088E+01 -4.21218E+01 -4.28861E+01 -4.35362E+01 -4.39669E+01 -4.41064E+01 -4.37561E+01 -4.29287E+01 -4.20116E+01 -4.13961E+01
  -4.10926E+01 -4.07516E+01 -3.99905E+01 -3.88030E+01 -3.76640E+01 -3.66602E+01 -3.50217E+01 -3.22941E+01 -2.87356E+01 -2.53185E+01
  -2.30203E+01 -2.20460E+01 -2.21172E+01 -2.27159E+01 -2.34548E+01 -2.42215E+01 -2.47351E+01 -2.44436E+01 -2.30088E+01 -2.03544E+01
  -1.68252E+01 -1.31395E+01 -1.00757E+01 -8.20547E+00 -8.22272E+00 -1.02526E+01 -1.40637E+01 -1.89406E+01 -2.36294E+01 -2.67947E+01
  -2.75263E+01 -2.56172E+01 -2.15357E+01 -1.59972E+01 -9.98971E+00 -4.70592E+00 -1.51690E+00 -1.41058E+00 -4.42827E+00 -8.87916E+00
  -1.30663E+01 -1.63089E+01 -1.79301E+01 -1.72059E+01 -1.40414E+01 -9.38941E+00 -5.09861E+00 -1.91865E+00  2.36072E-01  1.64188E+00
   2.27513E+00  2.27325E+00  2.33237E+00  3.04961E+00  4.40966E+00  6.22402E+00  8.31209E+00  1.02082E+01  1.14392E+01  1.15814E+01
   1.06626E+01  9.39758E+00  8.61504E+00  8.73659E+00  9.68268E+00  1.14176E+01  1.35233E+01  1.54246E+01  1.71301E+01  1.90516E+01
   2.15965E+01  2.45728E+01  2.81537E+01  3.28642E+01  4.09998E+01  5.59457E+01  7.73087E+01  1.05537E+02  1.39077E+02  1.71009E+02
   1.90615E+02  1.89656E+02  1.69357E+02  1.39665E+02  1.11687E+02  8.88780E+01  6.78537E+01  4.58552E+01  2.80038E+01  2.05898E+01
   1.76548E+01  1.59253E+01  1.48469E+01  1.42094E+01  1.37044E+01  1.31997E+01  1.26545E+01  1.20759E+01  1.15166E+01  1.10275E+01
   1.06148E+01  1.02974E+01  1.01451E+01  1.01956E+01  1.04240E+01  1.07970E+01  1.13189E+01  1.20111E+01  1.28855E+01  1.39281E+01
   1.51376E+01  1.65104E+01  1.80129E+01  1.95901E+01  2.11969E+01  2.27871E+01  2.43125E+01  2.57219E+01  2.69656E+01  2.79998E+01
   2.87956E+01  2.93235E+01  2.95578E+01  2.94863E+01  2.91150E+01  2.84655E+01  2.75702E+01  2.64675E+01  2.52084E+01  2.38471E+01
   2.24364E+01  2.10272E+01  1.96669E+01  1.83946E+01  1.72417E+01  1.62306E+01  1.53768E+01  1.46881E+01  1.41662E+01  1.38068E+01
   1.36018E+01  1.35397E+01  1.36077E+01  1.37922E+01  1.40800E+01  1.44567E+01  1.49092E+01  1.54243E+01  1.59910E+01  1.65982E+01
   1.72363E+01  1.78951E+01  1.85660E+01  1.92408E+01  1.99133E+01  2.05779E+01  2.12308E+01  2.18697E+01  2.24958E+01  2.31162E+01
   2.37523E+01  2.44531E+01  2.52117E+01  2.59551E+01  2.66171E+01  2.70679E+01  2.71510E+01  2.67829E+01  2.60507E+01  2.52640E+01
   2.47276E+01  2.45714E+01  2.47962E+01  2.53365E+01  2.61174E+01  2.70298E+01  2.77874E+01  2.81390E+01  2.81663E+01  2.80333E+01
   2.78160E+01  2.74697E+01  2.69498E+01  2.64047E+01  2.59312E+01  2.54815E+01  2.50343E+01  2.45843E+01  2.41328E+01  2.36829E+01
   2.32394E+01  2.28072E+01  2.23924E+01  2.20004E+01  2.16371E+01  2.13073E+01  2.10160E+01  2.07673E+01  2.05659E+01  2.04157E+01
   2.03205E+01  2.02837E+01  2.03088E+01  2.03991E+01  2.05585E+01  2.07903E+01  2.10982E+01  2.14850E+01  2.19539E+01  2.25071E+01
   2.31468E+01  2.38731E+01  2.46853E+01  2.55802E+01  2.65529E+01  2.75956E+01  2.86985E+01  2.98479E+01  3.10277E+01  3.22187E+01
   3.33999E+01  3.45483E+01  3.56403E+01  3.66513E+01  3.75580E+01  3.83388E+01  3.89754E+01  3.94527E+01  3.97604E+01  3.98925E+01
   3.98489E+01  3.96340E+01  3.92580E+01  3.87347E+01  3.80819E+01  3.73196E+01  3.64699E+01  3.55556E+01  3.45995E+01  3.36230E+01
   3.26458E+01  3.16850E+01  3.07557E+01  2.98696E+01  2.90364E+01  2.82621E+01  2.75506E+01  2.69035E+01  2.63211E+01  2.58015E+01
   2.53426E+01  2.49403E+01  2.45911E+01  2.42902E+01  2.40340E+01  2.38178E+01  2.36379E+01  2.34902E+01  2.33714E+01  2.32780E+01
   2.32077E+01  2.31577E+01  2.31259E+01  2.31099E+01  2.31084E+01  2.31195E+01  2.31423E+01  2.31754E+01  2.32180E+01  2.32687E+01
   2.33271E+01  2.33923E+01  2.34641E+01  2.35416E+01  2.36245E+01  2.37120E+01  2.38042E+01  2.39004E+01  2.40006E+01  2.41043E+01
   2.42112E+01  2.43210E+01  2.44338E+01  2.45492E+01  2.46672E+01  2.47873E+01  2.49096E+01  2.50337E+01  2.51600E+01  2.52878E+01
   2.54175E+01  2.55484E+01  2.56809E+01  2.58145E+01  2.59497E+01  2.60859E+01  2.62233E+01  2.63614E+01  2.65006E+01  2.66406E+01
   2.67816E+01  2.69232E+01  2.70655E+01  2.72082E+01  2.73517E+01  2.74955E+01  2.76401E+01  2.77848E+01  2.79300E+01  2.80752E+01
   2.82209E+01  2.83667E+01  2.85128E+01  2.86588E+01  2.88049E+01  2.89509E+01  2.90970E+01  2.92429E+01
 NY background values follow
    -1.522E+02   -1.513E+02   -1.504E+02   -1.495E+02   -1.486E+02   -1.477E+02   -1.468E+02   -1.459E+02   -1.450E+02   -1.441E+02
    -1.432E+02   -1.423E+02   -1.415E+02   -1.406E+02   -1.397E+02   -1.388E+02   -1.379E+02   -1.370E+02   -1.361E+02   -1.352E+02
    -1.343E+02   -1.334E+02   -1.326E+02   -1.317E+02   -1.308E+02   -1.299E+02   -1.290E+02   -1.282E+02   -1.273E+02   -1.264E+02
    -1.255E+02   -1.247E+02   -1.238E+02   -1.229E+02   -1.221E+02   -1.212E+02   -1.204E+02   -1.195E+02   -1.186E+02   -1.178E+02
    -1.169E+02   -1.161E+02   -1.153E+02   -1.144E+02   -1.136E+02   -1.127E+02   -1.119E+02   -1.111E+02   -1.103E+02   -1.094E+02
    -1.086E+02   -1.078E+02   -1.070E+02   -1.062E+02   -1.054E+02   -1.046E+02   -1.038E+02   -1.030E+02   -1.022E+02   -1.014E+02
    -1.006E+02   -9.980E+01   -9.902E+01   -9.824E+01   -9.747E+01   -9.670E+01   -9.594E+01   -9.518E+01   -9.442E+01   -9.367E+01
    -9.292E+01   -9.217E+01   -9.143E+01   -9.070E+01   -8.997E+01   -8.924E+01   -8.851E+01   -8.779E+01   -8.708E+01   -8.637E+01
    -8.566E+01   -8.496E+01   -8.427E+01   -8.357E+01   -8.289E+01   -8.220E+01   -8.153E+01   -8.085E+01   -8.018E+01   -7.952E+01
    -7.886E+01   -7.821E+01   -7.756E+01   -7.692E+01   -7.628E+01   -7.564E+01   -7.501E+01   -7.439E+01   -7.377E+01   -7.316E+01
    -7.254E+01   -7.194E+01   -7.134E+01   -7.074E+01   -7.014E+01   -6.956E+01   -6.897E+01   -6.839E+01   -6.781E+01   -6.724E+01
    -6.667E+01   -6.610E+01   -6.554E+01   -6.498E+01   -6.443E+01   -6.388E+01   -6.333E+01   -6.279E+01   -6.225E+01   -6.171E+01
    -6.118E+01   -6.065E+01   -6.012E+01   -5.959E+01   -5.907E+01   -5.855E+01   -5.804E+01   -5.753E+01   -5.702E+01   -5.651E+01
    -5.601E+01   -5.550E+01   -5.501E+01   -5.451E+01   -5.402E+01   -5.352E+01   -5.303E+01   -5.255E+01   -5.206E+01   -5.158E+01
    -5.110E+01   -5.062E+01   -5.014E+01   -4.967E+01   -4.920E+01   -4.873E+01   -4.826E+01   -4.779E+01   -4.733E+01   -4.686E+01
    -4.640E+01   -4.594E+01   -4.548E+01   -4.503E+01   -4.457E+01   -4.412E+01   -4.366E+01   -4.321E+01   -4.276E+01   -4.232E+01
    -4.187E+01   -4.142E+01   -4.098E+01   -4.053E+01   -4.009E+01   -3.965E+01   -3.921E+01   -3.877E+01   -3.833E+01   -3.789E+01
    -3.746E+01   -3.702E+01   -3.659E+01   -3.615E+01   -3.572E+01   -3.529E+01   -3.485E+01   -3.442E+01   -3.399E+01   -3.356E+01
    -3.313E+01   -3.270E+01   -3.227E+01   -3.184E+01   -3.141E+01   -3.098E+01   -3.055E+01   -3.012E+01   -2.970E+01   -2.927E+01
    -2.885E+01   -2.842E+01   -2.800E+01   -2.758E+01   -2.715E+01   -2.673E+01   -2.631E+01   -2.590E+01   -2.548E+01   -2.507E+01
    -2.465E+01   -2.424E+01   -2.383E+01   -2.342E+01   -2.301E+01   -2.261E+01   -2.220E+01   -2.180E+01   -2.140E+01   -2.100E+01
    -2.061E+01   -2.022E+01   -1.982E+01   -1.943E+01   -1.905E+01   -1.866E+01   -1.828E+01   -1.790E+01   -1.752E+01   -1.715E+01
    -1.678E+01   -1.641E+01   -1.604E+01   -1.568E+01   -1.532E+01   -1.496E+01   -1.460E+01   -1.425E+01   -1.390E+01   -1.356E+01
    -1.322E+01   -1.288E+01   -1.254E+01   -1.221E+01   -1.188E+01   -1.155E+01   -1.123E+01   -1.091E+01   -1.059E+01   -1.027E+01
    -9.963E+00   -9.655E+00   -9.350E+00   -9.049E+00   -8.751E+00   -8.456E+00   -8.164E+00   -7.875E+00   -7.590E+00   -7.308E+00
    -7.029E+00   -6.754E+00   -6.482E+00   -6.213E+00   -5.947E+00   -5.685E+00   -5.425E+00   -5.170E+00   -4.917E+00   -4.668E+00
    -4.422E+00   -4.180E+00   -3.941E+00   -3.705E+00   -3.473E+00   -3.244E+00   -3.018E+00   -2.796E+00   -2.577E+00   -2.362E+00
    -2.150E+00   -1.941E+00   -1.736E+00   -1.534E+00   -1.336E+00   -1.140E+00   -9.483E-01   -7.594E-01   -5.736E-01   -3.908E-01
    -2.110E-01   -3.411E-02    1.399E-01    3.112E-01    4.797E-01    6.456E-01    8.088E-01    9.695E-01    1.128E+00    1.283E+00
     1.437E+00    1.588E+00    1.737E+00    1.883E+00    2.028E+00    2.170E+00    2.310E+00    2.449E+00    2.585E+00    2.720E+00
     2.852E+00    2.983E+00    3.113E+00    3.241E+00    3.367E+00    3.491E+00    3.615E+00    3.737E+00    3.857E+00    3.976E+00
     4.094E+00    4.211E+00    4.327E+00    4.442E+00    4.556E+00    4.668E+00    4.781E+00    4.892E+00    5.002E+00    5.112E+00
     5.221E+00    5.329E+00    5.436E+00    5.543E+00    5.649E+00    5.755E+00    5.860E+00    5.964E+00    6.068E+00    6.171E+00
     6.273E+00    6.375E+00    6.476E+00    6.577E+00    6.677E+00    6.777E+00    6.876E+00    6.975E+00    7.073E+00    7.171E+00
     7.269E+00    7.366E+00    7.463E+00    7.559E+00    7.655E+00    7.751E+00    7.846E+00    7.941E+00    8.036E+00    8.131E+00
     8.225E+00    8.319E+00    8.413E+00    8.506E+00    8.600E+00    8.693E+00    8.786E+00    8.879E+00    8.972E+00    9.064E+00
     9.157E+00    9.249E+00    9.342E+00    9.434E+00    9.527E+00    9.619E+00    9.712E+00    9.804E+00    9.897E+00    9.990E+00
     1.008E+01    1.018E+01    1.027E+01    1.036E+01    1.046E+01    1.055E+01    1.064E+01    1.074E+01    1.083E+01    1.093E+01
     1.103E+01    1.112E+01    1.122E+01    1.132E+01    1.141E+01    1.151E+01    1.161E+01    1.171E+01    1.181E+01    1.191E+01
     1.201E+01    1.212E+01    1.222E+01    1.232E+01    1.243E+01    1.253E+01    1.264E+01    1.275E+01    1.285E+01    1.296E+01
     1.307E+01    1.318E+01    1.330E+01    1.341E+01    1.352E+01    1.364E+01    1.376E+01    1.387E+01    1.399E+01    1.411E+01
     1.423E+01    1.435E+01    1.448E+01    1.460E+01    1.473E+01    1.485E+01    1.498E+01    1.511E+01    1.524E+01    1.537E+01
     1.550E+01    1.563E+01    1.577E+01    1.590E+01    1.604E+01    1.617E+01    1.631E+01    1.645E+01    1.659E+01    1.673E+01
     1.687E+01    1.701E+01    1.715E+01    1.730E+01    1.744E+01    1.759E+01    1.773E+01    1.788E+01    1.803E+01    1.818E+01
     1.832E+01    1.847E+01    1.862E+01    1.878E+01    1.893E+01    1.908E+01    1.923E+01    1.939E+01    1.954E+01    1.970E+01
     1.985E+01    2.001E+01    2.017E+01    2.032E+01    2.048E+01    2.064E+01    2.080E+01    2.096E+01    2.112E+01    2.128E+01
     2.144E+01    2.160E+01    2.177E+01    2.193E+01    2.209E+01    2.225E+01    2.242E+01    2.258E+01    2.275E+01    2.291E+01
     2.308E+01    2.324E+01    2.341E+01    2.357E+01    2.374E+01    2.390E+01    2.407E+01    2.423E+01    2.440E+01    2.457E+01
     2.473E+01    2.490E+01    2.506E+01    2.523E+01    2.540E+01    2.556E+01    2.573E+01    2.590E+01    2.606E+01    2.623E+01
     2.639E+01    2.656E+01    2.673E+01    2.689E+01    2.706E+01    2.722E+01    2.739E+01    2.755E+01
 Asp      Conc. = 6.17E+02
