 LCModel (Version 6.3-1L) Copyright: S.W. Provencher.          Ref.: Magn. Reson. Med. 30:672-679 (1993).                
 Slice#2 Row#2 Col#5  PD_05_press_2_raw_act
 36 lines in following concentration table = NCONC+1
    Conc.  %SD /Cr+PCr  Metabolite                                         
    0.000 999%   0.000 Ala                                                 
   92.196 223%   0.117 Asp                                                 
  594.698 107%   0.758 Cr                                                  
  190.191 340%   0.242 PCr                                                 
  103.419 121%   0.132 GABA                                                
  148.197  84%   0.189 Glc                                                 
 2.12E+03  50%   2.706 Gln                                                 
 2.61E+03  45%   3.331 Glu                                                 
  351.342  16%   0.448 GPC                                                 
    0.000 999%   0.000 PCh                                                 
  382.472  59%   0.487 GSH                                                 
 2.38E+03  27%   3.036 Ins                                                 
    0.000 999%   0.000 Lac                                                 
  887.223  34%   1.130 NAA                                                 
  613.070  51%   0.781 NAAG                                                
   47.263  79% 6.0E-02 Scyllo                                              
  272.491  74%   0.347 Tau                                                 
    0.000 999%   0.000 -CrCH2                                              
  351.342  16%   0.448 GPC+PCh                                             
 1.50E+03  14%   1.911 NAA+NAAG                                            
  784.889  18%   1.000 Cr+PCr                                              
 4.74E+03  40%   6.037 Glu+Gln                                             
    0.000 999%   0.000 Lip13a                                              
    0.000 999%   0.000 Lip13b                                              
    0.244 999% 3.1E-04 Lip09                                               
 1.47E+03  23%   1.875 MM09                                                
    0.000 999%   0.000 Lip20                                               
 2.29E+03  32%   2.921 MM20                                                
   92.639 314%   0.118 MM12                                                
    0.000 999%   0.000 MM14                                                
  395.193 104%   0.504 MM17                                                
    0.000 999%   0.000 Lip13a+Lip13b                                       
   92.639 314%   0.118 MM14+Lip13a+Lip13b+MM12                             
 1.47E+03  23%   1.875 MM09+Lip09                                          
 2.29E+03  32%   2.921 MM20+Lip20                                          
   6 lines in following misc. output table
  FWHM = 0.076 ppm    S/N =   2                                            
  Data shift = 0.046 ppm                                                   
  Ph:  26 deg      11.9 deg/ppm                                            
  alphaB,S = 8.5E+01,   1.0E+02                                            
   14 spline knots.   Ns = 8(1)                                            
   2 inflections.     1 extrema                                            
  498 points on ppm-axis = NY
      4.000000     3.992357     3.984714     3.977070     3.969427     3.961784     3.954141     3.946497     3.938854     3.931211
      3.923568     3.915925     3.908281     3.900638     3.892995     3.885352     3.877708     3.870065     3.862422     3.854779
      3.847136     3.839492     3.831849     3.824206     3.816563     3.808919     3.801276     3.793633     3.785990     3.778347
      3.770703     3.763060     3.755417     3.747774     3.740130     3.732487     3.724844     3.717201     3.709558     3.701914
      3.694271     3.686628     3.678985     3.671341     3.663698     3.656055     3.648412     3.640769     3.633125     3.625482
      3.617839     3.610196     3.602552     3.594909     3.587266     3.579623     3.571980     3.564336     3.556693     3.549050
      3.541407     3.533763     3.526120     3.518477     3.510834     3.503191     3.495547     3.487904     3.480261     3.472618
      3.464974     3.457331     3.449688     3.442045     3.434402     3.426758     3.419115     3.411472     3.403829     3.396185
      3.388542     3.380899     3.373256     3.365613     3.357969     3.350326     3.342683     3.335040     3.327396     3.319753
      3.312110     3.304467     3.296824     3.289180     3.281537     3.273894     3.266251     3.258607     3.250964     3.243321
      3.235678     3.228034     3.220391     3.212748     3.205105     3.197462     3.189818     3.182175     3.174532     3.166889
      3.159245     3.151602     3.143959     3.136316     3.128673     3.121029     3.113386     3.105743     3.098100     3.090456
      3.082813     3.075170     3.067527     3.059884     3.052240     3.044597     3.036954     3.029311     3.021667     3.014024
      3.006381     2.998738     2.991095     2.983451     2.975808     2.968165     2.960522     2.952878     2.945235     2.937592
      2.929949     2.922306     2.914662     2.907019     2.899376     2.891733     2.884089     2.876446     2.868803     2.861160
      2.853517     2.845873     2.838230     2.830587     2.822944     2.815300     2.807657     2.800014     2.792371     2.784728
      2.777084     2.769441     2.761798     2.754155     2.746511     2.738868     2.731225     2.723582     2.715939     2.708295
      2.700652     2.693009     2.685366     2.677722     2.670079     2.662436     2.654793     2.647150     2.639506     2.631863
      2.624220     2.616577     2.608933     2.601290     2.593647     2.586004     2.578361     2.570717     2.563074     2.555431
      2.547788     2.540144     2.532501     2.524858     2.517215     2.509572     2.501928     2.494285     2.486642     2.478999
      2.471355     2.463712     2.456069     2.448426     2.440783     2.433139     2.425496     2.417853     2.410210     2.402566
      2.394923     2.387280     2.379637     2.371994     2.364350     2.356707     2.349064     2.341421     2.333777     2.326134
      2.318491     2.310848     2.303205     2.295561     2.287918     2.280275     2.272632     2.264988     2.257345     2.249702
      2.242059     2.234416     2.226772     2.219129     2.211486     2.203843     2.196199     2.188556     2.180913     2.173270
      2.165627     2.157983     2.150340     2.142697     2.135054     2.127410     2.119767     2.112124     2.104481     2.096838
      2.089194     2.081551     2.073908     2.066265     2.058621     2.050978     2.043335     2.035692     2.028049     2.020405
      2.012762     2.005119     1.997476     1.989833     1.982190     1.974546     1.966903     1.959260     1.951617     1.943974
      1.936331     1.928688     1.921045     1.913402     1.905759     1.898115     1.890472     1.882829     1.875186     1.867543
      1.859900     1.852257     1.844614     1.836971     1.829327     1.821684     1.814041     1.806398     1.798755     1.791112
      1.783469     1.775826     1.768183     1.760540     1.752896     1.745253     1.737610     1.729967     1.722324     1.714681
      1.707038     1.699395     1.691752     1.684108     1.676465     1.668822     1.661179     1.653536     1.645893     1.638250
      1.630607     1.622964     1.615321     1.607677     1.600034     1.592391     1.584748     1.577105     1.569462     1.561819
      1.554176     1.546533     1.538890     1.531246     1.523603     1.515960     1.508317     1.500674     1.493031     1.485388
      1.477745     1.470102     1.462458     1.454815     1.447172     1.439529     1.431886     1.424243     1.416600     1.408957
      1.401314     1.393671     1.386027     1.378384     1.370741     1.363098     1.355455     1.347812     1.340169     1.332526
      1.324883     1.317240     1.309596     1.301953     1.294310     1.286667     1.279024     1.271381     1.263738     1.256095
      1.248452     1.240808     1.233165     1.225522     1.217879     1.210236     1.202593     1.194950     1.187307     1.179664
      1.172021     1.164377     1.156734     1.149091     1.141448     1.133805     1.126162     1.118519     1.110876     1.103233
      1.095590     1.087946     1.080303     1.072660     1.065017     1.057374     1.049731     1.042088     1.034445     1.026802
      1.019158     1.011515     1.003872     0.996229     0.988586     0.980943     0.973300     0.965657     0.958014     0.950371
      0.942727     0.935084     0.927441     0.919798     0.912155     0.904512     0.896869     0.889226     0.881583     0.873940
      0.866296     0.858653     0.851010     0.843367     0.835724     0.828081     0.820438     0.812795     0.805152     0.797508
      0.789865     0.782222     0.774579     0.766936     0.759293     0.751650     0.744007     0.736364     0.728721     0.721077
      0.713434     0.705791     0.698148     0.690505     0.682862     0.675219     0.667576     0.659933     0.652290     0.644646
      0.637003     0.629360     0.621717     0.614074     0.606431     0.598788     0.591145     0.583502     0.575858     0.568215
      0.560572     0.552929     0.545286     0.537643     0.530000     0.522357     0.514714     0.507071     0.499427     0.491784
      0.484141     0.476498     0.468855     0.461212     0.453569     0.445925     0.438282     0.430639     0.422996     0.415353
      0.407710     0.400067     0.392424     0.384780     0.377137     0.369494     0.361851     0.354208     0.346565     0.338922
      0.331278     0.323635     0.315992     0.308349     0.300706     0.293063     0.285420     0.277777     0.270133     0.262490
      0.254847     0.247204     0.239561     0.231918     0.224275     0.216631     0.208988     0.201345
 NY phased data points follow
  -5.17267E+00  1.62577E+01 -3.16255E+00  3.54731E-01 -3.19495E+00  2.95491E+00  2.15367E+01  9.19399E+00  5.52176E+00  1.23423E+01
   1.33211E+01  1.47551E+01  1.82601E+01  6.17000E+00  4.61525E+00  1.38615E+01 -5.76432E+00  1.19256E+01  8.56478E-01  6.47355E-01
   1.63262E+00  1.73396E+01 -1.18070E+00  1.19110E+01  9.03091E+00 -1.01303E+00  6.37371E+00 -8.26537E+00  4.19351E-01  1.44782E+01
   7.70073E-01  3.09875E+01  9.61223E+00  5.19733E+00  1.81509E+01 -5.31183E+00  1.53633E+01  4.09297E-01  6.84272E+00 -6.04992E+00
  -9.51434E-02 -6.11552E-01 -7.35368E-01 -4.16296E+00  8.80065E+00  1.82472E+01  2.88981E+00  1.08327E+01 -2.24778E+00  1.92422E+01
  -3.22915E+00  9.63021E+00  1.66801E+00  4.07122E+00  6.42571E-01  1.27769E+01  2.38450E+01 -5.16383E+00  5.81036E+00  6.08247E+00
   3.08294E+00  1.92930E+00 -3.72398E+00  5.46310E+00 -1.03736E+01 -3.86420E+00  4.22310E+00  1.22692E+00  2.21026E+00  8.06145E+00
   1.01353E+01  3.95761E+00  2.59264E+00  3.70666E+00  4.54867E+00  1.13405E+01  2.22886E+01  6.55236E+00  9.15121E-01  1.24018E+01
  -4.80038E+00  1.24511E+00  1.65297E+01  8.58864E+00 -1.80169E+01 -4.94395E+00  3.74579E+00 -1.11135E+01 -7.60853E-01 -5.38843E+00
  -1.11922E+00  8.35380E+00 -8.45190E-01 -2.04176E+00  7.26941E+00  6.41668E+00  1.29714E+01  1.69249E+01  1.13746E+01  2.45333E+01
   1.76153E+01  1.42209E+01  3.32959E+01  1.30575E+01  7.04148E+00  1.07372E+01  2.45249E+01  5.83933E+00 -5.69835E+00  4.59512E+00
  -5.11518E+00  1.29233E+01 -1.65002E+01  6.22908E+00 -3.08999E-01  4.86985E+00 -9.93934E+00  3.83299E+00  1.28286E-01  2.08566E+01
  -1.05415E+00  1.56574E+01  1.11762E+01  6.20216E+00  1.30672E+00  1.74834E+01  1.12569E+01  3.22956E+01  1.42386E+01  1.43837E+01
   4.45200E+00  2.94918E+00  1.54317E+01  1.31849E+01  1.71888E+00  1.32170E+01  1.14999E+01  1.49097E+01 -5.72933E+00 -4.69042E+00
   9.06606E-01  7.34861E-01  5.92484E+00 -4.74999E-01 -1.00269E+01  5.39715E+00 -2.42999E+00 -1.04891E+00 -9.57397E+00 -1.38117E+01
   6.17352E+00 -3.44724E+00 -1.08827E+01 -8.45537E+00 -9.24244E-01  1.29199E+01 -2.62992E+00 -7.18121E+00 -1.73471E+00 -4.27902E+00
  -4.03644E+00  4.10307E+00 -3.45203E+00 -3.61014E+00  6.18872E+00 -9.41197E+00 -1.27813E+01 -1.44184E+01 -8.61227E+00 -1.82950E+01
  -1.66695E+01 -1.11146E+01 -1.68455E+01 -4.37029E+00 -1.70185E+01  6.94883E+00 -1.67258E+01 -3.72099E+00 -1.33636E+01  4.53845E+00
  -1.23134E+01 -6.97825E+00 -1.19174E+01 -7.43870E+00 -7.35959E+00 -1.34478E+01 -3.72237E+00  3.80750E+00 -4.59742E+00 -6.52805E+00
   3.42541E+00 -7.38289E+00 -1.17317E+01 -5.19445E+00  1.11096E+00 -2.24582E+00 -4.68005E+00  1.16304E+00 -1.73410E+01 -1.27417E+01
  -1.12178E+01 -9.61465E+00 -1.21322E+01 -1.27980E+01 -5.66894E+00 -1.17856E+01 -1.62837E+01 -1.53393E+01 -1.62023E+01 -1.36912E+00
   5.87747E+00  1.22244E+01 -5.31608E+00  7.59143E+00  5.83967E+00  8.29745E+00 -1.37754E+01  2.30697E+01  1.54937E+01  4.18562E+00
  -1.00740E+01  3.92564E-01 -7.72115E+00 -1.47381E+01 -1.40565E+00  2.10231E+00 -4.09603E+00  1.15788E+01  6.60652E+00  3.27726E+00
  -3.09730E+00 -1.01469E+01  7.10243E+00 -6.25322E+00  5.28469E+00  2.62814E+01 -1.26628E+01  1.24228E+01  1.13523E+01  4.02171E+00
   2.25465E+01  1.31164E+00  3.24163E+00  1.45686E+01 -7.37329E+00  1.32317E+01 -1.35311E+01  1.12172E+00  1.23139E+01  2.09684E+01
   1.02673E+01  2.87508E+01  2.86849E+01  2.40640E+01  4.52839E+01  2.88019E+01  2.75273E+01  2.65232E+01  4.10407E+01  4.15720E+01
   4.30205E+01  4.17390E+01  3.84942E+01  3.16882E+01  3.23307E+01  1.37477E+01  7.19548E+00  3.76430E+00  6.26666E+00 -1.04922E+01
  -1.43238E+00 -3.35796E+00  6.92282E+00  6.75139E+00  1.68601E+01  1.09177E+01 -4.07217E+00  8.50912E+00  2.06038E+01  2.04580E+01
   4.46122E+00  1.79253E+00 -1.31255E+01  1.32174E+01  6.74822E+00 -2.36478E+00  7.69057E+00  1.40001E+01  1.20510E+01  1.37606E+01
  -5.56245E+00 -3.34974E-01  1.17710E+01  1.73476E+01  3.57208E+00  7.72624E+00 -2.95788E+00  1.01565E+01  2.86658E+00 -9.70220E-02
  -4.54660E+00  8.47665E+00 -6.87006E+00  3.27155E+00  4.40129E+00  1.66380E+01  6.63694E+00  8.00515E+00  1.04049E+00 -1.02633E+01
  -3.47948E+00  6.25678E+00 -5.12077E-01 -4.60115E+00 -8.78001E-01 -1.07569E+01 -5.22046E+00 -5.62895E+00 -9.15880E+00 -1.84896E+01
   1.63555E+00 -3.28386E+00 -8.63352E+00 -7.21988E+00 -7.82307E-02 -3.08778E+00 -1.20957E+01  3.90658E+00  8.72320E-01 -7.32946E+00
  -1.89800E+00 -6.33153E+00 -9.28637E+00 -2.08926E+00 -4.51465E+00 -1.03921E+01 -2.62036E+00  1.31815E+01 -2.42443E+00  6.94113E+00
  -1.31354E+01 -5.44210E-01  4.59913E+00  3.14526E+00 -2.87449E-01  4.53747E+00  1.06028E+01  1.08873E+01  8.18585E+00  4.88328E+00
   1.54932E+01  1.11037E+01 -1.51855E+01 -5.22475E-01  1.35622E+01 -5.36595E+00 -5.19062E+00  1.17455E+01  1.96757E+00 -2.18416E-01
   7.61800E+00 -6.23148E+00 -1.54100E+01  2.52936E+00 -7.17587E+00 -2.00245E+01 -1.79902E+00 -1.18976E+01 -1.21765E+01 -8.87288E+00
  -9.98129E+00 -2.86141E+00  4.84906E+00  9.41897E+00 -2.49309E+01  1.39470E+01 -3.40306E+00  4.76992E+00  1.45968E+01  9.25769E+00
   1.72457E+01  1.46843E+01  1.09779E+00  1.53250E+01  6.90676E+00  3.52314E+01  1.06261E+01  2.21777E+01  1.35457E+01  2.94112E+01
   2.68524E+01  2.27726E+01  6.84566E+00  3.25361E+01  1.44488E+00  7.60904E+00  4.72805E+00  7.33995E+00  3.86524E+00 -1.10021E+00
   7.91615E+00  1.31179E+00  1.02061E+01  3.13612E+00  1.74903E+01  5.77819E+00  9.66540E+00  1.98030E+01  1.73273E+01  1.25187E+01
   9.03837E+00  8.73360E+00  1.29855E+01  2.39452E+00 -8.22190E+00 -1.86310E+00  7.38019E-01  1.24874E+01  1.18255E+01  4.28110E+00
   1.42088E+01  1.23909E+01  1.40622E+01  5.30926E+00  1.18804E+01  8.40118E+00  3.90477E+00  1.38697E+01  1.14972E+01  1.38201E+01
   5.98422E+00  5.22343E+00  9.85161E+00  1.41449E+01  1.10583E+01  9.92978E+00  9.71477E+00 -1.33679E+01  4.00617E+00 -6.04919E+00
  -5.79959E+00 -9.11385E+00  1.37754E+01  1.43711E+00 -2.38192E+00  9.81201E+00  2.85584E+00  1.00108E+01 -4.61312E+00  7.24042E+00
  -3.82888E-01 -8.31640E+00  7.56090E+00  5.52596E-01  7.79763E+00  5.62147E+00  1.52743E+01  1.56320E+01 -2.15744E+01  2.14747E+01
   1.89606E+00  3.40484E-02 -3.96202E+00 -7.94381E+00  2.85077E-03 -8.60467E-01  2.73743E+00  5.64800E+00  1.45169E+00 -1.01172E+01
   9.94243E+00 -2.47767E+00  5.89166E+00  9.01367E+00  5.50357E+00  8.73515E+00 -1.63673E+00 -2.00748E+00  3.27846E+00  1.64943E+01
   1.67957E+01 -5.24303E+00  9.43961E+00  4.50129E+00  3.49716E+00 -5.18676E+00  8.99200E+00 -1.44770E+01  1.37512E+01  6.74211E+00
   6.12250E+00 -6.83331E+00  1.47724E+01  3.11610E+00 -1.89150E+00  9.48939E-01  8.45088E+00  1.62898E+01
 NY points of the fit to the data follow
   1.98350E+00  1.42650E+00  1.36818E+00  2.15531E+00  3.71391E+00  5.50666E+00  7.24637E+00  8.81942E+00  1.01883E+01  1.12453E+01
   1.18038E+01  1.17371E+01  1.10679E+01  9.95883E+00  8.61028E+00  7.18304E+00  5.80669E+00  4.61227E+00  3.55046E+00  2.58491E+00
   1.56831E+00  6.88921E-01  3.42072E-01  6.21038E-01  1.58199E+00  3.02064E+00  4.70459E+00  6.47499E+00  8.09723E+00  9.38321E+00
   1.02373E+01  1.06007E+01  1.04084E+01  9.65154E+00  8.41902E+00  6.89681E+00  5.21251E+00  3.56533E+00  2.20809E+00  1.64466E+00
   2.36679E+00  4.14024E+00  6.29727E+00  8.29274E+00  9.96610E+00  1.12418E+01  1.19295E+01  1.18651E+01  1.10433E+01  9.61011E+00
   7.76030E+00  5.82312E+00  4.15397E+00  2.90552E+00  2.09456E+00  1.62150E+00  1.43207E+00  1.56221E+00  1.98332E+00  2.47403E+00
   2.78059E+00  2.82861E+00  2.64903E+00  2.29882E+00  1.97908E+00  1.79972E+00  1.74830E+00  1.82854E+00  2.05845E+00  2.42326E+00
   2.86057E+00  3.26037E+00  3.53355E+00  3.61115E+00  3.50518E+00  3.24324E+00  2.85106E+00  2.40507E+00  2.03722E+00  1.67645E+00
   1.15251E+00  4.25519E-01 -3.55656E-01 -1.09734E+00 -1.77949E+00 -2.40978E+00 -2.98194E+00 -3.46234E+00 -3.76044E+00 -3.81671E+00
  -3.68675E+00 -3.39618E+00 -2.96713E+00 -2.26660E+00 -4.48452E-01  3.07052E+00  7.14600E+00  1.08047E+01  1.38688E+01  1.65220E+01
   1.87855E+01  2.03369E+01  2.07950E+01  2.00170E+01  1.81964E+01  1.56537E+01  1.26518E+01  9.43269E+00  6.27817E+00  3.41625E+00
   9.46370E-01 -9.59367E-01 -2.00712E+00 -2.27626E+00 -2.32733E+00 -2.32109E+00 -2.25495E+00 -2.06807E+00 -1.45457E+00  4.06589E-01
   3.36499E+00  6.51463E+00  9.39077E+00  1.19978E+01  1.44026E+01  1.64634E+01  1.78647E+01  1.82501E+01  1.75122E+01  1.58352E+01
   1.34764E+01  1.06919E+01  7.77721E+00  4.98761E+00  2.50444E+00  4.32410E-01 -1.04024E+00 -1.70281E+00 -1.83919E+00 -1.79646E+00
  -1.68201E+00 -1.54839E+00 -1.43182E+00 -1.34955E+00 -1.32034E+00 -1.38718E+00 -1.57602E+00 -1.87552E+00 -2.22913E+00 -2.56814E+00
  -2.84434E+00 -3.04498E+00 -3.20053E+00 -3.37523E+00 -3.56577E+00 -3.73162E+00 -3.85186E+00 -3.92403E+00 -3.99041E+00 -4.08097E+00
  -4.19097E+00 -4.30875E+00 -4.44016E+00 -4.57165E+00 -4.68068E+00 -4.76446E+00 -4.82884E+00 -4.90583E+00 -5.02810E+00 -5.16734E+00
  -5.26917E+00 -5.33174E+00 -5.38332E+00 -5.46680E+00 -5.58005E+00 -5.67596E+00 -5.69524E+00 -5.64559E+00 -5.58060E+00 -5.53481E+00
  -5.46645E+00 -5.29167E+00 -4.96467E+00 -4.48361E+00 -3.87472E+00 -3.24851E+00 -2.75642E+00 -2.41019E+00 -2.27067E+00 -2.36364E+00
  -2.71474E+00 -3.24062E+00 -3.75831E+00 -4.02424E+00 -3.87757E+00 -3.34645E+00 -2.47340E+00 -1.19458E+00  3.99378E-01  1.98713E+00
   3.19756E+00  3.61721E+00  2.78997E+00  1.15271E+00 -7.51919E-01 -2.75465E+00 -4.71634E+00 -6.24178E+00 -6.63525E+00 -5.78856E+00
  -4.09334E+00 -1.87039E+00  5.98034E-01  2.91911E+00  4.48225E+00  4.87968E+00  4.30219E+00  3.21170E+00  1.76788E+00  3.12631E-02
  -1.79407E+00 -3.09403E+00 -3.49983E+00 -3.11229E+00 -2.14757E+00 -6.93432E-01  1.17350E+00  2.95803E+00  4.14490E+00  4.88273E+00
   5.44771E+00  5.90418E+00  6.17905E+00  6.38644E+00  6.57225E+00  6.58724E+00  6.51708E+00  6.47504E+00  6.41113E+00  6.19797E+00
   5.81784E+00  5.26328E+00  4.64047E+00  4.16463E+00  3.95667E+00  4.07832E+00  4.60368E+00  5.87791E+00  8.43544E+00  1.18729E+01
   1.53555E+01  1.86241E+01  2.24653E+01  2.73444E+01  3.22199E+01  3.61059E+01  3.87495E+01  4.03244E+01  4.09304E+01  4.04659E+01
   3.87381E+01  3.57857E+01  3.19308E+01  2.75613E+01  2.29741E+01  1.85667E+01  1.47952E+01  1.16052E+01  8.84081E+00  6.62678E+00
   5.28878E+00  4.73667E+00  4.46213E+00  4.28137E+00  4.14453E+00  4.00870E+00  3.84770E+00  3.67282E+00  3.48026E+00  3.27257E+00
   3.05965E+00  2.85617E+00  2.67103E+00  2.51914E+00  2.42319E+00  2.38400E+00  2.38312E+00  2.40252E+00  2.43702E+00  2.48677E+00
   2.54589E+00  2.60248E+00  2.65827E+00  2.71748E+00  2.77842E+00  2.83664E+00  2.88978E+00  2.93411E+00  2.96758E+00  2.98979E+00
   2.99970E+00  2.99648E+00  2.98263E+00  2.95729E+00  2.91764E+00  2.86238E+00  2.79164E+00  2.70632E+00  2.60729E+00  2.49572E+00
   2.37611E+00  2.25277E+00  2.12888E+00  2.00752E+00  1.89095E+00  1.78078E+00  1.67830E+00  1.58440E+00  1.49968E+00  1.42439E+00
   1.35848E+00  1.30167E+00  1.25352E+00  1.21350E+00  1.18093E+00  1.15512E+00  1.13538E+00  1.12106E+00  1.11158E+00  1.10642E+00
   1.10510E+00  1.10720E+00  1.11235E+00  1.12025E+00  1.13066E+00  1.14343E+00  1.15841E+00  1.17548E+00  1.19455E+00  1.21558E+00
   1.23856E+00  1.26351E+00  1.29043E+00  1.31934E+00  1.35025E+00  1.38322E+00  1.41827E+00  1.45545E+00  1.49474E+00  1.53613E+00
   1.57958E+00  1.62505E+00  1.67248E+00  1.72176E+00  1.77276E+00  1.82533E+00  1.87933E+00  1.93461E+00  1.99105E+00  2.04853E+00
   2.10698E+00  2.16637E+00  2.22679E+00  2.28841E+00  2.35151E+00  2.41648E+00  2.48385E+00  2.55435E+00  2.62885E+00  2.70843E+00
   2.79432E+00  2.88796E+00  2.99099E+00  3.10526E+00  3.23282E+00  3.37590E+00  3.53685E+00  3.71818E+00  3.92246E+00  4.15227E+00
   4.41012E+00  4.69826E+00  5.01860E+00  5.37254E+00  5.76076E+00  6.18305E+00  6.63808E+00  7.12325E+00  7.63451E+00  8.16631E+00
   8.71154E+00  9.26160E+00  9.80656E+00  1.03354E+01  1.08363E+01  1.12973E+01  1.17065E+01  1.20529E+01  1.23266E+01  1.25197E+01
   1.26263E+01  1.26433E+01  1.25701E+01  1.24089E+01  1.21647E+01  1.18445E+01  1.14578E+01  1.10151E+01  1.05284E+01  1.00097E+01
   9.47121E+00  8.92436E+00  8.37972E+00  7.84656E+00  7.33265E+00  6.84421E+00  6.38582E+00  5.96059E+00  5.57026E+00  5.21533E+00
   4.89535E+00  4.60903E+00  4.35455E+00  4.12968E+00  3.93196E+00  3.75885E+00  3.60780E+00  3.47637E+00  3.36226E+00  3.26338E+00
   3.17781E+00  3.10385E+00  3.04000E+00  2.98494E+00  2.93752E+00  2.89677E+00  2.86184E+00  2.83199E+00  2.80659E+00  2.78511E+00
   2.76709E+00  2.75213E+00  2.73990E+00  2.73008E+00  2.72242E+00  2.71669E+00  2.71271E+00  2.71030E+00  2.70931E+00  2.70960E+00
   2.71107E+00  2.71360E+00  2.71711E+00  2.72152E+00  2.72675E+00  2.73273E+00  2.73940E+00  2.74672E+00  2.75465E+00  2.76312E+00
   2.77211E+00  2.78158E+00  2.79148E+00  2.80181E+00  2.81253E+00  2.82361E+00  2.83503E+00  2.84676E+00  2.85880E+00  2.87112E+00
   2.88372E+00  2.89657E+00  2.90966E+00  2.92298E+00  2.93652E+00  2.95027E+00  2.96422E+00  2.97837E+00  2.99270E+00  3.00720E+00
   3.02188E+00  3.03672E+00  3.05173E+00  3.06690E+00  3.08222E+00  3.09769E+00  3.11332E+00  3.12911E+00  3.14505E+00  3.16115E+00
   3.17740E+00  3.19382E+00  3.21041E+00  3.22718E+00  3.24415E+00  3.26131E+00  3.27868E+00  3.29629E+00
 NY background values follow
    -5.866E+00   -5.848E+00   -5.830E+00   -5.812E+00   -5.794E+00   -5.775E+00   -5.757E+00   -5.739E+00   -5.721E+00   -5.703E+00
    -5.684E+00   -5.666E+00   -5.648E+00   -5.630E+00   -5.612E+00   -5.593E+00   -5.575E+00   -5.557E+00   -5.539E+00   -5.521E+00
    -5.502E+00   -5.484E+00   -5.466E+00   -5.448E+00   -5.430E+00   -5.411E+00   -5.393E+00   -5.375E+00   -5.357E+00   -5.339E+00
    -5.320E+00   -5.302E+00   -5.284E+00   -5.266E+00   -5.248E+00   -5.229E+00   -5.211E+00   -5.193E+00   -5.175E+00   -5.157E+00
    -5.138E+00   -5.120E+00   -5.102E+00   -5.084E+00   -5.066E+00   -5.047E+00   -5.029E+00   -5.011E+00   -4.993E+00   -4.975E+00
    -4.956E+00   -4.938E+00   -4.920E+00   -4.902E+00   -4.884E+00   -4.865E+00   -4.847E+00   -4.829E+00   -4.811E+00   -4.793E+00
    -4.774E+00   -4.756E+00   -4.738E+00   -4.720E+00   -4.702E+00   -4.683E+00   -4.665E+00   -4.647E+00   -4.629E+00   -4.611E+00
    -4.592E+00   -4.574E+00   -4.556E+00   -4.538E+00   -4.520E+00   -4.501E+00   -4.483E+00   -4.465E+00   -4.447E+00   -4.429E+00
    -4.410E+00   -4.392E+00   -4.374E+00   -4.356E+00   -4.338E+00   -4.319E+00   -4.301E+00   -4.283E+00   -4.265E+00   -4.247E+00
    -4.228E+00   -4.210E+00   -4.192E+00   -4.174E+00   -4.156E+00   -4.137E+00   -4.119E+00   -4.101E+00   -4.083E+00   -4.065E+00
    -4.047E+00   -4.028E+00   -4.010E+00   -3.992E+00   -3.974E+00   -3.956E+00   -3.937E+00   -3.919E+00   -3.901E+00   -3.883E+00
    -3.865E+00   -3.846E+00   -3.828E+00   -3.810E+00   -3.792E+00   -3.774E+00   -3.755E+00   -3.737E+00   -3.719E+00   -3.701E+00
    -3.683E+00   -3.664E+00   -3.646E+00   -3.628E+00   -3.610E+00   -3.592E+00   -3.573E+00   -3.555E+00   -3.537E+00   -3.519E+00
    -3.501E+00   -3.482E+00   -3.464E+00   -3.446E+00   -3.428E+00   -3.410E+00   -3.391E+00   -3.373E+00   -3.355E+00   -3.337E+00
    -3.319E+00   -3.300E+00   -3.282E+00   -3.264E+00   -3.246E+00   -3.228E+00   -3.209E+00   -3.191E+00   -3.173E+00   -3.155E+00
    -3.137E+00   -3.118E+00   -3.100E+00   -3.082E+00   -3.064E+00   -3.046E+00   -3.027E+00   -3.009E+00   -2.991E+00   -2.973E+00
    -2.955E+00   -2.936E+00   -2.918E+00   -2.900E+00   -2.882E+00   -2.864E+00   -2.845E+00   -2.827E+00   -2.809E+00   -2.791E+00
    -2.773E+00   -2.754E+00   -2.736E+00   -2.718E+00   -2.700E+00   -2.682E+00   -2.663E+00   -2.645E+00   -2.627E+00   -2.609E+00
    -2.591E+00   -2.572E+00   -2.554E+00   -2.536E+00   -2.518E+00   -2.500E+00   -2.482E+00   -2.463E+00   -2.445E+00   -2.427E+00
    -2.409E+00   -2.391E+00   -2.372E+00   -2.354E+00   -2.336E+00   -2.318E+00   -2.300E+00   -2.281E+00   -2.263E+00   -2.245E+00
    -2.227E+00   -2.209E+00   -2.190E+00   -2.172E+00   -2.154E+00   -2.136E+00   -2.118E+00   -2.099E+00   -2.081E+00   -2.063E+00
    -2.045E+00   -2.027E+00   -2.008E+00   -1.990E+00   -1.972E+00   -1.954E+00   -1.936E+00   -1.917E+00   -1.899E+00   -1.881E+00
    -1.863E+00   -1.845E+00   -1.826E+00   -1.808E+00   -1.790E+00   -1.772E+00   -1.754E+00   -1.735E+00   -1.717E+00   -1.699E+00
    -1.681E+00   -1.663E+00   -1.644E+00   -1.626E+00   -1.608E+00   -1.590E+00   -1.572E+00   -1.553E+00   -1.535E+00   -1.517E+00
    -1.499E+00   -1.481E+00   -1.462E+00   -1.444E+00   -1.426E+00   -1.408E+00   -1.390E+00   -1.371E+00   -1.353E+00   -1.335E+00
    -1.317E+00   -1.299E+00   -1.280E+00   -1.262E+00   -1.244E+00   -1.226E+00   -1.208E+00   -1.189E+00   -1.171E+00   -1.153E+00
    -1.135E+00   -1.117E+00   -1.098E+00   -1.080E+00   -1.062E+00   -1.044E+00   -1.026E+00   -1.007E+00   -9.893E-01   -9.711E-01
    -9.529E-01   -9.347E-01   -9.165E-01   -8.983E-01   -8.801E-01   -8.619E-01   -8.437E-01   -8.255E-01   -8.073E-01   -7.891E-01
    -7.709E-01   -7.527E-01   -7.345E-01   -7.163E-01   -6.981E-01   -6.799E-01   -6.617E-01   -6.435E-01   -6.253E-01   -6.071E-01
    -5.889E-01   -5.707E-01   -5.525E-01   -5.343E-01   -5.161E-01   -4.979E-01   -4.797E-01   -4.615E-01   -4.433E-01   -4.251E-01
    -4.069E-01   -3.887E-01   -3.705E-01   -3.523E-01   -3.341E-01   -3.159E-01   -2.977E-01   -2.795E-01   -2.613E-01   -2.431E-01
    -2.249E-01   -2.067E-01   -1.885E-01   -1.703E-01   -1.521E-01   -1.339E-01   -1.157E-01   -9.754E-02   -7.934E-02   -6.114E-02
    -4.294E-02   -2.475E-02   -6.547E-03    1.165E-02    2.985E-02    4.805E-02    6.625E-02    8.444E-02    1.026E-01    1.208E-01
     1.390E-01    1.572E-01    1.754E-01    1.936E-01    2.118E-01    2.300E-01    2.482E-01    2.664E-01    2.846E-01    3.028E-01
     3.210E-01    3.392E-01    3.574E-01    3.756E-01    3.938E-01    4.120E-01    4.302E-01    4.484E-01    4.666E-01    4.848E-01
     5.030E-01    5.212E-01    5.394E-01    5.576E-01    5.758E-01    5.940E-01    6.122E-01    6.304E-01    6.486E-01    6.668E-01
     6.850E-01    7.032E-01    7.214E-01    7.396E-01    7.578E-01    7.760E-01    7.942E-01    8.124E-01    8.306E-01    8.488E-01
     8.670E-01    8.852E-01    9.034E-01    9.216E-01    9.398E-01    9.579E-01    9.761E-01    9.943E-01    1.013E+00    1.031E+00
     1.049E+00    1.067E+00    1.085E+00    1.104E+00    1.122E+00    1.140E+00    1.158E+00    1.176E+00    1.195E+00    1.213E+00
     1.231E+00    1.249E+00    1.267E+00    1.285E+00    1.304E+00    1.322E+00    1.340E+00    1.358E+00    1.376E+00    1.395E+00
     1.413E+00    1.431E+00    1.449E+00    1.467E+00    1.486E+00    1.504E+00    1.522E+00    1.540E+00    1.558E+00    1.577E+00
     1.595E+00    1.613E+00    1.631E+00    1.649E+00    1.668E+00    1.686E+00    1.704E+00    1.722E+00    1.740E+00    1.759E+00
     1.777E+00    1.795E+00    1.813E+00    1.831E+00    1.850E+00    1.868E+00    1.886E+00    1.904E+00    1.922E+00    1.941E+00
     1.959E+00    1.977E+00    1.995E+00    2.013E+00    2.032E+00    2.050E+00    2.068E+00    2.086E+00    2.104E+00    2.123E+00
     2.141E+00    2.159E+00    2.177E+00    2.195E+00    2.213E+00    2.232E+00    2.250E+00    2.268E+00    2.286E+00    2.304E+00
     2.323E+00    2.341E+00    2.359E+00    2.377E+00    2.395E+00    2.414E+00    2.432E+00    2.450E+00    2.468E+00    2.486E+00
     2.505E+00    2.523E+00    2.541E+00    2.559E+00    2.577E+00    2.596E+00    2.614E+00    2.632E+00    2.650E+00    2.668E+00
     2.687E+00    2.705E+00    2.723E+00    2.741E+00    2.759E+00    2.777E+00    2.796E+00    2.814E+00    2.832E+00    2.850E+00
     2.868E+00    2.887E+00    2.905E+00    2.923E+00    2.941E+00    2.959E+00    2.978E+00    2.996E+00    3.014E+00    3.032E+00
     3.050E+00    3.069E+00    3.087E+00    3.105E+00    3.123E+00    3.141E+00    3.159E+00    3.178E+00
 Asp      Conc. = 9.22E+01
