 LCModel (Version 6.3-1L) Copyright: S.W. Provencher.          Ref.: Magn. Reson. Med. 30:672-679 (1993).                
 Slice#2 Row#5 Col#3  PD_05_press_2_raw_act
 36 lines in following concentration table = NCONC+1
    Conc.  %SD /Cr+PCr  Metabolite                                         
    0.000 999%   0.000 Ala                                                 
    0.000 999%   0.000 Asp                                                 
 2.91E+03   6%   1.000 Cr                                                  
    0.000 999%   0.000 PCr                                                 
    0.000 999%   0.000 GABA                                                
    0.000 999%   0.000 Glc                                                 
  353.179 191%   0.122 Gln                                                 
 3.27E+03  23%   1.127 Glu                                                 
  997.304   7%   0.343 GPC                                                 
    0.000 999%   0.000 PCh                                                 
  901.588  26%   0.310 GSH                                                 
 2.60E+03  31%   0.894 Ins                                                 
    0.000 999%   0.000 Lac                                                 
 4.31E+03   9%   1.483 NAA                                                 
 1.38E+03  30%   0.476 NAAG                                                
    0.000 999%   0.000 Scyllo                                              
    0.000 999%   0.000 Tau                                                 
 1.19E+03  29%   0.408 -CrCH2                                              
  997.304   7%   0.343 GPC+PCh                                             
 5.69E+03   5%   1.960 NAA+NAAG                                            
 2.91E+03   6%   1.000 Cr+PCr                                              
 3.63E+03  28%   1.248 Glu+Gln                                             
    0.000 999%   0.000 Lip13a                                              
 2.06E+03  31%   0.708 Lip13b                                              
 6.61E+03  24%   2.276 Lip09                                               
 1.28E+04  14%   4.414 MM09                                                
    0.000 999%   0.000 Lip20                                               
 2.58E+04   9%   8.889 MM20                                                
 1.10E+04  17%   3.797 MM12                                                
    0.000 999%   0.000 MM14                                                
 1.37E+04  17%   4.723 MM17                                                
 2.06E+03  31%   0.708 Lip13a+Lip13b                                       
 1.31E+04  14%   4.505 MM14+Lip13a+Lip13b+MM12                             
 1.94E+04  11%   6.690 MM09+Lip09                                          
 2.58E+04   9%   8.889 MM20+Lip20                                          
   6 lines in following misc. output table
  FWHM = 0.046 ppm    S/N =  10                                            
  Data shift = 0.015 ppm                                                   
  Ph:  67 deg      38.2 deg/ppm                                            
  alphaB,S = 2.4E-01,   9.6E+01                                            
   14 spline knots.   Ns = 6(1)                                            
  ( 8) 2 infls.   ( 5) 1 extrs.                                            
  498 points on ppm-axis = NY
      4.000000     3.992357     3.984714     3.977070     3.969427     3.961784     3.954141     3.946497     3.938854     3.931211
      3.923568     3.915925     3.908281     3.900638     3.892995     3.885352     3.877708     3.870065     3.862422     3.854779
      3.847136     3.839492     3.831849     3.824206     3.816563     3.808919     3.801276     3.793633     3.785990     3.778347
      3.770703     3.763060     3.755417     3.747774     3.740130     3.732487     3.724844     3.717201     3.709558     3.701914
      3.694271     3.686628     3.678985     3.671341     3.663698     3.656055     3.648412     3.640769     3.633125     3.625482
      3.617839     3.610196     3.602552     3.594909     3.587266     3.579623     3.571980     3.564336     3.556693     3.549050
      3.541407     3.533763     3.526120     3.518477     3.510834     3.503191     3.495547     3.487904     3.480261     3.472618
      3.464974     3.457331     3.449688     3.442045     3.434402     3.426758     3.419115     3.411472     3.403829     3.396185
      3.388542     3.380899     3.373256     3.365613     3.357969     3.350326     3.342683     3.335040     3.327396     3.319753
      3.312110     3.304467     3.296824     3.289180     3.281537     3.273894     3.266251     3.258607     3.250964     3.243321
      3.235678     3.228034     3.220391     3.212748     3.205105     3.197462     3.189818     3.182175     3.174532     3.166889
      3.159245     3.151602     3.143959     3.136316     3.128673     3.121029     3.113386     3.105743     3.098100     3.090456
      3.082813     3.075170     3.067527     3.059884     3.052240     3.044597     3.036954     3.029311     3.021667     3.014024
      3.006381     2.998738     2.991095     2.983451     2.975808     2.968165     2.960522     2.952878     2.945235     2.937592
      2.929949     2.922306     2.914662     2.907019     2.899376     2.891733     2.884089     2.876446     2.868803     2.861160
      2.853517     2.845873     2.838230     2.830587     2.822944     2.815300     2.807657     2.800014     2.792371     2.784728
      2.777084     2.769441     2.761798     2.754155     2.746511     2.738868     2.731225     2.723582     2.715939     2.708295
      2.700652     2.693009     2.685366     2.677722     2.670079     2.662436     2.654793     2.647150     2.639506     2.631863
      2.624220     2.616577     2.608933     2.601290     2.593647     2.586004     2.578361     2.570717     2.563074     2.555431
      2.547788     2.540144     2.532501     2.524858     2.517215     2.509572     2.501928     2.494285     2.486642     2.478999
      2.471355     2.463712     2.456069     2.448426     2.440783     2.433139     2.425496     2.417853     2.410210     2.402566
      2.394923     2.387280     2.379637     2.371994     2.364350     2.356707     2.349064     2.341421     2.333777     2.326134
      2.318491     2.310848     2.303205     2.295561     2.287918     2.280275     2.272632     2.264988     2.257345     2.249702
      2.242059     2.234416     2.226772     2.219129     2.211486     2.203843     2.196199     2.188556     2.180913     2.173270
      2.165627     2.157983     2.150340     2.142697     2.135054     2.127410     2.119767     2.112124     2.104481     2.096838
      2.089194     2.081551     2.073908     2.066265     2.058621     2.050978     2.043335     2.035692     2.028049     2.020405
      2.012762     2.005119     1.997476     1.989833     1.982190     1.974546     1.966903     1.959260     1.951617     1.943974
      1.936331     1.928688     1.921045     1.913402     1.905759     1.898115     1.890472     1.882829     1.875186     1.867543
      1.859900     1.852257     1.844614     1.836971     1.829327     1.821684     1.814041     1.806398     1.798755     1.791112
      1.783469     1.775826     1.768183     1.760540     1.752896     1.745253     1.737610     1.729967     1.722324     1.714681
      1.707038     1.699395     1.691752     1.684108     1.676465     1.668822     1.661179     1.653536     1.645893     1.638250
      1.630607     1.622964     1.615321     1.607677     1.600034     1.592391     1.584748     1.577105     1.569462     1.561819
      1.554176     1.546533     1.538890     1.531246     1.523603     1.515960     1.508317     1.500674     1.493031     1.485388
      1.477745     1.470102     1.462458     1.454815     1.447172     1.439529     1.431886     1.424243     1.416600     1.408957
      1.401314     1.393671     1.386027     1.378384     1.370741     1.363098     1.355455     1.347812     1.340169     1.332526
      1.324883     1.317240     1.309596     1.301953     1.294310     1.286667     1.279024     1.271381     1.263738     1.256095
      1.248452     1.240808     1.233165     1.225522     1.217879     1.210236     1.202593     1.194950     1.187307     1.179664
      1.172021     1.164377     1.156734     1.149091     1.141448     1.133805     1.126162     1.118519     1.110876     1.103233
      1.095590     1.087946     1.080303     1.072660     1.065017     1.057374     1.049731     1.042088     1.034445     1.026802
      1.019158     1.011515     1.003872     0.996229     0.988586     0.980943     0.973300     0.965657     0.958014     0.950371
      0.942727     0.935084     0.927441     0.919798     0.912155     0.904512     0.896869     0.889226     0.881583     0.873940
      0.866296     0.858653     0.851010     0.843367     0.835724     0.828081     0.820438     0.812795     0.805152     0.797508
      0.789865     0.782222     0.774579     0.766936     0.759293     0.751650     0.744007     0.736364     0.728721     0.721077
      0.713434     0.705791     0.698148     0.690505     0.682862     0.675219     0.667576     0.659933     0.652290     0.644646
      0.637003     0.629360     0.621717     0.614074     0.606431     0.598788     0.591145     0.583502     0.575858     0.568215
      0.560572     0.552929     0.545286     0.537643     0.530000     0.522357     0.514714     0.507071     0.499427     0.491784
      0.484141     0.476498     0.468855     0.461212     0.453569     0.445925     0.438282     0.430639     0.422996     0.415353
      0.407710     0.400067     0.392424     0.384780     0.377137     0.369494     0.361851     0.354208     0.346565     0.338922
      0.331278     0.323635     0.315992     0.308349     0.300706     0.293063     0.285420     0.277777     0.270133     0.262490
      0.254847     0.247204     0.239561     0.231918     0.224275     0.216631     0.208988     0.201345
 NY phased data points follow
   5.58095E+01  6.53858E+01  4.72264E+01  6.76266E+01  4.15190E+01  6.71655E+01  5.72433E+01  7.68102E+01  8.65929E+01  1.04690E+02
   1.12789E+02  1.32589E+02  1.36838E+02  1.49081E+02  1.40954E+02  1.35226E+02  1.16055E+02  1.20330E+02  9.92156E+01  1.08898E+02
   9.13112E+01  9.15006E+01  8.99795E+01  1.03067E+02  8.01797E+01  9.55418E+01  8.99180E+01  9.06886E+01  9.30157E+01  8.27094E+01
   9.97824E+01  1.00325E+02  9.32915E+01  1.00724E+02  9.36239E+01  8.74681E+01  8.23815E+01  8.68254E+01  6.61282E+01  9.13973E+01
   7.64699E+01  8.43594E+01  8.30175E+01  7.16771E+01  8.10659E+01  8.59918E+01  8.08037E+01  1.04765E+02  1.02855E+02  1.13642E+02
   8.91665E+01  9.52865E+01  8.03352E+01  8.65744E+01  8.94100E+01  9.95435E+01  7.10722E+01  9.39169E+01  7.62270E+01  8.41395E+01
   8.40663E+01  7.70003E+01  8.04136E+01  7.69126E+01  5.51327E+01  5.50745E+01  5.47862E+01  4.99621E+01  3.95227E+01  5.62987E+01
   4.66265E+01  5.85745E+01  5.48527E+01  4.86666E+01  4.55928E+01  5.08831E+01  3.75738E+01  5.27660E+01  3.13984E+01  3.48246E+01
   3.33670E+01  3.90507E+01  3.98594E+01  4.34613E+01  4.24726E+01  4.05780E+01  3.44324E+01  4.19073E+01  3.60206E+01  4.35163E+01
   4.14852E+01  4.59288E+01  2.69788E+01  5.35321E+01  1.75074E+01  3.23357E+01  2.57122E+01  2.73240E+01  3.61519E+01  4.38805E+01
   6.43342E+01  1.00304E+02  1.14696E+02  1.48023E+02  1.29215E+02  1.40364E+02  1.16251E+02  1.00731E+02  7.92836E+01  6.91652E+01
   6.68899E+01  8.94541E+01  6.05643E+01  5.31037E+01  5.13547E+01  5.01342E+01  4.81516E+01  5.36121E+01  4.89585E+01  4.26319E+01
   4.12133E+01  4.13292E+01  4.77678E+01  5.75560E+01  8.16149E+01  1.01035E+02  1.30020E+02  1.47001E+02  1.56665E+02  1.37400E+02
   1.33367E+02  1.02212E+02  8.57784E+01  8.13743E+01  7.61970E+01  5.47688E+01  5.26527E+01  5.21197E+01  3.72492E+01  5.68476E+01
   4.29880E+01  3.44555E+01  4.31139E+01  3.29634E+01  3.46476E+01  3.75632E+01  3.14524E+01  3.75662E+01  3.12834E+01  3.40678E+01
   2.39917E+01  4.17934E+01  2.24387E+01  2.95838E+01  2.11845E+01  1.87626E+01  2.54223E+01  1.99708E+01  3.30199E+01  2.01374E+01
   1.54430E+01  7.70996E+00  8.86789E+00  1.56467E+01  1.45430E+01  2.11508E+01  1.53793E+01  2.44434E+01  8.10967E-01  1.54006E+01
   4.04013E-01 -7.37465E+00 -8.55928E+00 -1.35526E+01 -1.34510E+01 -1.37362E+01 -1.56673E+01 -1.23427E+01 -5.05892E+00 -4.94231E+00
   7.64667E+00 -2.82902E+00 -1.30734E+01 -8.57773E+00 -7.93360E+00 -1.71260E+01 -9.69045E+00  5.87699E+00 -2.44401E+00  2.95305E+01
   2.23245E+01  9.94633E+00  3.01233E+01  2.96879E+01  1.98958E+01  2.51499E+01  1.30333E+01  1.34341E+01  1.29581E+01  9.60735E+00
   1.49627E+01  1.27594E+01 -7.95511E-01  1.88195E+01  2.22709E+01  2.86968E+01 -1.51964E-01  4.26402E+00  3.83883E+00  2.12121E+00
  -1.34832E+00  8.67306E+00  2.18031E+00  1.55688E+01  3.09225E+01  3.70492E+01  2.35458E+01  4.10419E+01  1.72444E+01  1.61099E+01
   6.02220E+00 -2.00812E+00 -2.06061E+00 -1.16375E+01  8.41161E+00  8.64818E+00  1.67908E+01  2.72880E+01  2.07433E+01  2.32287E+01
   1.44702E+01  2.54197E+01  1.78703E+01  1.95249E+01  1.19301E+01  1.67718E+01  2.51912E+01  1.57723E+01  2.33615E+01  1.95589E+01
   2.05152E+01  9.06288E+00  1.16554E+01  1.48697E+01  2.41872E+01  2.63760E+01  4.05408E+01  3.95822E+01  5.17297E+01  5.72432E+01
   4.76126E+01  5.36812E+01  5.86068E+01  7.34207E+01  9.60220E+01  1.03973E+02  1.36328E+02  1.58836E+02  2.04376E+02  2.02658E+02
   2.06159E+02  1.80299E+02  1.33103E+02  9.41247E+01  3.47629E+01  1.82031E+01 -4.90897E-01  1.02544E+01 -2.31669E+01 -1.31313E+01
  -1.43129E+00 -1.94912E+01 -2.51996E+01 -2.37840E+01 -1.39172E+01 -1.67856E+01 -2.06026E+01 -1.72247E+01 -3.06754E+01 -1.98759E+01
  -1.46379E+01 -1.32035E+01 -3.03653E+01 -7.46165E+00 -2.52759E+01 -2.03471E+01 -1.89208E+01 -2.34919E+01 -1.03233E+01 -3.51802E+01
  -1.79559E+01 -9.63774E+00 -2.25559E+01 -2.17189E+01 -3.14199E+01 -2.90399E+01 -4.35497E+01 -3.11973E+01 -4.54214E+01 -4.61642E+01
  -3.47368E+01 -3.81418E+01 -5.53233E+01 -4.80962E+01 -4.74203E+01 -6.57268E+01 -5.54008E+01 -6.31966E+01 -6.50378E+01 -5.87854E+01
  -5.22724E+01 -7.33979E+01 -7.26449E+01 -8.00722E+01 -8.21399E+01 -7.84459E+01 -8.77441E+01 -9.16604E+01 -1.01817E+02 -9.69237E+01
  -1.06501E+02 -1.12431E+02 -1.30077E+02 -1.30045E+02 -1.24471E+02 -1.32599E+02 -1.41175E+02 -1.37540E+02 -1.40856E+02 -1.26768E+02
  -1.38528E+02 -1.33202E+02 -1.38781E+02 -1.29806E+02 -1.39046E+02 -1.40397E+02 -1.44514E+02 -1.42783E+02 -1.48815E+02 -1.33371E+02
  -1.40482E+02 -1.34075E+02 -1.30035E+02 -1.27291E+02 -1.32586E+02 -1.20592E+02 -1.22322E+02 -1.07370E+02 -1.17648E+02 -1.15697E+02
  -1.05892E+02 -1.08976E+02 -8.85897E+01 -9.35738E+01 -6.76989E+01 -7.55394E+01 -6.90021E+01 -6.66358E+01 -6.75336E+01 -5.69360E+01
  -6.45421E+01 -5.09114E+01 -4.28827E+01 -3.64604E+01 -4.69664E+01 -4.38861E+01 -3.04104E+01 -3.37623E+01 -2.86196E+01 -2.60945E+01
  -1.36559E+01 -2.40826E+01 -1.55546E+01 -1.42504E+01 -5.22668E+00 -8.01338E+00 -6.25030E+00 -6.66519E+00 -8.99848E+00 -6.35239E+00
  -8.17422E+00 -7.48358E+00 -1.28478E+01 -3.20047E-01 -5.82223E+00 -3.21869E+00 -5.39675E+00 -3.58281E+00  2.42946E+00  6.34394E+00
   3.42671E+00 -1.09658E+01 -2.13041E+00 -9.96973E+00 -1.67014E+01  4.04179E+00 -1.88853E+00 -3.06353E+00  6.25445E+00  1.15123E+00
  -9.16402E+00 -1.18186E+01  3.81048E+00 -2.15512E+00 -7.92130E+00  2.67796E+00 -2.87614E+01 -1.78701E+01 -5.95950E+00 -1.78645E+01
  -1.69613E+01 -1.40823E+01 -2.70841E+01 -2.46261E+01 -2.18172E+01 -1.80307E+01 -2.14269E+01 -2.26520E+01 -1.79313E+01 -2.17333E+01
  -1.76435E+01 -2.20857E+01 -1.37568E+01 -1.55633E+01 -2.25019E+01 -1.26967E+01 -1.82815E+01 -2.24640E+01 -1.76162E+01 -2.58872E+01
  -1.83801E+01 -1.68422E+01 -1.41036E+01 -1.83296E+01 -2.69267E+01 -1.52444E+01 -2.69770E+01 -3.20415E+01 -2.51281E+01 -2.61594E+01
  -2.53370E+01 -1.81609E+01 -9.62508E+00 -1.54028E+01 -1.27491E+01 -2.44506E+01 -1.46900E+01 -2.14617E+01 -1.56459E+01 -2.41029E+01
  -1.16725E+01 -2.85051E+01 -2.24996E+01 -1.54802E+01 -2.35134E+01 -2.80205E+01 -1.16534E+01 -1.11745E+01 -1.70600E+01 -2.04467E+01
  -1.75350E+01 -1.71194E+01 -2.76710E+01 -1.04482E+01 -2.06220E+01 -1.07697E+01 -1.53065E+01 -1.19452E+01 -1.80440E+01 -2.47083E+01
  -2.12812E+01 -5.94709E+00 -1.28113E+01 -2.61642E+01 -9.89312E+00 -1.82034E+01 -1.92019E+01 -1.74200E+01 -1.25375E+01 -1.22009E+01
  -2.44204E+01 -1.46142E+01 -1.42106E+01 -2.77903E+00 -2.18090E+01 -2.82214E+01 -1.11419E+01 -1.44212E+01 -1.30901E+01 -1.42549E+01
  -1.26979E+01 -1.30968E+01 -1.10636E+01 -1.20735E+01 -1.35083E+01 -1.84337E+01 -1.67813E+01 -1.11153E+01
 NY points of the fit to the data follow
   8.43532E+01  8.26993E+01  8.05858E+01  7.72437E+01  7.28408E+01  6.82410E+01  6.62294E+01  7.01564E+01  8.10150E+01  9.77298E+01
   1.16958E+02  1.33735E+02  1.43552E+02  1.44371E+02  1.37180E+02  1.25413E+02  1.12884E+02  1.02653E+02  9.55460E+01  9.04343E+01
   8.70277E+01  8.52159E+01  8.38024E+01  8.23964E+01  8.15837E+01  8.20212E+01  8.40075E+01  8.76499E+01  9.24789E+01  9.74701E+01
   1.01344E+02  1.03050E+02  1.01965E+02  9.81874E+01  9.27985E+01  8.72695E+01  8.22944E+01  7.82422E+01  7.58001E+01  7.49756E+01
   7.50850E+01  7.60222E+01  7.81260E+01  8.14586E+01  8.55116E+01  8.96049E+01  9.27421E+01  9.37416E+01  9.21127E+01  8.81825E+01
   8.27461E+01  7.70721E+01  7.24286E+01  6.93917E+01  6.77564E+01  6.72602E+01  6.78697E+01  6.91357E+01  7.03542E+01  7.09841E+01
   7.06819E+01  6.92957E+01  6.70100E+01  6.42814E+01  6.17561E+01  5.99278E+01  5.90070E+01  5.89310E+01  5.94456E+01  6.01511E+01
   6.07180E+01  6.08735E+01  6.05118E+01  5.96708E+01  5.84706E+01  5.70996E+01  5.57697E+01  5.46089E+01  5.36306E+01  5.27463E+01
   5.19265E+01  5.10149E+01  4.98078E+01  4.81370E+01  4.59848E+01  4.35112E+01  4.10440E+01  3.89914E+01  3.77376E+01  3.74801E+01
   3.81697E+01  3.95203E+01  4.10398E+01  4.22674E+01  4.29205E+01  4.28893E+01  4.23439E+01  4.21119E+01  4.54232E+01  5.56430E+01
   7.29588E+01  9.53984E+01  1.18502E+02  1.36275E+02  1.43838E+02  1.39402E+02  1.24468E+02  1.03697E+02  8.31548E+01  6.73021E+01
   5.67850E+01  4.98172E+01  4.59563E+01  4.47390E+01  4.43453E+01  4.41843E+01  4.41166E+01  4.41017E+01  4.41607E+01  4.43772E+01
   4.49248E+01  4.65009E+01  5.20513E+01  6.42775E+01  8.29292E+01  1.05810E+02  1.28509E+02  1.45442E+02  1.52319E+02  1.47645E+02
   1.32929E+02  1.12523E+02  9.19008E+01  7.49575E+01  6.22597E+01  5.25313E+01  4.61750E+01  4.31969E+01  4.21494E+01  4.22778E+01
   4.28496E+01  4.32046E+01  4.29903E+01  4.20662E+01  4.05468E+01  3.87377E+01  3.68996E+01  3.51705E+01  3.35574E+01  3.19481E+01
   3.03534E+01  2.87893E+01  2.73575E+01  2.62189E+01  2.53559E+01  2.45344E+01  2.35618E+01  2.23034E+01  2.08338E+01  1.94398E+01
   1.83468E+01  1.76888E+01  1.73713E+01  1.70528E+01  1.63136E+01  1.49357E+01  1.30643E+01  1.11470E+01  9.55192E+00  8.31262E+00
   7.18642E+00  5.97493E+00  4.71100E+00  3.56203E+00  2.62466E+00  1.97361E+00  1.64533E+00  1.50095E+00  1.36284E+00  1.08118E+00
   5.74039E-01 -9.63739E-02 -5.47685E-01 -5.81345E-01 -1.56048E-01  9.67110E-01  2.99760E+00  5.87854E+00  9.19717E+00  1.22560E+01
   1.44401E+01  1.52674E+01  1.45588E+01  1.26016E+01  9.89729E+00  7.01303E+00  4.67903E+00  3.47145E+00  3.61498E+00  5.01404E+00
   7.37003E+00  1.00331E+01  1.20969E+01  1.29609E+01  1.23233E+01  1.01534E+01  6.57609E+00  2.14212E+00 -2.17551E+00 -5.39820E+00
  -6.43536E+00 -4.44443E+00  3.25266E-01  6.77457E+00  1.32365E+01  1.77812E+01  1.87341E+01  1.53428E+01  8.15937E+00 -7.82156E-01
  -8.99679E+00 -1.43808E+01 -1.57045E+01 -1.30310E+01 -7.16167E+00  3.28274E-01  7.25903E+00  1.21595E+01  1.46674E+01  1.54288E+01
   1.53924E+01  1.53924E+01  1.62244E+01  1.82878E+01  2.12006E+01  2.41332E+01  2.62199E+01  2.68273E+01  2.60033E+01  2.43345E+01
   2.27586E+01  2.22549E+01  2.35113E+01  2.65739E+01  3.07600E+01  3.50198E+01  3.83733E+01  4.01989E+01  4.04985E+01  4.03266E+01
   4.21329E+01  4.72370E+01  5.56939E+01  6.78536E+01  8.70782E+01  1.12950E+02  1.42567E+02  1.71460E+02  1.93385E+02  2.02191E+02
   1.94948E+02  1.72157E+02  1.37606E+02  9.87956E+01  6.46655E+01  3.93157E+01  2.09853E+01  7.16607E+00 -1.34574E+00 -6.69743E+00
  -1.08105E+01 -1.41473E+01 -1.68929E+01 -1.92142E+01 -2.13237E+01 -2.33057E+01 -2.51646E+01 -2.68215E+01 -2.81361E+01 -2.89839E+01
  -2.93260E+01 -2.92162E+01 -2.87318E+01 -2.79603E+01 -2.70181E+01 -2.60275E+01 -2.50428E+01 -2.40749E+01 -2.31316E+01 -2.22537E+01
  -2.15030E+01 -2.09595E+01 -2.07252E+01 -2.09236E+01 -2.16432E+01 -2.29304E+01 -2.47809E+01 -2.71522E+01 -2.99874E+01 -3.32286E+01
  -3.68065E+01 -4.06659E+01 -4.47611E+01 -4.90487E+01 -5.34763E+01 -5.79808E+01 -6.24957E+01 -6.69655E+01 -7.13336E+01 -7.55537E+01
  -7.95912E+01 -8.34219E+01 -8.70291E+01 -9.04050E+01 -9.35467E+01 -9.64576E+01 -9.91436E+01 -1.01615E+02 -1.03883E+02 -1.05964E+02
  -1.07870E+02 -1.09617E+02 -1.11219E+02 -1.12688E+02 -1.14037E+02 -1.15277E+02 -1.16417E+02 -1.17466E+02 -1.18432E+02 -1.19320E+02
  -1.20138E+02 -1.20888E+02 -1.21576E+02 -1.22204E+02 -1.22774E+02 -1.23287E+02 -1.23742E+02 -1.24136E+02 -1.24462E+02 -1.24708E+02
  -1.24850E+02 -1.24857E+02 -1.24676E+02 -1.24237E+02 -1.23446E+02 -1.22190E+02 -1.20345E+02 -1.17790E+02 -1.14431E+02 -1.10228E+02
  -1.05213E+02 -9.95115E+01 -9.33337E+01 -8.69588E+01 -8.06906E+01 -7.48093E+01 -6.95187E+01 -6.49124E+01 -6.09593E+01 -5.75202E+01
  -5.43847E+01 -5.13237E+01 -4.81387E+01 -4.47030E+01 -4.09782E+01 -3.70155E+01 -3.29347E+01 -2.88987E+01 -2.50802E+01 -2.16370E+01
  -1.86903E+01 -1.63144E+01 -1.45320E+01 -1.33180E+01 -1.26051E+01 -1.22953E+01 -1.22690E+01 -1.23986E+01 -1.25571E+01 -1.26300E+01
  -1.25214E+01 -1.21616E+01 -1.15091E+01 -1.05533E+01 -9.31218E+00 -7.83052E+00 -6.17361E+00 -4.42300E+00 -2.66803E+00 -1.00082E+00
   4.91851E-01  1.73246E+00  2.65926E+00  3.22764E+00  3.41382E+00  3.21345E+00  2.64233E+00  1.73264E+00  5.31706E-01 -9.03418E-01
  -2.50813E+00 -4.21615E+00 -5.96144E+00 -7.68340E+00 -9.32779E+00 -1.08506E+01 -1.22176E+01 -1.34068E+01 -1.44066E+01 -1.52167E+01
  -1.58455E+01 -1.63100E+01 -1.66329E+01 -1.68420E+01 -1.69668E+01 -1.70386E+01 -1.70868E+01 -1.71394E+01 -1.72202E+01 -1.73499E+01
  -1.75432E+01 -1.78109E+01 -1.81576E+01 -1.85844E+01 -1.90870E+01 -1.96584E+01 -2.02878E+01 -2.09630E+01 -2.16695E+01 -2.23932E+01
  -2.31189E+01 -2.38332E+01 -2.45227E+01 -2.51764E+01 -2.57842E+01 -2.63385E+01 -2.68328E+01 -2.72634E+01 -2.76273E+01 -2.79237E+01
  -2.81526E+01 -2.83157E+01 -2.84149E+01 -2.84537E+01 -2.84350E+01 -2.83631E+01 -2.82417E+01 -2.80753E+01 -2.78677E+01 -2.76233E+01
  -2.73456E+01 -2.70388E+01 -2.67060E+01 -2.63507E+01 -2.59752E+01 -2.55820E+01 -2.51728E+01 -2.47497E+01 -2.43142E+01 -2.38681E+01
  -2.34122E+01 -2.29483E+01 -2.24769E+01 -2.19994E+01 -2.15163E+01 -2.10286E+01 -2.05366E+01 -2.00412E+01 -1.95425E+01 -1.90414E+01
  -1.85378E+01 -1.80324E+01 -1.75250E+01 -1.70163E+01 -1.65061E+01 -1.59948E+01 -1.54823E+01 -1.49688E+01 -1.44542E+01 -1.39388E+01
  -1.34222E+01 -1.29049E+01 -1.23863E+01 -1.18668E+01 -1.13459E+01 -1.08240E+01 -1.03005E+01 -9.77579E+00 -9.24928E+00 -8.72122E+00
  -8.19110E+00 -7.65916E+00 -7.12488E+00 -6.58846E+00 -6.04937E+00 -5.50777E+00 -4.96315E+00 -4.41569E+00
 NY background values follow
     7.909E+01    7.890E+01    7.872E+01    7.853E+01    7.835E+01    7.816E+01    7.796E+01    7.777E+01    7.757E+01    7.737E+01
     7.716E+01    7.695E+01    7.674E+01    7.652E+01    7.630E+01    7.608E+01    7.585E+01    7.562E+01    7.538E+01    7.514E+01
     7.489E+01    7.463E+01    7.438E+01    7.411E+01    7.384E+01    7.357E+01    7.328E+01    7.300E+01    7.270E+01    7.240E+01
     7.209E+01    7.177E+01    7.145E+01    7.112E+01    7.078E+01    7.044E+01    7.009E+01    6.972E+01    6.935E+01    6.898E+01
     6.859E+01    6.819E+01    6.779E+01    6.738E+01    6.695E+01    6.652E+01    6.608E+01    6.563E+01    6.516E+01    6.470E+01
     6.422E+01    6.373E+01    6.324E+01    6.274E+01    6.223E+01    6.172E+01    6.120E+01    6.067E+01    6.014E+01    5.960E+01
     5.906E+01    5.852E+01    5.797E+01    5.741E+01    5.686E+01    5.630E+01    5.574E+01    5.518E+01    5.461E+01    5.404E+01
     5.348E+01    5.291E+01    5.234E+01    5.177E+01    5.121E+01    5.064E+01    5.007E+01    4.951E+01    4.895E+01    4.839E+01
     4.783E+01    4.728E+01    4.673E+01    4.618E+01    4.564E+01    4.510E+01    4.457E+01    4.404E+01    4.352E+01    4.300E+01
     4.249E+01    4.199E+01    4.149E+01    4.100E+01    4.052E+01    4.005E+01    3.958E+01    3.911E+01    3.865E+01    3.820E+01
     3.775E+01    3.731E+01    3.688E+01    3.645E+01    3.602E+01    3.560E+01    3.519E+01    3.478E+01    3.437E+01    3.397E+01
     3.358E+01    3.318E+01    3.280E+01    3.241E+01    3.203E+01    3.166E+01    3.128E+01    3.091E+01    3.055E+01    3.019E+01
     2.983E+01    2.947E+01    2.912E+01    2.877E+01    2.842E+01    2.807E+01    2.773E+01    2.739E+01    2.705E+01    2.671E+01
     2.638E+01    2.604E+01    2.571E+01    2.538E+01    2.505E+01    2.472E+01    2.439E+01    2.407E+01    2.374E+01    2.342E+01
     2.309E+01    2.277E+01    2.244E+01    2.212E+01    2.179E+01    2.147E+01    2.114E+01    2.081E+01    2.049E+01    2.016E+01
     1.983E+01    1.950E+01    1.916E+01    1.883E+01    1.849E+01    1.815E+01    1.781E+01    1.747E+01    1.712E+01    1.678E+01
     1.643E+01    1.607E+01    1.572E+01    1.536E+01    1.499E+01    1.462E+01    1.425E+01    1.388E+01    1.350E+01    1.312E+01
     1.273E+01    1.234E+01    1.194E+01    1.154E+01    1.113E+01    1.072E+01    1.030E+01    9.878E+00    9.449E+00    9.015E+00
     8.574E+00    8.128E+00    7.675E+00    7.215E+00    6.749E+00    6.275E+00    5.795E+00    5.306E+00    4.810E+00    4.305E+00
     3.792E+00    3.271E+00    2.740E+00    2.201E+00    1.652E+00    1.093E+00    5.245E-01   -5.428E-02   -6.435E-01   -1.243E+00
    -1.854E+00   -2.476E+00   -3.110E+00   -3.755E+00   -4.412E+00   -5.081E+00   -5.763E+00   -6.458E+00   -7.165E+00   -7.886E+00
    -8.620E+00   -9.368E+00   -1.013E+01   -1.091E+01   -1.170E+01   -1.250E+01   -1.332E+01   -1.416E+01   -1.501E+01   -1.588E+01
    -1.676E+01   -1.766E+01   -1.858E+01   -1.951E+01   -2.046E+01   -2.143E+01   -2.241E+01   -2.342E+01   -2.444E+01   -2.547E+01
    -2.653E+01   -2.759E+01   -2.868E+01   -2.978E+01   -3.089E+01   -3.202E+01   -3.316E+01   -3.431E+01   -3.548E+01   -3.666E+01
    -3.784E+01   -3.904E+01   -4.026E+01   -4.148E+01   -4.271E+01   -4.394E+01   -4.519E+01   -4.645E+01   -4.771E+01   -4.898E+01
    -5.026E+01   -5.154E+01   -5.283E+01   -5.412E+01   -5.542E+01   -5.672E+01   -5.802E+01   -5.933E+01   -6.064E+01   -6.196E+01
    -6.327E+01   -6.459E+01   -6.590E+01   -6.722E+01   -6.854E+01   -6.985E+01   -7.117E+01   -7.248E+01   -7.379E+01   -7.510E+01
    -7.640E+01   -7.770E+01   -7.900E+01   -8.029E+01   -8.158E+01   -8.286E+01   -8.413E+01   -8.540E+01   -8.666E+01   -8.792E+01
    -8.917E+01   -9.040E+01   -9.164E+01   -9.286E+01   -9.407E+01   -9.527E+01   -9.646E+01   -9.764E+01   -9.881E+01   -9.997E+01
    -1.011E+02   -1.022E+02   -1.034E+02   -1.045E+02   -1.056E+02   -1.066E+02   -1.077E+02   -1.088E+02   -1.098E+02   -1.108E+02
    -1.118E+02   -1.128E+02   -1.138E+02   -1.147E+02   -1.156E+02   -1.166E+02   -1.174E+02   -1.183E+02   -1.192E+02   -1.200E+02
    -1.208E+02   -1.216E+02   -1.224E+02   -1.231E+02   -1.238E+02   -1.245E+02   -1.252E+02   -1.259E+02   -1.265E+02   -1.271E+02
    -1.277E+02   -1.283E+02   -1.288E+02   -1.293E+02   -1.298E+02   -1.302E+02   -1.307E+02   -1.311E+02   -1.315E+02   -1.318E+02
    -1.322E+02   -1.325E+02   -1.328E+02   -1.331E+02   -1.333E+02   -1.335E+02   -1.337E+02   -1.339E+02   -1.340E+02   -1.342E+02
    -1.342E+02   -1.343E+02   -1.344E+02   -1.344E+02   -1.344E+02   -1.344E+02   -1.343E+02   -1.342E+02   -1.341E+02   -1.340E+02
    -1.339E+02   -1.337E+02   -1.335E+02   -1.333E+02   -1.330E+02   -1.327E+02   -1.324E+02   -1.321E+02   -1.318E+02   -1.314E+02
    -1.310E+02   -1.306E+02   -1.301E+02   -1.297E+02   -1.292E+02   -1.286E+02   -1.281E+02   -1.275E+02   -1.269E+02   -1.263E+02
    -1.257E+02   -1.251E+02   -1.244E+02   -1.237E+02   -1.230E+02   -1.222E+02   -1.215E+02   -1.207E+02   -1.199E+02   -1.191E+02
    -1.183E+02   -1.175E+02   -1.166E+02   -1.158E+02   -1.149E+02   -1.140E+02   -1.131E+02   -1.122E+02   -1.112E+02   -1.103E+02
    -1.093E+02   -1.083E+02   -1.074E+02   -1.064E+02   -1.054E+02   -1.043E+02   -1.033E+02   -1.023E+02   -1.012E+02   -1.002E+02
    -9.913E+01   -9.807E+01   -9.700E+01   -9.592E+01   -9.484E+01   -9.376E+01   -9.267E+01   -9.157E+01   -9.047E+01   -8.937E+01
    -8.826E+01   -8.715E+01   -8.604E+01   -8.493E+01   -8.382E+01   -8.270E+01   -8.159E+01   -8.047E+01   -7.935E+01   -7.824E+01
    -7.712E+01   -7.601E+01   -7.489E+01   -7.378E+01   -7.267E+01   -7.157E+01   -7.046E+01   -6.936E+01   -6.826E+01   -6.717E+01
    -6.608E+01   -6.500E+01   -6.392E+01   -6.284E+01   -6.178E+01   -6.071E+01   -5.966E+01   -5.861E+01   -5.757E+01   -5.653E+01
    -5.551E+01   -5.449E+01   -5.348E+01   -5.248E+01   -5.149E+01   -5.051E+01   -4.954E+01   -4.858E+01   -4.763E+01   -4.669E+01
    -4.576E+01   -4.485E+01   -4.395E+01   -4.306E+01   -4.218E+01   -4.132E+01   -4.046E+01   -3.962E+01   -3.879E+01   -3.797E+01
    -3.716E+01   -3.636E+01   -3.557E+01   -3.478E+01   -3.401E+01   -3.325E+01   -3.249E+01   -3.175E+01   -3.101E+01   -3.028E+01
    -2.956E+01   -2.884E+01   -2.813E+01   -2.743E+01   -2.673E+01   -2.604E+01   -2.535E+01   -2.467E+01   -2.400E+01   -2.333E+01
    -2.266E+01   -2.200E+01   -2.134E+01   -2.068E+01   -2.003E+01   -1.938E+01   -1.873E+01   -1.809E+01   -1.744E+01   -1.680E+01
    -1.616E+01   -1.552E+01   -1.488E+01   -1.424E+01   -1.360E+01   -1.296E+01   -1.232E+01   -1.168E+01
 Cr       Conc. = 2.91E+03
