 LCModel (Version 6.3-1L) Copyright: S.W. Provencher.          Ref.: Magn. Reson. Med. 30:672-679 (1993).                
 Slice#2 Row#6 Col#1  PD_05_press_2_raw_act
 36 lines in following concentration table = NCONC+1
    Conc.  %SD /Cr+PCr  Metabolite                                         
  987.919  29%   0.675 Ala                                                 
   22.296 999% 1.5E-02 Asp                                                 
 1.46E+03   7%   1.000 Cr                                                  
    0.000 999%   0.000 PCr                                                 
  171.194  97%   0.117 GABA                                                
  177.908  90%   0.122 Glc                                                 
    0.000 999%   0.000 Gln                                                 
 1.13E+03  58%   0.769 Glu                                                 
    0.000 999%   0.000 GPC                                                 
  398.309  10%   0.272 PCh                                                 
  439.250  35%   0.300 GSH                                                 
 1.61E+03  33%   1.098 Ins                                                 
  344.974  95%   0.236 Lac                                                 
 2.45E+03   5%   1.675 NAA                                                 
    0.000 999%   0.000 NAAG                                                
  107.640  38% 7.4E-02 Scyllo                                              
  687.305  36%   0.469 Tau                                                 
 1.09E+03  18%   0.742 -CrCH2                                              
  398.309  10%   0.272 GPC+PCh                                             
 2.45E+03   5%   1.675 NAA+NAAG                                            
 1.46E+03   7%   1.000 Cr+PCr                                              
 1.13E+03  58%   0.769 Glu+Gln                                             
 1.89E+03  23%   1.292 Lip13a                                              
    0.000 999%   0.000 Lip13b                                              
  107.306 241% 7.3E-02 Lip09                                               
  719.856  38%   0.492 MM09                                                
  305.565  68%   0.209 Lip20                                               
 1.20E+03  38%   0.818 MM20                                                
  227.057  52%   0.155 MM12                                                
  108.889 316% 7.4E-02 MM14                                                
  486.780  43%   0.332 MM17                                                
 1.89E+03  23%   1.292 Lip13a+Lip13b                                       
 2.23E+03  24%   1.521 MM14+Lip13a+Lip13b+MM12                             
  827.163  31%   0.565 MM09+Lip09                                          
 1.50E+03  31%   1.027 MM20+Lip20                                          
   6 lines in following misc. output table
  FWHM = 0.069 ppm    S/N =   6                                            
  Data shift = 0.000 ppm                                                   
  Ph: -48 deg     -11.8 deg/ppm                                            
  alphaB,S = 1.0E+00,   4.1E+01                                            
   14 spline knots.   Ns = 9(1)                                            
  (15) 7 infls.   (17) 1 extrs.                                            
  498 points on ppm-axis = NY
      4.000000     3.992357     3.984714     3.977070     3.969427     3.961784     3.954141     3.946497     3.938854     3.931211
      3.923568     3.915925     3.908281     3.900638     3.892995     3.885352     3.877708     3.870065     3.862422     3.854779
      3.847136     3.839492     3.831849     3.824206     3.816563     3.808919     3.801276     3.793633     3.785990     3.778347
      3.770703     3.763060     3.755417     3.747774     3.740130     3.732487     3.724844     3.717201     3.709558     3.701914
      3.694271     3.686628     3.678985     3.671341     3.663698     3.656055     3.648412     3.640769     3.633125     3.625482
      3.617839     3.610196     3.602552     3.594909     3.587266     3.579623     3.571980     3.564336     3.556693     3.549050
      3.541407     3.533763     3.526120     3.518477     3.510834     3.503191     3.495547     3.487904     3.480261     3.472618
      3.464974     3.457331     3.449688     3.442045     3.434402     3.426758     3.419115     3.411472     3.403829     3.396185
      3.388542     3.380899     3.373256     3.365613     3.357969     3.350326     3.342683     3.335040     3.327396     3.319753
      3.312110     3.304467     3.296824     3.289180     3.281537     3.273894     3.266251     3.258607     3.250964     3.243321
      3.235678     3.228034     3.220391     3.212748     3.205105     3.197462     3.189818     3.182175     3.174532     3.166889
      3.159245     3.151602     3.143959     3.136316     3.128673     3.121029     3.113386     3.105743     3.098100     3.090456
      3.082813     3.075170     3.067527     3.059884     3.052240     3.044597     3.036954     3.029311     3.021667     3.014024
      3.006381     2.998738     2.991095     2.983451     2.975808     2.968165     2.960522     2.952878     2.945235     2.937592
      2.929949     2.922306     2.914662     2.907019     2.899376     2.891733     2.884089     2.876446     2.868803     2.861160
      2.853517     2.845873     2.838230     2.830587     2.822944     2.815300     2.807657     2.800014     2.792371     2.784728
      2.777084     2.769441     2.761798     2.754155     2.746511     2.738868     2.731225     2.723582     2.715939     2.708295
      2.700652     2.693009     2.685366     2.677722     2.670079     2.662436     2.654793     2.647150     2.639506     2.631863
      2.624220     2.616577     2.608933     2.601290     2.593647     2.586004     2.578361     2.570717     2.563074     2.555431
      2.547788     2.540144     2.532501     2.524858     2.517215     2.509572     2.501928     2.494285     2.486642     2.478999
      2.471355     2.463712     2.456069     2.448426     2.440783     2.433139     2.425496     2.417853     2.410210     2.402566
      2.394923     2.387280     2.379637     2.371994     2.364350     2.356707     2.349064     2.341421     2.333777     2.326134
      2.318491     2.310848     2.303205     2.295561     2.287918     2.280275     2.272632     2.264988     2.257345     2.249702
      2.242059     2.234416     2.226772     2.219129     2.211486     2.203843     2.196199     2.188556     2.180913     2.173270
      2.165627     2.157983     2.150340     2.142697     2.135054     2.127410     2.119767     2.112124     2.104481     2.096838
      2.089194     2.081551     2.073908     2.066265     2.058621     2.050978     2.043335     2.035692     2.028049     2.020405
      2.012762     2.005119     1.997476     1.989833     1.982190     1.974546     1.966903     1.959260     1.951617     1.943974
      1.936331     1.928688     1.921045     1.913402     1.905759     1.898115     1.890472     1.882829     1.875186     1.867543
      1.859900     1.852257     1.844614     1.836971     1.829327     1.821684     1.814041     1.806398     1.798755     1.791112
      1.783469     1.775826     1.768183     1.760540     1.752896     1.745253     1.737610     1.729967     1.722324     1.714681
      1.707038     1.699395     1.691752     1.684108     1.676465     1.668822     1.661179     1.653536     1.645893     1.638250
      1.630607     1.622964     1.615321     1.607677     1.600034     1.592391     1.584748     1.577105     1.569462     1.561819
      1.554176     1.546533     1.538890     1.531246     1.523603     1.515960     1.508317     1.500674     1.493031     1.485388
      1.477745     1.470102     1.462458     1.454815     1.447172     1.439529     1.431886     1.424243     1.416600     1.408957
      1.401314     1.393671     1.386027     1.378384     1.370741     1.363098     1.355455     1.347812     1.340169     1.332526
      1.324883     1.317240     1.309596     1.301953     1.294310     1.286667     1.279024     1.271381     1.263738     1.256095
      1.248452     1.240808     1.233165     1.225522     1.217879     1.210236     1.202593     1.194950     1.187307     1.179664
      1.172021     1.164377     1.156734     1.149091     1.141448     1.133805     1.126162     1.118519     1.110876     1.103233
      1.095590     1.087946     1.080303     1.072660     1.065017     1.057374     1.049731     1.042088     1.034445     1.026802
      1.019158     1.011515     1.003872     0.996229     0.988586     0.980943     0.973300     0.965657     0.958014     0.950371
      0.942727     0.935084     0.927441     0.919798     0.912155     0.904512     0.896869     0.889226     0.881583     0.873940
      0.866296     0.858653     0.851010     0.843367     0.835724     0.828081     0.820438     0.812795     0.805152     0.797508
      0.789865     0.782222     0.774579     0.766936     0.759293     0.751650     0.744007     0.736364     0.728721     0.721077
      0.713434     0.705791     0.698148     0.690505     0.682862     0.675219     0.667576     0.659933     0.652290     0.644646
      0.637003     0.629360     0.621717     0.614074     0.606431     0.598788     0.591145     0.583502     0.575858     0.568215
      0.560572     0.552929     0.545286     0.537643     0.530000     0.522357     0.514714     0.507071     0.499427     0.491784
      0.484141     0.476498     0.468855     0.461212     0.453569     0.445925     0.438282     0.430639     0.422996     0.415353
      0.407710     0.400067     0.392424     0.384780     0.377137     0.369494     0.361851     0.354208     0.346565     0.338922
      0.331278     0.323635     0.315992     0.308349     0.300706     0.293063     0.285420     0.277777     0.270133     0.262490
      0.254847     0.247204     0.239561     0.231918     0.224275     0.216631     0.208988     0.201345
 NY phased data points follow
  -1.43447E+02 -1.36381E+02 -1.37848E+02 -1.23514E+02 -1.22876E+02 -1.19171E+02 -1.22511E+02 -1.16113E+02 -1.11083E+02 -1.04199E+02
  -1.09092E+02 -1.01743E+02 -9.54790E+01 -1.01592E+02 -1.04941E+02 -1.04707E+02 -1.10484E+02 -1.12294E+02 -1.13569E+02 -1.04648E+02
  -1.07903E+02 -1.05894E+02 -1.00384E+02 -1.02918E+02 -1.00616E+02 -9.91509E+01 -9.69537E+01 -9.98352E+01 -9.12267E+01 -9.39168E+01
  -9.69198E+01 -9.22398E+01 -9.04204E+01 -8.92076E+01 -9.07027E+01 -8.79991E+01 -9.49899E+01 -8.36783E+01 -9.61435E+01 -9.26603E+01
  -9.06647E+01 -9.12405E+01 -9.22165E+01 -8.36258E+01 -8.37346E+01 -7.81705E+01 -8.20203E+01 -7.74000E+01 -8.98584E+01 -8.39696E+01
  -8.49591E+01 -8.48240E+01 -7.67266E+01 -7.70074E+01 -8.68460E+01 -7.66727E+01 -8.51355E+01 -7.70930E+01 -7.58597E+01 -7.25892E+01
  -7.99672E+01 -7.99270E+01 -7.37949E+01 -7.37862E+01 -7.69764E+01 -8.41802E+01 -7.11408E+01 -7.44382E+01 -7.37107E+01 -7.38470E+01
  -7.00001E+01 -7.33371E+01 -7.42838E+01 -6.58600E+01 -6.89531E+01 -6.13351E+01 -7.01342E+01 -6.20613E+01 -6.29906E+01 -6.85482E+01
  -7.05583E+01 -6.42239E+01 -7.12534E+01 -6.86665E+01 -6.40754E+01 -6.35021E+01 -6.40223E+01 -6.07944E+01 -6.90565E+01 -5.63874E+01
  -5.70529E+01 -5.47565E+01 -6.04473E+01 -5.28797E+01 -5.19493E+01 -5.16042E+01 -5.71637E+01 -4.35835E+01 -4.35821E+01 -3.98551E+01
  -3.45630E+01 -3.30259E+01 -3.74949E+01 -3.02148E+01 -4.34854E+01 -3.74229E+01 -3.38053E+01 -4.39915E+01 -5.21679E+01 -4.60238E+01
  -4.40812E+01 -5.29467E+01 -4.51758E+01 -4.60952E+01 -4.44821E+01 -4.32803E+01 -4.73349E+01 -4.84193E+01 -4.54807E+01 -5.31152E+01
  -4.08686E+01 -4.12657E+01 -3.29542E+01 -3.02704E+01 -3.11463E+01 -2.00084E+01 -1.52106E+01 -9.80936E+00 -1.87523E+01 -1.32288E+01
  -1.13939E+01 -3.19155E+01 -2.26050E+01 -3.27386E+01 -4.31185E+01 -3.12261E+01 -3.66939E+01 -3.97392E+01 -4.74444E+01 -4.36219E+01
  -4.42638E+01 -4.31717E+01 -5.11519E+01 -3.95348E+01 -4.56489E+01 -4.36840E+01 -4.74165E+01 -3.64820E+01 -4.16833E+01 -4.38661E+01
  -3.53508E+01 -4.31962E+01 -3.53981E+01 -4.28549E+01 -3.63421E+01 -3.88608E+01 -4.06248E+01 -3.87799E+01 -4.27562E+01 -3.82072E+01
  -3.95124E+01 -3.68353E+01 -4.45772E+01 -4.01413E+01 -3.51577E+01 -3.67958E+01 -3.45113E+01 -3.93718E+01 -3.96933E+01 -3.46151E+01
  -3.62489E+01 -3.64941E+01 -4.20082E+01 -3.93773E+01 -4.56068E+01 -4.35976E+01 -4.42289E+01 -4.91836E+01 -4.34079E+01 -4.91137E+01
  -4.31585E+01 -4.19494E+01 -3.62346E+01 -3.68217E+01 -4.06332E+01 -3.75592E+01 -3.25125E+01 -3.91520E+01 -3.03414E+01 -2.89983E+01
  -3.09030E+01 -2.54602E+01 -2.41914E+01 -1.90395E+01 -2.62215E+01 -2.44263E+01 -3.06198E+01 -2.27755E+01 -2.96948E+01 -2.47706E+01
  -1.89070E+01 -2.66494E+01 -3.00949E+01 -2.27666E+01 -2.79365E+01 -3.09157E+01 -2.75520E+01 -2.83570E+01 -3.36629E+01 -3.14615E+01
  -3.25304E+01 -3.27309E+01 -2.01446E+01 -2.94239E+01 -2.25046E+01 -1.82314E+01 -2.66722E+01 -2.11530E+01 -1.82536E+01 -3.41392E+01
  -2.73085E+01 -2.78943E+01 -3.08814E+01 -2.37259E+01 -2.69067E+01 -2.46224E+01 -2.68169E+01 -1.53465E+01 -2.25857E+01 -2.74023E+01
  -1.83789E+01 -2.77273E+01 -1.35209E+01 -2.23144E+01 -2.30721E+01 -2.04746E+01 -2.21455E+01 -1.96722E+01 -1.88781E+01 -2.22281E+01
  -1.93921E+01 -1.59971E+01 -2.23300E+01 -1.58834E+01 -1.94422E+01 -1.49276E+01 -1.49847E+01 -1.14625E+01 -8.25368E+00 -4.91172E+00
  -1.63357E+01  8.92610E-01 -7.16903E-01  5.05707E+00  7.65822E+00  6.73361E+00  1.63129E+01  2.41126E+01  3.98268E+01  4.26643E+01
   3.20245E+01  4.90372E+01  3.83068E+01  3.27822E+01  2.65646E+01  1.74332E+01  1.69654E+01  4.33931E+00  7.25927E-01 -1.08817E+01
  -6.34090E+00 -5.29178E+00 -1.74533E+01 -1.13685E+01 -1.66213E+01 -1.16147E+01 -7.43194E+00 -1.40486E+01 -1.22731E+01 -1.58685E+01
  -1.29986E+01 -1.73498E+01 -2.33224E+01 -2.33209E+01 -3.36238E+00 -9.25101E+00 -1.16798E+01 -1.78537E+01 -1.69243E+01 -1.08331E+01
  -1.41078E+01 -1.44840E+01 -9.68055E+00 -4.24566E+00 -1.55182E+01 -1.08916E+01 -1.43013E+01 -2.90622E+00 -1.16213E+01 -1.15398E+01
  -1.06748E+01 -4.66609E+00 -1.54083E+01 -8.11203E+00 -1.04127E+01 -8.45060E+00 -1.70681E+00  1.50989E-02 -6.89063E+00 -1.21301E+01
  -5.11223E+00 -1.01965E+01 -1.13842E+01 -1.33965E+01 -6.08507E+00 -8.91066E+00 -1.37521E+01 -3.26123E+00 -1.12961E+01 -1.21283E+01
  -1.35254E+01 -1.34897E+01 -6.66982E+00 -1.14745E+01 -1.23615E+01 -1.58310E+01 -1.74508E+01 -2.01410E+01 -1.91236E+01 -1.47664E+01
  -1.72985E+01 -2.18320E+01 -9.96489E+00 -7.80190E+00 -8.28921E+00 -5.63927E+00 -8.00970E+00 -2.17716E+00 -2.00114E+00  6.14518E+00
  -9.21449E-02  2.52536E+00  7.48977E+00  8.63902E+00  3.10380E+00  3.80535E+00  1.07501E+00 -7.26264E+00  2.70615E+00 -3.02018E+00
   1.11253E+00 -5.69762E+00  5.37797E+00  6.81965E+00  4.43445E+00  3.44168E+00  3.36648E+00  1.27864E+00 -3.28533E+00  3.32665E+00
   2.75641E-01  2.67828E+00  6.41968E-01 -3.31446E+00 -5.02861E+00 -4.26246E+00 -2.51904E+00 -4.00079E-01 -5.71511E+00  2.07352E+00
   9.06602E-01  7.35372E+00  4.51054E+00 -2.84323E+00 -2.62408E-01 -1.22820E+00 -4.36453E+00 -3.30054E+00  3.38090E+00 -1.12875E+01
   6.74777E-01  4.22135E+00  6.81547E+00  1.82432E-01 -1.70042E+00  9.37026E-02 -1.22025E+00  7.96160E+00  1.45192E+00  7.64079E-01
   2.95960E+00 -5.11584E+00 -1.23921E+00  6.25071E+00  1.19928E+00  2.53434E+00  3.99730E+00 -2.48499E+00 -4.84428E+00  1.77882E+00
  -5.36128E+00  3.87823E+00  2.18733E+00  3.64906E+00  2.50541E+00 -1.58802E+00 -6.54580E-01 -6.91045E+00 -8.34309E+00 -1.60967E+00
  -4.05616E+00  2.50564E+00 -1.83369E+00 -6.40222E+00 -2.71713E+00  5.12442E+00  2.13626E+00 -1.09718E+01 -4.56483E+00 -5.22232E+00
  -2.69796E+00 -1.94932E+00  6.54729E+00  1.86977E+00 -1.70264E+00 -4.89044E+00 -2.04551E+00 -1.68125E+00 -4.92083E+00  7.54083E+00
  -6.47325E+00  2.07415E+00  2.46067E+00 -2.58977E+00 -4.65366E+00 -5.14800E+00 -1.24914E+01 -7.09467E+00 -4.13200E-01 -7.91407E+00
  -9.07329E+00  5.51406E+00  5.09328E-01  5.87434E-01 -1.50395E+00 -5.70538E+00  2.57480E+00  2.15849E+00  5.20467E-01 -8.62831E+00
  -6.31348E+00  1.03565E+01 -6.45843E+00  6.19523E+00  3.34360E+00  2.27150E+00 -9.70264E-02  8.59347E-01 -3.13965E+00 -3.95191E+00
  -6.44941E+00  1.16325E+00  5.03858E-01  8.23894E+00  1.79822E+00 -5.30060E-01 -2.80839E+00  1.29773E+00 -4.93736E+00  1.98193E+00
   1.13300E-01  5.77165E-02  2.46672E+00 -4.10529E+00 -2.31640E+00 -2.55342E-01  1.02388E+01  3.68113E+00  1.81844E+00 -2.13746E+00
  -4.68583E+00  2.62607E+00 -4.13726E+00 -4.26346E+00  5.67306E+00 -2.43156E-01  4.37210E+00  2.44640E+00 -4.00890E+00  3.61164E+00
   9.55355E+00  1.99969E+00  7.52640E+00  3.94938E+00  3.46374E+00  5.59638E+00  2.97544E+00 -5.13610E+00
 NY points of the fit to the data follow
  -1.22835E+02 -1.24047E+02 -1.23177E+02 -1.20508E+02 -1.19629E+02 -1.21070E+02 -1.22051E+02 -1.20039E+02 -1.15615E+02 -1.10801E+02
  -1.07336E+02 -1.04866E+02 -1.02241E+02 -1.00356E+02 -9.99322E+01 -1.01072E+02 -1.02523E+02 -1.03375E+02 -1.03088E+02 -1.02288E+02
  -1.02212E+02 -1.01944E+02 -1.01999E+02 -1.01815E+02 -1.01095E+02 -9.99069E+01 -9.84102E+01 -9.67052E+01 -9.51643E+01 -9.38886E+01
  -9.27227E+01 -9.17124E+01 -9.11160E+01 -9.10674E+01 -9.13839E+01 -9.18865E+01 -9.24410E+01 -9.24922E+01 -9.17770E+01 -9.09959E+01
  -9.07410E+01 -9.04659E+01 -8.95447E+01 -8.79582E+01 -8.60242E+01 -8.45540E+01 -8.38820E+01 -8.36425E+01 -8.35756E+01 -8.36263E+01
  -8.38158E+01 -8.40586E+01 -8.40656E+01 -8.37276E+01 -8.31343E+01 -8.23798E+01 -8.15902E+01 -8.08393E+01 -7.99823E+01 -7.91338E+01
  -7.83330E+01 -7.77294E+01 -7.72429E+01 -7.66578E+01 -7.60647E+01 -7.55285E+01 -7.47166E+01 -7.35786E+01 -7.26106E+01 -7.19290E+01
  -7.13911E+01 -7.08335E+01 -7.00743E+01 -6.91534E+01 -6.85069E+01 -6.82345E+01 -6.80713E+01 -6.77427E+01 -6.72479E+01 -6.70848E+01
  -6.69713E+01 -6.65953E+01 -6.58164E+01 -6.47676E+01 -6.40231E+01 -6.39655E+01 -6.41408E+01 -6.39989E+01 -6.37933E+01 -6.35514E+01
  -6.31893E+01 -6.29040E+01 -6.24398E+01 -6.04535E+01 -5.61649E+01 -5.28973E+01 -5.12057E+01 -4.93446E+01 -4.59409E+01 -4.09378E+01
  -3.59487E+01 -3.33866E+01 -3.30225E+01 -3.32172E+01 -3.41532E+01 -3.62118E+01 -3.94283E+01 -4.28841E+01 -4.57580E+01 -4.76643E+01
  -4.87965E+01 -5.01378E+01 -5.17443E+01 -5.33877E+01 -5.38650E+01 -5.36911E+01 -5.32745E+01 -5.24142E+01 -4.95750E+01 -4.40003E+01
  -4.01537E+01 -3.82297E+01 -3.56827E+01 -3.10383E+01 -2.44653E+01 -1.80827E+01 -1.50652E+01 -1.47925E+01 -1.52341E+01 -1.68136E+01
  -1.99639E+01 -2.45080E+01 -2.93023E+01 -3.32572E+01 -3.59260E+01 -3.78008E+01 -3.98676E+01 -4.20722E+01 -4.40825E+01 -4.43779E+01
  -4.39570E+01 -4.34663E+01 -4.30544E+01 -4.27654E+01 -4.25691E+01 -4.23721E+01 -4.21661E+01 -4.19512E+01 -4.17295E+01 -4.15334E+01
  -4.13954E+01 -4.12747E+01 -4.12888E+01 -4.13181E+01 -4.11803E+01 -4.08993E+01 -4.05352E+01 -4.02987E+01 -4.03575E+01 -4.04455E+01
  -4.03094E+01 -4.00049E+01 -3.96850E+01 -3.94613E+01 -3.93501E+01 -3.92435E+01 -3.91939E+01 -3.93433E+01 -3.96736E+01 -3.98094E+01
  -3.97292E+01 -3.96399E+01 -3.97483E+01 -4.00272E+01 -4.01003E+01 -3.98597E+01 -3.95576E+01 -3.93919E+01 -3.93689E+01 -3.92158E+01
  -3.86400E+01 -3.79386E+01 -3.73897E+01 -3.69432E+01 -3.64203E+01 -3.56266E+01 -3.45452E+01 -3.33731E+01 -3.23239E+01 -3.14481E+01
  -3.06403E+01 -2.98488E+01 -2.92571E+01 -2.89885E+01 -2.89138E+01 -2.87454E+01 -2.84489E+01 -2.81061E+01 -2.78540E+01 -2.76760E+01
  -2.73183E+01 -2.68819E+01 -2.65215E+01 -2.63107E+01 -2.63005E+01 -2.63816E+01 -2.63041E+01 -2.60273E+01 -2.58681E+01 -2.60999E+01
  -2.63887E+01 -2.62873E+01 -2.58271E+01 -2.54395E+01 -2.54603E+01 -2.55231E+01 -2.53270E+01 -2.53188E+01 -2.57661E+01 -2.65197E+01
  -2.70732E+01 -2.70471E+01 -2.65942E+01 -2.59636E+01 -2.51543E+01 -2.41970E+01 -2.33012E+01 -2.25369E+01 -2.18919E+01 -2.13482E+01
  -2.08650E+01 -2.04144E+01 -1.99300E+01 -1.93595E+01 -1.88969E+01 -1.85931E+01 -1.83966E+01 -1.83123E+01 -1.83901E+01 -1.85064E+01
  -1.85444E+01 -1.84264E+01 -1.80829E+01 -1.75762E+01 -1.69140E+01 -1.61826E+01 -1.55196E+01 -1.50444E+01 -1.46782E+01 -1.42267E+01
  -1.31619E+01 -8.94679E+00 -3.05662E-01  5.85615E+00  8.67536E+00  1.21182E+01  1.87481E+01  2.84187E+01  3.78937E+01  4.24065E+01
   4.26303E+01  4.15399E+01  3.85058E+01  3.26848E+01  2.44876E+01  1.60722E+01  9.07209E+00  4.22385E+00  8.12984E-01 -2.97802E+00
  -7.26752E+00 -1.14861E+01 -1.31858E+01 -1.36629E+01 -1.38543E+01 -1.39503E+01 -1.40060E+01 -1.40753E+01 -1.41551E+01 -1.42334E+01
  -1.42866E+01 -1.43062E+01 -1.42841E+01 -1.42253E+01 -1.41391E+01 -1.40228E+01 -1.38732E+01 -1.36902E+01 -1.34805E+01 -1.32494E+01
  -1.30030E+01 -1.27404E+01 -1.24693E+01 -1.21900E+01 -1.19071E+01 -1.16268E+01 -1.13551E+01 -1.10914E+01 -1.08413E+01 -1.06097E+01
  -1.04016E+01 -1.02186E+01 -1.00643E+01 -9.93961E+00 -9.84256E+00 -9.77039E+00 -9.72052E+00 -9.68675E+00 -9.66358E+00 -9.64183E+00
  -9.61293E+00 -9.56480E+00 -9.48549E+00 -9.35680E+00 -9.15366E+00 -8.82784E+00 -8.27001E+00 -7.20892E+00 -6.04629E+00 -6.02136E+00
  -6.42672E+00 -6.40478E+00 -6.01447E+00 -5.87411E+00 -6.84794E+00 -8.90344E+00 -1.01162E+01 -1.08135E+01 -1.21480E+01 -1.38465E+01
  -1.49504E+01 -1.44824E+01 -1.23589E+01 -9.76397E+00 -7.62405E+00 -5.78955E+00 -4.04280E+00 -2.37540E+00 -7.36730E-01  8.85041E-02
   1.41354E-01  1.97892E-01  6.46226E-01  1.09360E+00  1.11545E+00  3.09073E-01 -3.13190E-01 -5.06355E-01 -7.36864E-01 -1.12348E+00
  -1.42956E+00 -1.32690E+00 -6.54708E-01  2.67689E-01  1.07002E+00  1.69542E+00  2.18301E+00  2.50719E+00  2.69417E+00  2.71091E+00
   2.51648E+00  2.23977E+00  1.98872E+00  1.69938E+00  1.32184E+00  7.86195E-01  2.54388E-01 -1.86668E-01 -5.81036E-01 -9.43736E-01
  -1.27893E+00 -1.58541E+00 -1.86236E+00 -2.10722E+00 -2.31913E+00 -2.49575E+00 -2.63645E+00 -2.73932E+00 -2.80438E+00 -2.83061E+00
  -2.81879E+00 -2.76838E+00 -2.68056E+00 -2.55553E+00 -2.39558E+00 -2.20225E+00 -1.97913E+00 -1.72893E+00 -1.45649E+00 -1.16607E+00
  -8.64221E-01 -5.56776E-01 -2.51325E-01  4.57952E-02  3.26814E-01  5.85429E-01  8.14335E-01  1.00840E+00  1.16233E+00  1.27350E+00
   1.33928E+00  1.35969E+00  1.33480E+00  1.26751E+00  1.16076E+00  1.01987E+00  8.49533E-01  6.56094E-01  4.44854E-01  2.22493E-01
  -5.74601E-03 -2.33840E-01 -4.57778E-01 -6.73073E-01 -8.77179E-01 -1.06692E+00 -1.24102E+00 -1.39772E+00 -1.53723E+00 -1.65901E+00
  -1.76406E+00 -1.85234E+00 -1.92522E+00 -1.98319E+00 -2.02805E+00 -2.06047E+00 -2.08209E+00 -2.09332E+00 -2.09571E+00 -2.08972E+00
  -2.07692E+00 -2.05756E+00 -2.03283E+00 -2.00268E+00 -1.96825E+00 -1.92958E+00 -1.88776E+00 -1.84257E+00 -1.79479E+00 -1.74410E+00
  -1.69135E+00 -1.63633E+00 -1.57983E+00 -1.52140E+00 -1.46161E+00 -1.40005E+00 -1.33746E+00 -1.27350E+00 -1.20879E+00 -1.14278E+00
  -1.07596E+00 -1.00794E+00 -9.39386E-01 -8.69898E-01 -7.99974E-01 -7.29048E-01 -6.57631E-01 -5.85346E-01 -5.12826E-01 -4.39620E-01
  -3.66154E-01 -2.91883E-01 -2.17335E-01 -1.42159E-01 -6.69248E-02  8.86451E-03  8.48236E-02  1.61451E-01  2.38194E-01  3.15400E-01
   3.92566E-01  4.70222E-01  5.47992E-01  6.26314E-01  7.04626E-01  7.83285E-01  8.61861E-01  9.40891E-01  1.01998E+00  1.09951E+00
   1.17893E+00  1.25861E+00  1.33821E+00  1.41823E+00  1.49825E+00  1.57861E+00  1.65877E+00  1.73918E+00  1.81949E+00  1.90020E+00
   1.98085E+00  2.06173E+00  2.14238E+00  2.22326E+00  2.30407E+00  2.38524E+00  2.46628E+00  2.54750E+00
 NY background values follow
    -1.227E+02   -1.220E+02   -1.214E+02   -1.207E+02   -1.201E+02   -1.194E+02   -1.187E+02   -1.181E+02   -1.174E+02   -1.168E+02
    -1.161E+02   -1.154E+02   -1.148E+02   -1.141E+02   -1.135E+02   -1.128E+02   -1.122E+02   -1.115E+02   -1.109E+02   -1.102E+02
    -1.095E+02   -1.089E+02   -1.082E+02   -1.076E+02   -1.069E+02   -1.063E+02   -1.056E+02   -1.050E+02   -1.043E+02   -1.037E+02
    -1.031E+02   -1.024E+02   -1.018E+02   -1.011E+02   -1.005E+02   -9.985E+01   -9.921E+01   -9.858E+01   -9.794E+01   -9.731E+01
    -9.668E+01   -9.605E+01   -9.542E+01   -9.480E+01   -9.417E+01   -9.355E+01   -9.293E+01   -9.231E+01   -9.169E+01   -9.108E+01
    -9.046E+01   -8.985E+01   -8.924E+01   -8.864E+01   -8.803E+01   -8.743E+01   -8.683E+01   -8.623E+01   -8.563E+01   -8.504E+01
    -8.445E+01   -8.386E+01   -8.327E+01   -8.268E+01   -8.210E+01   -8.152E+01   -8.094E+01   -8.037E+01   -7.980E+01   -7.923E+01
    -7.866E+01   -7.810E+01   -7.753E+01   -7.697E+01   -7.642E+01   -7.586E+01   -7.531E+01   -7.476E+01   -7.422E+01   -7.368E+01
    -7.314E+01   -7.260E+01   -7.207E+01   -7.153E+01   -7.101E+01   -7.048E+01   -6.996E+01   -6.944E+01   -6.893E+01   -6.842E+01
    -6.791E+01   -6.740E+01   -6.690E+01   -6.640E+01   -6.591E+01   -6.541E+01   -6.492E+01   -6.444E+01   -6.396E+01   -6.348E+01
    -6.300E+01   -6.253E+01   -6.206E+01   -6.159E+01   -6.113E+01   -6.067E+01   -6.021E+01   -5.976E+01   -5.931E+01   -5.886E+01
    -5.842E+01   -5.798E+01   -5.754E+01   -5.711E+01   -5.668E+01   -5.625E+01   -5.582E+01   -5.540E+01   -5.498E+01   -5.457E+01
    -5.416E+01   -5.375E+01   -5.334E+01   -5.294E+01   -5.254E+01   -5.214E+01   -5.175E+01   -5.136E+01   -5.098E+01   -5.059E+01
    -5.021E+01   -4.983E+01   -4.946E+01   -4.909E+01   -4.872E+01   -4.836E+01   -4.800E+01   -4.764E+01   -4.728E+01   -4.693E+01
    -4.658E+01   -4.623E+01   -4.589E+01   -4.555E+01   -4.521E+01   -4.488E+01   -4.455E+01   -4.422E+01   -4.389E+01   -4.357E+01
    -4.325E+01   -4.293E+01   -4.261E+01   -4.230E+01   -4.199E+01   -4.168E+01   -4.138E+01   -4.108E+01   -4.078E+01   -4.048E+01
    -4.019E+01   -3.990E+01   -3.961E+01   -3.932E+01   -3.904E+01   -3.875E+01   -3.847E+01   -3.820E+01   -3.792E+01   -3.765E+01
    -3.738E+01   -3.711E+01   -3.684E+01   -3.658E+01   -3.632E+01   -3.606E+01   -3.580E+01   -3.555E+01   -3.529E+01   -3.504E+01
    -3.479E+01   -3.455E+01   -3.430E+01   -3.406E+01   -3.382E+01   -3.358E+01   -3.334E+01   -3.311E+01   -3.287E+01   -3.264E+01
    -3.241E+01   -3.218E+01   -3.196E+01   -3.173E+01   -3.151E+01   -3.129E+01   -3.107E+01   -3.085E+01   -3.064E+01   -3.042E+01
    -3.021E+01   -3.000E+01   -2.979E+01   -2.958E+01   -2.938E+01   -2.917E+01   -2.897E+01   -2.877E+01   -2.857E+01   -2.837E+01
    -2.818E+01   -2.798E+01   -2.779E+01   -2.760E+01   -2.740E+01   -2.722E+01   -2.703E+01   -2.684E+01   -2.666E+01   -2.647E+01
    -2.629E+01   -2.611E+01   -2.593E+01   -2.575E+01   -2.557E+01   -2.540E+01   -2.522E+01   -2.505E+01   -2.487E+01   -2.470E+01
    -2.453E+01   -2.436E+01   -2.420E+01   -2.403E+01   -2.386E+01   -2.370E+01   -2.354E+01   -2.337E+01   -2.321E+01   -2.305E+01
    -2.289E+01   -2.274E+01   -2.258E+01   -2.243E+01   -2.227E+01   -2.212E+01   -2.197E+01   -2.182E+01   -2.167E+01   -2.152E+01
    -2.137E+01   -2.122E+01   -2.108E+01   -2.093E+01   -2.079E+01   -2.065E+01   -2.051E+01   -2.037E+01   -2.023E+01   -2.009E+01
    -1.995E+01   -1.982E+01   -1.968E+01   -1.955E+01   -1.942E+01   -1.929E+01   -1.915E+01   -1.902E+01   -1.890E+01   -1.877E+01
    -1.864E+01   -1.852E+01   -1.839E+01   -1.827E+01   -1.814E+01   -1.802E+01   -1.790E+01   -1.778E+01   -1.766E+01   -1.754E+01
    -1.742E+01   -1.731E+01   -1.719E+01   -1.708E+01   -1.696E+01   -1.685E+01   -1.673E+01   -1.662E+01   -1.651E+01   -1.640E+01
    -1.629E+01   -1.618E+01   -1.607E+01   -1.596E+01   -1.585E+01   -1.574E+01   -1.563E+01   -1.553E+01   -1.542E+01   -1.531E+01
    -1.521E+01   -1.510E+01   -1.500E+01   -1.489E+01   -1.479E+01   -1.468E+01   -1.458E+01   -1.448E+01   -1.437E+01   -1.427E+01
    -1.417E+01   -1.406E+01   -1.396E+01   -1.386E+01   -1.376E+01   -1.365E+01   -1.355E+01   -1.345E+01   -1.335E+01   -1.325E+01
    -1.314E+01   -1.304E+01   -1.294E+01   -1.284E+01   -1.274E+01   -1.264E+01   -1.254E+01   -1.243E+01   -1.233E+01   -1.223E+01
    -1.213E+01   -1.203E+01   -1.193E+01   -1.183E+01   -1.173E+01   -1.163E+01   -1.153E+01   -1.143E+01   -1.133E+01   -1.123E+01
    -1.114E+01   -1.104E+01   -1.094E+01   -1.084E+01   -1.074E+01   -1.065E+01   -1.055E+01   -1.045E+01   -1.036E+01   -1.026E+01
    -1.016E+01   -1.007E+01   -9.973E+00   -9.878E+00   -9.783E+00   -9.689E+00   -9.595E+00   -9.502E+00   -9.409E+00   -9.316E+00
    -9.224E+00   -9.132E+00   -9.041E+00   -8.950E+00   -8.859E+00   -8.769E+00   -8.679E+00   -8.589E+00   -8.500E+00   -8.412E+00
    -8.323E+00   -8.235E+00   -8.148E+00   -8.060E+00   -7.973E+00   -7.886E+00   -7.800E+00   -7.714E+00   -7.628E+00   -7.543E+00
    -7.457E+00   -7.372E+00   -7.288E+00   -7.203E+00   -7.119E+00   -7.035E+00   -6.951E+00   -6.867E+00   -6.784E+00   -6.701E+00
    -6.618E+00   -6.535E+00   -6.453E+00   -6.370E+00   -6.288E+00   -6.206E+00   -6.124E+00   -6.042E+00   -5.960E+00   -5.879E+00
    -5.797E+00   -5.716E+00   -5.635E+00   -5.553E+00   -5.472E+00   -5.391E+00   -5.310E+00   -5.229E+00   -5.149E+00   -5.068E+00
    -4.987E+00   -4.906E+00   -4.826E+00   -4.745E+00   -4.664E+00   -4.584E+00   -4.503E+00   -4.422E+00   -4.342E+00   -4.261E+00
    -4.181E+00   -4.100E+00   -4.020E+00   -3.939E+00   -3.858E+00   -3.778E+00   -3.697E+00   -3.616E+00   -3.536E+00   -3.455E+00
    -3.374E+00   -3.293E+00   -3.213E+00   -3.132E+00   -3.051E+00   -2.970E+00   -2.889E+00   -2.808E+00   -2.726E+00   -2.645E+00
    -2.564E+00   -2.483E+00   -2.401E+00   -2.319E+00   -2.238E+00   -2.156E+00   -2.074E+00   -1.992E+00   -1.910E+00   -1.828E+00
    -1.746E+00   -1.663E+00   -1.581E+00   -1.498E+00   -1.415E+00   -1.332E+00   -1.249E+00   -1.166E+00   -1.083E+00   -9.998E-01
    -9.163E-01   -8.328E-01   -7.492E-01   -6.655E-01   -5.817E-01   -4.978E-01   -4.139E-01   -3.298E-01   -2.457E-01   -1.616E-01
    -7.732E-02    6.983E-03    9.135E-02    1.758E-01    2.602E-01    3.448E-01    4.293E-01    5.139E-01    5.986E-01    6.833E-01
     7.680E-01    8.527E-01    9.375E-01    1.022E+00    1.107E+00    1.192E+00    1.277E+00    1.362E+00    1.446E+00    1.531E+00
     1.616E+00    1.701E+00    1.786E+00    1.871E+00    1.955E+00    2.040E+00    2.125E+00    2.210E+00
 Ala      Conc. = 9.88E+02
