 LCModel (Version 6.3-1L) Copyright: S.W. Provencher.          Ref.: Magn. Reson. Med. 30:672-679 (1993).                
 Slice#2 Row#6 Col#7  PD_05_press_2_raw_act
 36 lines in following concentration table = NCONC+1
    Conc.  %SD /Cr+PCr  Metabolite                                         
  438.946 168%   0.139 Ala                                                 
    0.000 999%   0.000 Asp                                                 
    0.000 999%   0.000 Cr                                                  
 3.16E+03   8%   1.000 PCr                                                 
  377.296 132%   0.119 GABA                                                
  189.996 248% 6.0E-02 Glc                                                 
 2.67E+03  67%   0.846 Gln                                                 
 1.71E+03 120%   0.542 Glu                                                 
 1.49E+03   7%   0.473 GPC                                                 
    0.000 999%   0.000 PCh                                                 
  759.333  52%   0.240 GSH                                                 
 5.69E+03  23%   1.801 Ins                                                 
 2.21E+03  40%   0.701 Lac                                                 
 6.73E+03   5%   2.128 NAA                                                 
    0.000 999%   0.000 NAAG                                                
  478.534  23%   0.151 Scyllo                                              
  960.010  72%   0.304 Tau                                                 
 3.15E+03  16%   0.995 -CrCH2                                              
 1.49E+03   7%   0.473 GPC+PCh                                             
 6.73E+03   5%   2.128 NAA+NAAG                                            
 3.16E+03   8%   1.000 Cr+PCr                                              
 4.39E+03  78%   1.388 Glu+Gln                                             
 2.99E+03  39%   0.945 Lip13a                                              
    0.000 999%   0.000 Lip13b                                              
  722.106  73%   0.228 Lip09                                               
 2.57E+03  24%   0.814 MM09                                                
  464.675  73%   0.147 Lip20                                               
 3.65E+03  31%   1.156 MM20                                                
  883.430  52%   0.280 MM12                                                
 4.55E+03  18%   1.438 MM14                                                
    0.000 999%   0.000 MM17                                                
 2.99E+03  39%   0.945 Lip13a+Lip13b                                       
 8.42E+03  15%   2.663 MM14+Lip13a+Lip13b+MM12                             
 3.30E+03  16%   1.043 MM09+Lip09                                          
 4.12E+03  27%   1.303 MM20+Lip20                                          
   6 lines in following misc. output table
  FWHM = 0.092 ppm    S/N =   7                                            
  Data shift = 0.008 ppm                                                   
  Ph: -63 deg     -12.6 deg/ppm                                            
  alphaB,S = 1.1E+00,   2.6E+01                                            
   14 spline knots.   Ns =11(1)                                            
  (17) 8 infls.   (19) 3 extrs.                                            
  498 points on ppm-axis = NY
      4.000000     3.992357     3.984714     3.977070     3.969427     3.961784     3.954141     3.946497     3.938854     3.931211
      3.923568     3.915925     3.908281     3.900638     3.892995     3.885352     3.877708     3.870065     3.862422     3.854779
      3.847136     3.839492     3.831849     3.824206     3.816563     3.808919     3.801276     3.793633     3.785990     3.778347
      3.770703     3.763060     3.755417     3.747774     3.740130     3.732487     3.724844     3.717201     3.709558     3.701914
      3.694271     3.686628     3.678985     3.671341     3.663698     3.656055     3.648412     3.640769     3.633125     3.625482
      3.617839     3.610196     3.602552     3.594909     3.587266     3.579623     3.571980     3.564336     3.556693     3.549050
      3.541407     3.533763     3.526120     3.518477     3.510834     3.503191     3.495547     3.487904     3.480261     3.472618
      3.464974     3.457331     3.449688     3.442045     3.434402     3.426758     3.419115     3.411472     3.403829     3.396185
      3.388542     3.380899     3.373256     3.365613     3.357969     3.350326     3.342683     3.335040     3.327396     3.319753
      3.312110     3.304467     3.296824     3.289180     3.281537     3.273894     3.266251     3.258607     3.250964     3.243321
      3.235678     3.228034     3.220391     3.212748     3.205105     3.197462     3.189818     3.182175     3.174532     3.166889
      3.159245     3.151602     3.143959     3.136316     3.128673     3.121029     3.113386     3.105743     3.098100     3.090456
      3.082813     3.075170     3.067527     3.059884     3.052240     3.044597     3.036954     3.029311     3.021667     3.014024
      3.006381     2.998738     2.991095     2.983451     2.975808     2.968165     2.960522     2.952878     2.945235     2.937592
      2.929949     2.922306     2.914662     2.907019     2.899376     2.891733     2.884089     2.876446     2.868803     2.861160
      2.853517     2.845873     2.838230     2.830587     2.822944     2.815300     2.807657     2.800014     2.792371     2.784728
      2.777084     2.769441     2.761798     2.754155     2.746511     2.738868     2.731225     2.723582     2.715939     2.708295
      2.700652     2.693009     2.685366     2.677722     2.670079     2.662436     2.654793     2.647150     2.639506     2.631863
      2.624220     2.616577     2.608933     2.601290     2.593647     2.586004     2.578361     2.570717     2.563074     2.555431
      2.547788     2.540144     2.532501     2.524858     2.517215     2.509572     2.501928     2.494285     2.486642     2.478999
      2.471355     2.463712     2.456069     2.448426     2.440783     2.433139     2.425496     2.417853     2.410210     2.402566
      2.394923     2.387280     2.379637     2.371994     2.364350     2.356707     2.349064     2.341421     2.333777     2.326134
      2.318491     2.310848     2.303205     2.295561     2.287918     2.280275     2.272632     2.264988     2.257345     2.249702
      2.242059     2.234416     2.226772     2.219129     2.211486     2.203843     2.196199     2.188556     2.180913     2.173270
      2.165627     2.157983     2.150340     2.142697     2.135054     2.127410     2.119767     2.112124     2.104481     2.096838
      2.089194     2.081551     2.073908     2.066265     2.058621     2.050978     2.043335     2.035692     2.028049     2.020405
      2.012762     2.005119     1.997476     1.989833     1.982190     1.974546     1.966903     1.959260     1.951617     1.943974
      1.936331     1.928688     1.921045     1.913402     1.905759     1.898115     1.890472     1.882829     1.875186     1.867543
      1.859900     1.852257     1.844614     1.836971     1.829327     1.821684     1.814041     1.806398     1.798755     1.791112
      1.783469     1.775826     1.768183     1.760540     1.752896     1.745253     1.737610     1.729967     1.722324     1.714681
      1.707038     1.699395     1.691752     1.684108     1.676465     1.668822     1.661179     1.653536     1.645893     1.638250
      1.630607     1.622964     1.615321     1.607677     1.600034     1.592391     1.584748     1.577105     1.569462     1.561819
      1.554176     1.546533     1.538890     1.531246     1.523603     1.515960     1.508317     1.500674     1.493031     1.485388
      1.477745     1.470102     1.462458     1.454815     1.447172     1.439529     1.431886     1.424243     1.416600     1.408957
      1.401314     1.393671     1.386027     1.378384     1.370741     1.363098     1.355455     1.347812     1.340169     1.332526
      1.324883     1.317240     1.309596     1.301953     1.294310     1.286667     1.279024     1.271381     1.263738     1.256095
      1.248452     1.240808     1.233165     1.225522     1.217879     1.210236     1.202593     1.194950     1.187307     1.179664
      1.172021     1.164377     1.156734     1.149091     1.141448     1.133805     1.126162     1.118519     1.110876     1.103233
      1.095590     1.087946     1.080303     1.072660     1.065017     1.057374     1.049731     1.042088     1.034445     1.026802
      1.019158     1.011515     1.003872     0.996229     0.988586     0.980943     0.973300     0.965657     0.958014     0.950371
      0.942727     0.935084     0.927441     0.919798     0.912155     0.904512     0.896869     0.889226     0.881583     0.873940
      0.866296     0.858653     0.851010     0.843367     0.835724     0.828081     0.820438     0.812795     0.805152     0.797508
      0.789865     0.782222     0.774579     0.766936     0.759293     0.751650     0.744007     0.736364     0.728721     0.721077
      0.713434     0.705791     0.698148     0.690505     0.682862     0.675219     0.667576     0.659933     0.652290     0.644646
      0.637003     0.629360     0.621717     0.614074     0.606431     0.598788     0.591145     0.583502     0.575858     0.568215
      0.560572     0.552929     0.545286     0.537643     0.530000     0.522357     0.514714     0.507071     0.499427     0.491784
      0.484141     0.476498     0.468855     0.461212     0.453569     0.445925     0.438282     0.430639     0.422996     0.415353
      0.407710     0.400067     0.392424     0.384780     0.377137     0.369494     0.361851     0.354208     0.346565     0.338922
      0.331278     0.323635     0.315992     0.308349     0.300706     0.293063     0.285420     0.277777     0.270133     0.262490
      0.254847     0.247204     0.239561     0.231918     0.224275     0.216631     0.208988     0.201345
 NY phased data points follow
  -3.07298E+02 -2.87831E+02 -2.76608E+02 -2.77770E+02 -2.52530E+02 -2.55463E+02 -2.35277E+02 -2.40395E+02 -2.18375E+02 -2.40779E+02
  -2.34151E+02 -2.47448E+02 -2.43938E+02 -2.52252E+02 -2.05878E+02 -2.34560E+02 -2.37902E+02 -2.47889E+02 -2.31513E+02 -2.31737E+02
  -2.22041E+02 -2.15926E+02 -2.21155E+02 -2.17133E+02 -1.98388E+02 -2.26085E+02 -2.05954E+02 -2.15641E+02 -2.05455E+02 -2.03712E+02
  -1.91203E+02 -2.02580E+02 -1.79644E+02 -2.03743E+02 -2.05300E+02 -1.93530E+02 -1.83438E+02 -1.79036E+02 -1.64067E+02 -1.85464E+02
  -1.66218E+02 -1.89879E+02 -1.64889E+02 -1.65985E+02 -1.61699E+02 -1.56802E+02 -1.58468E+02 -1.62830E+02 -1.44419E+02 -1.52952E+02
  -1.59947E+02 -1.53190E+02 -1.54664E+02 -1.51257E+02 -1.40891E+02 -1.57855E+02 -1.42308E+02 -1.51436E+02 -1.47274E+02 -1.42623E+02
  -1.55627E+02 -1.64799E+02 -1.59664E+02 -1.63943E+02 -1.53567E+02 -1.51714E+02 -1.52005E+02 -1.53378E+02 -1.34559E+02 -1.48131E+02
  -1.43391E+02 -1.49540E+02 -1.58542E+02 -1.32974E+02 -1.50304E+02 -1.39742E+02 -1.26223E+02 -1.35531E+02 -1.26687E+02 -1.45825E+02
  -1.38204E+02 -1.28824E+02 -1.26146E+02 -1.28735E+02 -1.16764E+02 -1.09073E+02 -1.05841E+02 -1.10000E+02 -1.26711E+02 -1.26880E+02
  -1.09910E+02 -1.15109E+02 -1.07657E+02 -9.31705E+01 -9.48851E+01 -8.99724E+01 -9.40357E+01 -8.20520E+01 -6.31180E+01 -6.22325E+01
  -5.08552E+01 -1.67884E+01 -2.77611E+01 -3.99875E+01 -2.20627E+01 -5.82752E+01 -4.38136E+01 -5.01778E+01 -5.17798E+01 -6.34043E+01
  -8.07597E+01 -8.64961E+01 -7.96808E+01 -6.81839E+01 -8.90434E+01 -8.73275E+01 -1.00341E+02 -7.89626E+01 -8.64902E+01 -8.01307E+01
  -5.89404E+01 -7.66153E+01 -4.36085E+01 -3.91747E+01 -4.46744E+01 -1.84628E+01 -1.81072E+01 -2.93346E+01 -2.60997E+01 -4.08163E+01
  -2.52888E+01 -5.67079E+01 -4.14106E+01 -5.47001E+01 -7.15917E+01 -6.38817E+01 -8.85521E+01 -7.89656E+01 -6.28777E+01 -8.39721E+01
  -7.23305E+01 -7.23655E+01 -6.77397E+01 -7.63937E+01 -6.46345E+01 -7.39416E+01 -8.34813E+01 -8.29733E+01 -9.67456E+01 -6.97645E+01
  -6.26928E+01 -7.18023E+01 -5.31792E+01 -7.81482E+01 -7.55130E+01 -6.84425E+01 -7.90239E+01 -5.43513E+01 -5.98891E+01 -6.90518E+01
  -6.69946E+01 -6.01000E+01 -6.70261E+01 -7.13369E+01 -6.62181E+01 -6.85529E+01 -5.29821E+01 -7.48289E+01 -5.54125E+01 -5.90132E+01
  -8.56618E+01 -7.54296E+01 -7.34687E+01 -6.61344E+01 -7.76829E+01 -8.55346E+01 -7.46556E+01 -8.95146E+01 -8.02695E+01 -7.54257E+01
  -6.55087E+01 -6.84328E+01 -7.69835E+01 -6.68347E+01 -6.57985E+01 -8.47432E+01 -6.60398E+01 -5.90221E+01 -4.48119E+01 -5.43295E+01
  -5.94841E+01 -3.59240E+01 -3.79058E+01 -4.30559E+01 -3.33311E+01 -2.78243E+01 -2.57740E+01 -3.53904E+01 -2.94893E+01 -4.79820E+01
  -5.43019E+01 -5.16655E+01 -4.21395E+01 -3.06260E+01 -4.21352E+01 -3.65845E+01 -2.25172E+01 -4.66003E+01 -3.39320E+01 -4.07605E+01
  -4.62737E+01 -3.95633E+01 -3.13312E+01 -4.31663E+01 -4.22130E+01 -3.13774E+01 -3.30218E+01 -3.75958E+01 -2.01458E+01 -3.04511E+01
  -2.52080E+01 -7.63013E+00 -2.77743E+01 -4.11992E+01 -2.30704E+01 -1.62141E+01 -3.23238E+01 -3.25864E+01 -1.51156E+01 -1.68561E+01
  -1.27242E+01 -2.38450E+01 -1.97565E+01 -1.01251E+01  7.06796E+00 -8.36109E+00 -8.81141E+00 -7.76172E+00  2.17676E+00 -1.73233E+01
   2.24441E-01 -2.02804E+01 -1.37891E+01 -1.69271E+01 -1.47523E+01 -2.21296E+01 -1.37784E+01 -1.71967E+00 -2.33750E+00 -8.76405E-01
   9.07568E+00  3.14619E+00  2.43750E+01  2.99730E+01  4.90348E+01  6.13679E+01  8.15308E+01  8.98902E+01  1.22876E+02  1.39578E+02
   1.51573E+02  1.36018E+02  1.28252E+02  9.07912E+01  1.01651E+02  9.75301E+01  9.18739E+01  8.55961E+01  5.71269E+01  1.56097E+01
   1.80170E+01  6.13762E+00  7.20803E+00 -2.53815E+00  8.70186E+00 -7.48220E+00 -2.69882E+00  5.59849E+00 -2.17262E+01 -9.17386E+00
  -1.19047E+01 -3.15774E+00 -1.02883E+01 -6.03165E+00 -1.15839E+01 -4.41922E+00  1.93570E+00 -2.18516E+01  5.28540E+00  4.52455E+00
  -1.70047E+01  6.41881E-01  2.43225E+00 -1.10654E+00 -1.97461E+01 -7.75791E+00  6.97017E-01  3.86264E+00 -2.21560E+00  4.20870E+00
   2.35198E+00 -4.85805E+00  1.93225E+00  8.59325E+00 -8.43856E+00  7.27955E+00  4.14230E+00 -1.03413E+01 -4.49611E+00  8.41028E+00
   2.81966E+00  2.84535E-01  3.11676E+00  9.85297E+00  6.31587E+00  1.65031E+01  1.88472E+01 -5.60486E+00  1.39384E+01  1.28038E+01
   2.43457E+01  3.73300E+01  2.86699E+01  2.24950E+01  1.36609E+01  4.00931E+01  1.34696E+01  2.92252E+01  2.44964E+01  1.46341E+01
   2.80471E+01  3.78984E+01  4.42305E+01  4.36592E+01  5.25813E+01  3.60177E+01  4.18247E+01  4.73113E+01  3.47652E+01  4.90976E+01
   3.59460E+01  4.51834E+01  3.88754E+01  4.75525E+01  4.66749E+01  5.53588E+01  4.79888E+01  4.80929E+01  4.41650E+01  3.78389E+01
   3.12205E+01  1.10554E+01  2.63422E+01  3.41191E+01  4.49357E+01  2.03190E+01  4.30205E+01  2.32717E+01  2.35156E+01  4.63296E+01
   2.51262E+01  4.96416E+01  3.06875E+01  2.96803E+01  3.53408E+01  5.12464E+01  3.38881E+01  5.14902E+01  3.41783E+01  3.81307E+01
   2.97932E+01  3.67867E+01  4.72785E+01  3.42752E+01  4.16038E+01  2.61073E+01  2.70810E+01  3.61624E+01  2.02840E+01  2.36780E+01
   3.61211E+01  1.98214E+01  2.29785E+01  2.48843E+01  2.79227E+01  2.14671E+01  4.00303E+01  3.16301E+01  2.38015E+01  2.88367E+01
   3.19564E+01  2.70490E+01  3.20439E+01  2.77638E+01  2.99985E+01  2.94050E+01  2.82063E+01  2.76726E+01  4.01729E+01  4.57114E+01
   4.34271E+01  2.96880E+01  4.41421E+01  4.11011E+01  4.68092E+01  4.32625E+01  6.77370E+01  5.65893E+01  4.80961E+01  4.60561E+01
   4.73578E+01  5.49131E+01  3.88707E+01  5.43984E+01  2.80486E+01  4.75346E+01  5.03856E+01  5.17501E+01  5.62366E+01  3.54176E+01
   3.77327E+01  3.73335E+01  4.48500E+01  4.70177E+01  3.83640E+01  3.27662E+01  3.50821E+01  8.54767E+00  1.35024E+01  3.56696E+01
   3.99463E+01  4.40638E+00  5.04860E+01  3.35750E+01  3.64450E+01  3.87343E+01  3.43020E+01  2.75512E+01  1.79220E+01  2.96003E+01
   1.77974E+01  4.39956E+01  4.24631E+01  3.38991E+01  1.55544E+01  5.59671E+01  2.79083E+01  2.66080E+01  1.96955E+01  3.15966E+01
   3.16188E+01  2.68100E+01  3.49557E+01  2.31697E+01  4.93814E+01  3.77647E+01  3.39080E+01  4.60722E+01  3.39135E+01  3.77985E+01
   3.47410E+01  4.93153E+01  1.44281E+01  2.12483E+01  1.94395E+01  1.72366E+00  2.84424E+01  3.09820E+01  2.90739E+01  5.11711E+01
   1.99006E+01  2.93407E+01  2.29674E+01  2.79433E+01  3.13010E+01  4.07773E+01  2.62737E+01  2.54947E+01  4.56956E+01  4.96528E+01
   4.87668E+01  3.32241E+01  5.19135E+01  3.03919E+01  4.10559E+01  2.11730E+01  4.60741E+00  1.86754E+01  2.67286E+01  3.26474E+01
   1.85440E+01  3.56951E+01  3.99651E+01  3.51759E+01  2.58424E+01  3.48200E+01  2.63912E+01  3.67982E+01
 NY points of the fit to the data follow
  -2.53210E+02 -2.53086E+02 -2.52376E+02 -2.52248E+02 -2.51476E+02 -2.50070E+02 -2.47994E+02 -2.45447E+02 -2.43081E+02 -2.41365E+02
  -2.38869E+02 -2.37542E+02 -2.35839E+02 -2.33863E+02 -2.31914E+02 -2.29732E+02 -2.28650E+02 -2.28433E+02 -2.27369E+02 -2.25557E+02
  -2.23164E+02 -2.21145E+02 -2.19204E+02 -2.17298E+02 -2.15818E+02 -2.13988E+02 -2.11531E+02 -2.08030E+02 -2.03242E+02 -1.98393E+02
  -1.94872E+02 -1.92726E+02 -1.92433E+02 -1.92524E+02 -1.91755E+02 -1.89569E+02 -1.86567E+02 -1.84623E+02 -1.83943E+02 -1.83432E+02
  -1.81943E+02 -1.78988E+02 -1.75651E+02 -1.71776E+02 -1.67150E+02 -1.62218E+02 -1.58835E+02 -1.58323E+02 -1.59714E+02 -1.61845E+02
  -1.62957E+02 -1.62048E+02 -1.60461E+02 -1.59965E+02 -1.61839E+02 -1.64166E+02 -1.63809E+02 -1.61175E+02 -1.58773E+02 -1.57559E+02
  -1.56999E+02 -1.56597E+02 -1.55981E+02 -1.55065E+02 -1.53085E+02 -1.50482E+02 -1.48648E+02 -1.47504E+02 -1.46737E+02 -1.45516E+02
  -1.43390E+02 -1.41581E+02 -1.39877E+02 -1.38373E+02 -1.37111E+02 -1.35526E+02 -1.33886E+02 -1.32966E+02 -1.32307E+02 -1.31482E+02
  -1.29955E+02 -1.27578E+02 -1.25365E+02 -1.23863E+02 -1.21671E+02 -1.19629E+02 -1.19666E+02 -1.20434E+02 -1.21263E+02 -1.21399E+02
  -1.19383E+02 -1.15209E+02 -1.08083E+02 -1.03863E+02 -1.01286E+02 -9.66328E+01 -8.93414E+01 -7.95855E+01 -6.89074E+01 -5.89714E+01
  -4.40104E+01 -2.77173E+01 -2.19686E+01 -2.58047E+01 -3.44598E+01 -4.60091E+01 -4.94916E+01 -5.00066E+01 -5.10367E+01 -5.80318E+01
  -7.42024E+01 -8.78917E+01 -9.17121E+01 -9.23033E+01 -9.40098E+01 -9.61023E+01 -9.27705E+01 -8.88033E+01 -8.48047E+01 -8.01085E+01
  -7.45264E+01 -6.68134E+01 -5.77808E+01 -4.88419E+01 -3.63799E+01 -2.45495E+01 -2.16090E+01 -2.49127E+01 -3.16230E+01 -3.93478E+01
  -4.07181E+01 -4.06806E+01 -4.17459E+01 -4.87102E+01 -6.18969E+01 -7.14651E+01 -7.37609E+01 -7.40517E+01 -7.55856E+01 -7.83790E+01
  -7.87811E+01 -7.85382E+01 -7.82723E+01 -7.75877E+01 -7.67992E+01 -7.58543E+01 -7.50036E+01 -7.43040E+01 -7.37502E+01 -7.33669E+01
  -7.31924E+01 -7.29840E+01 -7.26524E+01 -7.22053E+01 -7.16185E+01 -7.10372E+01 -7.07792E+01 -7.05457E+01 -7.03937E+01 -7.05367E+01
  -7.04862E+01 -6.99754E+01 -6.91230E+01 -6.78810E+01 -6.73393E+01 -6.79756E+01 -6.89535E+01 -6.96360E+01 -6.94340E+01 -6.85586E+01
  -6.83050E+01 -6.88318E+01 -6.97123E+01 -7.02636E+01 -7.03458E+01 -7.00826E+01 -6.94445E+01 -6.86769E+01 -6.77166E+01 -6.69548E+01
  -6.66706E+01 -6.57741E+01 -6.44165E+01 -6.24952E+01 -6.04071E+01 -5.93297E+01 -5.82433E+01 -5.61712E+01 -5.33543E+01 -5.03300E+01
  -4.84187E+01 -4.77200E+01 -4.70577E+01 -4.58834E+01 -4.40254E+01 -4.21792E+01 -4.11429E+01 -4.05712E+01 -3.96273E+01 -3.86275E+01
  -3.71676E+01 -3.55773E+01 -3.45753E+01 -3.43831E+01 -3.51656E+01 -3.64220E+01 -3.75931E+01 -3.91085E+01 -4.10490E+01 -4.16203E+01
  -4.06073E+01 -3.95917E+01 -3.84106E+01 -3.70562E+01 -3.56823E+01 -3.43321E+01 -3.33293E+01 -3.18877E+01 -3.05594E+01 -2.99963E+01
  -2.95541E+01 -2.83103E+01 -2.65012E+01 -2.53862E+01 -2.47442E+01 -2.39882E+01 -2.34950E+01 -2.31830E+01 -2.26980E+01 -2.17371E+01
  -2.04050E+01 -1.94330E+01 -1.89304E+01 -1.83548E+01 -1.78231E+01 -1.69774E+01 -1.56998E+01 -1.45180E+01 -1.33088E+01 -1.24350E+01
  -1.26056E+01 -1.35479E+01 -1.38823E+01 -1.30430E+01 -1.18099E+01 -1.07741E+01 -1.01835E+01 -9.25694E+00 -7.57673E+00 -1.60830E+00
   1.05910E+01  2.03858E+01  2.88723E+01  3.76988E+01  4.77804E+01  6.21366E+01  7.90427E+01  9.52930E+01  1.19299E+02  1.43038E+02
   1.48196E+02  1.39561E+02  1.23308E+02  1.03740E+02  9.79594E+01  9.56311E+01  9.18893E+01  7.70195E+01  4.85723E+01  2.66581E+01
   2.01728E+01  1.72911E+01  1.14206E+01  2.48950E+00 -1.06961E+00 -2.14961E+00 -2.79134E+00 -3.17576E+00 -3.42905E+00 -3.64300E+00
  -3.79368E+00 -3.92290E+00 -4.02460E+00 -4.06955E+00 -4.07860E+00 -4.04184E+00 -3.96266E+00 -3.84428E+00 -3.69767E+00 -3.51901E+00
  -3.30386E+00 -3.05334E+00 -2.80607E+00 -2.55923E+00 -2.30946E+00 -2.03259E+00 -1.73062E+00 -1.42520E+00 -1.11248E+00 -7.72898E-01
  -4.15002E-01 -2.91913E-02  3.83024E-01  8.26127E-01  1.29444E+00  1.79256E+00  2.32527E+00  2.90212E+00  3.52242E+00  4.19675E+00
   4.92420E+00  5.71743E+00  6.58304E+00  7.53939E+00  8.60022E+00  9.81129E+00  1.12121E+01  1.25875E+01  1.39104E+01  1.53269E+01
   1.68205E+01  1.84024E+01  2.00193E+01  2.15013E+01  2.31342E+01  2.48691E+01  2.60108E+01  2.67130E+01  2.74390E+01  2.82873E+01
   2.97131E+01  3.13961E+01  3.29708E+01  3.47704E+01  3.65932E+01  3.85460E+01  4.12385E+01  4.35622E+01  4.44133E+01  4.51529E+01
   4.61248E+01  4.72540E+01  4.79682E+01  4.73961E+01  4.67940E+01  4.74067E+01  4.59489E+01  4.11824E+01  3.57379E+01  3.10795E+01
   2.87574E+01  2.93220E+01  2.98966E+01  3.18805E+01  3.36950E+01  3.41234E+01  3.59375E+01  3.76205E+01  3.75649E+01  3.79249E+01
   3.91170E+01  4.17401E+01  4.26203E+01  4.04546E+01  3.79497E+01  3.68021E+01  3.62277E+01  3.51210E+01  3.34294E+01  3.21892E+01
   3.12483E+01  3.04650E+01  2.97837E+01  2.91857E+01  2.86567E+01  2.81957E+01  2.77975E+01  2.74658E+01  2.71979E+01  2.69988E+01
   2.68671E+01  2.68090E+01  2.68238E+01  2.69186E+01  2.70936E+01  2.73562E+01  2.77071E+01  2.81543E+01  2.86983E+01  2.93461E+01
   3.00972E+01  3.09561E+01  3.19188E+01  3.29854E+01  3.41464E+01  3.53955E+01  3.67160E+01  3.80936E+01  3.95036E+01  4.09240E+01
   4.23235E+01  4.36749E+01  4.49438E+01  4.61020E+01  4.71166E+01  4.79639E+01  4.86189E+01  4.90682E+01  4.92984E+01  4.93093E+01
   4.91017E+01  4.86894E+01  4.80864E+01  4.73183E+01  4.64080E+01  4.53873E+01  4.42832E+01  4.31285E+01  4.19488E+01  4.07731E+01
   3.96211E+01  3.85146E+01  3.74656E+01  3.64883E+01  3.55874E+01  3.47695E+01  3.40328E+01  3.33785E+01  3.28008E+01  3.22980E+01
   3.18619E+01  3.14894E+01  3.11714E+01  3.09045E+01  3.06804E+01  3.04967E+01  3.03457E+01  3.02255E+01  3.01296E+01  3.00570E+01
   3.00025E+01  2.99659E+01  2.99427E+01  2.99330E+01  2.99328E+01  2.99432E+01  2.99607E+01  2.99866E+01  3.00177E+01  3.00553E+01
   3.00963E+01  3.01427E+01  3.01918E+01  3.02454E+01  3.03006E+01  3.03594E+01  3.04192E+01  3.04823E+01  3.05461E+01  3.06127E+01
   3.06795E+01  3.07486E+01  3.08177E+01  3.08891E+01  3.09604E+01  3.10335E+01  3.11062E+01  3.11806E+01  3.12546E+01  3.13303E+01
   3.14055E+01  3.14821E+01  3.15580E+01  3.16353E+01  3.17120E+01  3.17902E+01  3.18677E+01  3.19463E+01  3.20242E+01  3.21033E+01
   3.21818E+01  3.22616E+01  3.23407E+01  3.24208E+01  3.25002E+01  3.25808E+01  3.26609E+01  3.27421E+01  3.28226E+01  3.29041E+01
   3.29850E+01  3.30672E+01  3.31489E+01  3.32317E+01  3.33138E+01  3.33970E+01  3.34797E+01  3.35637E+01
 NY background values follow
    -2.715E+02   -2.699E+02   -2.682E+02   -2.665E+02   -2.649E+02   -2.632E+02   -2.616E+02   -2.599E+02   -2.582E+02   -2.566E+02
    -2.549E+02   -2.533E+02   -2.516E+02   -2.499E+02   -2.483E+02   -2.466E+02   -2.450E+02   -2.433E+02   -2.417E+02   -2.400E+02
    -2.384E+02   -2.368E+02   -2.351E+02   -2.335E+02   -2.318E+02   -2.302E+02   -2.286E+02   -2.270E+02   -2.254E+02   -2.237E+02
    -2.221E+02   -2.205E+02   -2.189E+02   -2.173E+02   -2.157E+02   -2.141E+02   -2.125E+02   -2.110E+02   -2.094E+02   -2.078E+02
    -2.063E+02   -2.047E+02   -2.031E+02   -2.016E+02   -2.000E+02   -1.985E+02   -1.970E+02   -1.955E+02   -1.939E+02   -1.924E+02
    -1.909E+02   -1.894E+02   -1.879E+02   -1.864E+02   -1.850E+02   -1.835E+02   -1.820E+02   -1.806E+02   -1.791E+02   -1.777E+02
    -1.762E+02   -1.748E+02   -1.733E+02   -1.719E+02   -1.705E+02   -1.691E+02   -1.677E+02   -1.663E+02   -1.649E+02   -1.635E+02
    -1.622E+02   -1.608E+02   -1.594E+02   -1.581E+02   -1.568E+02   -1.554E+02   -1.541E+02   -1.528E+02   -1.515E+02   -1.501E+02
    -1.488E+02   -1.476E+02   -1.463E+02   -1.450E+02   -1.437E+02   -1.425E+02   -1.412E+02   -1.400E+02   -1.387E+02   -1.375E+02
    -1.363E+02   -1.350E+02   -1.338E+02   -1.326E+02   -1.314E+02   -1.303E+02   -1.291E+02   -1.279E+02   -1.268E+02   -1.256E+02
    -1.245E+02   -1.233E+02   -1.222E+02   -1.211E+02   -1.200E+02   -1.188E+02   -1.177E+02   -1.167E+02   -1.156E+02   -1.145E+02
    -1.134E+02   -1.124E+02   -1.113E+02   -1.103E+02   -1.092E+02   -1.082E+02   -1.072E+02   -1.062E+02   -1.052E+02   -1.042E+02
    -1.032E+02   -1.022E+02   -1.012E+02   -1.002E+02   -9.928E+01   -9.832E+01   -9.738E+01   -9.644E+01   -9.551E+01   -9.458E+01
    -9.367E+01   -9.276E+01   -9.186E+01   -9.096E+01   -9.007E+01   -8.920E+01   -8.832E+01   -8.746E+01   -8.660E+01   -8.575E+01
    -8.491E+01   -8.408E+01   -8.325E+01   -8.243E+01   -8.161E+01   -8.080E+01   -8.000E+01   -7.921E+01   -7.842E+01   -7.764E+01
    -7.686E+01   -7.610E+01   -7.533E+01   -7.458E+01   -7.383E+01   -7.308E+01   -7.234E+01   -7.161E+01   -7.088E+01   -7.016E+01
    -6.945E+01   -6.874E+01   -6.803E+01   -6.733E+01   -6.664E+01   -6.595E+01   -6.527E+01   -6.459E+01   -6.391E+01   -6.324E+01
    -6.258E+01   -6.192E+01   -6.127E+01   -6.062E+01   -5.997E+01   -5.933E+01   -5.869E+01   -5.806E+01   -5.743E+01   -5.681E+01
    -5.619E+01   -5.557E+01   -5.496E+01   -5.435E+01   -5.374E+01   -5.314E+01   -5.255E+01   -5.195E+01   -5.136E+01   -5.078E+01
    -5.020E+01   -4.962E+01   -4.905E+01   -4.848E+01   -4.791E+01   -4.735E+01   -4.679E+01   -4.623E+01   -4.568E+01   -4.514E+01
    -4.459E+01   -4.405E+01   -4.352E+01   -4.299E+01   -4.246E+01   -4.194E+01   -4.142E+01   -4.090E+01   -4.039E+01   -3.988E+01
    -3.937E+01   -3.887E+01   -3.838E+01   -3.788E+01   -3.739E+01   -3.691E+01   -3.643E+01   -3.595E+01   -3.547E+01   -3.500E+01
    -3.454E+01   -3.407E+01   -3.362E+01   -3.316E+01   -3.271E+01   -3.226E+01   -3.182E+01   -3.138E+01   -3.094E+01   -3.051E+01
    -3.008E+01   -2.965E+01   -2.923E+01   -2.881E+01   -2.840E+01   -2.799E+01   -2.758E+01   -2.717E+01   -2.677E+01   -2.637E+01
    -2.597E+01   -2.558E+01   -2.519E+01   -2.480E+01   -2.441E+01   -2.403E+01   -2.365E+01   -2.327E+01   -2.289E+01   -2.252E+01
    -2.215E+01   -2.178E+01   -2.141E+01   -2.105E+01   -2.068E+01   -2.032E+01   -1.996E+01   -1.961E+01   -1.925E+01   -1.890E+01
    -1.854E+01   -1.819E+01   -1.784E+01   -1.750E+01   -1.715E+01   -1.680E+01   -1.646E+01   -1.612E+01   -1.578E+01   -1.543E+01
    -1.509E+01   -1.476E+01   -1.442E+01   -1.408E+01   -1.374E+01   -1.341E+01   -1.307E+01   -1.274E+01   -1.240E+01   -1.207E+01
    -1.174E+01   -1.141E+01   -1.108E+01   -1.075E+01   -1.042E+01   -1.009E+01   -9.766E+00   -9.441E+00   -9.116E+00   -8.792E+00
    -8.469E+00   -8.147E+00   -7.826E+00   -7.506E+00   -7.187E+00   -6.868E+00   -6.551E+00   -6.235E+00   -5.920E+00   -5.605E+00
    -5.292E+00   -4.979E+00   -4.668E+00   -4.358E+00   -4.048E+00   -3.740E+00   -3.433E+00   -3.127E+00   -2.821E+00   -2.517E+00
    -2.214E+00   -1.912E+00   -1.611E+00   -1.311E+00   -1.013E+00   -7.149E-01   -4.183E-01   -1.229E-01    1.715E-01    4.647E-01
     7.568E-01    1.048E+00    1.338E+00    1.626E+00    1.914E+00    2.200E+00    2.485E+00    2.769E+00    3.051E+00    3.332E+00
     3.612E+00    3.891E+00    4.169E+00    4.445E+00    4.720E+00    4.993E+00    5.266E+00    5.537E+00    5.806E+00    6.074E+00
     6.341E+00    6.607E+00    6.871E+00    7.133E+00    7.395E+00    7.654E+00    7.913E+00    8.170E+00    8.425E+00    8.679E+00
     8.931E+00    9.182E+00    9.432E+00    9.680E+00    9.926E+00    1.017E+01    1.041E+01    1.066E+01    1.090E+01    1.113E+01
     1.137E+01    1.161E+01    1.184E+01    1.207E+01    1.230E+01    1.253E+01    1.276E+01    1.298E+01    1.321E+01    1.343E+01
     1.365E+01    1.387E+01    1.409E+01    1.431E+01    1.452E+01    1.473E+01    1.495E+01    1.516E+01    1.537E+01    1.557E+01
     1.578E+01    1.598E+01    1.619E+01    1.639E+01    1.659E+01    1.679E+01    1.699E+01    1.718E+01    1.738E+01    1.757E+01
     1.777E+01    1.796E+01    1.815E+01    1.834E+01    1.853E+01    1.871E+01    1.890E+01    1.908E+01    1.926E+01    1.945E+01
     1.963E+01    1.981E+01    1.998E+01    2.016E+01    2.034E+01    2.051E+01    2.069E+01    2.086E+01    2.103E+01    2.120E+01
     2.137E+01    2.154E+01    2.171E+01    2.187E+01    2.204E+01    2.220E+01    2.237E+01    2.253E+01    2.269E+01    2.285E+01
     2.301E+01    2.317E+01    2.332E+01    2.348E+01    2.363E+01    2.379E+01    2.394E+01    2.409E+01    2.424E+01    2.439E+01
     2.454E+01    2.468E+01    2.483E+01    2.497E+01    2.512E+01    2.526E+01    2.540E+01    2.554E+01    2.568E+01    2.581E+01
     2.595E+01    2.609E+01    2.622E+01    2.635E+01    2.649E+01    2.662E+01    2.675E+01    2.687E+01    2.700E+01    2.713E+01
     2.725E+01    2.738E+01    2.750E+01    2.762E+01    2.774E+01    2.786E+01    2.798E+01    2.810E+01    2.821E+01    2.833E+01
     2.844E+01    2.856E+01    2.867E+01    2.878E+01    2.889E+01    2.900E+01    2.911E+01    2.922E+01    2.933E+01    2.943E+01
     2.954E+01    2.964E+01    2.975E+01    2.985E+01    2.996E+01    3.006E+01    3.016E+01    3.027E+01    3.037E+01    3.047E+01
     3.057E+01    3.067E+01    3.077E+01    3.087E+01    3.097E+01    3.107E+01    3.117E+01    3.127E+01    3.137E+01    3.147E+01
     3.157E+01    3.167E+01    3.177E+01    3.187E+01    3.196E+01    3.206E+01    3.216E+01    3.226E+01
 Ala      Conc. = 4.39E+02
