 LCModel (Version 6.3-1L) Copyright: S.W. Provencher.          Ref.: Magn. Reson. Med. 30:672-679 (1993).                
 Slice#3 Row#11 Col#4  PD_05_press_2_raw_act
 36 lines in following concentration table = NCONC+1
    Conc.  %SD /Cr+PCr  Metabolite                                         
   52.370 129%   0.280 Ala                                                 
   16.200 158% 8.7E-02 Asp                                                 
    0.000 999%   0.000 Cr                                                  
  186.838  19%   1.000 PCr                                                 
   12.316 124% 6.6E-02 GABA                                                
   13.404 115% 7.2E-02 Glc                                                 
    0.000 999%   0.000 Gln                                                 
    0.000 999%   0.000 Glu                                                 
    0.000 999%   0.000 GPC                                                 
   11.444 116% 6.1E-02 PCh                                                 
    0.000 999%   0.000 GSH                                                 
  577.026  32%   3.088 Ins                                                 
    0.000 999%   0.000 Lac                                                 
  175.211  23%   0.938 NAA                                                 
    0.000 999%   0.000 NAAG                                                
    4.379 115% 2.3E-02 Scyllo                                              
   28.060  91%   0.150 Tau                                                 
    0.000 999%   0.000 -CrCH2                                              
   11.444 116% 6.1E-02 GPC+PCh                                             
  175.211  23%   0.938 NAA+NAAG                                            
  186.838  19%   1.000 Cr+PCr                                              
    0.000 999%   0.000 Glu+Gln                                             
    0.000 999%   0.000 Lip13a                                              
    0.000 999%   0.000 Lip13b                                              
    0.000 999%   0.000 Lip09                                               
  957.979  14%   5.127 MM09                                                
    0.000 999%   0.000 Lip20                                               
 1.43E+03  14%   7.670 MM20                                                
  287.090  14%   1.537 MM12                                                
  753.821  13%   4.035 MM14                                                
  355.341  16%   1.902 MM17                                                
    0.000 999%   0.000 Lip13a+Lip13b                                       
 1.04E+03  13%   5.571 MM14+Lip13a+Lip13b+MM12                             
  957.979  14%   5.127 MM09+Lip09                                          
 1.43E+03  14%   7.670 MM20+Lip20                                          
   6 lines in following misc. output table
  FWHM = 0.054 ppm    S/N =   2                                            
  Data shift = 0.015 ppm                                                   
  Ph: 137 deg      -7.3 deg/ppm                                            
  alphaB,S = 4.1E-01,   4.6E+01                                            
   14 spline knots.   Ns = 5(1)                                            
  ( 4) 2 infls.   ( 1) 1 extrs.                                            
  498 points on ppm-axis = NY
      4.000000     3.992357     3.984714     3.977070     3.969427     3.961784     3.954141     3.946497     3.938854     3.931211
      3.923568     3.915925     3.908281     3.900638     3.892995     3.885352     3.877708     3.870065     3.862422     3.854779
      3.847136     3.839492     3.831849     3.824206     3.816563     3.808919     3.801276     3.793633     3.785990     3.778347
      3.770703     3.763060     3.755417     3.747774     3.740130     3.732487     3.724844     3.717201     3.709558     3.701914
      3.694271     3.686628     3.678985     3.671341     3.663698     3.656055     3.648412     3.640769     3.633125     3.625482
      3.617839     3.610196     3.602552     3.594909     3.587266     3.579623     3.571980     3.564336     3.556693     3.549050
      3.541407     3.533763     3.526120     3.518477     3.510834     3.503191     3.495547     3.487904     3.480261     3.472618
      3.464974     3.457331     3.449688     3.442045     3.434402     3.426758     3.419115     3.411472     3.403829     3.396185
      3.388542     3.380899     3.373256     3.365613     3.357969     3.350326     3.342683     3.335040     3.327396     3.319753
      3.312110     3.304467     3.296824     3.289180     3.281537     3.273894     3.266251     3.258607     3.250964     3.243321
      3.235678     3.228034     3.220391     3.212748     3.205105     3.197462     3.189818     3.182175     3.174532     3.166889
      3.159245     3.151602     3.143959     3.136316     3.128673     3.121029     3.113386     3.105743     3.098100     3.090456
      3.082813     3.075170     3.067527     3.059884     3.052240     3.044597     3.036954     3.029311     3.021667     3.014024
      3.006381     2.998738     2.991095     2.983451     2.975808     2.968165     2.960522     2.952878     2.945235     2.937592
      2.929949     2.922306     2.914662     2.907019     2.899376     2.891733     2.884089     2.876446     2.868803     2.861160
      2.853517     2.845873     2.838230     2.830587     2.822944     2.815300     2.807657     2.800014     2.792371     2.784728
      2.777084     2.769441     2.761798     2.754155     2.746511     2.738868     2.731225     2.723582     2.715939     2.708295
      2.700652     2.693009     2.685366     2.677722     2.670079     2.662436     2.654793     2.647150     2.639506     2.631863
      2.624220     2.616577     2.608933     2.601290     2.593647     2.586004     2.578361     2.570717     2.563074     2.555431
      2.547788     2.540144     2.532501     2.524858     2.517215     2.509572     2.501928     2.494285     2.486642     2.478999
      2.471355     2.463712     2.456069     2.448426     2.440783     2.433139     2.425496     2.417853     2.410210     2.402566
      2.394923     2.387280     2.379637     2.371994     2.364350     2.356707     2.349064     2.341421     2.333777     2.326134
      2.318491     2.310848     2.303205     2.295561     2.287918     2.280275     2.272632     2.264988     2.257345     2.249702
      2.242059     2.234416     2.226772     2.219129     2.211486     2.203843     2.196199     2.188556     2.180913     2.173270
      2.165627     2.157983     2.150340     2.142697     2.135054     2.127410     2.119767     2.112124     2.104481     2.096838
      2.089194     2.081551     2.073908     2.066265     2.058621     2.050978     2.043335     2.035692     2.028049     2.020405
      2.012762     2.005119     1.997476     1.989833     1.982190     1.974546     1.966903     1.959260     1.951617     1.943974
      1.936331     1.928688     1.921045     1.913402     1.905759     1.898115     1.890472     1.882829     1.875186     1.867543
      1.859900     1.852257     1.844614     1.836971     1.829327     1.821684     1.814041     1.806398     1.798755     1.791112
      1.783469     1.775826     1.768183     1.760540     1.752896     1.745253     1.737610     1.729967     1.722324     1.714681
      1.707038     1.699395     1.691752     1.684108     1.676465     1.668822     1.661179     1.653536     1.645893     1.638250
      1.630607     1.622964     1.615321     1.607677     1.600034     1.592391     1.584748     1.577105     1.569462     1.561819
      1.554176     1.546533     1.538890     1.531246     1.523603     1.515960     1.508317     1.500674     1.493031     1.485388
      1.477745     1.470102     1.462458     1.454815     1.447172     1.439529     1.431886     1.424243     1.416600     1.408957
      1.401314     1.393671     1.386027     1.378384     1.370741     1.363098     1.355455     1.347812     1.340169     1.332526
      1.324883     1.317240     1.309596     1.301953     1.294310     1.286667     1.279024     1.271381     1.263738     1.256095
      1.248452     1.240808     1.233165     1.225522     1.217879     1.210236     1.202593     1.194950     1.187307     1.179664
      1.172021     1.164377     1.156734     1.149091     1.141448     1.133805     1.126162     1.118519     1.110876     1.103233
      1.095590     1.087946     1.080303     1.072660     1.065017     1.057374     1.049731     1.042088     1.034445     1.026802
      1.019158     1.011515     1.003872     0.996229     0.988586     0.980943     0.973300     0.965657     0.958014     0.950371
      0.942727     0.935084     0.927441     0.919798     0.912155     0.904512     0.896869     0.889226     0.881583     0.873940
      0.866296     0.858653     0.851010     0.843367     0.835724     0.828081     0.820438     0.812795     0.805152     0.797508
      0.789865     0.782222     0.774579     0.766936     0.759293     0.751650     0.744007     0.736364     0.728721     0.721077
      0.713434     0.705791     0.698148     0.690505     0.682862     0.675219     0.667576     0.659933     0.652290     0.644646
      0.637003     0.629360     0.621717     0.614074     0.606431     0.598788     0.591145     0.583502     0.575858     0.568215
      0.560572     0.552929     0.545286     0.537643     0.530000     0.522357     0.514714     0.507071     0.499427     0.491784
      0.484141     0.476498     0.468855     0.461212     0.453569     0.445925     0.438282     0.430639     0.422996     0.415353
      0.407710     0.400067     0.392424     0.384780     0.377137     0.369494     0.361851     0.354208     0.346565     0.338922
      0.331278     0.323635     0.315992     0.308349     0.300706     0.293063     0.285420     0.277777     0.270133     0.262490
      0.254847     0.247204     0.239561     0.231918     0.224275     0.216631     0.208988     0.201345
 NY phased data points follow
   3.19050E+02  3.10857E+02  3.14599E+02  3.08097E+02  3.02416E+02  2.95902E+02  2.98141E+02  2.93643E+02  2.94255E+02  2.86160E+02
   2.83303E+02  2.81501E+02  2.79767E+02  2.73237E+02  2.70637E+02  2.63657E+02  2.62051E+02  2.58388E+02  2.52666E+02  2.52023E+02
   2.48264E+02  2.48356E+02  2.45217E+02  2.40238E+02  2.35324E+02  2.34579E+02  2.33919E+02  2.29800E+02  2.27966E+02  2.26865E+02
   2.25237E+02  2.21361E+02  2.21723E+02  2.14467E+02  2.13409E+02  2.18247E+02  2.08648E+02  2.09225E+02  2.10514E+02  2.04343E+02
   2.03551E+02  2.03522E+02  2.02016E+02  1.96221E+02  1.98235E+02  1.93698E+02  1.93242E+02  1.95127E+02  1.93333E+02  1.89091E+02
   1.86847E+02  1.85273E+02  1.83521E+02  1.80677E+02  1.82780E+02  1.78293E+02  1.79177E+02  1.76927E+02  1.78887E+02  1.71799E+02
   1.75768E+02  1.73587E+02  1.68728E+02  1.69123E+02  1.71950E+02  1.69883E+02  1.68419E+02  1.58387E+02  1.61470E+02  1.65718E+02
   1.59270E+02  1.57709E+02  1.58419E+02  1.59138E+02  1.53452E+02  1.59377E+02  1.56115E+02  1.56140E+02  1.54721E+02  1.45055E+02
   1.49263E+02  1.44863E+02  1.41387E+02  1.43844E+02  1.44743E+02  1.43572E+02  1.41190E+02  1.38632E+02  1.38738E+02  1.39816E+02
   1.36616E+02  1.35178E+02  1.35010E+02  1.35008E+02  1.31174E+02  1.29739E+02  1.32152E+02  1.30056E+02  1.29215E+02  1.31279E+02
   1.24908E+02  1.26076E+02  1.28123E+02  1.25108E+02  1.25294E+02  1.24458E+02  1.23687E+02  1.19491E+02  1.19067E+02  1.17606E+02
   1.17079E+02  1.13586E+02  1.14460E+02  1.13470E+02  1.20104E+02  1.14590E+02  1.19797E+02  1.11171E+02  1.13874E+02  1.08225E+02
   1.12500E+02  1.08090E+02  1.10510E+02  1.07365E+02  1.13151E+02  1.11272E+02  1.12599E+02  1.10162E+02  1.10860E+02  1.08214E+02
   1.07949E+02  1.03558E+02  1.02499E+02  1.02214E+02  9.88876E+01  9.83762E+01  9.88598E+01  9.74747E+01  9.75057E+01  9.77410E+01
   9.78902E+01  9.62816E+01  9.55911E+01  9.42628E+01  9.65669E+01  9.12714E+01  9.40689E+01  9.46678E+01  9.18868E+01  9.40999E+01
   9.06235E+01  9.53859E+01  9.02174E+01  8.98890E+01  9.31631E+01  9.05581E+01  8.97929E+01  9.07626E+01  8.69167E+01  8.42046E+01
   8.72490E+01  8.43201E+01  8.02394E+01  8.25688E+01  8.62470E+01  8.01344E+01  7.89093E+01  7.95289E+01  8.22230E+01  7.78931E+01
   7.78424E+01  7.82616E+01  7.77662E+01  7.80943E+01  7.58520E+01  7.81469E+01  7.60748E+01  7.57613E+01  8.11945E+01  7.96371E+01
   7.53709E+01  7.65949E+01  7.84515E+01  7.37946E+01  7.49602E+01  7.64013E+01  7.25459E+01  7.22147E+01  7.39898E+01  7.08673E+01
   7.58896E+01  7.18585E+01  7.21186E+01  7.36833E+01  6.84680E+01  6.99549E+01  7.43107E+01  6.47286E+01  7.22160E+01  6.92479E+01
   6.45393E+01  6.76478E+01  7.10729E+01  6.51846E+01  6.83348E+01  7.02003E+01  6.91984E+01  6.35376E+01  6.46873E+01  6.39823E+01
   6.76945E+01  6.40173E+01  6.65268E+01  6.82078E+01  6.56599E+01  6.58779E+01  6.67268E+01  5.93309E+01  6.37252E+01  6.05669E+01
   6.31148E+01  6.43165E+01  6.17333E+01  6.04374E+01  6.39233E+01  6.38476E+01  6.50390E+01  5.96622E+01  6.22677E+01  6.12579E+01
   6.06004E+01  6.10582E+01  6.00978E+01  5.97364E+01  5.69596E+01  5.96866E+01  6.38598E+01  6.02705E+01  5.72386E+01  6.21276E+01
   6.04175E+01  5.45793E+01  5.52163E+01  5.31727E+01  6.03888E+01  5.55802E+01  5.63768E+01  5.56744E+01  6.10748E+01  5.56631E+01
   5.77389E+01  5.62675E+01  5.42016E+01  5.24054E+01  4.96554E+01  5.56646E+01  5.24345E+01  5.25480E+01  5.67671E+01  5.94703E+01
   6.86392E+01  5.94132E+01  5.69553E+01  5.18104E+01  5.09749E+01  5.19386E+01  4.99539E+01  5.13732E+01  5.08830E+01  4.90819E+01
   4.47166E+01  5.21259E+01  4.91517E+01  4.71469E+01  4.63593E+01  4.89257E+01  4.79561E+01  5.01935E+01  4.82955E+01  4.52380E+01
   4.64001E+01  5.10726E+01  4.89226E+01  4.67435E+01  4.81415E+01  4.49188E+01  4.59849E+01  4.76240E+01  4.82005E+01  4.63471E+01
   4.31738E+01  4.95739E+01  4.08785E+01  4.54706E+01  4.55130E+01  4.07864E+01  4.34109E+01  4.04991E+01  4.27037E+01  4.13473E+01
   4.37246E+01  4.22090E+01  4.26037E+01  4.55219E+01  4.37413E+01  4.14653E+01  4.51650E+01  3.98076E+01  4.14634E+01  4.13631E+01
   4.14190E+01  4.32516E+01  4.20425E+01  4.56494E+01  4.24390E+01  3.92687E+01  4.37414E+01  3.75332E+01  4.60673E+01  4.48329E+01
   4.47661E+01  4.52828E+01  4.25107E+01  4.37744E+01  4.93064E+01  5.00377E+01  4.83910E+01  4.43645E+01  5.13179E+01  4.75567E+01
   4.54346E+01  4.86420E+01  4.76053E+01  4.72679E+01  4.56318E+01  4.51602E+01  4.33649E+01  4.85003E+01  5.04693E+01  4.64577E+01
   4.28472E+01  4.32161E+01  4.07774E+01  4.23653E+01  4.33244E+01  4.08014E+01  3.93716E+01  3.62504E+01  3.96076E+01  3.94710E+01
   3.41880E+01  3.77891E+01  4.19382E+01  3.54456E+01  3.71535E+01  3.17227E+01  3.35273E+01  3.30904E+01  2.92333E+01  3.51661E+01
   3.63580E+01  3.34030E+01  3.63582E+01  3.24926E+01  3.08746E+01  3.38408E+01  2.91738E+01  3.49976E+01  3.38034E+01  2.82002E+01
   2.89546E+01  3.05345E+01  3.15359E+01  2.92051E+01  3.27528E+01  2.99669E+01  3.05595E+01  3.43638E+01  3.26500E+01  3.16305E+01
   3.22951E+01  2.87122E+01  3.04868E+01  3.16759E+01  3.29856E+01  3.47389E+01  3.11051E+01  2.87962E+01  2.94323E+01  2.62114E+01
   3.14406E+01  2.79622E+01  2.82557E+01  2.80816E+01  3.00745E+01  3.07802E+01  2.93947E+01  2.83697E+01  2.37130E+01  2.93809E+01
   3.11084E+01  2.59122E+01  2.78523E+01  2.49367E+01  2.58826E+01  2.65234E+01  2.63586E+01  2.82060E+01  2.59942E+01  2.54088E+01
   2.31409E+01  2.38561E+01  2.50024E+01  2.48339E+01  2.49606E+01  2.69153E+01  2.08694E+01  2.64125E+01  2.35063E+01  2.08095E+01
   1.95099E+01  2.28142E+01  2.45436E+01  2.51858E+01  2.05553E+01  2.15050E+01  2.57154E+01  2.06447E+01  2.34868E+01  2.07549E+01
   2.20750E+01  2.11929E+01  2.27113E+01  2.09727E+01  1.81960E+01  2.00402E+01  2.35982E+01  2.11636E+01  2.03664E+01  1.68990E+01
   2.06695E+01  2.08867E+01  2.09154E+01  2.08005E+01  2.01629E+01  2.00300E+01  1.96617E+01  2.09954E+01  1.78719E+01  1.67275E+01
   1.76917E+01  1.66360E+01  1.91907E+01  1.85501E+01  1.45240E+01  1.74084E+01  2.03252E+01  1.76434E+01  1.73640E+01  1.71002E+01
   1.69923E+01  1.84465E+01  1.67715E+01  1.74468E+01  1.66710E+01  1.34300E+01  1.88173E+01  1.44611E+01  1.09389E+01  1.35544E+01
   1.29344E+01  1.86347E+01  1.34659E+01  1.28173E+01  1.22642E+01  1.53277E+01  1.49600E+01  1.46732E+01  1.10008E+01  1.63705E+01
   1.49379E+01  1.47472E+01  1.28785E+01  1.71090E+01  1.73489E+01  1.32117E+01  1.37016E+01  1.04680E+01  1.00247E+01  1.23779E+01
   1.32194E+01  1.24947E+01  1.54588E+01  1.12932E+01  1.32858E+01  1.11297E+01  1.25367E+01  8.03308E+00
 NY points of the fit to the data follow
   3.11402E+02  3.07907E+02  3.04529E+02  3.01408E+02  2.98750E+02  2.96507E+02  2.94520E+02  2.92509E+02  2.90143E+02  2.87239E+02
   2.83867E+02  2.80229E+02  2.76496E+02  2.72765E+02  2.69132E+02  2.65761E+02  2.62746E+02  2.59899E+02  2.57133E+02  2.54435E+02
   2.51800E+02  2.49211E+02  2.46650E+02  2.44102E+02  2.41552E+02  2.38994E+02  2.36441E+02  2.33908E+02  2.31417E+02  2.28986E+02
   2.26631E+02  2.24363E+02  2.22188E+02  2.20102E+02  2.18087E+02  2.16085E+02  2.14024E+02  2.11842E+02  2.09512E+02  2.07081E+02
   2.04658E+02  2.02348E+02  2.00258E+02  1.98563E+02  1.97394E+02  1.96692E+02  1.96162E+02  1.95362E+02  1.93953E+02  1.91873E+02
   1.89321E+02  1.86591E+02  1.83910E+02  1.81409E+02  1.79232E+02  1.77551E+02  1.76338E+02  1.75404E+02  1.74578E+02  1.73726E+02
   1.72714E+02  1.71448E+02  1.69926E+02  1.68243E+02  1.66529E+02  1.64886E+02  1.63385E+02  1.62100E+02  1.61029E+02  1.60112E+02
   1.59269E+02  1.58415E+02  1.57481E+02  1.56430E+02  1.55271E+02  1.54046E+02  1.52788E+02  1.51530E+02  1.50288E+02  1.49104E+02
   1.47997E+02  1.46946E+02  1.45920E+02  1.44856E+02  1.43687E+02  1.42375E+02  1.40949E+02  1.39505E+02  1.38165E+02  1.37018E+02
   1.36082E+02  1.35318E+02  1.34686E+02  1.34128E+02  1.33541E+02  1.32815E+02  1.31906E+02  1.30841E+02  1.29724E+02  1.28670E+02
   1.27728E+02  1.26898E+02  1.26129E+02  1.25344E+02  1.24512E+02  1.23620E+02  1.22681E+02  1.21706E+02  1.20713E+02  1.19737E+02
   1.18822E+02  1.17975E+02  1.17145E+02  1.16324E+02  1.15505E+02  1.14687E+02  1.13867E+02  1.13048E+02  1.12237E+02  1.11448E+02
   1.10723E+02  1.10273E+02  1.10383E+02  1.11029E+02  1.11987E+02  1.12818E+02  1.13031E+02  1.12385E+02  1.11019E+02  1.09236E+02
   1.07277E+02  1.05286E+02  1.03424E+02  1.01963E+02  1.00979E+02  1.00172E+02  9.94217E+01  9.87021E+01  9.80031E+01  9.73177E+01
   9.66419E+01  9.59761E+01  9.53221E+01  9.46809E+01  9.40491E+01  9.34232E+01  9.28028E+01  9.21890E+01  9.15834E+01  9.09863E+01
   9.03988E+01  8.98227E+01  8.92589E+01  8.87084E+01  8.81693E+01  8.76368E+01  8.71002E+01  8.65536E+01  8.59991E+01  8.54488E+01
   8.49254E+01  8.44416E+01  8.39939E+01  8.35651E+01  8.31353E+01  8.26932E+01  8.22399E+01  8.17785E+01  8.13076E+01  8.08337E+01
   8.03640E+01  7.98984E+01  7.94378E+01  7.89835E+01  7.85424E+01  7.81265E+01  7.77345E+01  7.73551E+01  7.69747E+01  7.65886E+01
   7.62050E+01  7.58312E+01  7.54580E+01  7.50737E+01  7.46864E+01  7.43187E+01  7.39817E+01  7.36722E+01  7.33699E+01  7.30610E+01
   7.27437E+01  7.24217E+01  7.21040E+01  7.17850E+01  7.14532E+01  7.11076E+01  7.07466E+01  7.03649E+01  6.99722E+01  6.95903E+01
   6.92312E+01  6.88989E+01  6.85874E+01  6.82846E+01  6.79782E+01  6.76550E+01  6.73144E+01  6.69597E+01  6.65855E+01  6.61928E+01
   6.57958E+01  6.54139E+01  6.50558E+01  6.47282E+01  6.44295E+01  6.41505E+01  6.38823E+01  6.36212E+01  6.33656E+01  6.31119E+01
   6.28534E+01  6.25943E+01  6.23370E+01  6.20747E+01  6.18009E+01  6.15122E+01  6.12100E+01  6.09003E+01  6.05925E+01  6.02974E+01
   6.00250E+01  5.97796E+01  5.95573E+01  5.93500E+01  5.91520E+01  5.89608E+01  5.87751E+01  5.85926E+01  5.84133E+01  5.82403E+01
   5.80756E+01  5.79177E+01  5.77637E+01  5.76109E+01  5.74559E+01  5.72953E+01  5.71255E+01  5.69432E+01  5.67454E+01  5.65293E+01
   5.62930E+01  5.60353E+01  5.57570E+01  5.54644E+01  5.51983E+01  5.51875E+01  5.56889E+01  5.66656E+01  5.78973E+01  5.89580E+01
   5.93940E+01  5.90119E+01  5.79694E+01  5.65559E+01  5.49863E+01  5.33898E+01  5.19281E+01  5.08699E+01  5.02401E+01  4.97556E+01
   4.93264E+01  4.89345E+01  4.85729E+01  4.82363E+01  4.79200E+01  4.76197E+01  4.73309E+01  4.70502E+01  4.67779E+01  4.65151E+01
   4.62637E+01  4.60257E+01  4.58034E+01  4.55988E+01  4.54124E+01  4.52427E+01  4.50877E+01  4.49462E+01  4.48169E+01  4.46986E+01
   4.45904E+01  4.44920E+01  4.44034E+01  4.43250E+01  4.42569E+01  4.41984E+01  4.41493E+01  4.41088E+01  4.40759E+01  4.40494E+01
   4.40282E+01  4.40110E+01  4.39965E+01  4.39837E+01  4.39717E+01  4.39595E+01  4.39467E+01  4.39330E+01  4.39187E+01  4.39044E+01
   4.38913E+01  4.38809E+01  4.38756E+01  4.38777E+01  4.38903E+01  4.39163E+01  4.39589E+01  4.40211E+01  4.41061E+01  4.42170E+01
   4.43582E+01  4.45388E+01  4.47789E+01  4.50684E+01  4.53542E+01  4.55759E+01  4.56757E+01  4.56296E+01  4.54631E+01  4.52236E+01
   4.49670E+01  4.47585E+01  4.46384E+01  4.46337E+01  4.47287E+01  4.48202E+01  4.47944E+01  4.46202E+01  4.43085E+01  4.38803E+01
   4.33523E+01  4.27446E+01  4.21111E+01  4.15045E+01  4.09205E+01  4.03548E+01  3.98091E+01  3.92861E+01  3.87887E+01  3.83186E+01
   3.78769E+01  3.74636E+01  3.70778E+01  3.67180E+01  3.63820E+01  3.60672E+01  3.57709E+01  3.54899E+01  3.52214E+01  3.49625E+01
   3.47103E+01  3.44624E+01  3.42166E+01  3.39713E+01  3.37250E+01  3.34768E+01  3.32261E+01  3.29728E+01  3.27169E+01  3.24589E+01
   3.21998E+01  3.19405E+01  3.16825E+01  3.14272E+01  3.11766E+01  3.09324E+01  3.06965E+01  3.04711E+01  3.02580E+01  3.00592E+01
   2.98765E+01  2.97115E+01  2.95655E+01  2.94397E+01  2.93346E+01  2.92505E+01  2.91872E+01  2.91436E+01  2.91184E+01  2.91093E+01
   2.91136E+01  2.91279E+01  2.91482E+01  2.91700E+01  2.91886E+01  2.91989E+01  2.91961E+01  2.91753E+01  2.91321E+01  2.90625E+01
   2.89636E+01  2.88329E+01  2.86694E+01  2.84727E+01  2.82436E+01  2.79840E+01  2.76964E+01  2.73845E+01  2.70521E+01  2.67033E+01
   2.63424E+01  2.59737E+01  2.56016E+01  2.52301E+01  2.48629E+01  2.45030E+01  2.41534E+01  2.38160E+01  2.34926E+01  2.31844E+01
   2.28919E+01  2.26155E+01  2.23550E+01  2.21102E+01  2.18803E+01  2.16647E+01  2.14625E+01  2.12727E+01  2.10943E+01  2.09263E+01
   2.07678E+01  2.06177E+01  2.04752E+01  2.03394E+01  2.02094E+01  2.00845E+01  1.99639E+01  1.98470E+01  1.97332E+01  1.96218E+01
   1.95124E+01  1.94043E+01  1.92970E+01  1.91902E+01  1.90834E+01  1.89761E+01  1.88680E+01  1.87587E+01  1.86478E+01  1.85349E+01
   1.84197E+01  1.83018E+01  1.81810E+01  1.80570E+01  1.79299E+01  1.77998E+01  1.76667E+01  1.75309E+01  1.73924E+01  1.72513E+01
   1.71077E+01  1.69619E+01  1.68138E+01  1.66638E+01  1.65118E+01  1.63580E+01  1.62026E+01  1.60456E+01  1.58874E+01  1.57279E+01
   1.55673E+01  1.54058E+01  1.52436E+01  1.50807E+01  1.49173E+01  1.47537E+01  1.45898E+01  1.44260E+01  1.42622E+01  1.40988E+01
   1.39358E+01  1.37733E+01  1.36117E+01  1.34509E+01  1.32912E+01  1.31327E+01  1.29756E+01  1.28200E+01  1.26661E+01  1.25140E+01
   1.23639E+01  1.22160E+01  1.20704E+01  1.19273E+01  1.17868E+01  1.16490E+01  1.15143E+01  1.13826E+01
 NY background values follow
     3.099E+02    3.068E+02    3.036E+02    3.005E+02    2.975E+02    2.944E+02    2.914E+02    2.884E+02    2.854E+02    2.824E+02
     2.795E+02    2.765E+02    2.737E+02    2.708E+02    2.679E+02    2.651E+02    2.623E+02    2.596E+02    2.569E+02    2.541E+02
     2.515E+02    2.488E+02    2.462E+02    2.436E+02    2.410E+02    2.385E+02    2.360E+02    2.335E+02    2.311E+02    2.287E+02
     2.263E+02    2.239E+02    2.216E+02    2.193E+02    2.171E+02    2.149E+02    2.127E+02    2.105E+02    2.084E+02    2.063E+02
     2.043E+02    2.022E+02    2.003E+02    1.983E+02    1.964E+02    1.945E+02    1.927E+02    1.909E+02    1.891E+02    1.874E+02
     1.857E+02    1.841E+02    1.824E+02    1.808E+02    1.793E+02    1.777E+02    1.762E+02    1.747E+02    1.733E+02    1.719E+02
     1.705E+02    1.691E+02    1.677E+02    1.664E+02    1.651E+02    1.638E+02    1.626E+02    1.613E+02    1.601E+02    1.589E+02
     1.577E+02    1.566E+02    1.554E+02    1.543E+02    1.532E+02    1.521E+02    1.510E+02    1.500E+02    1.489E+02    1.479E+02
     1.468E+02    1.458E+02    1.448E+02    1.438E+02    1.428E+02    1.418E+02    1.408E+02    1.398E+02    1.389E+02    1.379E+02
     1.369E+02    1.360E+02    1.350E+02    1.341E+02    1.331E+02    1.322E+02    1.312E+02    1.303E+02    1.293E+02    1.284E+02
     1.275E+02    1.266E+02    1.256E+02    1.247E+02    1.238E+02    1.229E+02    1.220E+02    1.211E+02    1.202E+02    1.193E+02
     1.184E+02    1.176E+02    1.167E+02    1.158E+02    1.150E+02    1.141E+02    1.133E+02    1.125E+02    1.116E+02    1.108E+02
     1.100E+02    1.092E+02    1.084E+02    1.076E+02    1.068E+02    1.060E+02    1.053E+02    1.045E+02    1.038E+02    1.030E+02
     1.023E+02    1.016E+02    1.009E+02    1.002E+02    9.951E+01    9.883E+01    9.816E+01    9.751E+01    9.686E+01    9.622E+01
     9.560E+01    9.498E+01    9.437E+01    9.377E+01    9.318E+01    9.260E+01    9.203E+01    9.147E+01    9.091E+01    9.037E+01
     8.983E+01    8.930E+01    8.877E+01    8.826E+01    8.775E+01    8.724E+01    8.675E+01    8.626E+01    8.578E+01    8.530E+01
     8.483E+01    8.437E+01    8.391E+01    8.346E+01    8.301E+01    8.257E+01    8.213E+01    8.170E+01    8.127E+01    8.084E+01
     8.043E+01    8.001E+01    7.960E+01    7.919E+01    7.878E+01    7.838E+01    7.798E+01    7.759E+01    7.719E+01    7.680E+01
     7.641E+01    7.603E+01    7.564E+01    7.526E+01    7.488E+01    7.450E+01    7.412E+01    7.375E+01    7.337E+01    7.300E+01
     7.263E+01    7.226E+01    7.189E+01    7.152E+01    7.116E+01    7.079E+01    7.043E+01    7.007E+01    6.971E+01    6.934E+01
     6.898E+01    6.863E+01    6.827E+01    6.791E+01    6.755E+01    6.720E+01    6.684E+01    6.648E+01    6.613E+01    6.577E+01
     6.542E+01    6.506E+01    6.471E+01    6.436E+01    6.400E+01    6.365E+01    6.329E+01    6.294E+01    6.258E+01    6.223E+01
     6.187E+01    6.152E+01    6.116E+01    6.080E+01    6.045E+01    6.009E+01    5.973E+01    5.937E+01    5.901E+01    5.865E+01
     5.829E+01    5.793E+01    5.757E+01    5.721E+01    5.685E+01    5.649E+01    5.613E+01    5.578E+01    5.542E+01    5.507E+01
     5.472E+01    5.437E+01    5.403E+01    5.368E+01    5.334E+01    5.300E+01    5.267E+01    5.233E+01    5.201E+01    5.168E+01
     5.136E+01    5.104E+01    5.073E+01    5.042E+01    5.012E+01    4.982E+01    4.952E+01    4.924E+01    4.895E+01    4.867E+01
     4.840E+01    4.814E+01    4.788E+01    4.762E+01    4.738E+01    4.714E+01    4.691E+01    4.668E+01    4.646E+01    4.625E+01
     4.605E+01    4.585E+01    4.567E+01    4.549E+01    4.532E+01    4.516E+01    4.500E+01    4.485E+01    4.471E+01    4.457E+01
     4.444E+01    4.431E+01    4.419E+01    4.408E+01    4.397E+01    4.387E+01    4.376E+01    4.367E+01    4.357E+01    4.348E+01
     4.340E+01    4.331E+01    4.323E+01    4.315E+01    4.307E+01    4.300E+01    4.292E+01    4.285E+01    4.278E+01    4.271E+01
     4.264E+01    4.256E+01    4.249E+01    4.242E+01    4.234E+01    4.227E+01    4.219E+01    4.212E+01    4.203E+01    4.195E+01
     4.187E+01    4.178E+01    4.169E+01    4.159E+01    4.149E+01    4.139E+01    4.128E+01    4.117E+01    4.106E+01    4.094E+01
     4.081E+01    4.068E+01    4.055E+01    4.041E+01    4.026E+01    4.012E+01    3.996E+01    3.981E+01    3.965E+01    3.948E+01
     3.932E+01    3.914E+01    3.897E+01    3.879E+01    3.861E+01    3.842E+01    3.823E+01    3.804E+01    3.784E+01    3.764E+01
     3.743E+01    3.723E+01    3.701E+01    3.680E+01    3.658E+01    3.636E+01    3.614E+01    3.591E+01    3.568E+01    3.545E+01
     3.522E+01    3.498E+01    3.474E+01    3.450E+01    3.425E+01    3.400E+01    3.375E+01    3.350E+01    3.324E+01    3.299E+01
     3.273E+01    3.246E+01    3.220E+01    3.193E+01    3.167E+01    3.140E+01    3.113E+01    3.086E+01    3.058E+01    3.031E+01
     3.004E+01    2.976E+01    2.949E+01    2.921E+01    2.894E+01    2.866E+01    2.839E+01    2.812E+01    2.784E+01    2.757E+01
     2.730E+01    2.704E+01    2.677E+01    2.651E+01    2.624E+01    2.599E+01    2.573E+01    2.547E+01    2.522E+01    2.497E+01
     2.473E+01    2.449E+01    2.425E+01    2.402E+01    2.379E+01    2.356E+01    2.334E+01    2.312E+01    2.291E+01    2.271E+01
     2.251E+01    2.231E+01    2.212E+01    2.194E+01    2.176E+01    2.159E+01    2.142E+01    2.126E+01    2.111E+01    2.096E+01
     2.083E+01    2.069E+01    2.056E+01    2.044E+01    2.032E+01    2.021E+01    2.010E+01    2.000E+01    1.990E+01    1.981E+01
     1.972E+01    1.963E+01    1.954E+01    1.946E+01    1.938E+01    1.931E+01    1.923E+01    1.916E+01    1.909E+01    1.902E+01
     1.896E+01    1.889E+01    1.882E+01    1.876E+01    1.870E+01    1.863E+01    1.857E+01    1.850E+01    1.844E+01    1.837E+01
     1.830E+01    1.823E+01    1.816E+01    1.809E+01    1.801E+01    1.794E+01    1.786E+01    1.778E+01    1.769E+01    1.760E+01
     1.751E+01    1.741E+01    1.731E+01    1.721E+01    1.710E+01    1.699E+01    1.687E+01    1.675E+01    1.663E+01    1.650E+01
     1.637E+01    1.624E+01    1.611E+01    1.597E+01    1.583E+01    1.569E+01    1.554E+01    1.540E+01    1.525E+01    1.510E+01
     1.495E+01    1.480E+01    1.464E+01    1.449E+01    1.434E+01    1.418E+01    1.402E+01    1.387E+01    1.371E+01    1.356E+01
     1.340E+01    1.325E+01    1.309E+01    1.294E+01    1.278E+01    1.263E+01    1.248E+01    1.233E+01    1.218E+01    1.204E+01
     1.189E+01    1.175E+01    1.161E+01    1.147E+01    1.134E+01    1.120E+01    1.107E+01    1.095E+01
 Ala      Conc. = 5.24E+01
