 LCModel (Version 6.3-1L) Copyright: S.W. Provencher.          Ref.: Magn. Reson. Med. 30:672-679 (1993).                
 Slice#3 Row#11 Col#12  PD_05_press_2_raw_act
 36 lines in following concentration table = NCONC+1
    Conc.  %SD /Cr+PCr  Metabolite                                         
    0.000 999%   0.000 Ala                                                 
    3.406  58%   0.103 Asp                                                 
   32.998  61%   1.000 Cr                                                  
    0.000 999%   0.000 PCr                                                 
    2.053  58% 6.2E-02 GABA                                                
    2.050  58% 6.2E-02 Glc                                                 
    0.000 999%   0.000 Gln                                                 
    0.000 999%   0.000 Glu                                                 
    0.000 999%   0.000 GPC                                                 
   11.804  66%   0.358 PCh                                                 
   68.871  43%   2.087 GSH                                                 
   36.937 255%   1.119 Ins                                                 
  105.655  57%   3.202 Lac                                                 
    0.000 999%   0.000 NAA                                                 
    0.000 999%   0.000 NAAG                                                
    0.691  57% 2.1E-02 Scyllo                                              
    3.438  58%   0.104 Tau                                                 
    3.367  94%   0.102 -CrCH2                                              
   11.804  66%   0.358 GPC+PCh                                             
    0.000 999%   0.000 NAA+NAAG                                            
   32.998  61%   1.000 Cr+PCr                                              
    0.000 999%   0.000 Glu+Gln                                             
    0.000 999%   0.000 Lip13a                                              
  537.033  47%  16.275 Lip13b                                              
  144.655  52%   4.384 Lip09                                               
   47.651 181%   1.444 MM09                                                
   69.914  63%   2.119 Lip20                                               
    0.000 999%   0.000 MM20                                                
    0.184 999% 5.6E-03 MM12                                                
 1.19E+03  19%  35.919 MM14                                                
  106.574  88%   3.230 MM17                                                
  537.033  47%  16.275 Lip13a+Lip13b                                       
 1.72E+03   9%  52.199 MM14+Lip13a+Lip13b+MM12                             
  192.306  37%   5.828 MM09+Lip09                                          
   69.914  63%   2.119 MM20+Lip20                                          
   6 lines in following misc. output table
  FWHM = 0.054 ppm    S/N =   2                                            
  Data shift = 0.023 ppm                                                   
  Ph: -59 deg     -36.5 deg/ppm                                            
  alphaB,S = 8.5E+01,   5.1E+01                                            
   14 spline knots.   Ns = 5(1)                                            
   1 inflections.     2 extrema                                            
  498 points on ppm-axis = NY
      4.000000     3.992357     3.984714     3.977070     3.969427     3.961784     3.954141     3.946497     3.938854     3.931211
      3.923568     3.915925     3.908281     3.900638     3.892995     3.885352     3.877708     3.870065     3.862422     3.854779
      3.847136     3.839492     3.831849     3.824206     3.816563     3.808919     3.801276     3.793633     3.785990     3.778347
      3.770703     3.763060     3.755417     3.747774     3.740130     3.732487     3.724844     3.717201     3.709558     3.701914
      3.694271     3.686628     3.678985     3.671341     3.663698     3.656055     3.648412     3.640769     3.633125     3.625482
      3.617839     3.610196     3.602552     3.594909     3.587266     3.579623     3.571980     3.564336     3.556693     3.549050
      3.541407     3.533763     3.526120     3.518477     3.510834     3.503191     3.495547     3.487904     3.480261     3.472618
      3.464974     3.457331     3.449688     3.442045     3.434402     3.426758     3.419115     3.411472     3.403829     3.396185
      3.388542     3.380899     3.373256     3.365613     3.357969     3.350326     3.342683     3.335040     3.327396     3.319753
      3.312110     3.304467     3.296824     3.289180     3.281537     3.273894     3.266251     3.258607     3.250964     3.243321
      3.235678     3.228034     3.220391     3.212748     3.205105     3.197462     3.189818     3.182175     3.174532     3.166889
      3.159245     3.151602     3.143959     3.136316     3.128673     3.121029     3.113386     3.105743     3.098100     3.090456
      3.082813     3.075170     3.067527     3.059884     3.052240     3.044597     3.036954     3.029311     3.021667     3.014024
      3.006381     2.998738     2.991095     2.983451     2.975808     2.968165     2.960522     2.952878     2.945235     2.937592
      2.929949     2.922306     2.914662     2.907019     2.899376     2.891733     2.884089     2.876446     2.868803     2.861160
      2.853517     2.845873     2.838230     2.830587     2.822944     2.815300     2.807657     2.800014     2.792371     2.784728
      2.777084     2.769441     2.761798     2.754155     2.746511     2.738868     2.731225     2.723582     2.715939     2.708295
      2.700652     2.693009     2.685366     2.677722     2.670079     2.662436     2.654793     2.647150     2.639506     2.631863
      2.624220     2.616577     2.608933     2.601290     2.593647     2.586004     2.578361     2.570717     2.563074     2.555431
      2.547788     2.540144     2.532501     2.524858     2.517215     2.509572     2.501928     2.494285     2.486642     2.478999
      2.471355     2.463712     2.456069     2.448426     2.440783     2.433139     2.425496     2.417853     2.410210     2.402566
      2.394923     2.387280     2.379637     2.371994     2.364350     2.356707     2.349064     2.341421     2.333777     2.326134
      2.318491     2.310848     2.303205     2.295561     2.287918     2.280275     2.272632     2.264988     2.257345     2.249702
      2.242059     2.234416     2.226772     2.219129     2.211486     2.203843     2.196199     2.188556     2.180913     2.173270
      2.165627     2.157983     2.150340     2.142697     2.135054     2.127410     2.119767     2.112124     2.104481     2.096838
      2.089194     2.081551     2.073908     2.066265     2.058621     2.050978     2.043335     2.035692     2.028049     2.020405
      2.012762     2.005119     1.997476     1.989833     1.982190     1.974546     1.966903     1.959260     1.951617     1.943974
      1.936331     1.928688     1.921045     1.913402     1.905759     1.898115     1.890472     1.882829     1.875186     1.867543
      1.859900     1.852257     1.844614     1.836971     1.829327     1.821684     1.814041     1.806398     1.798755     1.791112
      1.783469     1.775826     1.768183     1.760540     1.752896     1.745253     1.737610     1.729967     1.722324     1.714681
      1.707038     1.699395     1.691752     1.684108     1.676465     1.668822     1.661179     1.653536     1.645893     1.638250
      1.630607     1.622964     1.615321     1.607677     1.600034     1.592391     1.584748     1.577105     1.569462     1.561819
      1.554176     1.546533     1.538890     1.531246     1.523603     1.515960     1.508317     1.500674     1.493031     1.485388
      1.477745     1.470102     1.462458     1.454815     1.447172     1.439529     1.431886     1.424243     1.416600     1.408957
      1.401314     1.393671     1.386027     1.378384     1.370741     1.363098     1.355455     1.347812     1.340169     1.332526
      1.324883     1.317240     1.309596     1.301953     1.294310     1.286667     1.279024     1.271381     1.263738     1.256095
      1.248452     1.240808     1.233165     1.225522     1.217879     1.210236     1.202593     1.194950     1.187307     1.179664
      1.172021     1.164377     1.156734     1.149091     1.141448     1.133805     1.126162     1.118519     1.110876     1.103233
      1.095590     1.087946     1.080303     1.072660     1.065017     1.057374     1.049731     1.042088     1.034445     1.026802
      1.019158     1.011515     1.003872     0.996229     0.988586     0.980943     0.973300     0.965657     0.958014     0.950371
      0.942727     0.935084     0.927441     0.919798     0.912155     0.904512     0.896869     0.889226     0.881583     0.873940
      0.866296     0.858653     0.851010     0.843367     0.835724     0.828081     0.820438     0.812795     0.805152     0.797508
      0.789865     0.782222     0.774579     0.766936     0.759293     0.751650     0.744007     0.736364     0.728721     0.721077
      0.713434     0.705791     0.698148     0.690505     0.682862     0.675219     0.667576     0.659933     0.652290     0.644646
      0.637003     0.629360     0.621717     0.614074     0.606431     0.598788     0.591145     0.583502     0.575858     0.568215
      0.560572     0.552929     0.545286     0.537643     0.530000     0.522357     0.514714     0.507071     0.499427     0.491784
      0.484141     0.476498     0.468855     0.461212     0.453569     0.445925     0.438282     0.430639     0.422996     0.415353
      0.407710     0.400067     0.392424     0.384780     0.377137     0.369494     0.361851     0.354208     0.346565     0.338922
      0.331278     0.323635     0.315992     0.308349     0.300706     0.293063     0.285420     0.277777     0.270133     0.262490
      0.254847     0.247204     0.239561     0.231918     0.224275     0.216631     0.208988     0.201345
 NY phased data points follow
  -9.71051E+00 -7.75137E+00 -8.61341E+00 -8.13135E+00 -6.23844E+00 -6.45175E+00 -4.86137E+00 -8.20286E+00 -7.04006E+00 -7.84477E+00
  -9.02548E+00 -5.07163E+00 -3.52463E+00 -3.74578E+00 -5.05849E+00 -5.28493E+00 -7.21408E+00 -4.88810E+00 -5.22220E+00 -5.17316E+00
  -5.88614E+00 -9.04888E+00 -4.96737E+00 -6.37194E+00 -5.23402E+00 -7.03175E+00 -6.39161E+00 -4.64654E+00 -5.30071E+00 -7.03771E+00
  -3.85224E+00 -3.16917E+00 -7.33194E+00 -2.93138E+00 -3.04629E+00 -4.61830E+00 -5.10382E+00 -4.83931E+00 -4.68884E+00 -3.74997E+00
  -3.86922E+00 -3.00632E+00 -4.86086E+00 -2.68246E+00 -3.56562E+00 -3.46517E+00 -4.53024E+00 -5.84208E+00 -5.35976E+00 -6.39786E+00
  -2.25116E+00 -4.79993E+00 -2.81585E+00 -2.61858E+00 -4.63009E+00 -6.96588E+00 -4.04982E+00 -4.53062E+00 -3.59635E+00 -4.54073E+00
  -4.07385E+00 -3.59234E+00 -3.07413E+00 -2.29439E+00 -4.32000E+00 -1.55689E+00 -3.29456E+00 -2.24284E+00 -2.75297E+00 -7.20039E+00
  -6.55545E+00  1.06672E-01 -5.44811E+00 -3.29388E+00 -4.75955E+00 -5.39862E+00 -3.10196E+00 -5.19254E+00 -5.33589E+00 -5.50690E+00
  -1.75740E+00 -5.37400E+00 -4.33102E+00 -3.05729E+00 -1.79868E+00 -5.95335E+00 -1.88869E+00 -4.04982E+00 -8.29855E-02 -2.35248E+00
  -3.65304E+00 -5.64182E+00 -3.80363E+00 -3.34324E+00 -4.51971E+00 -6.60388E-01 -3.52715E-01 -1.09820E+00 -5.18825E+00 -5.37562E+00
  -4.24794E+00 -5.01281E+00 -2.28755E+00 -2.51974E+00 -1.53880E+00 -3.49036E+00 -3.53440E+00 -1.22500E+00 -9.26069E-01 -7.49012E-01
  -1.46572E+00 -3.07371E+00 -9.89543E-01 -4.69134E+00  2.06156E+00 -3.30903E+00 -2.17570E+00 -1.80586E+00 -1.20383E+00 -1.73463E+00
  -3.47160E+00 -3.54342E+00 -1.30297E+00 -3.95190E+00 -4.38940E+00 -7.58176E+00 -9.22727E-01 -3.13204E+00 -2.50011E+00  4.57243E-01
  -1.07289E+00  5.17684E-01  1.51071E-01  6.15128E-01  8.00656E-01  1.05994E+00 -8.86276E-01  1.06854E-01 -4.45713E+00 -3.26528E+00
   9.14716E-02 -9.05390E-01 -1.62910E+00 -1.29189E+00 -1.29646E+00 -2.34072E+00 -3.89763E+00 -4.71729E-01 -1.87874E+00  1.04058E+00
  -5.85630E-01  1.64165E-01 -2.74580E-01 -7.27196E-01 -6.24975E-01 -1.58754E+00 -2.54378E-01  7.91681E-03 -3.47690E-01 -1.01626E+00
   2.23281E-01 -2.65471E+00 -1.90972E+00 -2.40790E+00 -9.04109E-01 -5.97015E-01 -8.90090E-01 -7.24170E-01 -1.84799E+00 -2.43294E+00
  -6.67926E-01 -4.12385E+00 -1.58234E+00 -7.17253E-01  3.76755E+00 -1.90572E+00 -4.26527E+00 -8.21989E-01  1.41054E+00  2.67152E-01
  -1.59940E+00 -1.25057E+00 -6.19821E-01  9.46719E-01 -4.58729E+00 -4.00849E-01 -7.52054E-01 -1.07802E+00 -3.45279E+00 -8.20447E-01
  -2.55850E+00 -1.10532E+00  8.28584E-01  1.96402E-01  1.16910E-01 -2.61170E+00  6.30351E-01 -3.05155E+00  1.21950E-01 -2.99147E-01
  -8.26061E-01 -2.40233E+00 -3.37446E-01  1.40514E+00 -4.81331E-01  2.42706E-01  1.18795E+00  4.44552E+00 -1.05728E-01 -8.10884E-01
   1.49952E+00  4.60861E-01 -1.33704E+00 -1.47921E+00 -6.71302E-01 -1.83403E+00 -2.01476E+00  3.34785E+00  1.34798E-01  1.08635E+00
   1.24528E+00  4.89068E-01 -2.02073E+00  1.13318E+00  2.54588E-01  3.76519E-01 -5.57342E-02 -6.71286E-01  1.25302E+00 -8.36388E-01
   7.86598E-01  5.32882E-01 -7.32216E-01  1.54163E+00 -1.85475E+00  1.11919E+00 -7.21733E-01 -1.93871E-01  6.73668E-01  8.00090E-01
  -2.09637E-01 -9.22819E-01  2.11946E+00 -3.07942E-01  2.48130E-01  1.14026E+00  5.61259E+00 -7.26766E-01  3.24785E+00 -1.12220E+00
  -1.84685E-01  1.82244E+00  2.66968E+00  4.39859E+00  3.81991E+00  1.96114E-01 -3.53104E-01  2.62843E+00 -2.66970E+00 -2.09346E+00
   1.62004E-01  3.14148E+00  2.23028E+00  3.41885E+00  4.33967E+00  1.25106E+00  1.68056E+00  5.39804E+00  3.10287E-01  1.66622E+00
   2.37064E+00  2.63319E-01  1.96799E+00  4.17230E+00  1.27840E+00  2.49113E+00  2.76077E+00  9.27724E-01  3.48282E+00  2.32101E+00
   4.61547E+00  2.88021E-01  3.47772E+00  2.08984E-01  1.09928E+00  2.30223E+00  3.09353E-01  2.87298E+00  1.80552E+00  2.65762E+00
   3.06102E+00  6.24359E+00  1.22591E+00  7.21906E+00  4.33925E+00  4.26196E+00  2.58345E+00  5.65558E+00  5.61909E+00  4.60154E+00
   3.21982E+00  4.96408E+00  5.42323E+00  1.52831E+00  8.17221E+00  4.74056E+00  7.62661E+00  6.82195E+00  6.96925E+00  5.23994E+00
   6.49027E+00  5.21772E+00  4.39931E+00  4.36204E+00  6.01748E+00  7.72548E+00  7.25026E+00  7.08026E+00  7.66900E+00  8.17288E+00
   6.08930E+00  4.76487E+00  5.69018E+00  6.30539E+00  5.38438E+00  9.85638E+00  7.39537E+00  8.05820E+00  6.98398E+00  1.10565E+01
   8.92724E+00  1.04326E+01  7.82133E+00  1.18832E+01  9.78527E+00  7.98698E+00  6.86586E+00  9.33602E+00  5.79045E+00  7.60253E+00
   7.06970E+00  7.73865E+00  7.45963E+00  9.06054E+00  7.59049E+00  7.12868E+00  5.83483E+00  6.32476E+00  2.36016E+00  1.90173E+00
   4.19689E+00  3.55430E-01  3.07628E+00 -1.97501E+00  7.29240E-01  3.74084E+00 -1.43548E+00 -4.49965E-01  6.66991E-01 -2.84761E+00
  -1.78151E+00 -9.66844E-01 -9.70402E-01 -2.43440E+00 -3.21127E+00 -2.05878E+00  2.87659E-01 -3.37108E+00 -2.91075E+00 -2.33851E+00
  -2.96316E+00 -1.24596E+00 -4.00711E+00 -3.60440E+00  1.32131E+00 -1.94611E+00 -3.21697E-01 -2.29482E+00  1.65054E+00 -2.27972E+00
   6.66292E-01 -2.08669E+00  1.18805E+00  4.10097E-01 -2.26507E+00 -1.21865E+00 -1.57653E+00 -1.77202E+00  6.38816E-01  1.52693E+00
   1.08362E+00  8.89363E-01  7.76687E-01  7.36021E-01 -8.15207E-01  1.83143E+00  7.84777E-01 -1.38993E+00 -6.70696E-01 -5.09215E-01
  -1.24198E+00  2.54162E+00 -1.91317E-01  1.69388E+00 -6.96914E-01 -1.50529E+00  3.44874E-01 -8.97305E-01 -4.00921E+00 -1.46869E+00
  -8.90367E-01 -1.73505E+00 -2.42139E-01  1.23653E+00  3.27652E-01  9.38455E-01  1.26281E+00 -9.95411E-01  2.03341E+00  9.96009E-01
  -6.44181E-02  5.70877E-01 -2.90525E+00 -1.36950E+00 -5.07805E-01 -7.74966E-01 -2.30255E+00 -4.22629E-01 -5.66245E-01  4.99790E-01
  -1.92290E+00 -5.12269E-01 -2.82748E+00  6.82344E-01  1.70729E+00 -4.09524E+00 -2.47013E+00 -3.17780E+00 -1.58565E+00 -2.16502E+00
  -1.30749E-01 -1.09614E+00 -9.39355E-01 -9.03728E-01 -4.13353E+00 -2.11439E+00 -6.88630E-01 -2.66746E+00 -4.08612E+00 -1.05488E+00
  -1.20279E+00 -2.43133E+00 -4.14410E+00 -9.27050E-01 -3.20777E+00 -4.07474E+00 -1.39295E+00  2.72316E-02 -1.85824E+00 -3.41932E+00
  -1.17446E+00 -3.70471E+00 -2.82253E+00 -3.55374E+00 -1.61373E+00 -2.73318E+00 -1.70521E+00 -1.50128E+00 -2.83524E+00 -2.45463E+00
  -4.15830E+00 -4.20382E+00 -4.83216E+00  3.97678E-01 -3.42263E+00 -5.58099E+00  3.30813E-01 -3.28874E+00 -2.00468E+00 -1.84089E+00
  -2.67527E+00 -4.45853E+00  7.98482E-01 -1.88657E+00 -3.12305E+00 -2.75639E+00 -1.61862E+00 -1.09840E+00 -2.61062E+00 -1.84822E+00
  -2.48094E+00 -4.43332E+00  2.49243E-01 -1.52425E+00 -4.53592E+00 -4.51770E+00 -1.96857E+00 -4.49858E+00
 NY points of the fit to the data follow
  -5.82537E+00 -5.88003E+00 -5.90742E+00 -5.90325E+00 -5.88258E+00 -5.87455E+00 -5.88184E+00 -5.87701E+00 -5.83454E+00 -5.73765E+00
  -5.58291E+00 -5.38690E+00 -5.18594E+00 -5.02108E+00 -4.92482E+00 -4.92185E+00 -5.02244E+00 -5.19357E+00 -5.35410E+00 -5.42795E+00
  -5.45202E+00 -5.46796E+00 -5.49230E+00 -5.53361E+00 -5.59038E+00 -5.62629E+00 -5.57513E+00 -5.38651E+00 -5.03865E+00 -4.55501E+00
  -4.02138E+00 -3.57363E+00 -3.31968E+00 -3.30617E+00 -3.54277E+00 -3.97972E+00 -4.47125E+00 -4.79111E+00 -4.88639E+00 -4.89787E+00
  -4.88356E+00 -4.86672E+00 -4.86054E+00 -4.86452E+00 -4.85456E+00 -4.80807E+00 -4.73347E+00 -4.64996E+00 -4.57559E+00 -4.52687E+00
  -4.51589E+00 -4.54425E+00 -4.60377E+00 -4.67430E+00 -4.72165E+00 -4.72369E+00 -4.69086E+00 -4.64234E+00 -4.58876E+00 -4.53435E+00
  -4.48245E+00 -4.43953E+00 -4.41047E+00 -4.39642E+00 -4.39588E+00 -4.40410E+00 -4.40915E+00 -4.39979E+00 -4.37373E+00 -4.33332E+00
  -4.28628E+00 -4.23870E+00 -4.19491E+00 -4.15739E+00 -4.12558E+00 -4.09932E+00 -4.07845E+00 -4.06305E+00 -4.05081E+00 -4.03583E+00
  -4.01791E+00 -3.99728E+00 -3.97233E+00 -3.94397E+00 -3.91696E+00 -3.89558E+00 -3.88211E+00 -3.87613E+00 -3.87346E+00 -3.86782E+00
  -3.85416E+00 -3.82860E+00 -3.78844E+00 -3.73504E+00 -3.67910E+00 -3.63039E+00 -3.59156E+00 -3.55816E+00 -3.51355E+00 -3.42207E+00
  -3.25865E+00 -3.01885E+00 -2.72314E+00 -2.41894E+00 -2.17321E+00 -2.04344E+00 -2.05532E+00 -2.21079E+00 -2.47957E+00 -2.78267E+00
  -2.99723E+00 -3.05382E+00 -3.04505E+00 -3.02072E+00 -2.99037E+00 -2.95692E+00 -2.92316E+00 -2.89074E+00 -2.86029E+00 -2.83076E+00
  -2.79824E+00 -2.75529E+00 -2.68216E+00 -2.54698E+00 -2.33426E+00 -2.05188E+00 -1.73348E+00 -1.43633E+00 -1.21733E+00 -1.10935E+00
  -1.12303E+00 -1.25629E+00 -1.48474E+00 -1.75145E+00 -1.96497E+00 -2.09688E+00 -2.22239E+00 -2.33588E+00 -2.39812E+00 -2.36977E+00
  -2.22861E+00 -2.00170E+00 -1.77663E+00 -1.61814E+00 -1.54315E+00 -1.54700E+00 -1.59790E+00 -1.65258E+00 -1.68973E+00 -1.69320E+00
  -1.68271E+00 -1.66979E+00 -1.65639E+00 -1.64130E+00 -1.62206E+00 -1.59498E+00 -1.55736E+00 -1.51341E+00 -1.46843E+00 -1.42541E+00
  -1.38715E+00 -1.35587E+00 -1.33116E+00 -1.30732E+00 -1.28027E+00 -1.25065E+00 -1.21909E+00 -1.18582E+00 -1.15045E+00 -1.11323E+00
  -1.07544E+00 -1.03924E+00 -1.00675E+00 -9.79341E-01 -9.56549E-01 -9.37457E-01 -9.21109E-01 -9.05865E-01 -8.89652E-01 -8.69775E-01
  -8.45645E-01 -8.20263E-01 -7.97581E-01 -7.78047E-01 -7.57216E-01 -7.25929E-01 -6.72413E-01 -5.88079E-01 -4.72532E-01 -3.35801E-01
  -1.99204E-01 -9.12662E-02 -4.62466E-02 -7.90618E-02 -1.77280E-01 -3.10927E-01 -4.33058E-01 -4.91339E-01 -4.56031E-01 -3.34550E-01
  -1.62554E-01  2.11113E-02  1.86590E-01  3.04443E-01  3.54609E-01  3.51227E-01  3.47866E-01  3.63976E-01  3.91739E-01  4.23699E-01
   4.55153E-01  4.83320E-01  5.07043E-01  5.27088E-01  5.46628E-01  5.70830E-01  6.03276E-01  6.43245E-01  6.89058E-01  7.38675E-01
   7.88709E-01  8.34766E-01  8.75011E-01  9.11823E-01  9.45361E-01  9.74039E-01  9.93725E-01  9.99438E-01  9.91885E-01  9.78710E-01
   9.73241E-01  9.92646E-01  1.05303E+00  1.16040E+00  1.30133E+00  1.44741E+00  1.56125E+00  1.60277E+00  1.54570E+00  1.40934E+00
   1.25548E+00  1.13690E+00  1.09223E+00  1.14958E+00  1.31119E+00  1.53036E+00  1.72721E+00  1.86513E+00  1.94036E+00  1.95617E+00
   1.92235E+00  1.86345E+00  1.81918E+00  1.81157E+00  1.83121E+00  1.86848E+00  1.91748E+00  1.97208E+00  2.02436E+00  2.06738E+00
   2.10185E+00  2.13101E+00  2.15923E+00  2.18749E+00  2.21567E+00  2.24362E+00  2.27132E+00  2.29909E+00  2.32773E+00  2.35818E+00
   2.39115E+00  2.42692E+00  2.46539E+00  2.50622E+00  2.54901E+00  2.59311E+00  2.63775E+00  2.68277E+00  2.72866E+00  2.77578E+00
   2.82467E+00  2.87594E+00  2.93014E+00  2.98769E+00  3.04846E+00  3.11210E+00  3.17841E+00  3.24719E+00  3.31809E+00  3.39098E+00
   3.46583E+00  3.54265E+00  3.62153E+00  3.70225E+00  3.78440E+00  3.86760E+00  3.95144E+00  4.03541E+00  4.11899E+00  4.20179E+00
   4.28350E+00  4.36392E+00  4.44298E+00  4.52079E+00  4.59777E+00  4.67456E+00  4.75212E+00  4.83163E+00  4.91449E+00  5.00229E+00
   5.09672E+00  5.19958E+00  5.31260E+00  5.43739E+00  5.57537E+00  5.72762E+00  5.89478E+00  6.07701E+00  6.27382E+00  6.48404E+00
   6.70576E+00  6.93630E+00  7.17225E+00  7.40944E+00  7.64308E+00  7.86779E+00  8.07783E+00  8.26725E+00  8.43018E+00  8.56110E+00
   8.65505E+00  8.70801E+00  8.71717E+00  8.68120E+00  8.60055E+00  8.47755E+00  8.31650E+00  8.12362E+00  7.90699E+00  7.67631E+00
   7.44280E+00  7.21922E+00  7.01389E+00  6.79645E+00  6.50650E+00  6.08679E+00  5.49843E+00  4.74053E+00  3.86835E+00  2.98696E+00
   2.22803E+00  1.70142E+00  1.47009E+00  1.51036E+00  1.65297E+00  1.59607E+00  1.24460E+00  6.73641E-01 -6.18530E-02 -8.94869E-01
  -1.70892E+00 -2.33144E+00 -2.62814E+00 -2.71722E+00 -2.71425E+00 -2.65276E+00 -2.55120E+00 -2.42371E+00 -2.28129E+00 -2.13215E+00
  -1.98208E+00 -1.83491E+00 -1.69300E+00 -1.55762E+00 -1.42925E+00 -1.30789E+00 -1.19325E+00 -1.08491E+00 -9.82404E-01 -8.85276E-01
  -7.93084E-01 -7.05422E-01 -6.21965E-01 -5.42483E-01 -4.66850E-01 -3.95023E-01 -3.27051E-01 -2.63079E-01 -2.03370E-01 -1.48296E-01
  -9.83375E-02 -5.40433E-02 -1.60230E-02  1.50741E-02  3.85715E-02  5.38084E-02  6.01818E-02  5.72015E-02  4.45201E-02  2.19655E-02
  -1.04388E-02 -5.24417E-02 -1.03549E-01 -1.63013E-01 -2.29863E-01 -3.02932E-01 -3.80899E-01 -4.62329E-01 -5.45725E-01 -6.29574E-01
  -7.12422E-01 -7.92925E-01 -8.69897E-01 -9.42329E-01 -1.00942E+00 -1.07058E+00 -1.12546E+00 -1.17392E+00 -1.21601E+00 -1.25195E+00
  -1.28211E+00 -1.30693E+00 -1.32697E+00 -1.34282E+00 -1.35509E+00 -1.36437E+00 -1.37124E+00 -1.37623E+00 -1.37983E+00 -1.38250E+00
  -1.38460E+00 -1.38647E+00 -1.38838E+00 -1.39054E+00 -1.39314E+00 -1.39632E+00 -1.40020E+00 -1.40485E+00 -1.41033E+00 -1.41666E+00
  -1.42388E+00 -1.43200E+00 -1.44103E+00 -1.45094E+00 -1.46173E+00 -1.47338E+00 -1.48589E+00 -1.49922E+00 -1.51337E+00 -1.52830E+00
  -1.54400E+00 -1.56045E+00 -1.57763E+00 -1.59552E+00 -1.61410E+00 -1.63335E+00 -1.65325E+00 -1.67379E+00 -1.69497E+00 -1.71675E+00
  -1.73912E+00 -1.76207E+00 -1.78559E+00 -1.80967E+00 -1.83429E+00 -1.85944E+00 -1.88511E+00 -1.91129E+00 -1.93797E+00 -1.96514E+00
  -1.99280E+00 -2.02092E+00 -2.04951E+00 -2.07855E+00 -2.10804E+00 -2.13797E+00 -2.16833E+00 -2.19911E+00 -2.23031E+00 -2.26192E+00
  -2.29394E+00 -2.32635E+00 -2.35916E+00 -2.39235E+00 -2.42591E+00 -2.45985E+00 -2.49416E+00 -2.52883E+00 -2.56385E+00 -2.59921E+00
  -2.63493E+00 -2.67098E+00 -2.70736E+00 -2.74406E+00 -2.78108E+00 -2.81841E+00 -2.85605E+00 -2.89399E+00
 NY background values follow
    -5.495E+00   -5.486E+00   -5.476E+00   -5.466E+00   -5.456E+00   -5.446E+00   -5.435E+00   -5.424E+00   -5.413E+00   -5.402E+00
    -5.390E+00   -5.378E+00   -5.366E+00   -5.354E+00   -5.341E+00   -5.328E+00   -5.315E+00   -5.302E+00   -5.288E+00   -5.274E+00
    -5.260E+00   -5.245E+00   -5.231E+00   -5.216E+00   -5.200E+00   -5.185E+00   -5.169E+00   -5.154E+00   -5.137E+00   -5.121E+00
    -5.104E+00   -5.088E+00   -5.071E+00   -5.053E+00   -5.036E+00   -5.018E+00   -5.000E+00   -4.982E+00   -4.964E+00   -4.945E+00
    -4.926E+00   -4.907E+00   -4.888E+00   -4.869E+00   -4.849E+00   -4.829E+00   -4.809E+00   -4.789E+00   -4.768E+00   -4.748E+00
    -4.727E+00   -4.706E+00   -4.684E+00   -4.663E+00   -4.641E+00   -4.619E+00   -4.597E+00   -4.575E+00   -4.553E+00   -4.530E+00
    -4.507E+00   -4.485E+00   -4.461E+00   -4.438E+00   -4.415E+00   -4.391E+00   -4.367E+00   -4.343E+00   -4.319E+00   -4.295E+00
    -4.271E+00   -4.246E+00   -4.221E+00   -4.196E+00   -4.171E+00   -4.146E+00   -4.121E+00   -4.095E+00   -4.069E+00   -4.044E+00
    -4.018E+00   -3.992E+00   -3.965E+00   -3.939E+00   -3.913E+00   -3.886E+00   -3.859E+00   -3.832E+00   -3.805E+00   -3.778E+00
    -3.751E+00   -3.724E+00   -3.696E+00   -3.668E+00   -3.641E+00   -3.613E+00   -3.585E+00   -3.557E+00   -3.529E+00   -3.500E+00
    -3.472E+00   -3.444E+00   -3.415E+00   -3.386E+00   -3.358E+00   -3.329E+00   -3.300E+00   -3.271E+00   -3.242E+00   -3.212E+00
    -3.183E+00   -3.154E+00   -3.124E+00   -3.095E+00   -3.065E+00   -3.036E+00   -3.006E+00   -2.976E+00   -2.946E+00   -2.916E+00
    -2.886E+00   -2.856E+00   -2.826E+00   -2.796E+00   -2.766E+00   -2.736E+00   -2.705E+00   -2.675E+00   -2.644E+00   -2.614E+00
    -2.584E+00   -2.553E+00   -2.522E+00   -2.492E+00   -2.461E+00   -2.431E+00   -2.400E+00   -2.369E+00   -2.338E+00   -2.308E+00
    -2.277E+00   -2.246E+00   -2.215E+00   -2.184E+00   -2.154E+00   -2.123E+00   -2.092E+00   -2.061E+00   -2.030E+00   -1.999E+00
    -1.968E+00   -1.938E+00   -1.907E+00   -1.876E+00   -1.845E+00   -1.814E+00   -1.783E+00   -1.752E+00   -1.722E+00   -1.691E+00
    -1.660E+00   -1.629E+00   -1.599E+00   -1.568E+00   -1.537E+00   -1.507E+00   -1.476E+00   -1.446E+00   -1.415E+00   -1.385E+00
    -1.354E+00   -1.324E+00   -1.293E+00   -1.263E+00   -1.233E+00   -1.203E+00   -1.173E+00   -1.142E+00   -1.112E+00   -1.082E+00
    -1.053E+00   -1.023E+00   -9.929E-01   -9.632E-01   -9.336E-01   -9.040E-01   -8.745E-01   -8.451E-01   -8.157E-01   -7.864E-01
    -7.572E-01   -7.281E-01   -6.991E-01   -6.702E-01   -6.413E-01   -6.126E-01   -5.839E-01   -5.553E-01   -5.269E-01   -4.985E-01
    -4.702E-01   -4.421E-01   -4.140E-01   -3.860E-01   -3.582E-01   -3.304E-01   -3.028E-01   -2.753E-01   -2.479E-01   -2.206E-01
    -1.934E-01   -1.664E-01   -1.395E-01   -1.127E-01   -8.598E-02   -5.944E-02   -3.303E-02   -6.748E-03    1.940E-02    4.541E-02
     7.129E-02    9.702E-02    1.226E-01    1.481E-01    1.734E-01    1.985E-01    2.235E-01    2.484E-01    2.731E-01    2.977E-01
     3.221E-01    3.463E-01    3.704E-01    3.943E-01    4.181E-01    4.417E-01    4.651E-01    4.884E-01    5.115E-01    5.344E-01
     5.572E-01    5.798E-01    6.022E-01    6.244E-01    6.465E-01    6.684E-01    6.901E-01    7.116E-01    7.329E-01    7.540E-01
     7.750E-01    7.957E-01    8.163E-01    8.367E-01    8.569E-01    8.768E-01    8.966E-01    9.162E-01    9.356E-01    9.548E-01
     9.738E-01    9.926E-01    1.011E+00    1.029E+00    1.048E+00    1.066E+00    1.083E+00    1.101E+00    1.118E+00    1.135E+00
     1.152E+00    1.169E+00    1.185E+00    1.201E+00    1.217E+00    1.233E+00    1.249E+00    1.264E+00    1.279E+00    1.294E+00
     1.308E+00    1.323E+00    1.337E+00    1.351E+00    1.365E+00    1.378E+00    1.391E+00    1.404E+00    1.417E+00    1.429E+00
     1.442E+00    1.454E+00    1.465E+00    1.477E+00    1.488E+00    1.499E+00    1.510E+00    1.520E+00    1.531E+00    1.540E+00
     1.550E+00    1.560E+00    1.569E+00    1.578E+00    1.587E+00    1.595E+00    1.603E+00    1.611E+00    1.619E+00    1.626E+00
     1.633E+00    1.640E+00    1.647E+00    1.653E+00    1.659E+00    1.665E+00    1.670E+00    1.675E+00    1.680E+00    1.685E+00
     1.689E+00    1.694E+00    1.697E+00    1.701E+00    1.704E+00    1.707E+00    1.710E+00    1.713E+00    1.715E+00    1.717E+00
     1.718E+00    1.719E+00    1.721E+00    1.721E+00    1.722E+00    1.722E+00    1.722E+00    1.721E+00    1.721E+00    1.720E+00
     1.718E+00    1.717E+00    1.715E+00    1.713E+00    1.711E+00    1.708E+00    1.705E+00    1.701E+00    1.698E+00    1.694E+00
     1.690E+00    1.685E+00    1.680E+00    1.675E+00    1.670E+00    1.664E+00    1.658E+00    1.652E+00    1.645E+00    1.639E+00
     1.631E+00    1.624E+00    1.616E+00    1.608E+00    1.600E+00    1.591E+00    1.582E+00    1.573E+00    1.563E+00    1.553E+00
     1.543E+00    1.533E+00    1.522E+00    1.511E+00    1.499E+00    1.488E+00    1.476E+00    1.463E+00    1.451E+00    1.438E+00
     1.424E+00    1.411E+00    1.397E+00    1.383E+00    1.368E+00    1.354E+00    1.339E+00    1.323E+00    1.308E+00    1.292E+00
     1.275E+00    1.259E+00    1.242E+00    1.225E+00    1.207E+00    1.189E+00    1.171E+00    1.153E+00    1.134E+00    1.115E+00
     1.096E+00    1.076E+00    1.056E+00    1.036E+00    1.015E+00    9.943E-01    9.732E-01    9.517E-01    9.300E-01    9.079E-01
     8.855E-01    8.629E-01    8.399E-01    8.166E-01    7.930E-01    7.692E-01    7.450E-01    7.205E-01    6.958E-01    6.707E-01
     6.453E-01    6.196E-01    5.937E-01    5.674E-01    5.409E-01    5.140E-01    4.869E-01    4.594E-01    4.317E-01    4.036E-01
     3.753E-01    3.467E-01    3.178E-01    2.886E-01    2.591E-01    2.293E-01    1.992E-01    1.688E-01    1.382E-01    1.072E-01
     7.602E-02    4.451E-02    1.270E-02   -1.938E-02   -5.175E-02   -8.441E-02   -1.173E-01   -1.506E-01   -1.841E-01   -2.178E-01
    -2.519E-01   -2.862E-01   -3.209E-01   -3.558E-01   -3.909E-01   -4.264E-01   -4.621E-01   -4.981E-01   -5.343E-01   -5.709E-01
    -6.077E-01   -6.448E-01   -6.821E-01   -7.197E-01   -7.576E-01   -7.958E-01   -8.342E-01   -8.729E-01   -9.118E-01   -9.510E-01
    -9.905E-01   -1.030E+00   -1.070E+00   -1.110E+00   -1.151E+00   -1.192E+00   -1.233E+00   -1.274E+00   -1.315E+00   -1.357E+00
    -1.399E+00   -1.441E+00   -1.484E+00   -1.527E+00   -1.570E+00   -1.613E+00   -1.656E+00   -1.700E+00   -1.744E+00   -1.788E+00
    -1.833E+00   -1.877E+00   -1.922E+00   -1.967E+00   -2.013E+00   -2.058E+00   -2.104E+00   -2.150E+00
 Asp      Conc. = 3.41E+00
