 LCModel (Version 6.3-1L) Copyright: S.W. Provencher.          Ref.: Magn. Reson. Med. 30:672-679 (1993).                
 Slice#3 Row#1 Col#10  PD_05_press_2_raw_act
 36 lines in following concentration table = NCONC+1
    Conc.  %SD /Cr+PCr  Metabolite                                         
   24.105 888% 7.7E-02 Ala                                                 
   41.587  30%   0.134 Asp                                                 
  311.032  32%   1.000 Cr                                                  
    0.000 999%   0.000 PCr                                                 
   24.953  30% 8.0E-02 GABA                                                
   24.999  30% 8.0E-02 Glc                                                 
    0.000 999%   0.000 Gln                                                 
  562.151  87%   1.807 Glu                                                 
   55.617  66%   0.179 GPC                                                 
    0.000 999%   0.000 PCh                                                 
  422.100  35%   1.357 GSH                                                 
 1.59E+03  29%   5.097 Ins                                                 
    0.000 999%   0.000 Lac                                                 
  295.757  46%   0.951 NAA                                                 
   58.143 233%   0.187 NAAG                                                
    8.392  30% 2.7E-02 Scyllo                                              
   41.807  30%   0.134 Tau                                                 
   29.590  67% 9.5E-02 -CrCH2                                              
   55.617  66%   0.179 GPC+PCh                                             
  353.900  34%   1.138 NAA+NAAG                                            
  311.032  32%   1.000 Cr+PCr                                              
  562.151  87%   1.807 Glu+Gln                                             
    0.000 999%   0.000 Lip13a                                              
 1.10E+03  22%   3.551 Lip13b                                              
  177.936  85%   0.572 Lip09                                               
    0.000 999%   0.000 MM09                                                
  115.480  98%   0.371 Lip20                                               
    0.000 999%   0.000 MM20                                                
    1.619 999% 5.2E-03 MM12                                                
  116.382 169%   0.374 MM14                                                
  211.543  63%   0.680 MM17                                                
 1.10E+03  22%   3.551 Lip13a+Lip13b                                       
 1.22E+03  24%   3.930 MM14+Lip13a+Lip13b+MM12                             
  177.936  85%   0.572 MM09+Lip09                                          
  115.480  98%   0.371 MM20+Lip20                                          
   6 lines in following misc. output table
  FWHM = 0.054 ppm    S/N =   1                                            
  Data shift = 0.000 ppm                                                   
  Ph:  61 deg      32.1 deg/ppm                                            
  alphaB,S = 8.5E+01,   2.6E+01                                            
   14 spline knots.   Ns = 7(1)                                            
   2 inflections.     1 extrema                                            
  498 points on ppm-axis = NY
      4.000000     3.992357     3.984714     3.977070     3.969427     3.961784     3.954141     3.946497     3.938854     3.931211
      3.923568     3.915925     3.908281     3.900638     3.892995     3.885352     3.877708     3.870065     3.862422     3.854779
      3.847136     3.839492     3.831849     3.824206     3.816563     3.808919     3.801276     3.793633     3.785990     3.778347
      3.770703     3.763060     3.755417     3.747774     3.740130     3.732487     3.724844     3.717201     3.709558     3.701914
      3.694271     3.686628     3.678985     3.671341     3.663698     3.656055     3.648412     3.640769     3.633125     3.625482
      3.617839     3.610196     3.602552     3.594909     3.587266     3.579623     3.571980     3.564336     3.556693     3.549050
      3.541407     3.533763     3.526120     3.518477     3.510834     3.503191     3.495547     3.487904     3.480261     3.472618
      3.464974     3.457331     3.449688     3.442045     3.434402     3.426758     3.419115     3.411472     3.403829     3.396185
      3.388542     3.380899     3.373256     3.365613     3.357969     3.350326     3.342683     3.335040     3.327396     3.319753
      3.312110     3.304467     3.296824     3.289180     3.281537     3.273894     3.266251     3.258607     3.250964     3.243321
      3.235678     3.228034     3.220391     3.212748     3.205105     3.197462     3.189818     3.182175     3.174532     3.166889
      3.159245     3.151602     3.143959     3.136316     3.128673     3.121029     3.113386     3.105743     3.098100     3.090456
      3.082813     3.075170     3.067527     3.059884     3.052240     3.044597     3.036954     3.029311     3.021667     3.014024
      3.006381     2.998738     2.991095     2.983451     2.975808     2.968165     2.960522     2.952878     2.945235     2.937592
      2.929949     2.922306     2.914662     2.907019     2.899376     2.891733     2.884089     2.876446     2.868803     2.861160
      2.853517     2.845873     2.838230     2.830587     2.822944     2.815300     2.807657     2.800014     2.792371     2.784728
      2.777084     2.769441     2.761798     2.754155     2.746511     2.738868     2.731225     2.723582     2.715939     2.708295
      2.700652     2.693009     2.685366     2.677722     2.670079     2.662436     2.654793     2.647150     2.639506     2.631863
      2.624220     2.616577     2.608933     2.601290     2.593647     2.586004     2.578361     2.570717     2.563074     2.555431
      2.547788     2.540144     2.532501     2.524858     2.517215     2.509572     2.501928     2.494285     2.486642     2.478999
      2.471355     2.463712     2.456069     2.448426     2.440783     2.433139     2.425496     2.417853     2.410210     2.402566
      2.394923     2.387280     2.379637     2.371994     2.364350     2.356707     2.349064     2.341421     2.333777     2.326134
      2.318491     2.310848     2.303205     2.295561     2.287918     2.280275     2.272632     2.264988     2.257345     2.249702
      2.242059     2.234416     2.226772     2.219129     2.211486     2.203843     2.196199     2.188556     2.180913     2.173270
      2.165627     2.157983     2.150340     2.142697     2.135054     2.127410     2.119767     2.112124     2.104481     2.096838
      2.089194     2.081551     2.073908     2.066265     2.058621     2.050978     2.043335     2.035692     2.028049     2.020405
      2.012762     2.005119     1.997476     1.989833     1.982190     1.974546     1.966903     1.959260     1.951617     1.943974
      1.936331     1.928688     1.921045     1.913402     1.905759     1.898115     1.890472     1.882829     1.875186     1.867543
      1.859900     1.852257     1.844614     1.836971     1.829327     1.821684     1.814041     1.806398     1.798755     1.791112
      1.783469     1.775826     1.768183     1.760540     1.752896     1.745253     1.737610     1.729967     1.722324     1.714681
      1.707038     1.699395     1.691752     1.684108     1.676465     1.668822     1.661179     1.653536     1.645893     1.638250
      1.630607     1.622964     1.615321     1.607677     1.600034     1.592391     1.584748     1.577105     1.569462     1.561819
      1.554176     1.546533     1.538890     1.531246     1.523603     1.515960     1.508317     1.500674     1.493031     1.485388
      1.477745     1.470102     1.462458     1.454815     1.447172     1.439529     1.431886     1.424243     1.416600     1.408957
      1.401314     1.393671     1.386027     1.378384     1.370741     1.363098     1.355455     1.347812     1.340169     1.332526
      1.324883     1.317240     1.309596     1.301953     1.294310     1.286667     1.279024     1.271381     1.263738     1.256095
      1.248452     1.240808     1.233165     1.225522     1.217879     1.210236     1.202593     1.194950     1.187307     1.179664
      1.172021     1.164377     1.156734     1.149091     1.141448     1.133805     1.126162     1.118519     1.110876     1.103233
      1.095590     1.087946     1.080303     1.072660     1.065017     1.057374     1.049731     1.042088     1.034445     1.026802
      1.019158     1.011515     1.003872     0.996229     0.988586     0.980943     0.973300     0.965657     0.958014     0.950371
      0.942727     0.935084     0.927441     0.919798     0.912155     0.904512     0.896869     0.889226     0.881583     0.873940
      0.866296     0.858653     0.851010     0.843367     0.835724     0.828081     0.820438     0.812795     0.805152     0.797508
      0.789865     0.782222     0.774579     0.766936     0.759293     0.751650     0.744007     0.736364     0.728721     0.721077
      0.713434     0.705791     0.698148     0.690505     0.682862     0.675219     0.667576     0.659933     0.652290     0.644646
      0.637003     0.629360     0.621717     0.614074     0.606431     0.598788     0.591145     0.583502     0.575858     0.568215
      0.560572     0.552929     0.545286     0.537643     0.530000     0.522357     0.514714     0.507071     0.499427     0.491784
      0.484141     0.476498     0.468855     0.461212     0.453569     0.445925     0.438282     0.430639     0.422996     0.415353
      0.407710     0.400067     0.392424     0.384780     0.377137     0.369494     0.361851     0.354208     0.346565     0.338922
      0.331278     0.323635     0.315992     0.308349     0.300706     0.293063     0.285420     0.277777     0.270133     0.262490
      0.254847     0.247204     0.239561     0.231918     0.224275     0.216631     0.208988     0.201345
 NY phased data points follow
   2.10345E+00  1.76882E+01  3.10667E+01  2.75871E+01 -1.04752E+01 -8.49598E+00 -3.39129E+00  3.02303E+01  2.82001E+01  1.90272E+01
  -5.17195E-01  3.46871E+00  1.29325E+01  3.63830E+01  2.57957E+01  1.42558E+01  1.06688E+01  3.85273E+00  1.03745E+01  6.87910E+00
   1.33957E+01  1.23641E+01  1.21264E+01  8.97297E+00  1.14074E+01  1.11626E+01 -3.11956E+00  1.95049E+01  1.29786E+01  1.96041E+01
   2.33295E+01  2.61663E+01  4.32345E+00  1.77017E+01  8.30515E+00  2.34638E+00  1.57063E+01  5.51102E+00  1.31831E+01  2.29494E+01
   1.03035E+01  2.77598E+00  4.42598E+00  8.52483E+00  2.14422E+01  7.17499E+00  1.11241E+01  1.74259E+01  1.98780E+01  9.03658E+00
   1.10919E+01  8.65012E+00  8.05324E+00  7.56875E+00 -1.52510E+00  6.14571E-01  1.00793E+01  1.08500E+01  5.68578E+00  1.40076E+01
   1.72960E+01  1.18883E+01  8.78084E+00  9.57174E+00  3.86878E+00  6.33928E+00  6.63519E+00  7.30865E+00  5.82700E+00 -8.94625E+00
   5.74772E-01 -1.67560E+00  7.84112E+00  2.92114E+01  1.67838E+01  1.51039E+01  1.02922E+01  1.49928E+01 -2.17278E+00  1.45776E+01
   6.07951E+00  9.37922E+00  1.83131E+00  4.98052E+00  1.15126E+01  8.41376E+00 -1.86234E+00  1.02072E+01  1.15537E+01  1.22240E+01
   2.34091E+00  1.22952E+01  4.00759E+00  1.57460E+01  1.50416E+01  2.27392E+00 -5.45855E+00  6.55635E+00  1.44813E+00  5.54470E+00
   5.42306E+00  2.03499E+01  4.17935E+00 -5.14874E-01  3.15577E+00  5.88659E+00 -2.43064E+00  1.25717E+01  4.30846E+00 -2.52005E+00
  -5.21979E+00  8.49389E+00  9.90740E+00  2.03234E+01  1.38314E+01  8.12794E+00  1.48295E+01  7.14224E+00  1.06289E+01  1.00642E+00
   2.46099E+00 -3.53913E+00  8.18690E-01 -5.93139E+00  4.65380E+00  5.49326E+00  1.52370E+01  1.10341E+01  1.07308E+01  2.40038E+01
   8.95360E-01  7.46749E+00 -5.74972E+00  2.61194E+00  9.88509E+00 -8.46909E-01 -1.72996E+00  1.04248E+01  8.78193E+00  6.33204E+00
   3.05274E+00  6.30981E+00  1.33644E+01 -1.49794E+00  6.25975E+00  7.87283E+00  1.37226E+00 -4.27887E+00 -5.47061E+00  4.55435E+00
  -5.45710E+00 -9.32330E+00 -1.43914E+00 -2.88692E+00 -9.92212E+00  2.02280E+00  1.83274E+00  7.54187E+00 -2.25395E-01  4.02805E+00
   6.85729E-01  1.22290E+01  2.78006E+00  1.61287E+00  1.78978E+00 -7.17941E+00  3.40241E+00 -2.06821E+00  8.55652E+00 -4.09532E-01
   2.50355E+00 -5.34901E+00 -3.40499E+00  8.09622E-01 -1.87700E+00  4.75862E+00 -1.96314E+01  1.76486E+01 -3.12217E+00  1.37941E-01
   4.77617E+00 -4.85418E+00  1.98639E+01  2.79106E+00 -5.90592E+00 -1.54567E+01 -6.54959E+00  7.14485E+00  1.21481E+00 -9.40191E-03
   5.68219E+00  9.31496E+00  3.31332E+00 -3.77998E+00  2.71105E+00  5.29394E+00  7.90543E+00 -7.20532E-01  1.04578E+00 -4.77544E+00
  -3.04881E+00  3.69407E+00  8.10134E+00 -6.23431E+00  1.24566E+00  7.80011E+00  1.06420E+01  5.80042E+00  4.74244E+00 -4.11216E+00
   9.58304E+00 -2.35560E+00  6.23016E+00 -2.49837E+00  1.01287E+00  2.43016E+00  8.46142E+00  6.85932E+00 -7.96174E+00  6.58783E+00
   2.98866E+00  1.74021E+00 -9.99247E+00 -9.14450E+00 -4.49957E+00  6.85374E+00  2.06093E+00  3.76503E+00 -1.93953E+00 -7.24589E+00
  -6.06630E+00  2.55844E+00 -1.81879E+00  1.28475E+00  8.40778E+00  9.63194E+00  2.27706E+00  2.57541E+00  3.01530E+00  1.55078E+00
  -6.58040E+00 -2.18006E+00  4.14734E+00 -1.59835E+00  5.64057E-01 -3.32145E+00 -1.49461E+00  6.82020E+00 -1.01380E+01 -2.86794E+00
   3.46644E+00  3.01164E+00  2.23535E+00 -3.60697E+00  3.88873E+00 -3.24878E+00  1.32198E+01  1.63902E+01  7.29865E+00 -1.89803E+00
   1.82628E+01  1.42171E+01  8.42237E+00  7.16599E+00  1.10038E+01  6.70451E+00  3.47814E+00  2.69136E+00 -1.15524E+01  9.17828E-01
   2.60041E+00  1.68116E+00 -1.45487E+01 -3.85799E+00 -1.90451E+00 -9.09205E-01 -2.36962E+00  1.08195E-01  2.68913E+00 -2.24048E+00
  -9.72416E+00 -7.87166E+00 -5.28578E+00 -3.33503E+00  4.62621E+00 -2.42950E+00 -7.64344E+00  4.27578E+00 -5.76631E+00 -7.76549E+00
  -8.02925E+00  3.13226E+00 -1.14871E+01 -2.02025E+00  6.27639E+00  1.80699E+00 -1.35319E+01  8.81351E+00  6.32659E+00  4.98058E+00
   5.06334E+00  1.17682E+01  1.04451E+01  5.86584E+00 -4.37185E+00  1.38275E+01  2.03258E+00  8.13317E+00  2.60166E+00  9.86094E+00
   2.15679E+01  1.30453E+01  1.02068E+01  2.03696E+01  9.25572E+00  1.19844E+01  2.04819E+00  4.66548E+00  6.20724E+00  8.83022E+00
   2.52841E+00 -6.66950E-02  8.48160E+00 -8.98758E+00 -1.15524E+00  3.56725E+00 -1.52036E+00 -8.16699E+00  5.23582E+00  6.36218E+00
  -3.12041E+00  5.12705E+00  2.81608E+00 -6.31012E-02  1.84717E+00 -6.59372E+00  5.66038E+00 -2.66684E+00  6.58640E+00  6.06411E+00
  -9.71936E+00  1.19734E+01  4.44148E+00 -4.43370E+00 -3.15112E+00  2.85539E-02  1.63573E+01 -1.08120E+01 -4.18601E+00 -3.01886E+00
   1.51225E+01 -2.41091E+00  5.15535E+00  2.76621E+01  1.18063E+01  9.48587E+00  6.03762E+00  1.08706E+01  1.24635E+01  1.20833E+01
   5.99660E+00 -5.41781E-02  2.23366E+01  5.00942E+00  1.57323E+01  6.96049E+00  7.26545E-01  1.87744E+01  1.05467E+01  1.11405E+00
   1.41718E+00  2.64912E+00  7.76000E+00  6.06119E+00  2.73939E-01 -5.40166E+00 -1.09624E+01 -1.51480E+01 -5.54241E+00 -1.81504E+01
  -3.04016E+00 -5.87899E+00 -8.69248E+00  1.36657E-01  7.75796E+00  6.67149E+00 -1.47258E+01 -1.21266E+01 -1.35018E+01 -4.69137E+00
   5.44084E+00  1.16621E-01 -1.61406E+01  6.09216E+00 -1.76364E+00 -6.33546E+00  2.22339E+00 -5.38159E+00 -1.17042E+01 -3.49452E+00
  -4.02938E+00 -1.03514E+01 -3.43768E+00  4.96089E+00 -4.59525E-01  2.09495E+00  3.43953E+00  2.90177E+00 -4.26355E+00 -3.55200E+00
  -1.33156E+01 -1.02802E+00 -4.02264E+00 -9.78715E+00 -2.04864E+01 -1.41445E+01  6.31768E+00  8.59757E+00 -7.36291E+00 -2.14698E-01
   1.20991E+01 -3.91257E+00  8.70499E+00  4.18092E+00 -3.20926E+00  5.99959E+00  4.87475E+00 -1.54288E+01  2.91650E+00  6.08693E+00
  -3.13510E-01 -1.09189E+01 -8.13467E+00  1.58115E+00  2.43283E+00 -4.82372E+00 -1.71491E+00  7.30403E+00  8.96842E+00 -3.28713E+00
  -6.89607E+00 -9.94068E+00  5.05506E-02 -3.26233E+00 -1.43619E+01 -9.90282E+00 -9.27352E+00 -2.46646E+00 -7.31511E-01  6.67986E+00
   6.25453E+00  6.32434E+00  5.22832E+00  7.79511E+00  6.26649E+00 -1.01835E+01  4.02690E-02  2.07426E+00 -6.19255E+00 -7.16379E+00
  -1.44095E+01 -7.25724E+00 -2.75631E+00  1.07463E+01  1.07777E+01 -1.82009E+01 -8.67178E+00 -4.07009E-01  7.35176E-01 -7.41070E+00
  -1.02914E+01 -1.80189E+00  4.83015E+00  1.01962E+01 -2.51720E+00 -2.15422E+00  1.00500E+01 -1.80079E+00  1.65380E+00  1.04913E+01
  -9.30730E+00 -6.11142E+00 -1.23867E+01  3.20593E-01 -4.29068E+00 -5.99634E+00 -1.31435E+01 -2.26913E-01 -3.02818E+00  5.75683E+00
  -6.28592E+00  7.50676E+00 -5.83477E+00  4.61209E+00  1.22301E+01 -7.14933E+00 -2.45999E+00  5.99977E+00
 NY points of the fit to the data follow
   9.40587E+00  8.50205E+00  7.93210E+00  7.51550E+00  7.10093E+00  6.94203E+00  7.60330E+00  8.96935E+00  1.04009E+01  1.15103E+01
   1.24167E+01  1.32438E+01  1.36602E+01  1.32346E+01  1.20503E+01  1.06351E+01  9.42223E+00  8.56416E+00  7.95309E+00  7.51098E+00
   7.30324E+00  7.30711E+00  7.22036E+00  6.90233E+00  7.30701E+00  8.97534E+00  1.12588E+01  1.33085E+01  1.50234E+01  1.66747E+01
   1.79117E+01  1.79971E+01  1.68427E+01  1.50763E+01  1.31762E+01  1.12972E+01  9.58228E+00  8.24631E+00  7.38951E+00  6.75627E+00
   6.07229E+00  5.73160E+00  6.62270E+00  8.95413E+00  1.18147E+01  1.41831E+01  1.58173E+01  1.68581E+01  1.70531E+01  1.58554E+01
   1.32890E+01  1.02054E+01  7.46553E+00  5.52409E+00  4.62536E+00  4.80352E+00  5.88310E+00  7.36391E+00  8.71208E+00  9.67611E+00
   1.01570E+01  1.00809E+01  9.46957E+00  8.52241E+00  7.52267E+00  6.68766E+00  6.27107E+00  6.42425E+00  7.02558E+00  7.76180E+00
   8.40606E+00  8.89416E+00  9.19047E+00  9.22390E+00  8.95416E+00  8.48369E+00  7.96864E+00  7.50013E+00  7.10075E+00  6.77513E+00
   6.59713E+00  6.48214E+00  6.19092E+00  5.54716E+00  4.62393E+00  3.62758E+00  2.68691E+00  1.84611E+00  1.24046E+00  1.06644E+00
   1.43502E+00  2.29100E+00  3.33876E+00  4.24995E+00  4.83204E+00  4.99995E+00  4.78884E+00  4.67814E+00  4.93446E+00  5.36077E+00
   5.76278E+00  6.17731E+00  6.71603E+00  7.20684E+00  7.27275E+00  6.77728E+00  5.97889E+00  5.17901E+00  4.52101E+00  4.03488E+00
   3.71320E+00  3.57873E+00  3.58780E+00  3.63857E+00  3.66477E+00  3.64172E+00  3.58220E+00  3.50912E+00  3.43517E+00  3.35637E+00
   3.17097E+00  3.35109E+00  4.71225E+00  7.02856E+00  9.39459E+00  1.12762E+01  1.27807E+01  1.40856E+01  1.48739E+01  1.45051E+01
   1.29153E+01  1.07184E+01  8.47078E+00  6.44867E+00  4.68209E+00  3.23417E+00  2.33201E+00  2.01572E+00  2.16820E+00  2.67086E+00
   3.37930E+00  4.10637E+00  4.65578E+00  4.89160E+00  4.81512E+00  4.54628E+00  4.19364E+00  3.83739E+00  3.52484E+00  3.24985E+00
   3.01225E+00  2.82138E+00  2.68394E+00  2.60065E+00  2.55983E+00  2.53499E+00  2.50892E+00  2.48163E+00  2.44780E+00  2.41464E+00
   2.37515E+00  2.31948E+00  2.26509E+00  2.23594E+00  2.22947E+00  2.22030E+00  2.18958E+00  2.14846E+00  2.12163E+00  2.10326E+00
   2.05577E+00  1.95665E+00  1.84084E+00  1.74914E+00  1.67779E+00  1.58079E+00  1.44340E+00  1.31098E+00  1.25319E+00  1.23678E+00
   1.17604E+00  1.03321E+00  8.43699E-01  6.88920E-01  6.52559E-01  8.08635E-01  1.21416E+00  1.83174E+00  2.52810E+00  3.18161E+00
   3.71263E+00  3.97663E+00  3.73430E+00  3.02558E+00  2.17785E+00  1.47911E+00  9.94601E-01  7.15800E-01  7.47035E-01  1.17554E+00
   1.89267E+00  2.60287E+00  3.10416E+00  3.40279E+00  3.51443E+00  3.41736E+00  3.11361E+00  2.67459E+00  2.21990E+00  1.83569E+00
   1.77359E+00  2.15361E+00  2.78751E+00  3.41183E+00  3.92727E+00  4.31805E+00  4.34040E+00  3.64836E+00  2.30196E+00  8.42708E-01
  -3.02767E-01 -1.03990E+00 -1.35958E+00 -1.15438E+00 -3.35112E-01  7.95946E-01  1.68841E+00  2.12123E+00  2.22464E+00  2.15841E+00
   1.97522E+00  1.81672E+00  1.98675E+00  2.54898E+00  3.19037E+00  3.57286E+00  3.61837E+00  3.30043E+00  2.53068E+00  1.38688E+00
   2.56446E-01 -4.69872E-01 -6.60900E-01 -3.77304E-01  2.68627E-01  1.11249E+00  1.88649E+00  2.35545E+00  2.44475E+00  2.23838E+00
   2.00078E+00  1.95849E+00  2.06399E+00  2.07955E+00  2.34315E+00  3.71139E+00  6.03265E+00  8.31049E+00  9.92514E+00  1.10771E+01
   1.20065E+01  1.23388E+01  1.15251E+01  9.67623E+00  7.48045E+00  5.45848E+00  3.77977E+00  2.46540E+00  1.56822E+00  1.11364E+00
   9.43136E-01  8.83768E-01  8.86009E-01  9.35144E-01  1.00641E+00  1.06362E+00  1.07981E+00  1.05228E+00  9.95920E-01  9.25272E-01
   8.50961E-01  7.85341E-01  7.40630E-01  7.19518E-01  7.15482E-01  7.20382E-01  7.29764E-01  7.42657E-01  7.58526E-01  7.77015E-01
   7.99380E-01  8.27960E-01  8.64165E-01  9.06216E-01  9.51096E-01  9.97486E-01  1.04508E+00  1.09372E+00  1.14297E+00  1.19193E+00
   1.23988E+00  1.28574E+00  1.32726E+00  1.36184E+00  1.38718E+00  1.40145E+00  1.40356E+00  1.39316E+00  1.37053E+00  1.33654E+00
   1.29223E+00  1.23895E+00  1.17834E+00  1.11211E+00  1.04213E+00  9.70425E-01  8.99075E-01  8.30084E-01  7.65188E-01  7.05485E-01
   6.53677E-01  6.31590E-01  6.44605E-01  6.57339E-01  6.38559E-01  5.89142E-01  5.24199E-01  4.41136E-01  3.12334E-01  1.43098E-01
   2.76164E-03 -5.74177E-02 -4.57058E-02  6.99904E-03  8.84396E-02  2.02302E-01  3.32382E-01  4.39630E-01  5.03653E-01  5.37645E-01
   5.66094E-01  6.11575E-01  6.93049E-01  8.32522E-01  1.05703E+00  1.39011E+00  1.85252E+00  2.46487E+00  3.24215E+00  4.18728E+00
   5.28503E+00  6.49753E+00  7.76288E+00  8.99805E+00  1.01067E+01  1.09908E+01  1.15652E+01  1.17704E+01  1.15830E+01  1.10195E+01
   1.01334E+01  9.00605E+00  7.73375E+00  6.41340E+00  5.13035E+00  3.94998E+00  2.91401E+00  2.04128E+00  1.33161E+00  7.71465E-01
   3.39706E-01  1.25390E-02 -2.32999E-01 -4.16972E-01 -5.55698E-01 -6.61688E-01 -7.44093E-01 -8.09350E-01 -8.61888E-01 -9.04710E-01
  -9.39839E-01 -9.68598E-01 -9.91830E-01 -1.01005E+00 -1.02361E+00 -1.03273E+00 -1.03757E+00 -1.03819E+00 -1.03464E+00 -1.02695E+00
  -1.01523E+00 -9.99634E-01 -9.80404E-01 -9.57830E-01 -9.32302E-01 -9.04329E-01 -8.74581E-01 -8.43844E-01 -8.13002E-01 -7.82998E-01
  -7.54848E-01 -7.29618E-01 -7.08404E-01 -6.92246E-01 -6.82080E-01 -6.78693E-01 -6.82725E-01 -6.94642E-01 -7.14715E-01 -7.42966E-01
  -7.79172E-01 -8.22884E-01 -8.73485E-01 -9.30215E-01 -9.92197E-01 -1.05844E+00 -1.12790E+00 -1.19954E+00 -1.27239E+00 -1.34554E+00
  -1.41821E+00 -1.48965E+00 -1.55927E+00 -1.62659E+00 -1.69130E+00 -1.75318E+00 -1.81212E+00 -1.86805E+00 -1.92099E+00 -1.97104E+00
  -2.01835E+00 -2.06310E+00 -2.10547E+00 -2.14562E+00 -2.18373E+00 -2.22001E+00 -2.25466E+00 -2.28785E+00 -2.31973E+00 -2.35040E+00
  -2.38000E+00 -2.40866E+00 -2.43650E+00 -2.46361E+00 -2.49005E+00 -2.51586E+00 -2.54113E+00 -2.56592E+00 -2.59031E+00 -2.61431E+00
  -2.63795E+00 -2.66124E+00 -2.68424E+00 -2.70700E+00 -2.72953E+00 -2.75183E+00 -2.77390E+00 -2.79577E+00 -2.81748E+00 -2.83905E+00
  -2.86048E+00 -2.88177E+00 -2.90291E+00 -2.92393E+00 -2.94486E+00 -2.96571E+00 -2.98647E+00 -3.00711E+00 -3.02767E+00 -3.04815E+00
  -3.06860E+00 -3.08898E+00 -3.10929E+00 -3.12951E+00 -3.14968E+00 -3.16981E+00 -3.18992E+00 -3.20998E+00 -3.22998E+00 -3.24992E+00
  -3.26983E+00 -3.28973E+00 -3.30962E+00 -3.32946E+00 -3.34926E+00 -3.36901E+00 -3.38877E+00 -3.40852E+00 -3.42827E+00 -3.44797E+00
  -3.46764E+00 -3.48729E+00 -3.50697E+00 -3.52665E+00 -3.54631E+00 -3.56594E+00 -3.58556E+00 -3.60519E+00
 NY background values follow
     5.467E+00    5.449E+00    5.431E+00    5.413E+00    5.395E+00    5.377E+00    5.358E+00    5.340E+00    5.322E+00    5.304E+00
     5.286E+00    5.267E+00    5.249E+00    5.231E+00    5.213E+00    5.195E+00    5.176E+00    5.158E+00    5.140E+00    5.122E+00
     5.104E+00    5.085E+00    5.067E+00    5.049E+00    5.031E+00    5.013E+00    4.994E+00    4.976E+00    4.958E+00    4.940E+00
     4.921E+00    4.903E+00    4.885E+00    4.867E+00    4.848E+00    4.830E+00    4.812E+00    4.794E+00    4.775E+00    4.757E+00
     4.739E+00    4.720E+00    4.702E+00    4.684E+00    4.666E+00    4.647E+00    4.629E+00    4.611E+00    4.593E+00    4.574E+00
     4.556E+00    4.538E+00    4.519E+00    4.501E+00    4.483E+00    4.464E+00    4.446E+00    4.428E+00    4.409E+00    4.391E+00
     4.373E+00    4.355E+00    4.336E+00    4.318E+00    4.300E+00    4.281E+00    4.263E+00    4.245E+00    4.226E+00    4.208E+00
     4.189E+00    4.171E+00    4.153E+00    4.134E+00    4.116E+00    4.098E+00    4.079E+00    4.061E+00    4.043E+00    4.024E+00
     4.006E+00    3.988E+00    3.969E+00    3.951E+00    3.932E+00    3.914E+00    3.896E+00    3.877E+00    3.859E+00    3.841E+00
     3.822E+00    3.804E+00    3.785E+00    3.767E+00    3.749E+00    3.730E+00    3.712E+00    3.693E+00    3.675E+00    3.657E+00
     3.638E+00    3.620E+00    3.601E+00    3.583E+00    3.564E+00    3.546E+00    3.528E+00    3.509E+00    3.491E+00    3.472E+00
     3.454E+00    3.435E+00    3.417E+00    3.399E+00    3.380E+00    3.362E+00    3.343E+00    3.325E+00    3.306E+00    3.288E+00
     3.270E+00    3.251E+00    3.233E+00    3.214E+00    3.196E+00    3.177E+00    3.159E+00    3.140E+00    3.122E+00    3.103E+00
     3.085E+00    3.066E+00    3.048E+00    3.030E+00    3.011E+00    2.993E+00    2.974E+00    2.956E+00    2.937E+00    2.919E+00
     2.900E+00    2.882E+00    2.863E+00    2.845E+00    2.826E+00    2.808E+00    2.789E+00    2.771E+00    2.752E+00    2.734E+00
     2.715E+00    2.697E+00    2.678E+00    2.660E+00    2.641E+00    2.623E+00    2.604E+00    2.586E+00    2.567E+00    2.549E+00
     2.530E+00    2.512E+00    2.493E+00    2.475E+00    2.456E+00    2.438E+00    2.419E+00    2.401E+00    2.382E+00    2.363E+00
     2.345E+00    2.326E+00    2.308E+00    2.289E+00    2.271E+00    2.252E+00    2.234E+00    2.215E+00    2.197E+00    2.178E+00
     2.160E+00    2.141E+00    2.122E+00    2.104E+00    2.085E+00    2.067E+00    2.048E+00    2.030E+00    2.011E+00    1.993E+00
     1.974E+00    1.956E+00    1.937E+00    1.918E+00    1.900E+00    1.881E+00    1.863E+00    1.844E+00    1.826E+00    1.807E+00
     1.788E+00    1.770E+00    1.751E+00    1.733E+00    1.714E+00    1.696E+00    1.677E+00    1.658E+00    1.640E+00    1.621E+00
     1.603E+00    1.584E+00    1.566E+00    1.547E+00    1.528E+00    1.510E+00    1.491E+00    1.473E+00    1.454E+00    1.436E+00
     1.417E+00    1.398E+00    1.380E+00    1.361E+00    1.343E+00    1.324E+00    1.305E+00    1.287E+00    1.268E+00    1.250E+00
     1.231E+00    1.212E+00    1.194E+00    1.175E+00    1.157E+00    1.138E+00    1.119E+00    1.101E+00    1.082E+00    1.064E+00
     1.045E+00    1.026E+00    1.008E+00    9.893E-01    9.707E-01    9.521E-01    9.335E-01    9.149E-01    8.962E-01    8.776E-01
     8.590E-01    8.404E-01    8.218E-01    8.032E-01    7.846E-01    7.660E-01    7.474E-01    7.288E-01    7.101E-01    6.915E-01
     6.729E-01    6.543E-01    6.357E-01    6.171E-01    5.985E-01    5.798E-01    5.612E-01    5.426E-01    5.240E-01    5.054E-01
     4.868E-01    4.681E-01    4.495E-01    4.309E-01    4.123E-01    3.937E-01    3.751E-01    3.564E-01    3.378E-01    3.192E-01
     3.006E-01    2.819E-01    2.633E-01    2.447E-01    2.261E-01    2.075E-01    1.888E-01    1.702E-01    1.516E-01    1.330E-01
     1.143E-01    9.572E-02    7.709E-02    5.847E-02    3.984E-02    2.122E-02    2.594E-03   -1.603E-02   -3.466E-02   -5.328E-02
    -7.191E-02   -9.053E-02   -1.092E-01   -1.278E-01   -1.464E-01   -1.650E-01   -1.837E-01   -2.023E-01   -2.209E-01   -2.395E-01
    -2.582E-01   -2.768E-01   -2.954E-01   -3.140E-01   -3.327E-01   -3.513E-01   -3.699E-01   -3.886E-01   -4.072E-01   -4.258E-01
    -4.444E-01   -4.631E-01   -4.817E-01   -5.003E-01   -5.189E-01   -5.376E-01   -5.562E-01   -5.748E-01   -5.934E-01   -6.121E-01
    -6.307E-01   -6.493E-01   -6.679E-01   -6.866E-01   -7.052E-01   -7.238E-01   -7.424E-01   -7.611E-01   -7.797E-01   -7.983E-01
    -8.169E-01   -8.355E-01   -8.542E-01   -8.728E-01   -8.914E-01   -9.100E-01   -9.287E-01   -9.473E-01   -9.659E-01   -9.845E-01
    -1.003E+00   -1.022E+00   -1.040E+00   -1.059E+00   -1.078E+00   -1.096E+00   -1.115E+00   -1.133E+00   -1.152E+00   -1.171E+00
    -1.189E+00   -1.208E+00   -1.227E+00   -1.245E+00   -1.264E+00   -1.282E+00   -1.301E+00   -1.320E+00   -1.338E+00   -1.357E+00
    -1.375E+00   -1.394E+00   -1.413E+00   -1.431E+00   -1.450E+00   -1.468E+00   -1.487E+00   -1.506E+00   -1.524E+00   -1.543E+00
    -1.562E+00   -1.580E+00   -1.599E+00   -1.617E+00   -1.636E+00   -1.655E+00   -1.673E+00   -1.692E+00   -1.710E+00   -1.729E+00
    -1.748E+00   -1.766E+00   -1.785E+00   -1.803E+00   -1.822E+00   -1.840E+00   -1.859E+00   -1.878E+00   -1.896E+00   -1.915E+00
    -1.933E+00   -1.952E+00   -1.971E+00   -1.989E+00   -2.008E+00   -2.026E+00   -2.045E+00   -2.064E+00   -2.082E+00   -2.101E+00
    -2.119E+00   -2.138E+00   -2.156E+00   -2.175E+00   -2.194E+00   -2.212E+00   -2.231E+00   -2.249E+00   -2.268E+00   -2.286E+00
    -2.305E+00   -2.324E+00   -2.342E+00   -2.361E+00   -2.379E+00   -2.398E+00   -2.416E+00   -2.435E+00   -2.454E+00   -2.472E+00
    -2.491E+00   -2.509E+00   -2.528E+00   -2.546E+00   -2.565E+00   -2.584E+00   -2.602E+00   -2.621E+00   -2.639E+00   -2.658E+00
    -2.676E+00   -2.695E+00   -2.713E+00   -2.732E+00   -2.750E+00   -2.769E+00   -2.788E+00   -2.806E+00   -2.825E+00   -2.843E+00
    -2.862E+00   -2.880E+00   -2.899E+00   -2.917E+00   -2.936E+00   -2.954E+00   -2.973E+00   -2.991E+00   -3.010E+00   -3.028E+00
    -3.047E+00   -3.065E+00   -3.084E+00   -3.103E+00   -3.121E+00   -3.140E+00   -3.158E+00   -3.177E+00   -3.195E+00   -3.214E+00
    -3.232E+00   -3.251E+00   -3.269E+00   -3.288E+00   -3.306E+00   -3.325E+00   -3.343E+00   -3.362E+00   -3.380E+00   -3.399E+00
    -3.417E+00   -3.436E+00   -3.454E+00   -3.473E+00   -3.491E+00   -3.510E+00   -3.528E+00   -3.547E+00   -3.565E+00   -3.583E+00
    -3.602E+00   -3.620E+00   -3.639E+00   -3.657E+00   -3.676E+00   -3.694E+00   -3.713E+00   -3.731E+00
 Ala      Conc. = 2.41E+01
