 LCModel (Version 6.3-1L) Copyright: S.W. Provencher.          Ref.: Magn. Reson. Med. 30:672-679 (1993).                
 Slice#2 Row#6 Col#11  PD_05_press_2_raw_act
 36 lines in following concentration table = NCONC+1
    Conc.  %SD /Cr+PCr  Metabolite                                         
  678.394  47%   0.696 Ala                                                 
    0.000 999%   0.000 Asp                                                 
    0.000 999%   0.000 Cr                                                  
  974.848  11%   1.000 PCr                                                 
   86.081 278% 8.8E-02 GABA                                                
  123.525 187%   0.127 Glc                                                 
 1.27E+03  54%   1.300 Gln                                                 
 3.10E+03  25%   3.184 Glu                                                 
  260.311  17%   0.267 GPC                                                 
    0.000 999%   0.000 PCh                                                 
  315.291  54%   0.323 GSH                                                 
  381.194 138%   0.391 Ins                                                 
  362.556 101%   0.372 Lac                                                 
 5.03E+03   8%   5.155 NAA                                                 
  125.283 344%   0.129 NAAG                                                
  196.642  26%   0.202 Scyllo                                              
  517.385  65%   0.531 Tau                                                 
  762.033  24%   0.782 -CrCH2                                              
  260.311  17%   0.267 GPC+PCh                                             
 5.15E+03   4%   5.284 NAA+NAAG                                            
  974.848  11%   1.000 Cr+PCr                                              
 4.37E+03  28%   4.483 Glu+Gln                                             
 3.02E+03  34%   3.094 Lip13a                                              
    0.000 999%   0.000 Lip13b                                              
  539.558  75%   0.553 Lip09                                               
 2.41E+03  20%   2.473 MM09                                                
  644.303  41%   0.661 Lip20                                               
 5.55E+03  13%   5.689 MM20                                                
  721.692  46%   0.740 MM12                                                
 2.56E+03  29%   2.627 MM14                                                
  982.373  36%   1.008 MM17                                                
 3.02E+03  34%   3.094 Lip13a+Lip13b                                       
 6.30E+03  10%   6.461 MM14+Lip13a+Lip13b+MM12                             
 2.95E+03  11%   3.027 MM09+Lip09                                          
 6.19E+03  11%   6.350 MM20+Lip20                                          
   6 lines in following misc. output table
  FWHM = 0.069 ppm    S/N =  11                                            
  Data shift = 0.008 ppm                                                   
  Ph: -87 deg     -30.5 deg/ppm                                            
  alphaB,S = 8.5E+01,   4.1E+02                                            
   14 spline knots.   Ns = 9(1)                                            
   2 inflections.     1 extrema                                            
  498 points on ppm-axis = NY
      4.000000     3.992357     3.984714     3.977070     3.969427     3.961784     3.954141     3.946497     3.938854     3.931211
      3.923568     3.915925     3.908281     3.900638     3.892995     3.885352     3.877708     3.870065     3.862422     3.854779
      3.847136     3.839492     3.831849     3.824206     3.816563     3.808919     3.801276     3.793633     3.785990     3.778347
      3.770703     3.763060     3.755417     3.747774     3.740130     3.732487     3.724844     3.717201     3.709558     3.701914
      3.694271     3.686628     3.678985     3.671341     3.663698     3.656055     3.648412     3.640769     3.633125     3.625482
      3.617839     3.610196     3.602552     3.594909     3.587266     3.579623     3.571980     3.564336     3.556693     3.549050
      3.541407     3.533763     3.526120     3.518477     3.510834     3.503191     3.495547     3.487904     3.480261     3.472618
      3.464974     3.457331     3.449688     3.442045     3.434402     3.426758     3.419115     3.411472     3.403829     3.396185
      3.388542     3.380899     3.373256     3.365613     3.357969     3.350326     3.342683     3.335040     3.327396     3.319753
      3.312110     3.304467     3.296824     3.289180     3.281537     3.273894     3.266251     3.258607     3.250964     3.243321
      3.235678     3.228034     3.220391     3.212748     3.205105     3.197462     3.189818     3.182175     3.174532     3.166889
      3.159245     3.151602     3.143959     3.136316     3.128673     3.121029     3.113386     3.105743     3.098100     3.090456
      3.082813     3.075170     3.067527     3.059884     3.052240     3.044597     3.036954     3.029311     3.021667     3.014024
      3.006381     2.998738     2.991095     2.983451     2.975808     2.968165     2.960522     2.952878     2.945235     2.937592
      2.929949     2.922306     2.914662     2.907019     2.899376     2.891733     2.884089     2.876446     2.868803     2.861160
      2.853517     2.845873     2.838230     2.830587     2.822944     2.815300     2.807657     2.800014     2.792371     2.784728
      2.777084     2.769441     2.761798     2.754155     2.746511     2.738868     2.731225     2.723582     2.715939     2.708295
      2.700652     2.693009     2.685366     2.677722     2.670079     2.662436     2.654793     2.647150     2.639506     2.631863
      2.624220     2.616577     2.608933     2.601290     2.593647     2.586004     2.578361     2.570717     2.563074     2.555431
      2.547788     2.540144     2.532501     2.524858     2.517215     2.509572     2.501928     2.494285     2.486642     2.478999
      2.471355     2.463712     2.456069     2.448426     2.440783     2.433139     2.425496     2.417853     2.410210     2.402566
      2.394923     2.387280     2.379637     2.371994     2.364350     2.356707     2.349064     2.341421     2.333777     2.326134
      2.318491     2.310848     2.303205     2.295561     2.287918     2.280275     2.272632     2.264988     2.257345     2.249702
      2.242059     2.234416     2.226772     2.219129     2.211486     2.203843     2.196199     2.188556     2.180913     2.173270
      2.165627     2.157983     2.150340     2.142697     2.135054     2.127410     2.119767     2.112124     2.104481     2.096838
      2.089194     2.081551     2.073908     2.066265     2.058621     2.050978     2.043335     2.035692     2.028049     2.020405
      2.012762     2.005119     1.997476     1.989833     1.982190     1.974546     1.966903     1.959260     1.951617     1.943974
      1.936331     1.928688     1.921045     1.913402     1.905759     1.898115     1.890472     1.882829     1.875186     1.867543
      1.859900     1.852257     1.844614     1.836971     1.829327     1.821684     1.814041     1.806398     1.798755     1.791112
      1.783469     1.775826     1.768183     1.760540     1.752896     1.745253     1.737610     1.729967     1.722324     1.714681
      1.707038     1.699395     1.691752     1.684108     1.676465     1.668822     1.661179     1.653536     1.645893     1.638250
      1.630607     1.622964     1.615321     1.607677     1.600034     1.592391     1.584748     1.577105     1.569462     1.561819
      1.554176     1.546533     1.538890     1.531246     1.523603     1.515960     1.508317     1.500674     1.493031     1.485388
      1.477745     1.470102     1.462458     1.454815     1.447172     1.439529     1.431886     1.424243     1.416600     1.408957
      1.401314     1.393671     1.386027     1.378384     1.370741     1.363098     1.355455     1.347812     1.340169     1.332526
      1.324883     1.317240     1.309596     1.301953     1.294310     1.286667     1.279024     1.271381     1.263738     1.256095
      1.248452     1.240808     1.233165     1.225522     1.217879     1.210236     1.202593     1.194950     1.187307     1.179664
      1.172021     1.164377     1.156734     1.149091     1.141448     1.133805     1.126162     1.118519     1.110876     1.103233
      1.095590     1.087946     1.080303     1.072660     1.065017     1.057374     1.049731     1.042088     1.034445     1.026802
      1.019158     1.011515     1.003872     0.996229     0.988586     0.980943     0.973300     0.965657     0.958014     0.950371
      0.942727     0.935084     0.927441     0.919798     0.912155     0.904512     0.896869     0.889226     0.881583     0.873940
      0.866296     0.858653     0.851010     0.843367     0.835724     0.828081     0.820438     0.812795     0.805152     0.797508
      0.789865     0.782222     0.774579     0.766936     0.759293     0.751650     0.744007     0.736364     0.728721     0.721077
      0.713434     0.705791     0.698148     0.690505     0.682862     0.675219     0.667576     0.659933     0.652290     0.644646
      0.637003     0.629360     0.621717     0.614074     0.606431     0.598788     0.591145     0.583502     0.575858     0.568215
      0.560572     0.552929     0.545286     0.537643     0.530000     0.522357     0.514714     0.507071     0.499427     0.491784
      0.484141     0.476498     0.468855     0.461212     0.453569     0.445925     0.438282     0.430639     0.422996     0.415353
      0.407710     0.400067     0.392424     0.384780     0.377137     0.369494     0.361851     0.354208     0.346565     0.338922
      0.331278     0.323635     0.315992     0.308349     0.300706     0.293063     0.285420     0.277777     0.270133     0.262490
      0.254847     0.247204     0.239561     0.231918     0.224275     0.216631     0.208988     0.201345
 NY phased data points follow
  -7.36460E+00 -8.84772E+00 -4.68257E-01 -2.34200E+00  4.15093E+00  1.22367E+01 -5.08683E+00  6.24317E+00  2.85533E+00  1.26112E+01
   1.01932E+01  6.30249E+00 -3.08810E+00 -3.55813E+00 -7.13420E+00  2.03512E+00  1.52911E-01  2.70074E+00  9.18153E+00  1.53653E+00
   3.13171E-01  6.82163E+00 -1.22520E+00  5.77045E+00  1.05470E+01  4.66783E+00  2.28278E+01  9.62422E+00  5.44388E+00  9.72064E+00
  -1.79037E+00  4.59321E+00 -7.84174E+00  7.25295E+00 -1.80700E-01  1.27731E+01  1.30965E+01  5.48555E+00  6.30874E-01  8.77979E+00
   3.31254E+00  2.34299E+00  7.01790E+00  9.58502E+00  7.71455E+00  1.38051E+01  1.96147E+01  6.79664E+00  8.44028E+00  7.90297E+00
   3.71214E-01 -1.44818E+00 -1.34841E+00  4.46577E+00 -2.34748E+00  1.36384E+01  1.44326E+00  9.78466E+00  5.14992E+00  1.66358E+01
   7.76872E-01  3.64721E+00  4.10861E+00  2.21180E+00 -4.60512E+00  5.10850E-01  3.24439E+00 -1.94868E+00  6.25018E-01  8.23298E+00
   4.46205E+00  8.47160E+00  5.15120E+00 -1.79708E-01 -8.13166E+00  3.87580E+00  8.87608E+00  8.75644E+00 -1.62869E+00  1.25639E+01
   4.69549E+00  2.26009E+00  4.54756E+00  6.69795E+00  1.91634E+01  1.31963E+01  1.61496E+01  1.02935E+01  1.59676E+01  9.33522E+00
   1.19899E+01  1.16647E+01  1.00329E+01  7.28811E+00  1.53604E+01  1.43457E+01  1.08971E+01  1.16037E+01  1.18269E+01  1.99330E+01
   1.89312E+01  1.89927E+01  3.21047E+01  2.53404E+01  1.79357E+01  2.50104E+01  6.03429E+00  1.45654E+01  9.65201E+00  5.25508E+00
   6.71218E+00  6.14211E+00  2.80589E+00  6.39391E+00  9.65746E+00  5.51669E+00 -3.12283E+00  1.87995E+01  9.60121E+00  1.61621E+01
   1.12114E+01  9.84577E+00  2.05105E+01  6.71116E+00  2.08775E+01  3.41301E+01  3.46604E+01  4.94179E+01  3.17888E+01  3.51561E+01
   1.52870E+01  1.98484E+01  1.45984E+01  6.43590E+00  1.99021E+01  1.79172E+01  6.61175E+00  1.59736E+00  2.09169E+00  1.32167E+01
   2.24140E+00  9.58695E+00  1.66840E+00  1.21355E+01  1.22771E+01  3.79542E+00  1.06214E+01  4.09216E+00  1.01339E+01  1.46918E+01
   7.07672E+00  1.04708E+01  8.00092E+00  2.03117E+01  4.42781E+00  1.47308E+01  4.98329E+00  1.65160E+01  1.01668E+01  1.73533E+01
  -7.18440E+00  4.95901E+00 -1.35605E+00  1.21607E+01  5.20784E+00  3.46687E+00  2.24186E+00  4.17155E-01  6.10247E-02 -1.06185E+01
  -8.69753E+00 -1.15872E+01 -7.56415E+00 -2.17729E+01 -5.14508E+00 -6.73697E+00 -1.62085E+01 -1.17219E+01 -1.36618E+01 -2.05713E+00
  -6.68458E+00 -1.27119E+01 -1.22556E+00 -2.44891E+00  2.97683E+00 -5.01881E+00  1.48280E+00 -2.65747E+00  6.06957E+00 -8.91483E-01
  -4.28000E+00  1.19726E+00  5.54349E+00 -2.78419E+00  3.80371E+00  6.01329E+00 -1.29653E+01 -3.69615E+00 -4.78233E+00  1.52216E+00
   1.28146E-01 -1.12990E+00  4.80882E+00  4.91714E+00  7.56236E+00  1.17986E+01  2.10300E+01  9.80818E+00  1.16074E+00  9.37517E+00
   1.57531E+01  7.19808E-01  1.71048E+01  1.53836E+01  1.78905E+01  2.14309E+01  2.14291E+01  2.49553E+01  1.62895E+01  1.82646E+01
   9.99588E+00  9.57353E+00  1.09321E+01  8.12782E-01  5.96105E+00  3.04525E+00  1.92018E+01  1.45051E+01  1.35091E+01  1.57343E+01
   2.47373E+01  1.67768E+01  2.86689E+01  2.78066E+01  2.26724E+01  2.06705E+01  1.88995E+01  2.20444E+01  2.44069E+01  2.48790E+01
   1.97358E+01  1.92828E+01  1.03713E+01  5.93624E+00  2.11199E+01  1.52790E+01  2.08730E+01  2.39093E+01  3.34503E+01  3.98518E+01
   3.35354E+01  4.32225E+01  4.87137E+01  6.68529E+01  8.48600E+01  8.91927E+01  9.68203E+01  1.04294E+02  1.32040E+02  1.51774E+02
   1.69456E+02  1.65044E+02  1.54205E+02  1.26965E+02  1.01240E+02  8.34385E+01  7.63933E+01  4.18313E+01  3.66996E+01  3.40346E+01
   2.55781E+01  2.11009E+01  2.30258E+01  3.00437E+01  1.62494E+01  2.29132E+01  7.97484E+00  1.60382E+01  1.82116E+01  1.89458E+01
   1.60786E+01  1.27211E+01  1.41747E+01  7.09508E+00  1.51848E+01  8.94584E+00  1.87535E+01  1.60673E+01  1.00784E+01  1.48477E+00
   7.41069E+00  9.87218E+00  1.06327E+01  1.22082E+01  1.47364E+01  1.55007E+01  2.24374E+01  1.82747E+01  9.40718E+00  5.82362E+00
   1.75246E+01  1.11787E+01  1.95175E+01  2.61482E+01  1.59561E+01  1.02358E+01  1.89914E+01  1.15035E+01  1.40476E+01  1.00232E+01
   4.43321E+00  1.10934E+01  2.50734E+01  9.39930E+00  8.49080E+00  1.81711E+01  9.78826E+00  2.01934E+01  2.08003E+01  1.79487E+01
   1.23653E+01  1.70697E+01  1.82639E+01  8.39749E+00  2.21365E+01  1.01523E+01  1.62253E+01  1.46388E+01  1.07934E+01  1.55797E+01
   1.95238E+01  1.65471E+01  1.21148E+01  1.58181E+01  2.58813E+01  2.42888E+01  2.55839E+01  3.12817E+01  2.91631E+01  2.71474E+01
   3.69143E+01  2.69323E+01  4.03698E+01  3.66090E+01  3.23107E+01  3.88089E+01  4.02948E+01  4.55158E+01  3.14681E+01  3.71810E+01
   3.37658E+01  2.72735E+01  2.66218E+01  2.72859E+01  3.11598E+01  1.83022E+01  3.29346E+01  2.25593E+01  2.37347E+01  2.51769E+01
   3.02728E+01  2.36937E+01  2.51293E+01  2.19337E+01  2.98624E+01  2.73242E+01  2.39916E+01  1.56162E+01  2.30257E+01  2.61146E+01
   2.28996E+01  2.76925E+01  1.88234E+01  1.86624E+01  2.19387E+01  1.82242E+01  1.00289E+01  4.41083E+00  1.80330E+01  2.14126E+01
   1.42434E+01  1.14619E+01  1.34719E+01  7.90873E+00  1.61077E+01  1.00215E+01  2.78308E+01  1.32046E+01  1.75195E+01  1.69615E+01
   2.95781E+01  1.78699E+01  1.99955E+01  2.35773E+01  1.98764E+01  2.65681E+01  1.22452E+01  1.47527E+01  2.20446E+01  5.98880E+00
   1.13299E+01  2.64335E+01  2.45979E+01  2.25393E+01  2.30254E+01  2.25172E+01  3.77196E+01  2.06296E+01  3.30483E+01  2.95914E+01
   2.91151E+01  2.58304E+01  2.91330E+01  2.24281E+01  3.60165E+01  3.06410E+01  1.87358E+01  2.39166E+01  3.24158E+01  2.63168E+01
   2.17731E+01  1.93827E+01  1.77249E+01  1.99520E+01  1.54810E+01  1.16107E+01  1.53140E+01  1.33437E+01  1.27467E+01  1.49958E+01
   9.83280E+00  2.18744E+01  2.76917E+00  1.28117E+01  1.08302E+01  6.23307E+00  5.06466E+00  9.83473E+00  1.89507E+01  1.67676E+01
   9.51550E+00  1.13016E+01  1.89764E+01  1.71807E+01  3.81321E+00  1.07756E+01  5.51017E+00  1.26065E+01  1.08894E+01  1.04506E+01
   8.32945E+00  1.24940E+01  1.05532E+01  9.00228E+00  1.24851E+01  1.35367E+01  9.83634E+00  9.98234E+00  7.75423E+00  9.57798E+00
   1.52577E+01  1.46415E+01  1.21284E+01  1.19411E+01  1.11475E+01  1.82041E+00 -1.98660E-01  8.59490E+00  4.64411E+00  7.73511E+00
   9.92639E+00  1.16795E+01  1.21275E+01  3.05258E+00  8.55640E+00  5.79098E+00  2.02553E+01  1.15735E+00 -2.33726E+00  1.32600E+01
   6.56269E+00  7.06561E+00  1.49422E+01  7.69428E+00  1.41351E+01  5.70021E+00  6.73410E+00  1.35783E+01  1.05361E+01  1.39745E+01
   1.06018E+01 -7.31132E-01  6.02160E+00  9.28731E+00 -2.04862E+00  5.95103E+00  1.49255E+01  1.36527E+01
 NY points of the fit to the data follow
   1.55528E+00  1.93742E+00  2.40180E+00  2.94184E+00  3.56381E+00  4.24887E+00  4.93753E+00  5.51538E+00  5.84898E+00  5.84663E+00
   5.53246E+00  5.02057E+00  4.45250E+00  3.94576E+00  3.56789E+00  3.35703E+00  3.36055E+00  3.52884E+00  3.80972E+00  4.10727E+00
   4.32574E+00  4.53061E+00  4.76373E+00  5.02978E+00  5.33594E+00  5.68276E+00  6.09531E+00  6.55683E+00  7.10078E+00  7.78508E+00
   8.61315E+00  9.48407E+00  1.02237E+01  1.05778E+01  1.03306E+01  9.40521E+00  7.95001E+00  6.28834E+00  4.81338E+00  3.79818E+00
   3.36161E+00  3.46943E+00  3.92537E+00  4.54561E+00  5.18261E+00  5.72018E+00  6.06997E+00  6.15779E+00  5.97809E+00  5.57245E+00
   5.02455E+00  4.43854E+00  3.90470E+00  3.46273E+00  3.12123E+00  2.87617E+00  2.73215E+00  2.69453E+00  2.75224E+00  2.85933E+00
   2.98217E+00  3.07592E+00  3.11638E+00  3.12505E+00  3.12793E+00  3.13230E+00  3.17568E+00  3.29427E+00  3.45371E+00  3.61063E+00
   3.74946E+00  3.86931E+00  3.98689E+00  4.12675E+00  4.27318E+00  4.37214E+00  4.40363E+00  4.52714E+00  4.90044E+00  5.45594E+00
   6.14029E+00  6.94773E+00  7.91820E+00  9.07818E+00  1.03240E+01  1.14116E+01  1.20777E+01  1.21355E+01  1.15390E+01  1.04399E+01
   9.10451E+00  7.74253E+00  6.56618E+00  6.04886E+00  6.53171E+00  7.78748E+00  9.55849E+00  1.17103E+01  1.41529E+01  1.67863E+01
   1.94319E+01  2.17166E+01  2.31707E+01  2.34325E+01  2.24092E+01  2.03196E+01  1.75955E+01  1.46895E+01  1.19369E+01  9.55889E+00
   7.68030E+00  6.30880E+00  5.42050E+00  5.00787E+00  4.92907E+00  4.98514E+00  5.19095E+00  5.87101E+00  7.50631E+00  9.86497E+00
   1.25580E+01  1.53925E+01  1.83964E+01  2.16717E+01  2.51661E+01  2.84964E+01  3.10024E+01  3.20679E+01  3.14066E+01  2.91670E+01
   2.58473E+01  2.20493E+01  1.82594E+01  1.47996E+01  1.18655E+01  9.55809E+00  7.90822E+00  6.94813E+00  6.59513E+00  6.53819E+00
   6.61611E+00  6.74099E+00  6.84035E+00  6.86707E+00  6.80726E+00  6.66242E+00  6.44361E+00  6.18526E+00  5.92224E+00  5.68069E+00
   5.48100E+00  5.29194E+00  5.01108E+00  4.63994E+00  4.24267E+00  3.90354E+00  3.68321E+00  3.47042E+00  3.14968E+00  2.71472E+00
   2.25908E+00  1.90332E+00  1.71083E+00  1.63582E+00  1.54469E+00  1.28942E+00  7.71249E-01 -5.24576E-02 -1.06631E+00 -2.05393E+00
  -2.90699E+00 -3.65130E+00 -4.39937E+00 -5.10679E+00 -5.64631E+00 -5.90387E+00 -5.86219E+00 -5.65483E+00 -5.45140E+00 -5.24497E+00
  -4.95171E+00 -4.51248E+00 -3.90446E+00 -3.14870E+00 -2.28208E+00 -1.30926E+00 -1.73424E-01  1.16925E+00  2.71976E+00  4.28790E+00
   5.64872E+00  6.65659E+00  7.29229E+00  7.65333E+00  7.88049E+00  8.10806E+00  8.40529E+00  8.81135E+00  9.35494E+00  1.00405E+01
   1.08045E+01  1.14072E+01  1.17086E+01  1.15931E+01  1.08533E+01  9.46585E+00  7.61796E+00  5.70357E+00  4.19783E+00  3.25080E+00
   3.01664E+00  3.64334E+00  5.17055E+00  7.35720E+00  9.67058E+00  1.15917E+01  1.27660E+01  1.28939E+01  1.18305E+01  9.74421E+00
   7.09333E+00  4.51732E+00  2.71357E+00  2.15238E+00  3.00684E+00  5.14663E+00  8.09108E+00  1.12268E+01  1.40993E+01  1.63906E+01
   1.80175E+01  1.90524E+01  1.96416E+01  1.99228E+01  1.99978E+01  2.00748E+01  2.03568E+01  2.08617E+01  2.14513E+01  2.19625E+01
   2.22898E+01  2.24318E+01  2.24774E+01  2.25756E+01  2.29197E+01  2.36351E+01  2.47178E+01  2.61228E+01  2.77656E+01  2.95959E+01
   3.22020E+01  3.83679E+01  4.90067E+01  6.21270E+01  7.60483E+01  9.02411E+01  1.05087E+02  1.20812E+02  1.36433E+02  1.49451E+02
   1.56722E+02  1.55936E+02  1.46712E+02  1.30713E+02  1.10846E+02  9.00488E+01  7.04915E+01  5.35942E+01  4.01215E+01  3.01727E+01
   2.35731E+01  2.01540E+01  1.86198E+01  1.76838E+01  1.70147E+01  1.64904E+01  1.60257E+01  1.55528E+01  1.50569E+01  1.45428E+01
   1.40243E+01  1.35281E+01  1.30842E+01  1.27134E+01  1.24292E+01  1.22359E+01  1.21248E+01  1.20804E+01  1.20900E+01  1.21443E+01
   1.22369E+01  1.23627E+01  1.25158E+01  1.26931E+01  1.28908E+01  1.31023E+01  1.33201E+01  1.35366E+01  1.37438E+01  1.39344E+01
   1.41021E+01  1.42416E+01  1.43489E+01  1.44208E+01  1.44563E+01  1.44555E+01  1.44211E+01  1.43582E+01  1.42740E+01  1.41776E+01
   1.40797E+01  1.39920E+01  1.39279E+01  1.39017E+01  1.39302E+01  1.40341E+01  1.42440E+01  1.46188E+01  1.52531E+01  1.60467E+01
   1.67968E+01  1.74284E+01  1.79499E+01  1.83749E+01  1.86452E+01  1.86143E+01  1.82674E+01  1.77412E+01  1.71240E+01  1.65485E+01
   1.62140E+01  1.63498E+01  1.71477E+01  1.86897E+01  2.09012E+01  2.35464E+01  2.62913E+01  2.88326E+01  3.10015E+01  3.26757E+01
   3.37651E+01  3.43344E+01  3.45056E+01  3.44087E+01  3.41201E+01  3.36407E+01  3.30293E+01  3.23496E+01  3.15596E+01  3.06790E+01
   2.98027E+01  2.90676E+01  2.86021E+01  2.84714E+01  2.86489E+01  2.90199E+01  2.94137E+01  2.96654E+01  2.96705E+01  2.93795E+01
   2.87941E+01  2.79870E+01  2.70375E+01  2.60161E+01  2.49773E+01  2.39599E+01  2.30069E+01  2.21324E+01  2.13113E+01  2.05324E+01
   1.97938E+01  1.90967E+01  1.84432E+01  1.78360E+01  1.72775E+01  1.67699E+01  1.63156E+01  1.59162E+01  1.55732E+01  1.52880E+01
   1.50617E+01  1.48958E+01  1.47915E+01  1.47503E+01  1.47738E+01  1.48635E+01  1.50213E+01  1.52491E+01  1.55488E+01  1.59216E+01
   1.63685E+01  1.68897E+01  1.74843E+01  1.81498E+01  1.88823E+01  1.96755E+01  2.05212E+01  2.14083E+01  2.23237E+01  2.32517E+01
   2.41747E+01  2.50729E+01  2.59258E+01  2.67125E+01  2.74123E+01  2.80059E+01  2.84760E+01  2.88083E+01  2.89924E+01  2.90217E+01
   2.88946E+01  2.86136E+01  2.81861E+01  2.76231E+01  2.69396E+01  2.61531E+01  2.52829E+01  2.43494E+01  2.33731E+01  2.23738E+01
   2.13700E+01  2.03782E+01  1.94126E+01  1.84849E+01  1.76042E+01  1.67769E+01  1.60073E+01  1.52976E+01  1.46479E+01  1.40570E+01
   1.35226E+01  1.30416E+01  1.26103E+01  1.22247E+01  1.18808E+01  1.15743E+01  1.13015E+01  1.10586E+01  1.08424E+01  1.06496E+01
   1.04777E+01  1.03240E+01  1.01864E+01  1.00631E+01  9.95243E+00  9.85284E+00  9.76312E+00  9.68211E+00  9.60895E+00  9.54275E+00
   9.48286E+00  9.42853E+00  9.37928E+00  9.33456E+00  9.29405E+00  9.25729E+00  9.22402E+00  9.19382E+00  9.16652E+00  9.14181E+00
   9.11959E+00  9.09958E+00  9.08166E+00  9.06558E+00  9.05130E+00  9.03863E+00  9.02755E+00  9.01785E+00  9.00950E+00  9.00233E+00
   8.99635E+00  8.99144E+00  8.98760E+00  8.98468E+00  8.98268E+00  8.98147E+00  8.98112E+00  8.98151E+00  8.98267E+00  8.98445E+00
   8.98688E+00  8.98988E+00  8.99352E+00  8.99769E+00  9.00242E+00  9.00759E+00  9.01327E+00  9.01938E+00  9.02600E+00  9.03302E+00
   9.04048E+00  9.04827E+00  9.05649E+00  9.06507E+00  9.07410E+00  9.08346E+00  9.09321E+00  9.10328E+00
 NY background values follow
    -1.043E+00   -1.024E+00   -1.005E+00   -9.856E-01   -9.663E-01   -9.471E-01   -9.279E-01   -9.087E-01   -8.895E-01   -8.703E-01
    -8.511E-01   -8.318E-01   -8.126E-01   -7.934E-01   -7.742E-01   -7.550E-01   -7.358E-01   -7.165E-01   -6.973E-01   -6.781E-01
    -6.589E-01   -6.397E-01   -6.205E-01   -6.012E-01   -5.820E-01   -5.628E-01   -5.436E-01   -5.244E-01   -5.052E-01   -4.859E-01
    -4.667E-01   -4.475E-01   -4.283E-01   -4.091E-01   -3.899E-01   -3.706E-01   -3.514E-01   -3.322E-01   -3.130E-01   -2.938E-01
    -2.746E-01   -2.553E-01   -2.361E-01   -2.169E-01   -1.977E-01   -1.785E-01   -1.593E-01   -1.400E-01   -1.208E-01   -1.016E-01
    -8.240E-02   -6.318E-02   -4.397E-02   -2.475E-02   -5.535E-03    1.368E-02    3.290E-02    5.211E-02    7.133E-02    9.054E-02
     1.098E-01    1.290E-01    1.482E-01    1.674E-01    1.866E-01    2.058E-01    2.251E-01    2.443E-01    2.635E-01    2.827E-01
     3.019E-01    3.211E-01    3.403E-01    3.596E-01    3.788E-01    3.980E-01    4.172E-01    4.364E-01    4.556E-01    4.749E-01
     4.941E-01    5.133E-01    5.325E-01    5.517E-01    5.709E-01    5.901E-01    6.094E-01    6.286E-01    6.478E-01    6.670E-01
     6.862E-01    7.054E-01    7.246E-01    7.439E-01    7.631E-01    7.823E-01    8.015E-01    8.207E-01    8.399E-01    8.591E-01
     8.784E-01    8.976E-01    9.168E-01    9.360E-01    9.552E-01    9.744E-01    9.936E-01    1.013E+00    1.032E+00    1.051E+00
     1.070E+00    1.090E+00    1.109E+00    1.128E+00    1.147E+00    1.167E+00    1.186E+00    1.205E+00    1.224E+00    1.243E+00
     1.263E+00    1.282E+00    1.301E+00    1.320E+00    1.339E+00    1.359E+00    1.378E+00    1.397E+00    1.416E+00    1.436E+00
     1.455E+00    1.474E+00    1.493E+00    1.512E+00    1.532E+00    1.551E+00    1.570E+00    1.589E+00    1.608E+00    1.628E+00
     1.647E+00    1.666E+00    1.685E+00    1.705E+00    1.724E+00    1.743E+00    1.762E+00    1.781E+00    1.801E+00    1.820E+00
     1.839E+00    1.858E+00    1.877E+00    1.897E+00    1.916E+00    1.935E+00    1.954E+00    1.973E+00    1.993E+00    2.012E+00
     2.031E+00    2.050E+00    2.070E+00    2.089E+00    2.108E+00    2.127E+00    2.146E+00    2.166E+00    2.185E+00    2.204E+00
     2.223E+00    2.242E+00    2.262E+00    2.281E+00    2.300E+00    2.319E+00    2.338E+00    2.358E+00    2.377E+00    2.396E+00
     2.415E+00    2.435E+00    2.454E+00    2.473E+00    2.492E+00    2.511E+00    2.531E+00    2.550E+00    2.569E+00    2.588E+00
     2.607E+00    2.627E+00    2.646E+00    2.665E+00    2.684E+00    2.703E+00    2.723E+00    2.742E+00    2.761E+00    2.780E+00
     2.800E+00    2.819E+00    2.838E+00    2.857E+00    2.876E+00    2.896E+00    2.915E+00    2.934E+00    2.953E+00    2.972E+00
     2.992E+00    3.011E+00    3.030E+00    3.049E+00    3.068E+00    3.088E+00    3.107E+00    3.126E+00    3.145E+00    3.165E+00
     3.184E+00    3.203E+00    3.222E+00    3.241E+00    3.261E+00    3.280E+00    3.299E+00    3.318E+00    3.337E+00    3.357E+00
     3.376E+00    3.395E+00    3.414E+00    3.433E+00    3.453E+00    3.472E+00    3.491E+00    3.510E+00    3.529E+00    3.549E+00
     3.568E+00    3.587E+00    3.606E+00    3.626E+00    3.645E+00    3.664E+00    3.683E+00    3.702E+00    3.722E+00    3.741E+00
     3.760E+00    3.779E+00    3.798E+00    3.818E+00    3.837E+00    3.856E+00    3.875E+00    3.894E+00    3.914E+00    3.933E+00
     3.952E+00    3.971E+00    3.990E+00    4.010E+00    4.029E+00    4.048E+00    4.067E+00    4.086E+00    4.106E+00    4.125E+00
     4.144E+00    4.163E+00    4.183E+00    4.202E+00    4.221E+00    4.240E+00    4.259E+00    4.279E+00    4.298E+00    4.317E+00
     4.336E+00    4.355E+00    4.375E+00    4.394E+00    4.413E+00    4.432E+00    4.451E+00    4.471E+00    4.490E+00    4.509E+00
     4.528E+00    4.547E+00    4.567E+00    4.586E+00    4.605E+00    4.624E+00    4.643E+00    4.663E+00    4.682E+00    4.701E+00
     4.720E+00    4.739E+00    4.759E+00    4.778E+00    4.797E+00    4.816E+00    4.836E+00    4.855E+00    4.874E+00    4.893E+00
     4.912E+00    4.932E+00    4.951E+00    4.970E+00    4.989E+00    5.008E+00    5.028E+00    5.047E+00    5.066E+00    5.085E+00
     5.104E+00    5.124E+00    5.143E+00    5.162E+00    5.181E+00    5.200E+00    5.220E+00    5.239E+00    5.258E+00    5.277E+00
     5.296E+00    5.316E+00    5.335E+00    5.354E+00    5.373E+00    5.392E+00    5.412E+00    5.431E+00    5.450E+00    5.469E+00
     5.488E+00    5.508E+00    5.527E+00    5.546E+00    5.565E+00    5.585E+00    5.604E+00    5.623E+00    5.642E+00    5.661E+00
     5.681E+00    5.700E+00    5.719E+00    5.738E+00    5.757E+00    5.777E+00    5.796E+00    5.815E+00    5.834E+00    5.853E+00
     5.873E+00    5.892E+00    5.911E+00    5.930E+00    5.949E+00    5.969E+00    5.988E+00    6.007E+00    6.026E+00    6.045E+00
     6.065E+00    6.084E+00    6.103E+00    6.122E+00    6.141E+00    6.161E+00    6.180E+00    6.199E+00    6.218E+00    6.237E+00
     6.257E+00    6.276E+00    6.295E+00    6.314E+00    6.333E+00    6.353E+00    6.372E+00    6.391E+00    6.410E+00    6.429E+00
     6.449E+00    6.468E+00    6.487E+00    6.506E+00    6.526E+00    6.545E+00    6.564E+00    6.583E+00    6.602E+00    6.622E+00
     6.641E+00    6.660E+00    6.679E+00    6.698E+00    6.718E+00    6.737E+00    6.756E+00    6.775E+00    6.794E+00    6.814E+00
     6.833E+00    6.852E+00    6.871E+00    6.890E+00    6.910E+00    6.929E+00    6.948E+00    6.967E+00    6.986E+00    7.006E+00
     7.025E+00    7.044E+00    7.063E+00    7.082E+00    7.102E+00    7.121E+00    7.140E+00    7.159E+00    7.178E+00    7.198E+00
     7.217E+00    7.236E+00    7.255E+00    7.274E+00    7.294E+00    7.313E+00    7.332E+00    7.351E+00    7.370E+00    7.390E+00
     7.409E+00    7.428E+00    7.447E+00    7.467E+00    7.486E+00    7.505E+00    7.524E+00    7.543E+00    7.563E+00    7.582E+00
     7.601E+00    7.620E+00    7.639E+00    7.659E+00    7.678E+00    7.697E+00    7.716E+00    7.735E+00    7.755E+00    7.774E+00
     7.793E+00    7.812E+00    7.831E+00    7.851E+00    7.870E+00    7.889E+00    7.908E+00    7.927E+00    7.947E+00    7.966E+00
     7.985E+00    8.004E+00    8.023E+00    8.043E+00    8.062E+00    8.081E+00    8.100E+00    8.119E+00    8.139E+00    8.158E+00
     8.177E+00    8.196E+00    8.215E+00    8.235E+00    8.254E+00    8.273E+00    8.292E+00    8.311E+00    8.331E+00    8.350E+00
     8.369E+00    8.388E+00    8.407E+00    8.427E+00    8.446E+00    8.465E+00    8.484E+00    8.503E+00
 Ala      Conc. = 6.78E+02
