 LCModel (Version 6.3-1L) Copyright: S.W. Provencher.          Ref.: Magn. Reson. Med. 30:672-679 (1993).                
 Slice#3 Row#3 Col#9  PD_05_press_2_raw_act
 36 lines in following concentration table = NCONC+1
    Conc.  %SD /Cr+PCr  Metabolite                                         
   91.346 257% 7.2E-02 Ala                                                 
  199.419 131%   0.158 Asp                                                 
  927.360  49%   0.733 Cr                                                  
  337.733 136%   0.267 PCr                                                 
  200.936  80%   0.159 GABA                                                
   67.042 240% 5.3E-02 Glc                                                 
  136.958 357%   0.108 Gln                                                 
 1.70E+03  33%   1.347 Glu                                                 
    0.000 999%   0.000 GPC                                                 
  493.716   9%   0.390 PCh                                                 
   35.928 429% 2.8E-02 GSH                                                 
    0.000 999%   0.000 Ins                                                 
  667.378  39%   0.528 Lac                                                 
 1.72E+03  14%   1.358 NAA                                                 
  627.991  40%   0.496 NAAG                                                
   91.685  45% 7.2E-02 Scyllo                                              
  214.427 117%   0.169 Tau                                                 
  313.199  61%   0.248 -CrCH2                                              
  493.716   9%   0.390 GPC+PCh                                             
 2.35E+03   6%   1.855 NAA+NAAG                                            
 1.27E+03  10%   1.000 Cr+PCr                                              
 1.84E+03  43%   1.455 Glu+Gln                                             
    0.000 999%   0.000 Lip13a                                              
    0.000 999%   0.000 Lip13b                                              
    0.000 999%   0.000 Lip09                                               
  157.128 156%   0.124 MM09                                                
 6.35E-03 999% 5.0E-06 Lip20                                               
  235.865 156%   0.186 MM20                                                
   47.120 156% 3.7E-02 MM12                                                
  117.840 156% 9.3E-02 MM14                                                
   59.202 155% 4.7E-02 MM17                                                
    0.000 999%   0.000 Lip13a+Lip13b                                       
  164.960 156%   0.130 MM14+Lip13a+Lip13b+MM12                             
  157.128 156%   0.124 MM09+Lip09                                          
  235.872 156%   0.186 MM20+Lip20                                          
   6 lines in following misc. output table
  FWHM = 0.046 ppm    S/N =   4                                            
  Data shift = 0.046 ppm                                                   
  Ph: -69 deg     -14.8 deg/ppm                                            
  alphaB,S = 1.1E+01,   2.8E+01                                            
   14 spline knots.   Ns = 7(1)                                            
  ( 7) 5 infls.   ( 3) 1 extrs.                                            
  498 points on ppm-axis = NY
      4.000000     3.992357     3.984714     3.977070     3.969427     3.961784     3.954141     3.946497     3.938854     3.931211
      3.923568     3.915925     3.908281     3.900638     3.892995     3.885352     3.877708     3.870065     3.862422     3.854779
      3.847136     3.839492     3.831849     3.824206     3.816563     3.808919     3.801276     3.793633     3.785990     3.778347
      3.770703     3.763060     3.755417     3.747774     3.740130     3.732487     3.724844     3.717201     3.709558     3.701914
      3.694271     3.686628     3.678985     3.671341     3.663698     3.656055     3.648412     3.640769     3.633125     3.625482
      3.617839     3.610196     3.602552     3.594909     3.587266     3.579623     3.571980     3.564336     3.556693     3.549050
      3.541407     3.533763     3.526120     3.518477     3.510834     3.503191     3.495547     3.487904     3.480261     3.472618
      3.464974     3.457331     3.449688     3.442045     3.434402     3.426758     3.419115     3.411472     3.403829     3.396185
      3.388542     3.380899     3.373256     3.365613     3.357969     3.350326     3.342683     3.335040     3.327396     3.319753
      3.312110     3.304467     3.296824     3.289180     3.281537     3.273894     3.266251     3.258607     3.250964     3.243321
      3.235678     3.228034     3.220391     3.212748     3.205105     3.197462     3.189818     3.182175     3.174532     3.166889
      3.159245     3.151602     3.143959     3.136316     3.128673     3.121029     3.113386     3.105743     3.098100     3.090456
      3.082813     3.075170     3.067527     3.059884     3.052240     3.044597     3.036954     3.029311     3.021667     3.014024
      3.006381     2.998738     2.991095     2.983451     2.975808     2.968165     2.960522     2.952878     2.945235     2.937592
      2.929949     2.922306     2.914662     2.907019     2.899376     2.891733     2.884089     2.876446     2.868803     2.861160
      2.853517     2.845873     2.838230     2.830587     2.822944     2.815300     2.807657     2.800014     2.792371     2.784728
      2.777084     2.769441     2.761798     2.754155     2.746511     2.738868     2.731225     2.723582     2.715939     2.708295
      2.700652     2.693009     2.685366     2.677722     2.670079     2.662436     2.654793     2.647150     2.639506     2.631863
      2.624220     2.616577     2.608933     2.601290     2.593647     2.586004     2.578361     2.570717     2.563074     2.555431
      2.547788     2.540144     2.532501     2.524858     2.517215     2.509572     2.501928     2.494285     2.486642     2.478999
      2.471355     2.463712     2.456069     2.448426     2.440783     2.433139     2.425496     2.417853     2.410210     2.402566
      2.394923     2.387280     2.379637     2.371994     2.364350     2.356707     2.349064     2.341421     2.333777     2.326134
      2.318491     2.310848     2.303205     2.295561     2.287918     2.280275     2.272632     2.264988     2.257345     2.249702
      2.242059     2.234416     2.226772     2.219129     2.211486     2.203843     2.196199     2.188556     2.180913     2.173270
      2.165627     2.157983     2.150340     2.142697     2.135054     2.127410     2.119767     2.112124     2.104481     2.096838
      2.089194     2.081551     2.073908     2.066265     2.058621     2.050978     2.043335     2.035692     2.028049     2.020405
      2.012762     2.005119     1.997476     1.989833     1.982190     1.974546     1.966903     1.959260     1.951617     1.943974
      1.936331     1.928688     1.921045     1.913402     1.905759     1.898115     1.890472     1.882829     1.875186     1.867543
      1.859900     1.852257     1.844614     1.836971     1.829327     1.821684     1.814041     1.806398     1.798755     1.791112
      1.783469     1.775826     1.768183     1.760540     1.752896     1.745253     1.737610     1.729967     1.722324     1.714681
      1.707038     1.699395     1.691752     1.684108     1.676465     1.668822     1.661179     1.653536     1.645893     1.638250
      1.630607     1.622964     1.615321     1.607677     1.600034     1.592391     1.584748     1.577105     1.569462     1.561819
      1.554176     1.546533     1.538890     1.531246     1.523603     1.515960     1.508317     1.500674     1.493031     1.485388
      1.477745     1.470102     1.462458     1.454815     1.447172     1.439529     1.431886     1.424243     1.416600     1.408957
      1.401314     1.393671     1.386027     1.378384     1.370741     1.363098     1.355455     1.347812     1.340169     1.332526
      1.324883     1.317240     1.309596     1.301953     1.294310     1.286667     1.279024     1.271381     1.263738     1.256095
      1.248452     1.240808     1.233165     1.225522     1.217879     1.210236     1.202593     1.194950     1.187307     1.179664
      1.172021     1.164377     1.156734     1.149091     1.141448     1.133805     1.126162     1.118519     1.110876     1.103233
      1.095590     1.087946     1.080303     1.072660     1.065017     1.057374     1.049731     1.042088     1.034445     1.026802
      1.019158     1.011515     1.003872     0.996229     0.988586     0.980943     0.973300     0.965657     0.958014     0.950371
      0.942727     0.935084     0.927441     0.919798     0.912155     0.904512     0.896869     0.889226     0.881583     0.873940
      0.866296     0.858653     0.851010     0.843367     0.835724     0.828081     0.820438     0.812795     0.805152     0.797508
      0.789865     0.782222     0.774579     0.766936     0.759293     0.751650     0.744007     0.736364     0.728721     0.721077
      0.713434     0.705791     0.698148     0.690505     0.682862     0.675219     0.667576     0.659933     0.652290     0.644646
      0.637003     0.629360     0.621717     0.614074     0.606431     0.598788     0.591145     0.583502     0.575858     0.568215
      0.560572     0.552929     0.545286     0.537643     0.530000     0.522357     0.514714     0.507071     0.499427     0.491784
      0.484141     0.476498     0.468855     0.461212     0.453569     0.445925     0.438282     0.430639     0.422996     0.415353
      0.407710     0.400067     0.392424     0.384780     0.377137     0.369494     0.361851     0.354208     0.346565     0.338922
      0.331278     0.323635     0.315992     0.308349     0.300706     0.293063     0.285420     0.277777     0.270133     0.262490
      0.254847     0.247204     0.239561     0.231918     0.224275     0.216631     0.208988     0.201345
 NY phased data points follow
  -3.65056E+01 -3.41035E+01 -3.92832E+01 -2.53715E+01 -7.06449E+00 -9.90612E+00 -1.07049E+01 -1.27402E+01 -1.44208E+01 -1.05333E+01
   5.47684E+00  2.48823E+00  1.92483E+01 -9.96604E-01 -9.14743E+00 -8.93746E+00 -4.63700E+00 -2.46191E+01 -3.66194E+01 -2.21505E+01
  -7.79171E+00 -1.86298E+01 -1.30130E+01 -2.27855E+01 -1.84771E+01 -1.81080E+01 -3.02948E+01 -1.79763E+01 -1.36912E+01 -1.46843E+01
  -1.24905E+01 -2.55242E+01 -1.25669E+01 -1.26597E+01 -1.60478E+01 -1.70137E+01 -2.54331E+00 -1.37948E+01 -2.08852E+01 -1.43089E+01
  -1.24648E+01 -1.41449E+01 -1.51727E+01 -1.99464E+01 -1.47504E+01 -1.92756E+01 -1.12925E+00 -1.26454E+01 -8.71368E+00 -6.04896E+00
  -7.38574E+00 -1.41365E-01 -1.66389E+01 -2.22586E+01 -1.62038E+01 -1.26798E+01 -5.70823E+00 -2.29067E+01 -1.42816E+01 -1.22400E+01
  -3.34307E+01 -2.11016E+01 -1.23962E+01 -3.32007E+01 -1.53166E+01 -3.73120E+01 -2.15652E+01 -2.29638E+01 -1.66170E+01 -1.31741E+01
  -2.94050E+01 -1.61075E+01 -1.59724E+01 -1.91639E+01 -4.35140E+00 -1.11213E+01 -1.74112E+01 -1.24255E+01 -1.38555E+01 -9.18577E+00
  -2.29728E+01 -6.28534E+00 -1.16647E+01 -1.04004E+01 -2.46557E+00 -1.87838E+00 -1.53328E+01 -2.58476E+00 -5.50331E+00 -1.37110E+01
  -8.12084E+00 -6.05415E+00 -1.40207E+01 -5.30388E+00 -6.78249E+00 -5.05838E+00  1.39399E+00 -2.73273E+00 -3.82325E+00  1.40845E+01
   1.63294E+01  1.85851E+01  1.90684E+01  4.19429E+01  2.85159E+01  2.96337E+01  2.72267E+01  2.15661E+01  6.61267E+00  2.38357E+00
  -3.29010E+00 -8.76538E+00 -4.70709E+00  4.82786E+00 -1.09644E+01 -8.66636E+00 -7.08816E+00 -1.48947E+01 -4.45784E+00 -7.04959E+00
  -9.44665E+00 -6.29054E+00  2.01497E+00  8.19161E+00  2.34294E+00  1.77994E+01  2.19187E+01  2.81406E+01  3.93868E+01  2.60561E+01
   1.67806E+01  2.63661E+01  3.34507E+00 -2.69186E+00 -6.51777E+00 -1.67792E+00 -1.46240E+01 -1.49665E+01 -1.82199E+00 -1.21776E+01
  -2.93062E+01 -5.05221E+00 -1.14588E+01 -2.71855E-01 -3.05552E+00 -1.06487E+01 -1.12865E+00 -1.70310E+01 -1.21608E+01 -1.18287E+01
  -1.19793E+01 -8.96045E+00 -6.45189E+00 -6.43495E+00 -8.47901E+00 -1.61610E+01 -6.47810E+00 -5.04859E+00 -5.00528E+00 -1.13441E+01
  -9.50169E+00 -1.14001E+00 -1.05451E+01 -1.17520E+01 -1.96540E+01 -1.58566E+01 -1.73091E+01 -1.13248E+01 -1.44946E+01 -1.48928E+01
  -1.37164E+01 -1.82290E+01 -7.24843E+00 -5.01381E+00 -6.88663E+00 -1.78856E+01 -9.59893E+00 -1.08654E+01 -1.65187E+01 -1.59533E+01
  -1.69025E+01 -1.80468E+01 -1.84897E+01 -1.49520E+01 -8.70167E+00 -7.69246E+00 -1.57967E+01 -1.89595E+01 -1.25998E+01 -1.48861E+01
  -8.91550E-01 -6.21822E+00 -1.03795E+01 -8.15657E+00 -1.03625E+01 -3.45283E-01 -3.03066E+00 -1.34761E+01 -5.06436E+00 -4.53157E+00
  -1.30112E+01 -2.10687E+00 -1.24150E+01  4.61726E+00 -1.19613E+01 -3.00997E+00 -6.15988E+00 -8.12655E+00 -3.76735E+00 -1.45583E+01
  -1.52480E+00 -1.44103E+01 -2.04295E+00 -6.52293E+00  5.18453E+00 -2.39992E+00  2.22614E+01 -4.49862E-01  1.01041E+01 -3.57818E-01
  -8.17176E-01 -7.12079E+00 -7.79518E+00 -1.28773E+01 -4.08752E+00 -8.60767E+00 -9.71023E-01  6.22799E+00  9.36597E+00 -1.39592E+00
   3.41843E+00 -5.72830E+00 -3.02733E+00 -1.33753E+01  1.04024E+01 -1.88065E+00  1.23319E+00  1.33853E+00 -1.33470E+01 -3.97172E+00
   1.18901E+01 -9.16346E+00 -1.22909E+01 -1.49439E+01 -1.01066E+01  5.51864E+00  6.91126E+00  6.14256E-01 -3.03483E+00  1.21385E+01
   2.51471E+00  4.75946E+00 -1.84111E-01  1.54767E+01  1.44918E+01  1.52449E+01  2.60746E+01  3.64408E+01  6.48502E+01  5.70566E+01
   6.30431E+01  7.62760E+01  5.03109E+01  4.27608E+01  2.86671E+01  2.79169E+01  1.56852E+01  9.60575E+00  8.94475E+00  5.20039E+00
  -2.96543E-01  2.72415E-01 -4.31605E-02 -4.68216E+00 -2.11797E+00  4.26054E+00  1.33169E+01  5.57010E+00  6.60147E+00  2.65175E+00
  -4.86375E+00  1.08179E+01  1.69999E+00 -1.09182E+01  6.97679E-01  5.70941E+00  1.23496E-01  6.05592E+00 -3.55489E+00  1.67631E+01
   3.29215E+00 -2.55007E+00  6.31682E+00  6.94445E+00  2.22561E+01  4.37355E+00 -3.75957E-01  8.91521E+00 -1.50726E+01  5.87564E+00
   9.63682E+00  9.50552E+00  7.08754E+00  8.67717E+00  7.00042E+00  6.42925E+00  9.10653E+00  2.28125E+00  2.30871E-01  1.11050E+01
   2.37654E+00  1.84721E+01  2.10268E+01  5.43150E+00  1.20061E+01  8.09042E+00  1.24064E+01  1.15421E+01  1.88520E+00  2.15545E+00
   1.18775E+00  3.55973E+00 -4.63957E+00 -7.18051E+00 -1.08481E+01 -5.86332E+00  9.11250E-01  1.44642E+00 -3.07798E+00  4.29826E+00
  -3.55296E+00  1.91433E+00 -4.60379E+00  3.41109E+00 -1.78118E+00 -1.06147E+01  7.17952E+00  8.98740E+00 -2.93028E+00  5.25639E+00
   4.43318E+00 -1.03498E+01  1.71470E+01  1.37495E+01  1.13484E+01  5.82116E+00  1.72540E+01  1.51293E+01  1.18432E+01 -6.56291E+00
  -5.53177E-01  6.62187E+00 -5.52676E+00 -1.24898E+01 -4.44060E+00 -4.43231E+00  3.22256E+00  7.58458E+00 -9.73058E-01  1.36853E+00
   4.73073E+00  4.15063E+00 -4.59429E+00  1.01356E+00 -1.04984E+00 -7.16385E+00 -8.15681E-01 -2.74668E+00  2.68298E+00  1.17584E+01
   6.57901E+00  1.53921E+00 -1.51349E+01  1.17671E+01  4.19735E+00 -6.57464E+00 -1.11636E+01 -2.02735E+01 -5.79404E+00 -2.75941E+00
  -1.12237E+01 -1.01014E+01 -7.05329E+00 -7.59320E-01 -1.68714E+00 -4.87399E+00 -3.54827E+00 -1.66377E+00  6.72910E+00  2.00126E+00
   4.02085E+00 -6.98088E+00 -9.44834E+00  1.00142E+00 -4.94074E+00 -5.56266E+00  1.02538E+01 -3.82581E+00 -1.07086E+01  1.90875E+01
   2.35092E+00  1.02843E+01 -1.08910E+00  3.25891E+00  4.00799E+00 -8.19255E+00 -8.72391E-01  3.16627E+00 -4.48552E-01 -6.61066E-01
  -4.47293E+00  8.54771E+00 -1.31252E+01  1.06082E+00 -2.81071E+00  4.23191E+00  1.39612E+01  2.46012E+00 -1.15867E+00  8.32949E+00
   6.96333E+00  1.01867E-01  1.86397E+01  3.12874E+00  1.38161E+01  1.14481E+01  3.31698E+00  7.06698E+00 -2.08701E+00  2.05340E+00
  -8.99934E+00  1.86176E+00  7.49591E-01  9.79002E+00  5.92397E+00  5.78260E+00  8.73791E+00  9.93207E+00  1.09514E+01  2.15783E+00
   5.82430E+00  5.86905E+00  1.84981E+01  8.84851E+00  4.00652E+00 -1.52913E+00  1.62850E+00  6.20596E+00  7.39416E+00  8.34220E+00
   4.14092E+00  8.09743E+00  3.88509E+00  1.02747E+01  5.66737E+00  1.25785E+01 -1.54151E+00  1.96062E+01  4.33858E+00  1.90072E+01
   1.50791E+01  7.03964E+00  1.58596E+00 -5.09265E+00  8.22202E+00  2.98803E+00  1.79956E+00  8.94171E+00  1.16356E+01  1.03299E+01
   5.85868E+00  2.18816E+01  1.11619E+01  4.48757E+00 -6.77600E+00 -9.81141E+00 -3.23768E+00  7.12469E+00  1.38672E+01  4.52226E-01
  -9.91487E-02  1.48474E+00  1.92896E+00  5.34588E+00  6.89506E+00 -2.41728E+00  5.31892E+00  5.38945E+00  5.99166E-01  6.81273E+00
  -2.81940E+00  1.63053E+01  3.27539E+00 -1.52553E+00  1.10703E+01  1.29598E+01  1.97938E+01 -3.59122E+00
 NY points of the fit to the data follow
  -1.87082E+01 -1.86491E+01 -1.85063E+01 -1.78777E+01 -1.63727E+01 -1.47698E+01 -1.32740E+01 -1.11433E+01 -8.11868E+00 -4.20993E+00
   1.92026E-01  3.72906E+00  4.40914E+00  2.08246E+00 -1.29892E+00 -4.71191E+00 -8.52853E+00 -1.22322E+01 -1.45304E+01 -1.52848E+01
  -1.52796E+01 -1.51660E+01 -1.49752E+01 -1.47189E+01 -1.45588E+01 -1.45386E+01 -1.46751E+01 -1.50795E+01 -1.56260E+01 -1.58649E+01
  -1.53840E+01 -1.44297E+01 -1.33330E+01 -1.21488E+01 -1.13916E+01 -1.16710E+01 -1.28413E+01 -1.42233E+01 -1.53929E+01 -1.60596E+01
  -1.60183E+01 -1.55166E+01 -1.50104E+01 -1.46548E+01 -1.43959E+01 -1.42979E+01 -1.44449E+01 -1.46701E+01 -1.48196E+01 -1.48831E+01
  -1.48645E+01 -1.47802E+01 -1.46443E+01 -1.44898E+01 -1.43853E+01 -1.43518E+01 -1.43438E+01 -1.43649E+01 -1.44338E+01 -1.44919E+01
  -1.44961E+01 -1.44735E+01 -1.44089E+01 -1.43293E+01 -1.42441E+01 -1.41499E+01 -1.40722E+01 -1.40506E+01 -1.40411E+01 -1.40077E+01
  -1.40036E+01 -1.39899E+01 -1.38951E+01 -1.37163E+01 -1.34996E+01 -1.32642E+01 -1.31168E+01 -1.31927E+01 -1.33720E+01 -1.32772E+01
  -1.30065E+01 -1.26956E+01 -1.20894E+01 -1.11280E+01 -9.94843E+00 -8.68226E+00 -7.59918E+00 -7.26906E+00 -7.88463E+00 -8.90989E+00
  -9.91314E+00 -1.09626E+01 -1.20246E+01 -1.28073E+01 -1.30644E+01 -1.23586E+01 -9.34003E+00 -5.55770E+00 -1.76370E+00  3.47160E+00
   1.05157E+01  1.89771E+01  2.80767E+01  3.56792E+01  3.75317E+01  3.24828E+01  2.45934E+01  1.67713E+01  8.28379E+00 -2.40051E-01
  -6.01939E+00 -8.55448E+00 -9.52796E+00 -1.00677E+01 -1.04323E+01 -1.06773E+01 -1.08643E+01 -1.09988E+01 -1.10072E+01 -1.03464E+01
  -7.70078E+00 -4.78429E+00 -1.75509E+00  2.72515E+00  9.01044E+00  1.66931E+01  2.49568E+01  3.16135E+01  3.27392E+01  2.79121E+01
   2.10062E+01  1.41329E+01  6.42285E+00 -1.14186E+00 -5.99970E+00 -8.08516E+00 -8.93753E+00 -9.37206E+00 -9.57707E+00 -9.59404E+00
  -9.51058E+00 -9.43949E+00 -9.39922E+00 -9.34545E+00 -9.27445E+00 -9.22834E+00 -9.22917E+00 -9.29408E+00 -9.40460E+00 -9.50269E+00
  -9.59409E+00 -9.69167E+00 -9.77974E+00 -9.89488E+00 -1.00662E+01 -1.01753E+01 -1.01862E+01 -1.01805E+01 -1.02270E+01 -1.04491E+01
  -1.08035E+01 -1.11363E+01 -1.12445E+01 -1.11227E+01 -1.09329E+01 -1.07975E+01 -1.08027E+01 -1.09446E+01 -1.12012E+01 -1.15885E+01
  -1.19690E+01 -1.21456E+01 -1.21864E+01 -1.22834E+01 -1.25425E+01 -1.28082E+01 -1.29443E+01 -1.28146E+01 -1.24870E+01 -1.22664E+01
  -1.22619E+01 -1.21622E+01 -1.18041E+01 -1.13381E+01 -1.08484E+01 -1.03237E+01 -9.76457E+00 -9.10240E+00 -8.24623E+00 -7.35256E+00
  -6.66744E+00 -6.26481E+00 -5.96725E+00 -5.78836E+00 -5.82488E+00 -5.93376E+00 -5.94645E+00 -5.88253E+00 -5.85615E+00 -5.70992E+00
  -5.38300E+00 -5.00589E+00 -4.63017E+00 -4.36130E+00 -4.20945E+00 -4.47155E+00 -5.32854E+00 -6.50256E+00 -7.75512E+00 -8.69846E+00
  -9.31891E+00 -9.43137E+00 -8.58455E+00 -6.87891E+00 -4.67646E+00 -2.60572E+00 -1.42801E+00 -1.80302E+00 -3.80249E+00 -6.82006E+00
  -1.00797E+01 -1.32273E+01 -1.55809E+01 -1.59899E+01 -1.41667E+01 -1.11432E+01 -8.22518E+00 -5.85223E+00 -3.96407E+00 -2.92040E+00
  -2.94322E+00 -3.55174E+00 -4.00318E+00 -4.07361E+00 -3.94003E+00 -3.74228E+00 -3.63747E+00 -3.57081E+00 -3.69475E+00 -4.10585E+00
  -4.76058E+00 -5.40889E+00 -5.83128E+00 -5.92914E+00 -5.60167E+00 -4.94986E+00 -4.28676E+00 -3.83986E+00 -3.33068E+00 -2.13359E+00
  -1.04197E+00  7.68760E-03  2.53314E+00  8.61493E+00  1.68555E+01  2.49681E+01  3.38224E+01  4.24443E+01  4.99938E+01  5.74671E+01
   6.42951E+01  6.52155E+01  5.75629E+01  4.65034E+01  3.65262E+01  2.63266E+01  1.54326E+01  7.25205E+00  3.22179E+00  1.43696E+00
   4.14517E-01 -1.04819E-01 -2.46109E-01 -1.71880E-01  1.53832E-02  2.13705E-01  2.97234E-01  2.20034E-01  1.65587E-02 -2.55690E-01
  -5.63150E-01 -8.47386E-01 -1.02797E+00 -1.08198E+00 -1.06704E+00 -1.02425E+00 -9.59917E-01 -8.98581E-01 -8.68895E-01 -8.60901E-01
  -8.44757E-01 -8.12596E-01 -7.66005E-01 -7.06755E-01 -6.56790E-01 -6.26795E-01 -6.06184E-01 -5.99619E-01 -6.14645E-01 -6.33194E-01
  -6.27123E-01 -5.90763E-01 -5.38390E-01 -4.79416E-01 -4.13381E-01 -3.46024E-01 -2.87827E-01 -2.40535E-01 -1.99611E-01 -1.62107E-01
  -1.25552E-01 -8.80700E-02 -4.86549E-02 -6.71216E-03  3.85968E-02  8.86697E-02  1.45757E-01  2.12592E-01  2.94363E-01  4.04066E-01
   5.61944E-01  7.09030E-01  8.30164E-01  9.74843E-01  1.12637E+00  1.24144E+00  1.27225E+00  1.15625E+00  8.82917E-01  5.43094E-01
   2.54531E-01  1.02117E-01  7.53046E-02  2.21510E-01  6.25145E-01  1.26015E+00  1.95547E+00  2.52980E+00  2.99218E+00  3.50869E+00
   4.26604E+00  4.99903E+00  5.36300E+00  5.87272E+00  6.53444E+00  7.02893E+00  6.98085E+00  5.97093E+00  3.85658E+00  8.15128E-01
  -2.27145E+00 -4.36407E+00 -5.47175E+00 -5.51012E+00 -3.81932E+00 -4.38245E-01  3.18541E+00  5.55148E+00  6.62102E+00  7.08317E+00
   6.96810E+00  6.07331E+00  4.91191E+00  4.07747E+00  3.59558E+00  3.29679E+00  3.09605E+00  2.95541E+00  2.85474E+00  2.78205E+00
   2.72998E+00  2.69362E+00  2.66965E+00  2.65550E+00  2.64942E+00  2.65016E+00  2.65710E+00  2.66968E+00  2.68759E+00  2.71041E+00
   2.73805E+00  2.77048E+00  2.80796E+00  2.85057E+00  2.89847E+00  2.95167E+00  3.01040E+00  3.07481E+00  3.14516E+00  3.22137E+00
   3.30334E+00  3.39068E+00  3.48311E+00  3.58003E+00  3.68079E+00  3.78428E+00  3.88930E+00  3.99442E+00  4.09827E+00  4.19930E+00
   4.29600E+00  4.38670E+00  4.46998E+00  4.54457E+00  4.60964E+00  4.66448E+00  4.70879E+00  4.74245E+00  4.76586E+00  4.77967E+00
   4.78498E+00  4.78292E+00  4.77485E+00  4.76206E+00  4.74610E+00  4.72835E+00  4.71025E+00  4.69287E+00  4.67724E+00  4.66404E+00
   4.65402E+00  4.64758E+00  4.64510E+00  4.64655E+00  4.65195E+00  4.66112E+00  4.67400E+00  4.69031E+00  4.70985E+00  4.73220E+00
   4.75712E+00  4.78428E+00  4.81356E+00  4.84465E+00  4.87738E+00  4.91142E+00  4.94668E+00  4.98298E+00  5.02029E+00  5.05842E+00
   5.09731E+00  5.13675E+00  5.17678E+00  5.21731E+00  5.25837E+00  5.29982E+00  5.34164E+00  5.38370E+00  5.42610E+00  5.46876E+00
   5.51174E+00  5.55490E+00  5.59827E+00  5.64175E+00  5.68547E+00  5.72936E+00  5.77345E+00  5.81762E+00  5.86192E+00  5.90628E+00
   5.95083E+00  5.99547E+00  6.04025E+00  6.08503E+00  6.12991E+00  6.17483E+00  6.21991E+00  6.26504E+00  6.31024E+00  6.35542E+00
   6.40068E+00  6.44598E+00  6.49140E+00  6.53683E+00  6.58230E+00  6.62775E+00  6.67327E+00  6.71883E+00  6.76447E+00  6.81007E+00
   6.85570E+00  6.90128E+00  6.94694E+00  6.99261E+00  7.03832E+00  7.08396E+00  7.12961E+00  7.17522E+00  7.22090E+00  7.26654E+00
   7.31219E+00  7.35773E+00  7.40327E+00  7.44875E+00  7.49427E+00  7.53970E+00  7.58508E+00  7.63032E+00
 NY background values follow
    -1.812E+01   -1.807E+01   -1.802E+01   -1.796E+01   -1.791E+01   -1.786E+01   -1.780E+01   -1.775E+01   -1.770E+01   -1.764E+01
    -1.759E+01   -1.753E+01   -1.748E+01   -1.743E+01   -1.737E+01   -1.732E+01   -1.727E+01   -1.721E+01   -1.716E+01   -1.711E+01
    -1.705E+01   -1.700E+01   -1.695E+01   -1.689E+01   -1.684E+01   -1.679E+01   -1.673E+01   -1.668E+01   -1.662E+01   -1.657E+01
    -1.652E+01   -1.646E+01   -1.641E+01   -1.636E+01   -1.630E+01   -1.625E+01   -1.620E+01   -1.614E+01   -1.609E+01   -1.604E+01
    -1.598E+01   -1.593E+01   -1.588E+01   -1.582E+01   -1.577E+01   -1.572E+01   -1.566E+01   -1.561E+01   -1.555E+01   -1.550E+01
    -1.545E+01   -1.539E+01   -1.534E+01   -1.529E+01   -1.523E+01   -1.518E+01   -1.513E+01   -1.507E+01   -1.502E+01   -1.497E+01
    -1.491E+01   -1.486E+01   -1.481E+01   -1.475E+01   -1.470E+01   -1.465E+01   -1.459E+01   -1.454E+01   -1.449E+01   -1.443E+01
    -1.438E+01   -1.433E+01   -1.427E+01   -1.422E+01   -1.417E+01   -1.411E+01   -1.406E+01   -1.401E+01   -1.395E+01   -1.390E+01
    -1.385E+01   -1.379E+01   -1.374E+01   -1.369E+01   -1.363E+01   -1.358E+01   -1.353E+01   -1.347E+01   -1.342E+01   -1.337E+01
    -1.331E+01   -1.326E+01   -1.321E+01   -1.315E+01   -1.310E+01   -1.305E+01   -1.299E+01   -1.294E+01   -1.289E+01   -1.283E+01
    -1.278E+01   -1.273E+01   -1.267E+01   -1.262E+01   -1.257E+01   -1.252E+01   -1.246E+01   -1.241E+01   -1.236E+01   -1.230E+01
    -1.225E+01   -1.220E+01   -1.214E+01   -1.209E+01   -1.204E+01   -1.198E+01   -1.193E+01   -1.188E+01   -1.183E+01   -1.177E+01
    -1.172E+01   -1.167E+01   -1.161E+01   -1.156E+01   -1.151E+01   -1.145E+01   -1.140E+01   -1.135E+01   -1.130E+01   -1.124E+01
    -1.119E+01   -1.114E+01   -1.108E+01   -1.103E+01   -1.098E+01   -1.093E+01   -1.087E+01   -1.082E+01   -1.077E+01   -1.071E+01
    -1.066E+01   -1.061E+01   -1.056E+01   -1.050E+01   -1.045E+01   -1.040E+01   -1.035E+01   -1.029E+01   -1.024E+01   -1.019E+01
    -1.013E+01   -1.008E+01   -1.003E+01   -9.977E+00   -9.924E+00   -9.871E+00   -9.819E+00   -9.766E+00   -9.714E+00   -9.661E+00
    -9.608E+00   -9.556E+00   -9.503E+00   -9.451E+00   -9.398E+00   -9.346E+00   -9.293E+00   -9.241E+00   -9.189E+00   -9.136E+00
    -9.084E+00   -9.031E+00   -8.979E+00   -8.927E+00   -8.874E+00   -8.822E+00   -8.770E+00   -8.717E+00   -8.665E+00   -8.613E+00
    -8.560E+00   -8.508E+00   -8.456E+00   -8.404E+00   -8.351E+00   -8.299E+00   -8.247E+00   -8.195E+00   -8.143E+00   -8.091E+00
    -8.038E+00   -7.986E+00   -7.934E+00   -7.882E+00   -7.830E+00   -7.778E+00   -7.726E+00   -7.674E+00   -7.622E+00   -7.570E+00
    -7.518E+00   -7.466E+00   -7.414E+00   -7.362E+00   -7.310E+00   -7.258E+00   -7.206E+00   -7.154E+00   -7.103E+00   -7.051E+00
    -6.999E+00   -6.947E+00   -6.895E+00   -6.844E+00   -6.792E+00   -6.740E+00   -6.688E+00   -6.637E+00   -6.585E+00   -6.533E+00
    -6.482E+00   -6.430E+00   -6.378E+00   -6.327E+00   -6.275E+00   -6.224E+00   -6.172E+00   -6.121E+00   -6.069E+00   -6.018E+00
    -5.966E+00   -5.915E+00   -5.863E+00   -5.812E+00   -5.760E+00   -5.709E+00   -5.658E+00   -5.606E+00   -5.555E+00   -5.504E+00
    -5.452E+00   -5.401E+00   -5.350E+00   -5.299E+00   -5.247E+00   -5.196E+00   -5.145E+00   -5.094E+00   -5.043E+00   -4.992E+00
    -4.940E+00   -4.889E+00   -4.838E+00   -4.787E+00   -4.736E+00   -4.685E+00   -4.634E+00   -4.583E+00   -4.532E+00   -4.481E+00
    -4.430E+00   -4.379E+00   -4.329E+00   -4.278E+00   -4.227E+00   -4.176E+00   -4.125E+00   -4.074E+00   -4.024E+00   -3.973E+00
    -3.922E+00   -3.871E+00   -3.821E+00   -3.770E+00   -3.719E+00   -3.669E+00   -3.618E+00   -3.567E+00   -3.517E+00   -3.466E+00
    -3.416E+00   -3.365E+00   -3.314E+00   -3.264E+00   -3.213E+00   -3.163E+00   -3.113E+00   -3.062E+00   -3.012E+00   -2.961E+00
    -2.911E+00   -2.860E+00   -2.810E+00   -2.760E+00   -2.709E+00   -2.659E+00   -2.609E+00   -2.559E+00   -2.508E+00   -2.458E+00
    -2.408E+00   -2.358E+00   -2.307E+00   -2.257E+00   -2.207E+00   -2.157E+00   -2.107E+00   -2.057E+00   -2.007E+00   -1.957E+00
    -1.906E+00   -1.856E+00   -1.806E+00   -1.756E+00   -1.706E+00   -1.656E+00   -1.606E+00   -1.556E+00   -1.507E+00   -1.457E+00
    -1.407E+00   -1.357E+00   -1.307E+00   -1.257E+00   -1.207E+00   -1.157E+00   -1.107E+00   -1.058E+00   -1.008E+00   -9.581E-01
    -9.083E-01   -8.585E-01   -8.088E-01   -7.591E-01   -7.093E-01   -6.596E-01   -6.099E-01   -5.602E-01   -5.105E-01   -4.609E-01
    -4.112E-01   -3.616E-01   -3.119E-01   -2.623E-01   -2.127E-01   -1.631E-01   -1.135E-01   -6.390E-02   -1.432E-02    3.524E-02
     8.480E-02    1.344E-01    1.839E-01    2.334E-01    2.830E-01    3.325E-01    3.820E-01    4.315E-01    4.810E-01    5.305E-01
     5.799E-01    6.294E-01    6.789E-01    7.283E-01    7.778E-01    8.272E-01    8.767E-01    9.261E-01    9.755E-01    1.025E+00
     1.074E+00    1.124E+00    1.173E+00    1.223E+00    1.272E+00    1.321E+00    1.371E+00    1.420E+00    1.469E+00    1.519E+00
     1.568E+00    1.618E+00    1.667E+00    1.716E+00    1.766E+00    1.815E+00    1.864E+00    1.914E+00    1.963E+00    2.012E+00
     2.062E+00    2.111E+00    2.160E+00    2.209E+00    2.259E+00    2.308E+00    2.357E+00    2.407E+00    2.456E+00    2.505E+00
     2.554E+00    2.604E+00    2.653E+00    2.702E+00    2.752E+00    2.801E+00    2.850E+00    2.899E+00    2.949E+00    2.998E+00
     3.047E+00    3.096E+00    3.146E+00    3.195E+00    3.244E+00    3.293E+00    3.342E+00    3.392E+00    3.441E+00    3.490E+00
     3.539E+00    3.589E+00    3.638E+00    3.687E+00    3.736E+00    3.785E+00    3.835E+00    3.884E+00    3.933E+00    3.982E+00
     4.031E+00    4.081E+00    4.130E+00    4.179E+00    4.228E+00    4.277E+00    4.327E+00    4.376E+00    4.425E+00    4.474E+00
     4.523E+00    4.572E+00    4.622E+00    4.671E+00    4.720E+00    4.769E+00    4.818E+00    4.867E+00    4.917E+00    4.966E+00
     5.015E+00    5.064E+00    5.113E+00    5.162E+00    5.211E+00    5.261E+00    5.310E+00    5.359E+00    5.408E+00    5.457E+00
     5.506E+00    5.555E+00    5.604E+00    5.654E+00    5.703E+00    5.752E+00    5.801E+00    5.850E+00    5.899E+00    5.948E+00
     5.997E+00    6.046E+00    6.095E+00    6.145E+00    6.194E+00    6.243E+00    6.292E+00    6.341E+00    6.390E+00    6.439E+00
     6.488E+00    6.537E+00    6.586E+00    6.635E+00    6.685E+00    6.734E+00    6.783E+00    6.832E+00    6.881E+00    6.930E+00
     6.979E+00    7.028E+00    7.077E+00    7.126E+00    7.175E+00    7.224E+00    7.273E+00    7.322E+00
 Ala      Conc. = 9.13E+01
