 LCModel (Version 6.3-1L) Copyright: S.W. Provencher.          Ref.: Magn. Reson. Med. 30:672-679 (1993).                
 Slice#1 Row#6 Col#8  PD_05_press_2_raw_act
 36 lines in following concentration table = NCONC+1
    Conc.  %SD /Cr+PCr  Metabolite                                         
  814.555  36%   0.546 Ala                                                 
    0.000 999%   0.000 Asp                                                 
 1.06E+03  43%   0.710 Cr                                                  
  432.786 108%   0.290 PCr                                                 
  129.803 180% 8.7E-02 GABA                                                
  199.094 117%   0.133 Glc                                                 
 1.41E+03  41%   0.945 Gln                                                 
 2.90E+03  23%   1.943 Glu                                                 
  657.391   8%   0.440 GPC                                                 
    0.000 999%   0.000 PCh                                                 
  792.040  23%   0.531 GSH                                                 
 2.05E+03  28%   1.373 Ins                                                 
  868.061  36%   0.581 Lac                                                 
 3.81E+03   7%   2.549 NAA                                                 
  340.944  90%   0.228 NAAG                                                
  119.881  46% 8.0E-02 Scyllo                                              
  192.862 179%   0.129 Tau                                                 
  148.067 151% 9.9E-02 -CrCH2                                              
  657.391   8%   0.440 GPC+PCh                                             
 4.15E+03   5%   2.778 NAA+NAAG                                            
 1.49E+03   9%   1.000 Cr+PCr                                              
 4.31E+03  21%   2.887 Glu+Gln                                             
 5.92E+03  23%   3.966 Lip13a                                              
    0.000 999%   0.000 Lip13b                                              
 1.07E+03  51%   0.716 Lip09                                               
 2.26E+03  26%   1.514 MM09                                                
  928.264  38%   0.622 Lip20                                               
 3.89E+03  22%   2.607 MM20                                                
  699.394  48%   0.468 MM12                                                
 6.11E+03  15%   4.096 MM14                                                
 1.03E+03  49%   0.687 MM17                                                
 5.92E+03  23%   3.966 Lip13a+Lip13b                                       
 1.27E+04   7%   8.531 MM14+Lip13a+Lip13b+MM12                             
 3.33E+03  12%   2.229 MM09+Lip09                                          
 4.82E+03  16%   3.229 MM20+Lip20                                          
   6 lines in following misc. output table
  FWHM = 0.054 ppm    S/N =   8                                            
  Data shift =-0.008 ppm                                                   
  Ph: -46 deg       0.9 deg/ppm                                            
  alphaB,S = 8.5E+01,   1.0E+02                                            
   14 spline knots.   Ns = 7(1)                                            
   2 inflections.     1 extrema                                            
  498 points on ppm-axis = NY
      4.000000     3.992357     3.984714     3.977070     3.969427     3.961784     3.954141     3.946497     3.938854     3.931211
      3.923568     3.915925     3.908281     3.900638     3.892995     3.885352     3.877708     3.870065     3.862422     3.854779
      3.847136     3.839492     3.831849     3.824206     3.816563     3.808919     3.801276     3.793633     3.785990     3.778347
      3.770703     3.763060     3.755417     3.747774     3.740130     3.732487     3.724844     3.717201     3.709558     3.701914
      3.694271     3.686628     3.678985     3.671341     3.663698     3.656055     3.648412     3.640769     3.633125     3.625482
      3.617839     3.610196     3.602552     3.594909     3.587266     3.579623     3.571980     3.564336     3.556693     3.549050
      3.541407     3.533763     3.526120     3.518477     3.510834     3.503191     3.495547     3.487904     3.480261     3.472618
      3.464974     3.457331     3.449688     3.442045     3.434402     3.426758     3.419115     3.411472     3.403829     3.396185
      3.388542     3.380899     3.373256     3.365613     3.357969     3.350326     3.342683     3.335040     3.327396     3.319753
      3.312110     3.304467     3.296824     3.289180     3.281537     3.273894     3.266251     3.258607     3.250964     3.243321
      3.235678     3.228034     3.220391     3.212748     3.205105     3.197462     3.189818     3.182175     3.174532     3.166889
      3.159245     3.151602     3.143959     3.136316     3.128673     3.121029     3.113386     3.105743     3.098100     3.090456
      3.082813     3.075170     3.067527     3.059884     3.052240     3.044597     3.036954     3.029311     3.021667     3.014024
      3.006381     2.998738     2.991095     2.983451     2.975808     2.968165     2.960522     2.952878     2.945235     2.937592
      2.929949     2.922306     2.914662     2.907019     2.899376     2.891733     2.884089     2.876446     2.868803     2.861160
      2.853517     2.845873     2.838230     2.830587     2.822944     2.815300     2.807657     2.800014     2.792371     2.784728
      2.777084     2.769441     2.761798     2.754155     2.746511     2.738868     2.731225     2.723582     2.715939     2.708295
      2.700652     2.693009     2.685366     2.677722     2.670079     2.662436     2.654793     2.647150     2.639506     2.631863
      2.624220     2.616577     2.608933     2.601290     2.593647     2.586004     2.578361     2.570717     2.563074     2.555431
      2.547788     2.540144     2.532501     2.524858     2.517215     2.509572     2.501928     2.494285     2.486642     2.478999
      2.471355     2.463712     2.456069     2.448426     2.440783     2.433139     2.425496     2.417853     2.410210     2.402566
      2.394923     2.387280     2.379637     2.371994     2.364350     2.356707     2.349064     2.341421     2.333777     2.326134
      2.318491     2.310848     2.303205     2.295561     2.287918     2.280275     2.272632     2.264988     2.257345     2.249702
      2.242059     2.234416     2.226772     2.219129     2.211486     2.203843     2.196199     2.188556     2.180913     2.173270
      2.165627     2.157983     2.150340     2.142697     2.135054     2.127410     2.119767     2.112124     2.104481     2.096838
      2.089194     2.081551     2.073908     2.066265     2.058621     2.050978     2.043335     2.035692     2.028049     2.020405
      2.012762     2.005119     1.997476     1.989833     1.982190     1.974546     1.966903     1.959260     1.951617     1.943974
      1.936331     1.928688     1.921045     1.913402     1.905759     1.898115     1.890472     1.882829     1.875186     1.867543
      1.859900     1.852257     1.844614     1.836971     1.829327     1.821684     1.814041     1.806398     1.798755     1.791112
      1.783469     1.775826     1.768183     1.760540     1.752896     1.745253     1.737610     1.729967     1.722324     1.714681
      1.707038     1.699395     1.691752     1.684108     1.676465     1.668822     1.661179     1.653536     1.645893     1.638250
      1.630607     1.622964     1.615321     1.607677     1.600034     1.592391     1.584748     1.577105     1.569462     1.561819
      1.554176     1.546533     1.538890     1.531246     1.523603     1.515960     1.508317     1.500674     1.493031     1.485388
      1.477745     1.470102     1.462458     1.454815     1.447172     1.439529     1.431886     1.424243     1.416600     1.408957
      1.401314     1.393671     1.386027     1.378384     1.370741     1.363098     1.355455     1.347812     1.340169     1.332526
      1.324883     1.317240     1.309596     1.301953     1.294310     1.286667     1.279024     1.271381     1.263738     1.256095
      1.248452     1.240808     1.233165     1.225522     1.217879     1.210236     1.202593     1.194950     1.187307     1.179664
      1.172021     1.164377     1.156734     1.149091     1.141448     1.133805     1.126162     1.118519     1.110876     1.103233
      1.095590     1.087946     1.080303     1.072660     1.065017     1.057374     1.049731     1.042088     1.034445     1.026802
      1.019158     1.011515     1.003872     0.996229     0.988586     0.980943     0.973300     0.965657     0.958014     0.950371
      0.942727     0.935084     0.927441     0.919798     0.912155     0.904512     0.896869     0.889226     0.881583     0.873940
      0.866296     0.858653     0.851010     0.843367     0.835724     0.828081     0.820438     0.812795     0.805152     0.797508
      0.789865     0.782222     0.774579     0.766936     0.759293     0.751650     0.744007     0.736364     0.728721     0.721077
      0.713434     0.705791     0.698148     0.690505     0.682862     0.675219     0.667576     0.659933     0.652290     0.644646
      0.637003     0.629360     0.621717     0.614074     0.606431     0.598788     0.591145     0.583502     0.575858     0.568215
      0.560572     0.552929     0.545286     0.537643     0.530000     0.522357     0.514714     0.507071     0.499427     0.491784
      0.484141     0.476498     0.468855     0.461212     0.453569     0.445925     0.438282     0.430639     0.422996     0.415353
      0.407710     0.400067     0.392424     0.384780     0.377137     0.369494     0.361851     0.354208     0.346565     0.338922
      0.331278     0.323635     0.315992     0.308349     0.300706     0.293063     0.285420     0.277777     0.270133     0.262490
      0.254847     0.247204     0.239561     0.231918     0.224275     0.216631     0.208988     0.201345
 NY phased data points follow
  -1.24510E+01 -3.38368E+01 -5.25183E+00  1.16150E+00 -3.35960E-01  5.00382E+00 -2.46462E+00  9.35444E+00 -1.51229E+00  1.54153E+01
   1.48306E+01  1.70769E+01  1.97503E+01  3.50950E+01 -9.55330E-01  1.19942E+01 -9.74955E+00  1.30583E+00  4.02243E-01  1.03446E+01
  -5.65378E+00 -1.88681E+00  7.70441E+00  4.94453E+00  1.67029E+01 -3.09746E+00  5.25451E+00  9.21902E-01  1.59565E-01  1.64834E+01
  -1.31769E+01  1.46115E+01  5.40448E+00  1.71557E+01  7.77036E-01  4.47254E+00  2.83405E+00 -1.01642E+01  1.73473E+00  4.85147E+00
  -1.34490E+01 -9.85216E+00 -3.57706E+00  2.23286E+00 -2.47583E+00  8.36006E+00  2.22495E+01  1.25305E+01  1.21768E+01  6.38384E+00
   3.19606E+00 -1.27159E+01 -1.33051E+01 -7.09533E-01 -9.28180E-01 -3.77111E+00 -2.32104E+00 -8.08165E-01 -1.32548E+01  3.00460E+00
   2.44530E+00 -5.14496E+00 -2.64079E+01 -9.59916E+00 -1.27182E+01 -2.35110E+01 -1.78043E+01 -1.06243E+01 -1.34088E+00 -1.46418E+01
  -6.13457E+00  2.49216E+00 -2.11969E+01 -8.04599E+00 -8.99279E+00 -3.89880E+00 -3.13636E+00  6.17754E-01 -1.64421E+01 -2.41311E-01
  -2.23082E+01 -6.91422E+00 -5.18570E+00 -7.54707E+00 -1.13115E+01 -1.14804E+01 -2.47068E+00 -1.99697E+00 -1.51085E+01 -8.32446E-02
  -4.60006E+00 -6.35179E+00 -1.20235E+01 -6.66092E+00 -8.78799E+00 -6.17794E+00  2.59799E+00  8.43667E+00 -8.70552E+00  9.18337E+00
   2.50464E+01  4.98992E+01  4.85510E+01  3.91020E+01  5.28039E+01  4.28558E+01  2.81290E+01  1.68888E+01  8.69057E+00  3.23326E+00
  -5.84589E+00 -1.26460E+01  1.88403E+00 -1.13305E+01 -6.65945E+00 -2.62505E+00 -1.26747E+01 -4.17446E+00 -6.75516E+00 -1.06310E+01
  -1.28328E+01 -5.56284E+00  6.70878E+00  2.02042E+01  3.55503E+00  2.02331E+01  4.39319E+01  4.16510E+01  5.36307E+01  3.98763E+01
   3.10150E+01  2.32580E+01 -8.30335E+00 -2.89435E+00 -5.05428E+00 -1.68372E+01 -4.52870E+00 -9.72045E+00 -2.71264E+00  3.65610E+00
  -2.38132E+01  3.08077E+00 -3.54394E+00 -1.19351E+00 -4.42952E+00  7.21981E+00 -9.18795E+00 -7.13952E+00 -8.90097E+00 -9.61235E+00
   5.86289E-01 -6.37014E+00 -2.99610E+00 -4.10716E+00 -1.83183E+01  3.71190E-01 -1.08374E+01 -1.88724E+01 -1.62113E+01 -3.66737E+00
  -1.10415E+01  1.91581E+00 -1.44081E+00 -1.34636E+01 -1.45873E+01 -2.11837E+00 -1.78397E+01 -3.06516E+00 -1.58329E+01 -7.20644E+00
  -2.57626E+01 -2.58439E+01 -3.43085E+01 -8.43325E+00 -2.03069E+01 -4.09379E+01 -3.26439E+01 -3.50363E+01 -3.21983E+01 -3.34868E+01
  -2.98709E+01 -2.15472E+01 -2.89691E+01 -2.15113E+01 -1.95137E+01 -1.89676E+01 -2.46840E+01 -8.65136E+00 -5.60070E+00 -2.22171E+01
  -5.57185E+00 -9.98248E+00 -3.39464E+00  6.90798E-01 -1.30078E+01 -1.33604E+01 -2.40983E+01 -6.58856E+00 -1.53767E+01 -1.41956E+01
  -2.96055E+01 -1.74215E+01 -5.75342E+00 -1.81523E+01 -5.88522E+00  8.00496E+00 -1.00119E+01  8.80145E+00 -2.38718E+01 -5.09270E+00
  -2.54550E+01 -1.27945E+01 -3.07805E+00 -3.69070E+00  1.19640E+01  7.05445E+00  7.73733E+00  1.93621E+01 -2.17592E+00 -2.94069E+00
  -1.32732E+01 -6.34424E+00 -7.74194E+00 -2.14669E+01 -1.47316E+01 -6.44702E+00  3.84553E+00  6.64853E+00  1.45591E+01  1.96210E+01
  -2.58023E+00 -1.17493E+01  1.30491E+01  4.04072E+00 -7.88045E-01  9.53771E+00 -8.48172E-01  4.87507E+00  9.19584E+00  1.25256E+00
   2.34952E+00  6.01805E+00 -1.28812E+01 -4.88550E+00 -1.72539E+01  1.60455E+00  7.98087E-01  4.42546E+00  1.18264E+01  2.56540E+01
   1.02320E+01  3.16528E+01  2.63810E+01  4.01491E+01  4.07263E+01  4.55885E+01  5.99240E+01  7.63072E+01  1.00877E+02  1.25804E+02
   1.36679E+02  1.27810E+02  1.48792E+02  1.02837E+02  5.99832E+01  2.66397E+01  2.53808E+01  2.00509E+01  7.07824E+00  1.66122E+01
   1.67724E+01  2.04239E+01  2.51514E+00 -1.13913E+01 -1.93657E+00 -2.25982E+00 -6.97363E+00  1.01815E+00 -2.06203E+01 -3.97867E-01
  -6.02695E+00  6.66400E-01 -1.08921E+01  3.30669E+00 -1.14627E+01 -3.89345E+00  2.16968E+00 -1.41328E+01 -1.85022E+00 -1.01069E+01
   2.50928E+00  4.35590E+00 -1.28221E+01  1.36859E+00 -6.40601E+00 -7.63496E+00 -7.24013E+00 -9.39789E+00 -1.17536E+01  6.57159E+00
  -9.32736E+00 -2.70490E-01 -1.94524E+00 -3.90409E+00  1.75806E+00 -5.74602E+00 -3.82700E+00  1.21306E+00  8.82789E+00  1.76557E+00
   1.82141E+01  1.19952E+01  1.35754E+01 -9.87920E+00  9.91192E+00 -4.07575E+00 -5.46592E+00 -4.47142E+00  8.86556E+00  6.56383E+00
   1.78707E+01  2.02794E+01  3.44737E+01  2.02357E+01  3.13511E+01  3.02791E+01  3.63912E+01  2.21628E+01  3.17595E+01  2.77900E+01
   2.37665E+01  3.67466E+01  3.75619E+01  4.37240E+01  5.22961E+01  6.57838E+01  4.77816E+01  5.91025E+01  5.40321E+01  5.03763E+01
   4.16721E+01  5.33576E+01  5.22118E+01  5.06908E+01  6.06566E+01  5.49758E+01  5.16290E+01  5.07283E+01  2.81840E+01  2.47411E+01
   2.13792E+01  3.31303E+01  2.05065E+01  6.94766E+00  2.33049E+01  2.82661E+01  3.10462E+01  2.31762E+01  1.02395E+01  3.12725E+01
   1.33847E+01  1.63630E+01  2.08489E+01  1.88884E+01  1.87812E+01  2.30374E+01  9.13843E+00  7.57275E+00  1.76984E+01  1.01193E+01
   1.32281E+01  1.51791E+01  1.52175E+01  7.56296E+00  2.97053E+00  9.25032E-01 -1.78487E+01 -9.02126E+00 -8.58285E+00  2.25921E+00
  -1.64293E+01 -6.06629E+00 -1.35885E+01 -7.99661E-01 -9.58129E+00  8.55403E+00  3.63938E+00  2.89287E+00 -1.04253E+01  1.61099E+01
  -6.76240E+00 -8.38962E-01 -1.86186E+01  1.28825E+01  6.66201E+00  7.62207E+00  1.24707E+01  3.01334E+00  6.10262E+00  1.24577E+01
   1.09170E+01  2.40471E+01  8.99299E+00 -4.73459E+00  1.92583E+01  1.49849E+01  1.53964E+01  2.31705E+01 -5.15713E+00  3.00049E+01
   1.04348E+01  2.72547E+00  1.48420E+01  2.78164E+01  7.62181E+00 -9.16425E+00 -7.61180E+00  1.24390E+00 -5.55598E-01 -1.02752E+01
  -4.77355E+00 -1.34857E+01 -1.70727E+01 -9.70130E+00 -1.10820E+01 -6.64390E+00 -4.25511E+00 -1.79348E+01 -7.72143E+00 -2.50480E+00
  -4.62829E+00 -9.18467E+00 -6.85131E+00 -5.55233E+00 -1.71901E+01 -1.67330E+01 -4.99570E+00 -7.32664E+00  6.26269E-01 -7.00039E+00
  -1.25063E+01 -1.23358E+01 -3.90922E-01 -1.31153E+01 -4.45460E+00 -4.69426E+00 -1.11410E+01 -1.07623E+01 -2.42053E+01 -1.65204E+01
  -7.41954E+00 -1.93605E+01 -1.99821E+01 -1.18885E+01 -1.92757E+01 -9.59864E+00 -1.04445E+01 -1.87211E+01 -3.45889E+00 -6.66455E+00
  -1.56582E+01 -1.07801E+01 -1.76065E+01 -1.11082E+01 -1.91908E+00 -1.27604E+01 -1.79893E+01 -2.71643E-02  1.01263E+01 -3.15828E+00
  -8.03993E+00 -1.30956E+00 -8.83023E+00 -1.41103E+01  2.86879E+00 -8.35345E+00 -1.12789E+01 -6.67784E+00 -1.41900E+01 -9.23966E+00
  -7.70404E+00 -6.70542E+00 -7.17710E-01 -6.60552E+00 -7.23153E+00 -4.76796E+00 -1.26637E+01  6.03617E+00 -9.28685E+00 -2.33440E+01
  -1.48832E+01 -1.09516E+01 -1.96420E+01 -2.15481E+01 -1.78264E+01 -2.87218E+00 -8.47554E+00 -1.70113E+01
 NY points of the fit to the data follow
  -1.02313E+01 -1.07177E+01 -1.03866E+01 -9.44019E+00 -7.54742E+00 -4.46933E+00 -6.59557E-01  3.78314E+00  8.83369E+00  1.40515E+01
   1.84392E+01  2.08195E+01  2.05793E+01  1.76685E+01  1.26487E+01  6.91060E+00  2.01461E+00 -1.23003E+00 -2.95661E+00 -3.89066E+00
  -4.26400E+00 -4.32104E+00 -4.35527E+00 -4.13969E+00 -4.04792E+00 -4.04607E+00 -3.47590E+00 -1.80575E+00  1.18224E+00  5.10826E+00
   9.41212E+00  1.30606E+01  1.46382E+01  1.35382E+01  1.02314E+01  5.68269E+00  8.31041E-01 -3.71255E+00 -7.13227E+00 -8.57305E+00
  -8.06477E+00 -6.20194E+00 -3.63729E+00 -7.20007E-01  2.37018E+00  5.25379E+00  7.43207E+00  8.37760E+00  7.68803E+00  5.25338E+00
   1.47671E+00 -2.53906E+00 -5.57641E+00 -7.23796E+00 -7.80126E+00 -7.61765E+00 -6.87135E+00 -5.79524E+00 -4.74888E+00 -4.01022E+00
  -3.76198E+00 -4.17685E+00 -5.22532E+00 -6.65793E+00 -7.96125E+00 -8.69126E+00 -8.77600E+00 -8.34901E+00 -7.58108E+00 -6.68850E+00
  -5.88637E+00 -5.31560E+00 -4.99815E+00 -4.92697E+00 -5.11904E+00 -5.52929E+00 -6.04709E+00 -6.59766E+00 -7.12729E+00 -7.51107E+00
  -7.63969E+00 -7.60058E+00 -7.39388E+00 -7.03326E+00 -6.65797E+00 -6.51092E+00 -6.80194E+00 -7.55246E+00 -8.65342E+00 -9.83489E+00
  -1.07393E+01 -1.10771E+01 -1.08782E+01 -1.04834E+01 -1.00968E+01 -9.02898E+00 -5.68893E+00 -7.75509E-01  5.44978E+00  1.38834E+01
   2.48289E+01  3.68355E+01  4.69223E+01  5.22800E+01  5.11067E+01  4.28453E+01  2.96638E+01  1.60035E+01  5.58762E+00 -8.67750E-01
  -4.84964E+00 -7.42255E+00 -8.52890E+00 -8.90305E+00 -9.08279E+00 -9.18753E+00 -9.26298E+00 -9.29315E+00 -9.19297E+00 -8.56928E+00
  -6.19855E+00 -2.12303E+00  3.08385E+00  9.89876E+00  1.86586E+01  2.85263E+01  3.74360E+01  4.31010E+01  4.38437E+01  3.89365E+01
   2.95261E+01  1.86984E+01  9.54428E+00  3.09065E+00 -1.56753E+00 -5.31294E+00 -7.88747E+00 -9.12171E+00 -9.17824E+00 -8.23245E+00
  -6.77168E+00 -5.39751E+00 -4.50659E+00 -4.26075E+00 -4.62720E+00 -5.33891E+00 -6.10438E+00 -6.77989E+00 -7.33415E+00 -7.79150E+00
  -8.18505E+00 -8.52527E+00 -8.81827E+00 -9.05025E+00 -9.28048E+00 -9.51005E+00 -9.70683E+00 -9.92826E+00 -1.02297E+01 -1.07156E+01
  -1.13407E+01 -1.18465E+01 -1.20286E+01 -1.18569E+01 -1.15122E+01 -1.13284E+01 -1.16148E+01 -1.24598E+01 -1.36365E+01 -1.48041E+01
  -1.57633E+01 -1.64165E+01 -1.69444E+01 -1.75317E+01 -1.81853E+01 -1.87450E+01 -1.89766E+01 -1.88166E+01 -1.84121E+01 -1.79756E+01
  -1.77799E+01 -1.78755E+01 -1.80105E+01 -1.78900E+01 -1.73198E+01 -1.63226E+01 -1.49691E+01 -1.31931E+01 -1.09493E+01 -8.46394E+00
  -6.29149E+00 -5.12652E+00 -5.21517E+00 -6.35758E+00 -8.04435E+00 -9.65512E+00 -1.06708E+01 -1.06597E+01 -9.48046E+00 -7.33855E+00
  -4.60223E+00 -1.77720E+00  5.03563E-01  1.39746E+00  7.11737E-01 -1.46607E+00 -5.10302E+00 -9.69058E+00 -1.41182E+01 -1.69759E+01
  -1.74860E+01 -1.56253E+01 -1.14612E+01 -5.66811E+00  2.50658E-01  4.50598E+00  5.93660E+00  4.42167E+00  2.58954E-01 -5.95459E+00
  -1.24131E+01 -1.70583E+01 -1.87660E+01 -1.74480E+01 -1.36872E+01 -8.31003E+00 -2.65968E+00  1.63862E+00  3.76900E+00  3.99009E+00
   3.34752E+00  2.60513E+00  2.06232E+00  2.09455E+00  2.95268E+00  4.33618E+00  5.53850E+00  6.23832E+00  6.43104E+00  6.02912E+00
   4.86275E+00  3.26890E+00  2.01237E+00  1.65937E+00  2.32426E+00  3.85502E+00  6.00572E+00  8.22631E+00  1.00736E+01  1.17675E+01
   1.35870E+01  1.58484E+01  1.91974E+01  2.61110E+01  3.79329E+01  5.16151E+01  6.68712E+01  8.49692E+01  1.05249E+02  1.23889E+02
   1.35795E+02  1.37095E+02  1.25337E+02  1.01081E+02  7.08829E+01  4.38980E+01  2.52334E+01  1.38025E+01  6.24808E+00  1.57092E+00
  -3.38218E-01 -1.19701E+00 -1.61781E+00 -1.74218E+00 -1.73336E+00 -1.77042E+00 -1.95251E+00 -2.33360E+00 -2.87733E+00 -3.47177E+00
  -4.00885E+00 -4.44381E+00 -4.75970E+00 -4.94426E+00 -5.01578E+00 -5.01637E+00 -4.98630E+00 -4.94274E+00 -4.87937E+00 -4.78580E+00
  -4.65689E+00 -4.48502E+00 -4.27140E+00 -4.02482E+00 -3.75769E+00 -3.47912E+00 -3.19216E+00 -2.89454E+00 -2.58304E+00 -2.25812E+00
  -1.92350E+00 -1.58173E+00 -1.23888E+00 -9.04751E-01 -5.86751E-01 -2.86651E-01 -2.00512E-04  2.81078E-01  5.69334E-01  8.81618E-01
   1.23741E+00  1.65836E+00  2.16982E+00  2.80078E+00  3.58352E+00  4.55388E+00  5.75221E+00  7.22730E+00  9.05038E+00  1.13567E+01
   1.42048E+01  1.72135E+01  2.03021E+01  2.34777E+01  2.64543E+01  2.87004E+01  2.97377E+01  2.95496E+01  2.88165E+01  2.81431E+01
   2.82807E+01  3.00717E+01  3.37872E+01  3.89023E+01  4.44801E+01  4.97542E+01  5.40904E+01  5.66531E+01  5.71579E+01  5.61746E+01
   5.47719E+01  5.34869E+01  5.20803E+01  5.05386E+01  4.89415E+01  4.69078E+01  4.38072E+01  3.93161E+01  3.39211E+01  2.83215E+01
   2.31948E+01  1.96636E+01  1.85851E+01  1.98618E+01  2.25226E+01  2.54791E+01  2.80038E+01  2.93227E+01  2.88036E+01  2.67286E+01
   2.39625E+01  2.12713E+01  1.88714E+01  1.66397E+01  1.46155E+01  1.28436E+01  1.12191E+01  9.69667E+00  8.26339E+00  6.91743E+00
   5.66135E+00  4.49915E+00  3.43501E+00  2.47242E+00  1.61401E+00  8.61467E-01  2.15827E-01 -3.22475E-01 -7.53378E-01 -1.07711E+00
  -1.29387E+00 -1.40373E+00 -1.40646E+00 -1.30168E+00 -1.08893E+00 -7.67866E-01 -3.38474E-01  1.98556E-01  8.41450E-01  1.58672E+00
   2.42877E+00  3.35928E+00  4.36702E+00  5.43736E+00  6.55222E+00  7.68997E+00  8.82585E+00  9.93247E+00  1.09807E+01  1.19407E+01
   1.27829E+01  1.34796E+01  1.40063E+01  1.43425E+01  1.44738E+01  1.43916E+01  1.40942E+01  1.35870E+01  1.28817E+01  1.19962E+01
   1.09536E+01  9.78055E+00  8.50637E+00  7.16129E+00  5.77536E+00  4.37713E+00  2.99263E+00  1.64451E+00  3.51624E-01 -8.71261E-01
  -2.01334E+00 -3.06770E+00 -4.03084E+00 -4.90238E+00 -5.68431E+00 -6.38062E+00 -6.99653E+00 -7.53825E+00 -8.01245E+00 -8.42600E+00
  -8.78561E+00 -9.09766E+00 -9.36801E+00 -9.60209E+00 -9.80474E+00 -9.98031E+00 -1.01325E+01 -1.02647E+01 -1.03795E+01 -1.04793E+01
  -1.05664E+01 -1.06423E+01 -1.07086E+01 -1.07666E+01 -1.08172E+01 -1.08614E+01 -1.09000E+01 -1.09337E+01 -1.09631E+01 -1.09886E+01
  -1.10106E+01 -1.10295E+01 -1.10457E+01 -1.10595E+01 -1.10710E+01 -1.10805E+01 -1.10881E+01 -1.10941E+01 -1.10986E+01 -1.11018E+01
  -1.11036E+01 -1.11043E+01 -1.11039E+01 -1.11026E+01 -1.11004E+01 -1.10974E+01 -1.10936E+01 -1.10890E+01 -1.10838E+01 -1.10779E+01
  -1.10715E+01 -1.10646E+01 -1.10571E+01 -1.10491E+01 -1.10406E+01 -1.10317E+01 -1.10224E+01 -1.10126E+01 -1.10024E+01 -1.09918E+01
  -1.09809E+01 -1.09696E+01 -1.09580E+01 -1.09459E+01 -1.09335E+01 -1.09207E+01 -1.09076E+01 -1.08941E+01 -1.08802E+01 -1.08658E+01
  -1.08510E+01 -1.08358E+01 -1.08201E+01 -1.08039E+01 -1.07871E+01 -1.07697E+01 -1.07516E+01 -1.07328E+01
 NY background values follow
    -1.295E+01   -1.294E+01   -1.294E+01   -1.293E+01   -1.292E+01   -1.292E+01   -1.291E+01   -1.290E+01   -1.290E+01   -1.289E+01
    -1.289E+01   -1.288E+01   -1.287E+01   -1.287E+01   -1.286E+01   -1.285E+01   -1.285E+01   -1.284E+01   -1.283E+01   -1.283E+01
    -1.282E+01   -1.282E+01   -1.281E+01   -1.280E+01   -1.280E+01   -1.279E+01   -1.278E+01   -1.278E+01   -1.277E+01   -1.276E+01
    -1.276E+01   -1.275E+01   -1.275E+01   -1.274E+01   -1.273E+01   -1.273E+01   -1.272E+01   -1.271E+01   -1.271E+01   -1.270E+01
    -1.269E+01   -1.269E+01   -1.268E+01   -1.267E+01   -1.267E+01   -1.266E+01   -1.265E+01   -1.265E+01   -1.264E+01   -1.263E+01
    -1.263E+01   -1.262E+01   -1.261E+01   -1.261E+01   -1.260E+01   -1.259E+01   -1.259E+01   -1.258E+01   -1.257E+01   -1.257E+01
    -1.256E+01   -1.255E+01   -1.255E+01   -1.254E+01   -1.253E+01   -1.253E+01   -1.252E+01   -1.251E+01   -1.251E+01   -1.250E+01
    -1.249E+01   -1.249E+01   -1.248E+01   -1.247E+01   -1.247E+01   -1.246E+01   -1.245E+01   -1.245E+01   -1.244E+01   -1.243E+01
    -1.243E+01   -1.242E+01   -1.241E+01   -1.241E+01   -1.240E+01   -1.239E+01   -1.239E+01   -1.238E+01   -1.237E+01   -1.237E+01
    -1.236E+01   -1.235E+01   -1.235E+01   -1.234E+01   -1.233E+01   -1.233E+01   -1.232E+01   -1.231E+01   -1.230E+01   -1.230E+01
    -1.229E+01   -1.228E+01   -1.228E+01   -1.227E+01   -1.226E+01   -1.226E+01   -1.225E+01   -1.224E+01   -1.224E+01   -1.223E+01
    -1.222E+01   -1.221E+01   -1.221E+01   -1.220E+01   -1.219E+01   -1.219E+01   -1.218E+01   -1.217E+01   -1.217E+01   -1.216E+01
    -1.215E+01   -1.215E+01   -1.214E+01   -1.213E+01   -1.212E+01   -1.212E+01   -1.211E+01   -1.210E+01   -1.210E+01   -1.209E+01
    -1.208E+01   -1.207E+01   -1.207E+01   -1.206E+01   -1.205E+01   -1.205E+01   -1.204E+01   -1.203E+01   -1.203E+01   -1.202E+01
    -1.201E+01   -1.200E+01   -1.200E+01   -1.199E+01   -1.198E+01   -1.198E+01   -1.197E+01   -1.196E+01   -1.195E+01   -1.195E+01
    -1.194E+01   -1.193E+01   -1.193E+01   -1.192E+01   -1.191E+01   -1.190E+01   -1.190E+01   -1.189E+01   -1.188E+01   -1.187E+01
    -1.187E+01   -1.186E+01   -1.185E+01   -1.185E+01   -1.184E+01   -1.183E+01   -1.182E+01   -1.182E+01   -1.181E+01   -1.180E+01
    -1.180E+01   -1.179E+01   -1.178E+01   -1.177E+01   -1.177E+01   -1.176E+01   -1.175E+01   -1.174E+01   -1.174E+01   -1.173E+01
    -1.172E+01   -1.171E+01   -1.171E+01   -1.170E+01   -1.169E+01   -1.169E+01   -1.168E+01   -1.167E+01   -1.166E+01   -1.166E+01
    -1.165E+01   -1.164E+01   -1.163E+01   -1.163E+01   -1.162E+01   -1.161E+01   -1.160E+01   -1.160E+01   -1.159E+01   -1.158E+01
    -1.157E+01   -1.157E+01   -1.156E+01   -1.155E+01   -1.154E+01   -1.154E+01   -1.153E+01   -1.152E+01   -1.151E+01   -1.151E+01
    -1.150E+01   -1.149E+01   -1.149E+01   -1.148E+01   -1.147E+01   -1.146E+01   -1.146E+01   -1.145E+01   -1.144E+01   -1.143E+01
    -1.142E+01   -1.142E+01   -1.141E+01   -1.140E+01   -1.139E+01   -1.139E+01   -1.138E+01   -1.137E+01   -1.136E+01   -1.136E+01
    -1.135E+01   -1.134E+01   -1.133E+01   -1.133E+01   -1.132E+01   -1.131E+01   -1.130E+01   -1.130E+01   -1.129E+01   -1.128E+01
    -1.127E+01   -1.127E+01   -1.126E+01   -1.125E+01   -1.124E+01   -1.124E+01   -1.123E+01   -1.122E+01   -1.121E+01   -1.120E+01
    -1.120E+01   -1.119E+01   -1.118E+01   -1.117E+01   -1.117E+01   -1.116E+01   -1.115E+01   -1.114E+01   -1.114E+01   -1.113E+01
    -1.112E+01   -1.111E+01   -1.110E+01   -1.110E+01   -1.109E+01   -1.108E+01   -1.107E+01   -1.107E+01   -1.106E+01   -1.105E+01
    -1.104E+01   -1.103E+01   -1.103E+01   -1.102E+01   -1.101E+01   -1.100E+01   -1.100E+01   -1.099E+01   -1.098E+01   -1.097E+01
    -1.096E+01   -1.096E+01   -1.095E+01   -1.094E+01   -1.093E+01   -1.093E+01   -1.092E+01   -1.091E+01   -1.090E+01   -1.089E+01
    -1.089E+01   -1.088E+01   -1.087E+01   -1.086E+01   -1.086E+01   -1.085E+01   -1.084E+01   -1.083E+01   -1.082E+01   -1.082E+01
    -1.081E+01   -1.080E+01   -1.079E+01   -1.078E+01   -1.078E+01   -1.077E+01   -1.076E+01   -1.075E+01   -1.075E+01   -1.074E+01
    -1.073E+01   -1.072E+01   -1.071E+01   -1.071E+01   -1.070E+01   -1.069E+01   -1.068E+01   -1.067E+01   -1.067E+01   -1.066E+01
    -1.065E+01   -1.064E+01   -1.063E+01   -1.063E+01   -1.062E+01   -1.061E+01   -1.060E+01   -1.059E+01   -1.059E+01   -1.058E+01
    -1.057E+01   -1.056E+01   -1.055E+01   -1.055E+01   -1.054E+01   -1.053E+01   -1.052E+01   -1.051E+01   -1.051E+01   -1.050E+01
    -1.049E+01   -1.048E+01   -1.047E+01   -1.047E+01   -1.046E+01   -1.045E+01   -1.044E+01   -1.043E+01   -1.043E+01   -1.042E+01
    -1.041E+01   -1.040E+01   -1.039E+01   -1.039E+01   -1.038E+01   -1.037E+01   -1.036E+01   -1.035E+01   -1.034E+01   -1.034E+01
    -1.033E+01   -1.032E+01   -1.031E+01   -1.030E+01   -1.030E+01   -1.029E+01   -1.028E+01   -1.027E+01   -1.026E+01   -1.026E+01
    -1.025E+01   -1.024E+01   -1.023E+01   -1.022E+01   -1.022E+01   -1.021E+01   -1.020E+01   -1.019E+01   -1.018E+01   -1.017E+01
    -1.017E+01   -1.016E+01   -1.015E+01   -1.014E+01   -1.013E+01   -1.013E+01   -1.012E+01   -1.011E+01   -1.010E+01   -1.009E+01
    -1.008E+01   -1.008E+01   -1.007E+01   -1.006E+01   -1.005E+01   -1.004E+01   -1.004E+01   -1.003E+01   -1.002E+01   -1.001E+01
    -1.000E+01   -9.994E+00   -9.986E+00   -9.978E+00   -9.969E+00   -9.961E+00   -9.953E+00   -9.945E+00   -9.936E+00   -9.928E+00
    -9.920E+00   -9.912E+00   -9.903E+00   -9.895E+00   -9.887E+00   -9.878E+00   -9.870E+00   -9.862E+00   -9.854E+00   -9.845E+00
    -9.837E+00   -9.829E+00   -9.821E+00   -9.812E+00   -9.804E+00   -9.796E+00   -9.787E+00   -9.779E+00   -9.771E+00   -9.762E+00
    -9.754E+00   -9.746E+00   -9.738E+00   -9.729E+00   -9.721E+00   -9.713E+00   -9.704E+00   -9.696E+00   -9.688E+00   -9.679E+00
    -9.671E+00   -9.663E+00   -9.654E+00   -9.646E+00   -9.638E+00   -9.629E+00   -9.621E+00   -9.612E+00   -9.604E+00   -9.596E+00
    -9.587E+00   -9.579E+00   -9.571E+00   -9.562E+00   -9.554E+00   -9.546E+00   -9.537E+00   -9.529E+00   -9.520E+00   -9.512E+00
    -9.504E+00   -9.495E+00   -9.487E+00   -9.479E+00   -9.470E+00   -9.462E+00   -9.453E+00   -9.445E+00   -9.437E+00   -9.428E+00
    -9.420E+00   -9.411E+00   -9.403E+00   -9.394E+00   -9.386E+00   -9.378E+00   -9.369E+00   -9.361E+00   -9.352E+00   -9.344E+00
    -9.336E+00   -9.327E+00   -9.319E+00   -9.310E+00   -9.302E+00   -9.293E+00   -9.285E+00   -9.276E+00   -9.268E+00   -9.260E+00
    -9.251E+00   -9.243E+00   -9.234E+00   -9.226E+00   -9.217E+00   -9.209E+00   -9.200E+00   -9.192E+00
 Ala      Conc. = 8.15E+02
