 LCModel (Version 6.3-1L) Copyright: S.W. Provencher.          Ref.: Magn. Reson. Med. 30:672-679 (1993).                
 Slice#1 Row#12 Col#10  PD_05_press_2_raw_act
 36 lines in following concentration table = NCONC+1
    Conc.  %SD /Cr+PCr  Metabolite                                         
   43.812  96%   0.976 Ala                                                 
    4.476 154%   0.100 Asp                                                 
   44.904  41%   1.000 Cr                                                  
    0.000 999%   0.000 PCr                                                 
    3.248 127% 7.2E-02 GABA                                                
    3.065 135% 6.8E-02 Glc                                                 
  151.521  57%   3.374 Gln                                                 
  113.512  82%   2.528 Glu                                                 
   17.600  40%   0.392 GPC                                                 
    0.000 999%   0.000 PCh                                                 
   46.335  60%   1.032 GSH                                                 
  184.852  44%   4.117 Ins                                                 
   42.296 117%   0.942 Lac                                                 
    0.000 999%   0.000 NAA                                                 
    0.000 999%   0.000 NAAG                                                
    1.171 117% 2.6E-02 Scyllo                                              
    4.726 145%   0.105 Tau                                                 
    6.492 146%   0.145 -CrCH2                                              
   17.600  40%   0.392 GPC+PCh                                             
    0.000 999%   0.000 NAA+NAAG                                            
   44.904  41%   1.000 Cr+PCr                                              
  265.032  50%   5.902 Glu+Gln                                             
  757.731  21%  16.874 Lip13a                                              
  157.758  41%   3.513 Lip13b                                              
  211.445  21%   4.709 Lip09                                               
    0.739 999% 1.6E-02 MM09                                                
  101.669  32%   2.264 Lip20                                               
    0.000 999%   0.000 MM20                                                
    0.470 995% 1.0E-02 MM12                                                
   12.622 144%   0.281 MM14                                                
    4.463 261% 9.9E-02 MM17                                                
  915.489  15%  20.388 Lip13a+Lip13b                                       
  928.581  14%  20.679 MM14+Lip13a+Lip13b+MM12                             
  212.184  21%   4.725 MM09+Lip09                                          
  101.669  32%   2.264 MM20+Lip20                                          
   6 lines in following misc. output table
  FWHM = 0.054 ppm    S/N =   2                                            
  Data shift =-0.031 ppm                                                   
  Ph:  27 deg     -41.2 deg/ppm                                            
  alphaB,S = 8.5E+01,   4.1E+01                                            
   14 spline knots.   Ns = 5(1)                                            
   2 inflections.     1 extrema                                            
  498 points on ppm-axis = NY
      4.000000     3.992357     3.984714     3.977070     3.969427     3.961784     3.954141     3.946497     3.938854     3.931211
      3.923568     3.915925     3.908281     3.900638     3.892995     3.885352     3.877708     3.870065     3.862422     3.854779
      3.847136     3.839492     3.831849     3.824206     3.816563     3.808919     3.801276     3.793633     3.785990     3.778347
      3.770703     3.763060     3.755417     3.747774     3.740130     3.732487     3.724844     3.717201     3.709558     3.701914
      3.694271     3.686628     3.678985     3.671341     3.663698     3.656055     3.648412     3.640769     3.633125     3.625482
      3.617839     3.610196     3.602552     3.594909     3.587266     3.579623     3.571980     3.564336     3.556693     3.549050
      3.541407     3.533763     3.526120     3.518477     3.510834     3.503191     3.495547     3.487904     3.480261     3.472618
      3.464974     3.457331     3.449688     3.442045     3.434402     3.426758     3.419115     3.411472     3.403829     3.396185
      3.388542     3.380899     3.373256     3.365613     3.357969     3.350326     3.342683     3.335040     3.327396     3.319753
      3.312110     3.304467     3.296824     3.289180     3.281537     3.273894     3.266251     3.258607     3.250964     3.243321
      3.235678     3.228034     3.220391     3.212748     3.205105     3.197462     3.189818     3.182175     3.174532     3.166889
      3.159245     3.151602     3.143959     3.136316     3.128673     3.121029     3.113386     3.105743     3.098100     3.090456
      3.082813     3.075170     3.067527     3.059884     3.052240     3.044597     3.036954     3.029311     3.021667     3.014024
      3.006381     2.998738     2.991095     2.983451     2.975808     2.968165     2.960522     2.952878     2.945235     2.937592
      2.929949     2.922306     2.914662     2.907019     2.899376     2.891733     2.884089     2.876446     2.868803     2.861160
      2.853517     2.845873     2.838230     2.830587     2.822944     2.815300     2.807657     2.800014     2.792371     2.784728
      2.777084     2.769441     2.761798     2.754155     2.746511     2.738868     2.731225     2.723582     2.715939     2.708295
      2.700652     2.693009     2.685366     2.677722     2.670079     2.662436     2.654793     2.647150     2.639506     2.631863
      2.624220     2.616577     2.608933     2.601290     2.593647     2.586004     2.578361     2.570717     2.563074     2.555431
      2.547788     2.540144     2.532501     2.524858     2.517215     2.509572     2.501928     2.494285     2.486642     2.478999
      2.471355     2.463712     2.456069     2.448426     2.440783     2.433139     2.425496     2.417853     2.410210     2.402566
      2.394923     2.387280     2.379637     2.371994     2.364350     2.356707     2.349064     2.341421     2.333777     2.326134
      2.318491     2.310848     2.303205     2.295561     2.287918     2.280275     2.272632     2.264988     2.257345     2.249702
      2.242059     2.234416     2.226772     2.219129     2.211486     2.203843     2.196199     2.188556     2.180913     2.173270
      2.165627     2.157983     2.150340     2.142697     2.135054     2.127410     2.119767     2.112124     2.104481     2.096838
      2.089194     2.081551     2.073908     2.066265     2.058621     2.050978     2.043335     2.035692     2.028049     2.020405
      2.012762     2.005119     1.997476     1.989833     1.982190     1.974546     1.966903     1.959260     1.951617     1.943974
      1.936331     1.928688     1.921045     1.913402     1.905759     1.898115     1.890472     1.882829     1.875186     1.867543
      1.859900     1.852257     1.844614     1.836971     1.829327     1.821684     1.814041     1.806398     1.798755     1.791112
      1.783469     1.775826     1.768183     1.760540     1.752896     1.745253     1.737610     1.729967     1.722324     1.714681
      1.707038     1.699395     1.691752     1.684108     1.676465     1.668822     1.661179     1.653536     1.645893     1.638250
      1.630607     1.622964     1.615321     1.607677     1.600034     1.592391     1.584748     1.577105     1.569462     1.561819
      1.554176     1.546533     1.538890     1.531246     1.523603     1.515960     1.508317     1.500674     1.493031     1.485388
      1.477745     1.470102     1.462458     1.454815     1.447172     1.439529     1.431886     1.424243     1.416600     1.408957
      1.401314     1.393671     1.386027     1.378384     1.370741     1.363098     1.355455     1.347812     1.340169     1.332526
      1.324883     1.317240     1.309596     1.301953     1.294310     1.286667     1.279024     1.271381     1.263738     1.256095
      1.248452     1.240808     1.233165     1.225522     1.217879     1.210236     1.202593     1.194950     1.187307     1.179664
      1.172021     1.164377     1.156734     1.149091     1.141448     1.133805     1.126162     1.118519     1.110876     1.103233
      1.095590     1.087946     1.080303     1.072660     1.065017     1.057374     1.049731     1.042088     1.034445     1.026802
      1.019158     1.011515     1.003872     0.996229     0.988586     0.980943     0.973300     0.965657     0.958014     0.950371
      0.942727     0.935084     0.927441     0.919798     0.912155     0.904512     0.896869     0.889226     0.881583     0.873940
      0.866296     0.858653     0.851010     0.843367     0.835724     0.828081     0.820438     0.812795     0.805152     0.797508
      0.789865     0.782222     0.774579     0.766936     0.759293     0.751650     0.744007     0.736364     0.728721     0.721077
      0.713434     0.705791     0.698148     0.690505     0.682862     0.675219     0.667576     0.659933     0.652290     0.644646
      0.637003     0.629360     0.621717     0.614074     0.606431     0.598788     0.591145     0.583502     0.575858     0.568215
      0.560572     0.552929     0.545286     0.537643     0.530000     0.522357     0.514714     0.507071     0.499427     0.491784
      0.484141     0.476498     0.468855     0.461212     0.453569     0.445925     0.438282     0.430639     0.422996     0.415353
      0.407710     0.400067     0.392424     0.384780     0.377137     0.369494     0.361851     0.354208     0.346565     0.338922
      0.331278     0.323635     0.315992     0.308349     0.300706     0.293063     0.285420     0.277777     0.270133     0.262490
      0.254847     0.247204     0.239561     0.231918     0.224275     0.216631     0.208988     0.201345
 NY phased data points follow
   6.57538E-01 -2.86492E-01  6.16913E-01  1.91888E-01 -7.08789E-01 -1.40713E+00 -1.08729E+00  1.44145E+00 -1.90898E+00  3.52825E-01
  -8.50834E-01 -2.53397E-01 -1.55956E+00 -2.81405E+00  1.19564E-01  3.38014E-01  2.52220E-01  7.29083E-01 -1.30380E+00 -4.58511E-01
  -1.82531E+00  2.63575E-01 -6.66908E-01  1.26047E+00  2.51373E+00  3.39244E+00 -4.58300E-01 -3.61499E-01  7.94543E-01 -2.03250E+00
   2.28728E-02  5.82916E-01 -3.79505E-01  5.40316E-02  5.70459E-01 -8.94496E-01 -1.65870E+00  9.39730E-01 -1.00108E+00 -1.05966E+00
   1.55428E+00  1.77791E+00  1.03241E+00  1.60738E+00  6.95094E-01  1.59241E-02 -1.23895E+00 -7.23272E-02  7.21887E-01  1.31652E+00
  -5.54029E-01  6.03586E-01  1.52394E+00  5.20430E-01 -3.18417E-01 -2.32429E+00 -1.22145E+00  1.25693E+00 -1.00342E+00 -3.82812E-02
  -3.98598E-01  2.90951E-02 -5.41071E-01 -9.81121E-01 -1.87842E-01 -8.52455E-01  5.71001E-01  1.93202E-01 -1.64141E+00 -2.68521E+00
  -7.42529E-01 -9.68951E-01 -8.55068E-01 -2.77141E-01 -2.06738E+00 -1.96824E+00 -1.96622E-01 -2.27066E-01 -2.29947E+00 -7.47229E-01
   1.98535E-01  1.21681E+00 -9.51218E-01  9.97977E-01  3.73950E-01  2.64227E-01 -2.91618E+00 -1.66391E+00  1.51604E+00  5.44988E-01
  -2.04518E-01 -1.12855E+00 -2.63949E+00 -2.76072E+00  7.22913E-01 -5.88680E-02 -1.98768E+00  8.11647E-01 -1.61310E+00 -7.30828E-01
   1.08075E+00  3.40912E-01 -1.46181E+00  2.22586E+00  6.31955E-01  6.28422E-02 -8.31680E-01  1.24142E+00  3.54446E-01 -6.91160E-01
  -6.55199E-01  5.59619E-02  4.04506E-01  2.49320E-01 -1.79627E+00 -3.67248E-01  1.22110E+00  3.81987E-01 -3.01846E+00 -4.27393E-01
  -3.20111E+00 -1.63802E+00  6.71519E-01 -9.21680E-01 -8.74279E-01  5.90650E-01 -1.83533E+00  4.10271E-01  1.93538E+00  1.57385E+00
   2.87204E+00  1.60811E+00 -1.84292E-01  1.51869E+00 -9.30556E-01  8.82880E-01 -1.21127E+00 -2.28956E+00  1.36131E+00 -1.42025E-01
   1.60872E+00 -9.11851E-01  2.80105E-01  1.15593E+00  7.60536E-01  1.00632E+00 -1.24223E+00 -1.46926E+00 -5.35377E-01  1.63964E+00
  -2.60117E-01 -2.62439E+00  3.94065E-01  1.71956E+00 -8.05773E-02  8.16984E-01 -2.52211E+00  1.42222E-01 -5.35418E-01  4.50645E-01
   1.18739E+00  6.17917E-01 -1.99753E+00  7.42172E-01 -1.18323E+00 -1.29980E+00 -2.90078E+00 -2.36820E+00 -6.10502E-02  2.10604E+00
  -1.80512E-01 -3.32627E+00 -2.27207E+00 -2.13867E+00 -9.54924E-01 -4.63469E-01 -8.08301E-01 -3.14217E+00 -5.08605E-01 -1.97129E+00
  -1.62408E+00 -3.20985E+00 -5.77889E-01 -1.41621E+00 -2.63048E+00 -1.14586E+00 -4.66679E-01  7.22739E-01 -1.07891E+00 -9.17731E-02
  -5.86682E-01  1.91395E+00  6.51152E-01 -1.27664E+00 -9.27281E-01 -9.54076E-01 -2.31018E+00 -2.59081E+00 -1.39648E-01 -1.81846E+00
  -1.96443E+00  6.67599E-02 -5.52197E-01 -2.27047E+00  2.80918E-01 -1.31028E+00  6.51064E-01 -1.42259E+00 -2.34186E+00  1.21212E+00
  -3.83378E+00 -1.47306E+00 -1.69753E+00  2.25013E-01 -8.35593E-01 -2.16175E+00 -2.89674E+00 -9.30933E-01 -4.13681E-01  5.48464E-01
  -1.64402E+00 -3.71519E+00 -3.73418E+00 -1.45310E+00  8.65051E-01 -8.73873E-01  5.33445E-01  1.84330E+00 -1.19401E+00 -2.35836E-01
  -2.72319E+00 -6.45621E-01 -3.88791E-01 -1.25627E+00 -2.34239E+00 -1.42576E+00  7.06550E-01 -1.95097E+00 -1.48799E+00 -1.07174E+00
   1.64499E+00 -4.10770E-01 -1.18924E+00 -1.52481E+00 -1.45967E+00 -2.79856E+00 -1.90487E+00 -1.56490E+00 -2.09121E+00 -1.55874E+00
  -2.08692E+00 -1.19742E+00 -5.76451E-01  1.12184E-01 -1.66890E+00 -3.18241E-01 -1.12776E+00 -2.61364E+00 -1.26472E+00 -2.85523E+00
  -2.02550E+00  7.70613E-01  8.20939E-01  8.48840E-01  1.49952E+00 -3.33520E-01  1.96155E+00  1.84292E-01  5.11197E-01  1.71000E+00
  -1.97947E+00  5.45116E-01  1.40964E-01 -1.47688E-01 -9.57393E-01  4.74563E-01  6.00650E-02 -1.50709E-01  3.96786E-01 -9.42922E-01
   2.49106E+00  2.86591E+00  3.08221E-01  1.74174E+00  1.06828E-01 -3.96174E+00 -2.55930E+00 -5.53292E-01 -7.25657E-01 -2.06425E+00
  -1.33863E+00  2.43963E-01 -1.79723E+00 -6.59370E-01 -1.66013E+00  6.88129E-01 -2.28143E+00  4.31939E-01  9.13823E-01  4.01509E-01
   4.61929E+00  1.94124E+00  1.38484E-02 -5.41376E-01  3.50977E-01 -2.15022E-01  1.18107E+00 -1.41164E+00  6.39870E-01  4.48966E-01
   2.17113E+00  4.47029E-01  1.16562E+00  3.31497E+00  1.66962E+00  3.58254E+00  2.81905E+00  4.70667E+00  1.41924E+00  3.90915E+00
   1.27506E+00  3.33842E+00  1.91271E+00  2.51307E+00  1.24574E+00  1.95607E+00  3.05125E+00  2.63733E+00  2.92508E+00  1.89163E+00
   3.04745E+00  1.42124E+00  2.05138E+00  2.65037E+00  2.38862E+00  4.47721E+00  4.08575E+00  2.03982E+00  2.50867E+00  4.00741E+00
   1.77341E+00  4.00154E+00 -1.15478E-01  1.15223E+00 -6.96321E-01  3.32204E-01  3.43853E+00  1.79379E+00  2.80844E+00  2.05416E+00
   1.10725E+00  4.53603E+00  4.91855E+00  2.50538E+00  4.72352E+00  9.19920E-01  5.94435E+00  4.04429E+00  7.37589E+00  6.73991E+00
   6.28386E+00  5.13871E+00  6.45795E+00  4.33472E+00  4.46750E+00  4.72643E+00  3.34765E+00  2.24121E+00  2.03883E+00  2.60553E+00
   3.66497E+00  2.44907E+00  4.21234E+00  2.79051E+00  2.92326E+00  3.49189E+00  1.02821E+00  6.88547E-01  1.78052E+00  1.93485E+00
   2.62068E+00  2.71367E+00  3.70006E+00  3.14799E+00  8.18651E-01  1.53168E+00  2.11797E-01 -1.63905E+00  1.67277E+00  2.91754E+00
   2.66365E+00  3.19514E+00  3.51789E-01 -1.14832E+00 -7.51311E-01  1.29756E+00  3.47499E+00  1.84904E+00  1.42449E+00  9.16507E-01
  -9.95723E-01  2.31246E+00  2.56870E+00  5.35817E-01 -3.16926E-01 -9.17560E-01 -7.48232E-01  5.40525E-01  2.49809E+00  1.80631E+00
   1.60864E+00 -7.29524E-01  2.16166E+00  2.26858E-01  8.47339E-01 -1.04977E+00  6.08605E-01  6.61295E-03 -3.98474E-01  1.29621E+00
   1.83224E+00  2.00261E+00  1.51750E+00  1.42339E+00  7.09779E-01  1.94477E+00  1.87110E+00  2.17572E-01  2.06888E+00  2.15546E+00
  -5.55305E-01  1.35699E+00  6.02897E-01  1.36343E+00 -9.93660E-01  2.40413E+00  1.48048E+00  5.58307E-01  4.17733E-01  4.14642E+00
  -2.78807E-01  1.09955E+00 -8.49945E-01  2.68090E-01 -1.59317E+00  2.75226E+00  4.29834E+00 -1.11296E+00 -3.84181E-01  1.77815E+00
   3.76593E+00  9.23656E-01  1.37451E+00  1.56563E+00  1.64056E+00  1.59530E+00  2.70314E-01  2.68103E+00  8.23176E-01 -1.06922E+00
   1.63822E+00  1.60753E+00  1.80262E+00 -5.76412E-01  3.45946E+00  1.98261E-01 -1.24010E+00 -2.47841E-01  2.07936E+00 -1.04288E+00
   7.70693E-01  3.60666E-01  1.59354E-01  8.23828E-01  1.61467E+00  4.83752E-01 -1.58010E+00  7.01339E-01 -4.33707E-01  6.26014E-01
   9.33154E-01  1.72234E+00  6.52496E-01  3.25947E-02  2.70989E-02  1.28283E+00  2.46519E+00 -1.27084E+00  2.41187E+00 -3.69270E-01
   1.20808E+00  1.11072E-01  1.85567E+00 -1.21489E+00  1.53787E+00  1.13537E+00  1.33216E+00  5.12403E-01
 NY points of the fit to the data follow
  -6.74323E-01 -7.92342E-01 -8.86310E-01 -9.32029E-01 -9.44064E-01 -9.43585E-01 -8.96738E-01 -7.72107E-01 -6.15324E-01 -4.52325E-01
  -2.87012E-01 -1.28372E-01 -1.22151E-03  6.10121E-02  3.67849E-02 -8.75285E-02 -3.02854E-01 -5.37780E-01 -6.81734E-01 -6.95615E-01
  -6.51276E-01 -6.04076E-01 -5.90319E-01 -6.16201E-01 -6.48208E-01 -6.31822E-01 -5.88101E-01 -4.95844E-01 -3.26506E-01 -8.75363E-02
   1.86883E-01  4.53853E-01  6.68708E-01  7.29310E-01  5.74923E-01  2.37556E-01 -1.62385E-01 -4.94201E-01 -7.48945E-01 -8.76665E-01
  -8.78030E-01 -8.03846E-01 -6.80292E-01 -4.97389E-01 -2.70103E-01 -3.46452E-02  2.01909E-01  4.10706E-01  5.45152E-01  5.71879E-01
   4.65432E-01  2.14766E-01 -1.53833E-01 -5.61227E-01 -8.68984E-01 -9.61759E-01 -8.77219E-01 -7.17480E-01 -5.53407E-01 -4.10614E-01
  -3.03927E-01 -2.47501E-01 -2.46613E-01 -2.97516E-01 -3.94782E-01 -5.25294E-01 -6.48943E-01 -7.05273E-01 -6.82105E-01 -5.98578E-01
  -4.91631E-01 -3.92918E-01 -3.21401E-01 -2.87824E-01 -2.89160E-01 -3.15440E-01 -3.61557E-01 -4.20433E-01 -4.84204E-01 -5.28776E-01
  -5.51111E-01 -5.62252E-01 -5.78828E-01 -6.15967E-01 -6.79855E-01 -7.64818E-01 -8.62300E-01 -9.64446E-01 -1.05928E+00 -1.12822E+00
  -1.15437E+00 -1.12511E+00 -1.03174E+00 -8.94419E-01 -7.60770E-01 -6.68647E-01 -6.24494E-01 -5.86399E-01 -4.58337E-01 -2.62319E-01
  -5.23747E-02  1.70654E-01  4.02925E-01  6.14091E-01  7.48797E-01  7.43403E-01  5.68370E-01  2.32034E-01 -1.91295E-01 -5.50275E-01
  -7.00243E-01 -7.27832E-01 -7.32913E-01 -7.29388E-01 -7.23790E-01 -7.20295E-01 -7.20114E-01 -7.22395E-01 -7.25867E-01 -7.26947E-01
  -7.19569E-01 -6.89958E-01 -5.77808E-01 -3.51094E-01 -7.81289E-02  2.06194E-01  4.85933E-01  7.36713E-01  9.23458E-01  9.98889E-01
   9.18748E-01  6.74183E-01  3.01538E-01 -1.02926E-01 -3.85825E-01 -5.15622E-01 -6.00355E-01 -6.63316E-01 -6.97711E-01 -6.83668E-01
  -6.06799E-01 -4.90087E-01 -3.83795E-01 -3.14733E-01 -2.91812E-01 -3.13211E-01 -3.56649E-01 -4.02131E-01 -4.34063E-01 -4.49957E-01
  -4.61540E-01 -4.71040E-01 -4.78612E-01 -4.84359E-01 -4.88055E-01 -4.88266E-01 -4.83477E-01 -4.76098E-01 -4.68209E-01 -4.61574E-01
  -4.58163E-01 -4.59482E-01 -4.63938E-01 -4.67310E-01 -4.68531E-01 -4.68333E-01 -4.67422E-01 -4.65855E-01 -4.62698E-01 -4.58377E-01
  -4.54627E-01 -4.53153E-01 -4.54931E-01 -4.60086E-01 -4.67498E-01 -4.76878E-01 -4.88211E-01 -5.00937E-01 -5.13669E-01 -5.23977E-01
  -5.33772E-01 -5.43601E-01 -5.52958E-01 -5.60914E-01 -5.64041E-01 -5.55428E-01 -5.29634E-01 -4.86523E-01 -4.34452E-01 -3.87163E-01
  -3.51715E-01 -3.46506E-01 -3.97253E-01 -5.02276E-01 -6.37150E-01 -7.78509E-01 -8.87098E-01 -9.14095E-01 -8.34993E-01 -6.58579E-01
  -4.02115E-01 -1.08128E-01  1.61877E-01  3.39663E-01  3.58920E-01  1.80054E-01 -1.33300E-01 -4.88640E-01 -8.19289E-01 -1.06867E+00
  -1.18771E+00 -1.12361E+00 -8.71106E-01 -4.76574E-01 -1.86580E-02  4.08064E-01  6.61189E-01  6.27963E-01  3.94340E-01  9.75419E-02
  -2.08321E-01 -4.72096E-01 -6.18267E-01 -6.04025E-01 -4.76580E-01 -2.75821E-01 -4.69403E-02  1.57352E-01  2.84292E-01  2.99156E-01
   2.26211E-01  1.08106E-01 -3.37667E-03 -7.34805E-02 -9.59287E-02 -7.24152E-02  6.18248E-03  1.13031E-01  1.79209E-01  2.02613E-01
   2.08412E-01  1.84516E-01  9.35098E-02 -7.28171E-02 -2.45415E-01 -3.73933E-01 -4.45887E-01 -4.37543E-01 -3.34779E-01 -1.89758E-01
  -6.92174E-02  3.80380E-02  1.35304E-01  2.05787E-01  2.42833E-01  2.53255E-01  2.30705E-01  1.78211E-01  1.21661E-01  8.50198E-02
   7.71396E-02  9.96863E-02  1.48242E-01  2.03509E-01  2.41590E-01  2.47673E-01  2.23762E-01  1.86906E-01  1.50959E-01  1.21945E-01
   1.04134E-01  9.88690E-02  9.86620E-02  1.03982E-01  1.16715E-01  1.32004E-01  1.44664E-01  1.50664E-01  1.47086E-01  1.35070E-01
   1.21082E-01  1.10102E-01  1.02801E-01  9.94046E-02  1.00336E-01  1.05022E-01  1.11815E-01  1.18622E-01  1.24844E-01  1.30929E-01
   1.36928E-01  1.42869E-01  1.49129E-01  1.56059E-01  1.63575E-01  1.71429E-01  1.79833E-01  1.89004E-01  1.98796E-01  2.09136E-01
   2.20126E-01  2.31683E-01  2.43764E-01  2.56363E-01  2.69496E-01  2.83186E-01  2.97476E-01  3.12405E-01  3.28052E-01  3.44571E-01
   3.62197E-01  3.81089E-01  4.01444E-01  4.23548E-01  4.47728E-01  4.74403E-01  5.04149E-01  5.37763E-01  5.76456E-01  6.22253E-01
   6.79200E-01  7.57375E-01  8.69765E-01  9.80178E-01  1.05639E+00  1.09713E+00  1.09913E+00  1.05138E+00  9.42292E-01  7.75825E-01
   6.08500E-01  5.01248E-01  4.86364E-01  6.02272E-01  8.56911E-01  1.17131E+00  1.48447E+00  1.77655E+00  2.02397E+00  2.19963E+00
   2.28770E+00  2.31667E+00  2.38652E+00  2.52434E+00  2.66391E+00  2.78822E+00  2.89487E+00  2.97687E+00  3.02454E+00  3.04055E+00
   3.07768E+00  3.18682E+00  3.38825E+00  3.70960E+00  4.15886E+00  4.65749E+00  5.09248E+00  5.41399E+00  5.58477E+00  5.57383E+00
   5.37145E+00  5.01631E+00  4.61084E+00  4.21750E+00  3.83842E+00  3.48335E+00  3.16286E+00  2.88311E+00  2.64517E+00  2.44614E+00
   2.28073E+00  2.14274E+00  2.02628E+00  1.92639E+00  1.83932E+00  1.76243E+00  1.69401E+00  1.63299E+00  1.57878E+00  1.53101E+00
   1.48949E+00  1.45404E+00  1.42452E+00  1.40075E+00  1.38255E+00  1.36972E+00  1.36202E+00  1.35918E+00  1.36091E+00  1.36687E+00
   1.37670E+00  1.38999E+00  1.40631E+00  1.42517E+00  1.44602E+00  1.46831E+00  1.49143E+00  1.51475E+00  1.53764E+00  1.55942E+00
   1.57948E+00  1.59718E+00  1.61197E+00  1.62334E+00  1.63085E+00  1.63415E+00  1.63300E+00  1.62725E+00  1.61687E+00  1.60195E+00
   1.58265E+00  1.55926E+00  1.53212E+00  1.50167E+00  1.46838E+00  1.43275E+00  1.39532E+00  1.35660E+00  1.31712E+00  1.27735E+00
   1.23773E+00  1.19866E+00  1.16048E+00  1.12349E+00  1.08791E+00  1.05392E+00  1.02167E+00  9.91218E-01  9.62622E-01  9.35888E-01
   9.11001E-01  8.87912E-01  8.66564E-01  8.46877E-01  8.28772E-01  8.12156E-01  7.96941E-01  7.83029E-01  7.70332E-01  7.58756E-01
   7.48224E-01  7.38653E-01  7.29971E-01  7.22103E-01  7.14987E-01  7.08561E-01  7.02775E-01  6.97575E-01  6.92917E-01  6.88754E-01
   6.85052E-01  6.81772E-01  6.78889E-01  6.76369E-01  6.74188E-01  6.72317E-01  6.70738E-01  6.69430E-01  6.68376E-01  6.67556E-01
   6.66956E-01  6.66557E-01  6.66352E-01  6.66327E-01  6.66474E-01  6.66777E-01  6.67229E-01  6.67820E-01  6.68545E-01  6.69393E-01
   6.70361E-01  6.71435E-01  6.72615E-01  6.73893E-01  6.75269E-01  6.76733E-01  6.78283E-01  6.79909E-01  6.81614E-01  6.83390E-01
   6.85238E-01  6.87151E-01  6.89127E-01  6.91159E-01  6.93251E-01  6.95398E-01  6.97601E-01  6.99851E-01  7.02150E-01  7.04493E-01
   7.06884E-01  7.09317E-01  7.11795E-01  7.14309E-01  7.16863E-01  7.19453E-01  7.22084E-01  7.24751E-01
 NY background values follow
    -1.213E+00   -1.210E+00   -1.206E+00   -1.202E+00   -1.198E+00   -1.194E+00   -1.191E+00   -1.187E+00   -1.183E+00   -1.179E+00
    -1.176E+00   -1.172E+00   -1.168E+00   -1.164E+00   -1.161E+00   -1.157E+00   -1.153E+00   -1.149E+00   -1.145E+00   -1.142E+00
    -1.138E+00   -1.134E+00   -1.130E+00   -1.127E+00   -1.123E+00   -1.119E+00   -1.115E+00   -1.112E+00   -1.108E+00   -1.104E+00
    -1.100E+00   -1.097E+00   -1.093E+00   -1.089E+00   -1.085E+00   -1.081E+00   -1.078E+00   -1.074E+00   -1.070E+00   -1.066E+00
    -1.063E+00   -1.059E+00   -1.055E+00   -1.051E+00   -1.048E+00   -1.044E+00   -1.040E+00   -1.036E+00   -1.032E+00   -1.029E+00
    -1.025E+00   -1.021E+00   -1.017E+00   -1.014E+00   -1.010E+00   -1.006E+00   -1.002E+00   -9.986E-01   -9.948E-01   -9.911E-01
    -9.873E-01   -9.835E-01   -9.798E-01   -9.760E-01   -9.722E-01   -9.685E-01   -9.647E-01   -9.609E-01   -9.572E-01   -9.534E-01
    -9.496E-01   -9.459E-01   -9.421E-01   -9.383E-01   -9.345E-01   -9.308E-01   -9.270E-01   -9.232E-01   -9.195E-01   -9.157E-01
    -9.119E-01   -9.082E-01   -9.044E-01   -9.006E-01   -8.969E-01   -8.931E-01   -8.893E-01   -8.856E-01   -8.818E-01   -8.780E-01
    -8.743E-01   -8.705E-01   -8.667E-01   -8.630E-01   -8.592E-01   -8.554E-01   -8.517E-01   -8.479E-01   -8.441E-01   -8.404E-01
    -8.366E-01   -8.328E-01   -8.291E-01   -8.253E-01   -8.215E-01   -8.178E-01   -8.140E-01   -8.102E-01   -8.065E-01   -8.027E-01
    -7.989E-01   -7.952E-01   -7.914E-01   -7.876E-01   -7.839E-01   -7.801E-01   -7.763E-01   -7.726E-01   -7.688E-01   -7.650E-01
    -7.613E-01   -7.575E-01   -7.537E-01   -7.500E-01   -7.462E-01   -7.424E-01   -7.387E-01   -7.349E-01   -7.311E-01   -7.274E-01
    -7.236E-01   -7.198E-01   -7.161E-01   -7.123E-01   -7.085E-01   -7.048E-01   -7.010E-01   -6.972E-01   -6.935E-01   -6.897E-01
    -6.859E-01   -6.822E-01   -6.784E-01   -6.746E-01   -6.709E-01   -6.671E-01   -6.633E-01   -6.596E-01   -6.558E-01   -6.520E-01
    -6.483E-01   -6.445E-01   -6.407E-01   -6.370E-01   -6.332E-01   -6.294E-01   -6.257E-01   -6.219E-01   -6.181E-01   -6.144E-01
    -6.106E-01   -6.068E-01   -6.031E-01   -5.993E-01   -5.955E-01   -5.918E-01   -5.880E-01   -5.842E-01   -5.805E-01   -5.767E-01
    -5.729E-01   -5.692E-01   -5.654E-01   -5.616E-01   -5.579E-01   -5.541E-01   -5.503E-01   -5.466E-01   -5.428E-01   -5.390E-01
    -5.352E-01   -5.315E-01   -5.277E-01   -5.239E-01   -5.202E-01   -5.164E-01   -5.126E-01   -5.089E-01   -5.051E-01   -5.013E-01
    -4.976E-01   -4.938E-01   -4.900E-01   -4.863E-01   -4.825E-01   -4.787E-01   -4.750E-01   -4.712E-01   -4.674E-01   -4.637E-01
    -4.599E-01   -4.561E-01   -4.524E-01   -4.486E-01   -4.448E-01   -4.411E-01   -4.373E-01   -4.335E-01   -4.298E-01   -4.260E-01
    -4.222E-01   -4.185E-01   -4.147E-01   -4.109E-01   -4.072E-01   -4.034E-01   -3.996E-01   -3.959E-01   -3.921E-01   -3.883E-01
    -3.846E-01   -3.808E-01   -3.770E-01   -3.732E-01   -3.695E-01   -3.657E-01   -3.619E-01   -3.582E-01   -3.544E-01   -3.506E-01
    -3.469E-01   -3.431E-01   -3.393E-01   -3.356E-01   -3.318E-01   -3.280E-01   -3.243E-01   -3.205E-01   -3.167E-01   -3.130E-01
    -3.092E-01   -3.054E-01   -3.017E-01   -2.979E-01   -2.941E-01   -2.904E-01   -2.866E-01   -2.828E-01   -2.791E-01   -2.753E-01
    -2.715E-01   -2.678E-01   -2.640E-01   -2.602E-01   -2.564E-01   -2.527E-01   -2.489E-01   -2.451E-01   -2.414E-01   -2.376E-01
    -2.338E-01   -2.301E-01   -2.263E-01   -2.225E-01   -2.188E-01   -2.150E-01   -2.112E-01   -2.075E-01   -2.037E-01   -1.999E-01
    -1.962E-01   -1.924E-01   -1.886E-01   -1.849E-01   -1.811E-01   -1.773E-01   -1.736E-01   -1.698E-01   -1.660E-01   -1.622E-01
    -1.585E-01   -1.547E-01   -1.509E-01   -1.472E-01   -1.434E-01   -1.396E-01   -1.359E-01   -1.321E-01   -1.283E-01   -1.246E-01
    -1.208E-01   -1.170E-01   -1.133E-01   -1.095E-01   -1.057E-01   -1.020E-01   -9.819E-02   -9.442E-02   -9.065E-02   -8.688E-02
    -8.312E-02   -7.935E-02   -7.558E-02   -7.181E-02   -6.804E-02   -6.428E-02   -6.051E-02   -5.674E-02   -5.297E-02   -4.920E-02
    -4.543E-02   -4.167E-02   -3.790E-02   -3.413E-02   -3.036E-02   -2.659E-02   -2.283E-02   -1.906E-02   -1.529E-02   -1.152E-02
    -7.753E-03   -3.985E-03   -2.167E-04    3.552E-03    7.320E-03    1.109E-02    1.486E-02    1.862E-02    2.239E-02    2.616E-02
     2.993E-02    3.370E-02    3.747E-02    4.123E-02    4.500E-02    4.877E-02    5.254E-02    5.631E-02    6.007E-02    6.384E-02
     6.761E-02    7.138E-02    7.515E-02    7.892E-02    8.268E-02    8.645E-02    9.022E-02    9.399E-02    9.776E-02    1.015E-01
     1.053E-01    1.091E-01    1.128E-01    1.166E-01    1.204E-01    1.241E-01    1.279E-01    1.317E-01    1.354E-01    1.392E-01
     1.430E-01    1.467E-01    1.505E-01    1.543E-01    1.580E-01    1.618E-01    1.656E-01    1.694E-01    1.731E-01    1.769E-01
     1.807E-01    1.844E-01    1.882E-01    1.920E-01    1.957E-01    1.995E-01    2.033E-01    2.070E-01    2.108E-01    2.146E-01
     2.183E-01    2.221E-01    2.259E-01    2.296E-01    2.334E-01    2.372E-01    2.409E-01    2.447E-01    2.485E-01    2.523E-01
     2.560E-01    2.598E-01    2.636E-01    2.673E-01    2.711E-01    2.749E-01    2.786E-01    2.824E-01    2.862E-01    2.899E-01
     2.937E-01    2.975E-01    3.012E-01    3.050E-01    3.088E-01    3.125E-01    3.163E-01    3.201E-01    3.239E-01    3.276E-01
     3.314E-01    3.352E-01    3.389E-01    3.427E-01    3.465E-01    3.502E-01    3.540E-01    3.578E-01    3.615E-01    3.653E-01
     3.691E-01    3.728E-01    3.766E-01    3.804E-01    3.841E-01    3.879E-01    3.917E-01    3.954E-01    3.992E-01    4.030E-01
     4.068E-01    4.105E-01    4.143E-01    4.181E-01    4.218E-01    4.256E-01    4.294E-01    4.331E-01    4.369E-01    4.407E-01
     4.444E-01    4.482E-01    4.520E-01    4.557E-01    4.595E-01    4.633E-01    4.670E-01    4.708E-01    4.746E-01    4.783E-01
     4.821E-01    4.859E-01    4.897E-01    4.934E-01    4.972E-01    5.010E-01    5.047E-01    5.085E-01    5.123E-01    5.160E-01
     5.198E-01    5.236E-01    5.273E-01    5.311E-01    5.349E-01    5.386E-01    5.424E-01    5.462E-01    5.499E-01    5.537E-01
     5.575E-01    5.613E-01    5.650E-01    5.688E-01    5.726E-01    5.763E-01    5.801E-01    5.839E-01    5.876E-01    5.914E-01
     5.952E-01    5.989E-01    6.027E-01    6.065E-01    6.102E-01    6.140E-01    6.178E-01    6.215E-01    6.253E-01    6.291E-01
     6.328E-01    6.366E-01    6.404E-01    6.442E-01    6.479E-01    6.517E-01    6.555E-01    6.592E-01
 Ala      Conc. = 4.38E+01
