 LCModel (Version 6.3-1L) Copyright: S.W. Provencher.          Ref.: Magn. Reson. Med. 30:672-679 (1993).                
 Slice#2 Row#11 Col#2  PD_05_press_2_raw_act
 36 lines in following concentration table = NCONC+1
    Conc.  %SD /Cr+PCr  Metabolite                                         
    0.000 999%   0.000 Ala                                                 
  139.876  10%   0.000 Asp                                                 
    0.000 999%   0.000 Cr                                                  
    0.000 999%   0.000 PCr                                                 
   83.884  10%   0.000 GABA                                                
   83.926  10%   0.000 Glc                                                 
    0.000 999%   0.000 Gln                                                 
 9.85E+03  17%   0.000 Glu                                                 
    0.000 999%   0.000 GPC                                                 
  269.984  19%   0.000 PCh                                                 
    0.000 999%   0.000 GSH                                                 
 1.92E+03  33%   0.000 Ins                                                 
  347.731 472%   0.000 Lac                                                 
 1.99E+03  29%   0.000 NAA                                                 
    0.000 999%   0.000 NAAG                                                
   27.994  10%   0.000 Scyllo                                              
  139.954  10%   0.000 Tau                                                 
    7.751 250%   0.000 -CrCH2                                              
  269.984  19%   0.000 GPC+PCh                                             
 1.99E+03  11%   0.000 NAA+NAAG                                            
    0.000 999%   0.000 Cr+PCr                                              
 9.85E+03  25%   0.000 Glu+Gln                                             
 8.61E+03  30%   0.000 Lip13a                                              
    0.000 999%   0.000 Lip13b                                              
 4.71E+03  18%   0.000 Lip09                                               
    0.000 999%   0.000 MM09                                                
    0.000 999%   0.000 Lip20                                               
    0.000 999%   0.000 MM20                                                
  991.044 101%   0.000 MM12                                                
 7.67E+03  18%   0.000 MM14                                                
 6.75E+03  15%   0.000 MM17                                                
 8.61E+03  30%   0.000 Lip13a+Lip13b                                       
 1.73E+04  11%   0.000 MM14+Lip13a+Lip13b+MM12                             
 4.71E+03  18%   0.000 MM09+Lip09                                          
    0.000 999%   0.000 MM20+Lip20                                          
   6 lines in following misc. output table
  FWHM = 0.183 ppm    S/N =   9                                            
  Data shift =-0.046 ppm                                                   
  Ph: -13 deg      69.9 deg/ppm                                            
  alphaB,S = 1.4E+00,   2.0E+02                                            
    7 spline knots.   Ns = 9(2)                                            
  (15) 2 infls.   ( 9) 1 extrs.                                            
  498 points on ppm-axis = NY
      4.000000     3.992357     3.984714     3.977070     3.969427     3.961784     3.954141     3.946497     3.938854     3.931211
      3.923568     3.915925     3.908281     3.900638     3.892995     3.885352     3.877708     3.870065     3.862422     3.854779
      3.847136     3.839492     3.831849     3.824206     3.816563     3.808919     3.801276     3.793633     3.785990     3.778347
      3.770703     3.763060     3.755417     3.747774     3.740130     3.732487     3.724844     3.717201     3.709558     3.701914
      3.694271     3.686628     3.678985     3.671341     3.663698     3.656055     3.648412     3.640769     3.633125     3.625482
      3.617839     3.610196     3.602552     3.594909     3.587266     3.579623     3.571980     3.564336     3.556693     3.549050
      3.541407     3.533763     3.526120     3.518477     3.510834     3.503191     3.495547     3.487904     3.480261     3.472618
      3.464974     3.457331     3.449688     3.442045     3.434402     3.426758     3.419115     3.411472     3.403829     3.396185
      3.388542     3.380899     3.373256     3.365613     3.357969     3.350326     3.342683     3.335040     3.327396     3.319753
      3.312110     3.304467     3.296824     3.289180     3.281537     3.273894     3.266251     3.258607     3.250964     3.243321
      3.235678     3.228034     3.220391     3.212748     3.205105     3.197462     3.189818     3.182175     3.174532     3.166889
      3.159245     3.151602     3.143959     3.136316     3.128673     3.121029     3.113386     3.105743     3.098100     3.090456
      3.082813     3.075170     3.067527     3.059884     3.052240     3.044597     3.036954     3.029311     3.021667     3.014024
      3.006381     2.998738     2.991095     2.983451     2.975808     2.968165     2.960522     2.952878     2.945235     2.937592
      2.929949     2.922306     2.914662     2.907019     2.899376     2.891733     2.884089     2.876446     2.868803     2.861160
      2.853517     2.845873     2.838230     2.830587     2.822944     2.815300     2.807657     2.800014     2.792371     2.784728
      2.777084     2.769441     2.761798     2.754155     2.746511     2.738868     2.731225     2.723582     2.715939     2.708295
      2.700652     2.693009     2.685366     2.677722     2.670079     2.662436     2.654793     2.647150     2.639506     2.631863
      2.624220     2.616577     2.608933     2.601290     2.593647     2.586004     2.578361     2.570717     2.563074     2.555431
      2.547788     2.540144     2.532501     2.524858     2.517215     2.509572     2.501928     2.494285     2.486642     2.478999
      2.471355     2.463712     2.456069     2.448426     2.440783     2.433139     2.425496     2.417853     2.410210     2.402566
      2.394923     2.387280     2.379637     2.371994     2.364350     2.356707     2.349064     2.341421     2.333777     2.326134
      2.318491     2.310848     2.303205     2.295561     2.287918     2.280275     2.272632     2.264988     2.257345     2.249702
      2.242059     2.234416     2.226772     2.219129     2.211486     2.203843     2.196199     2.188556     2.180913     2.173270
      2.165627     2.157983     2.150340     2.142697     2.135054     2.127410     2.119767     2.112124     2.104481     2.096838
      2.089194     2.081551     2.073908     2.066265     2.058621     2.050978     2.043335     2.035692     2.028049     2.020405
      2.012762     2.005119     1.997476     1.989833     1.982190     1.974546     1.966903     1.959260     1.951617     1.943974
      1.936331     1.928688     1.921045     1.913402     1.905759     1.898115     1.890472     1.882829     1.875186     1.867543
      1.859900     1.852257     1.844614     1.836971     1.829327     1.821684     1.814041     1.806398     1.798755     1.791112
      1.783469     1.775826     1.768183     1.760540     1.752896     1.745253     1.737610     1.729967     1.722324     1.714681
      1.707038     1.699395     1.691752     1.684108     1.676465     1.668822     1.661179     1.653536     1.645893     1.638250
      1.630607     1.622964     1.615321     1.607677     1.600034     1.592391     1.584748     1.577105     1.569462     1.561819
      1.554176     1.546533     1.538890     1.531246     1.523603     1.515960     1.508317     1.500674     1.493031     1.485388
      1.477745     1.470102     1.462458     1.454815     1.447172     1.439529     1.431886     1.424243     1.416600     1.408957
      1.401314     1.393671     1.386027     1.378384     1.370741     1.363098     1.355455     1.347812     1.340169     1.332526
      1.324883     1.317240     1.309596     1.301953     1.294310     1.286667     1.279024     1.271381     1.263738     1.256095
      1.248452     1.240808     1.233165     1.225522     1.217879     1.210236     1.202593     1.194950     1.187307     1.179664
      1.172021     1.164377     1.156734     1.149091     1.141448     1.133805     1.126162     1.118519     1.110876     1.103233
      1.095590     1.087946     1.080303     1.072660     1.065017     1.057374     1.049731     1.042088     1.034445     1.026802
      1.019158     1.011515     1.003872     0.996229     0.988586     0.980943     0.973300     0.965657     0.958014     0.950371
      0.942727     0.935084     0.927441     0.919798     0.912155     0.904512     0.896869     0.889226     0.881583     0.873940
      0.866296     0.858653     0.851010     0.843367     0.835724     0.828081     0.820438     0.812795     0.805152     0.797508
      0.789865     0.782222     0.774579     0.766936     0.759293     0.751650     0.744007     0.736364     0.728721     0.721077
      0.713434     0.705791     0.698148     0.690505     0.682862     0.675219     0.667576     0.659933     0.652290     0.644646
      0.637003     0.629360     0.621717     0.614074     0.606431     0.598788     0.591145     0.583502     0.575858     0.568215
      0.560572     0.552929     0.545286     0.537643     0.530000     0.522357     0.514714     0.507071     0.499427     0.491784
      0.484141     0.476498     0.468855     0.461212     0.453569     0.445925     0.438282     0.430639     0.422996     0.415353
      0.407710     0.400067     0.392424     0.384780     0.377137     0.369494     0.361851     0.354208     0.346565     0.338922
      0.331278     0.323635     0.315992     0.308349     0.300706     0.293063     0.285420     0.277777     0.270133     0.262490
      0.254847     0.247204     0.239561     0.231918     0.224275     0.216631     0.208988     0.201345
 NY phased data points follow
  -9.81078E+01 -1.02350E+02 -9.53101E+01 -9.31152E+01 -9.06040E+01 -9.50165E+01 -9.27985E+01 -8.78469E+01 -8.56299E+01 -8.36377E+01
  -8.16019E+01 -7.73118E+01 -7.52466E+01 -7.16727E+01 -7.47172E+01 -7.15063E+01 -7.33580E+01 -7.15012E+01 -6.58495E+01 -7.17754E+01
  -6.52276E+01 -6.97380E+01 -6.58385E+01 -6.53284E+01 -6.22732E+01 -6.86970E+01 -5.88724E+01 -5.89138E+01 -5.70855E+01 -5.50550E+01
  -5.32803E+01 -5.61922E+01 -4.75721E+01 -5.38129E+01 -5.08282E+01 -5.42610E+01 -5.15777E+01 -5.04740E+01 -4.73345E+01 -4.94535E+01
  -4.55885E+01 -4.12120E+01 -4.76410E+01 -4.82246E+01 -4.44188E+01 -4.49569E+01 -5.07177E+01 -4.07340E+01 -4.05732E+01 -4.41248E+01
  -3.90311E+01 -4.03377E+01 -3.80376E+01 -3.66170E+01 -3.96245E+01 -3.88250E+01 -3.60921E+01 -3.96406E+01 -3.72188E+01 -3.35730E+01
  -3.04664E+01 -3.34552E+01 -3.02640E+01 -3.66145E+01 -2.93812E+01 -3.32134E+01 -3.27161E+01 -3.48908E+01 -2.84368E+01 -2.69981E+01
  -2.75913E+01 -2.68135E+01 -2.81583E+01 -3.17801E+01 -3.12723E+01 -2.86983E+01 -2.50014E+01 -2.62763E+01 -2.38658E+01 -2.50096E+01
  -2.44225E+01 -2.34200E+01 -2.05714E+01 -2.35260E+01 -1.83520E+01 -2.39489E+01 -1.86542E+01 -2.04622E+01 -1.59479E+01 -2.07722E+01
  -2.01058E+01 -1.76570E+01 -1.85265E+01 -1.68835E+01 -1.55389E+01 -1.58806E+01 -1.30871E+01 -2.10600E+01 -1.77197E+01 -1.61975E+01
  -1.34031E+01 -1.28037E+01 -1.15313E+01 -1.57509E+01 -1.37608E+01 -1.14053E+01 -1.07006E+01 -1.17285E+01 -1.13353E+01 -1.28798E+01
  -1.33128E+01 -1.59405E+01 -7.69847E+00 -1.59416E+01 -1.24446E+01 -1.29860E+01 -1.18742E+01 -1.21814E+01 -7.31394E+00 -1.12413E+01
  -8.27222E+00 -1.30362E+01 -7.19982E+00 -1.38290E+01 -1.07125E+01 -1.33671E+01 -5.25608E+00 -9.89659E+00 -8.05344E+00 -9.65896E+00
  -1.27846E+01 -1.28179E+01 -1.16500E+01 -1.13833E+01 -9.18240E+00 -1.81460E+01 -1.61825E+01 -1.49801E+01 -1.60193E+01 -2.55394E+01
  -1.84427E+01 -1.86561E+01 -2.08262E+01 -1.31910E+01 -1.64204E+01 -1.21246E+01 -1.73663E+01 -1.65224E+01 -1.85083E+01 -1.73522E+01
  -1.65714E+01 -1.73851E+01 -1.62305E+01 -1.37029E+01 -1.47504E+01 -1.95151E+01 -1.34585E+01 -1.28778E+01 -1.13495E+01 -1.26957E+01
  -1.09219E+01 -1.32364E+01 -1.27860E+01 -1.43543E+01 -7.54624E+00 -6.93347E+00 -7.49851E+00 -7.41235E+00 -9.04436E+00 -8.27504E+00
  -7.37889E+00 -6.36307E+00 -9.09123E+00 -5.36036E+00 -3.98001E+00  4.35470E-01 -4.26544E+00 -5.49444E+00 -2.46733E+00 -4.52681E+00
   1.70130E+00 -2.40853E+00 -6.18216E+00 -6.89026E+00 -3.82455E+00 -4.38304E+00 -3.90850E+00 -8.39069E+00 -5.75099E+00 -4.93635E+00
  -3.12121E+00 -1.14025E+01 -9.67468E+00 -9.31946E+00 -5.26875E+00 -7.73670E+00 -9.48161E+00 -9.47504E+00 -1.07281E+01 -1.41426E+01
  -1.82992E+01 -1.34416E+01 -1.14552E+01 -1.18619E+01 -1.32537E+01 -1.13357E+01 -1.66727E+01 -1.67452E+01 -1.71122E+01 -1.80385E+01
  -1.96586E+01 -1.75783E+01 -1.71097E+01 -1.79024E+01 -1.81067E+01 -1.95817E+01 -1.99515E+01 -1.96958E+01 -2.13293E+01 -1.99924E+01
  -2.11109E+01 -2.28090E+01 -1.93514E+01 -2.24136E+01 -1.84228E+01 -2.22306E+01 -1.98638E+01 -1.65455E+01 -1.67744E+01 -2.44295E+01
  -1.67900E+01 -1.43176E+01 -1.87531E+01 -1.54561E+01 -1.46529E+01 -1.50997E+01 -1.62246E+01 -1.46541E+01 -1.34835E+01 -1.62817E+01
  -1.22899E+01 -1.42317E+01 -9.00467E+00 -4.49685E+00 -9.36916E+00 -6.01085E+00  4.51268E+00  2.06195E+00 -2.91601E-01  2.84530E+00
   4.68776E+00  5.47142E+00  6.34716E+00  9.99691E+00  1.06514E+01  1.39103E+01  1.48342E+01  1.14357E+01  1.99447E+01  1.79553E+01
   2.28714E+01  1.98787E+01  1.73015E+01  1.85248E+01  1.94363E+01  1.68044E+01  1.94726E+01  2.21358E+01  1.96904E+01  2.42589E+01
   2.15896E+01  2.50176E+01  2.36553E+01  2.58657E+01  2.74568E+01  2.56919E+01  2.38615E+01  2.28449E+01  2.77434E+01  2.46164E+01
   2.55311E+01  2.37920E+01  2.43423E+01  2.06801E+01  2.16901E+01  2.09186E+01  2.00188E+01  2.02117E+01  1.64044E+01  1.77222E+01
   1.81261E+01  1.92249E+01  1.92165E+01  1.10389E+01  1.74564E+01  1.60616E+01  1.13968E+01  1.17341E+01  9.09721E+00  1.22601E+01
   1.13171E+01  1.39178E+01  1.16235E+01  7.85352E+00  5.85370E+00  1.23272E+01  8.25746E+00  5.30853E+00  5.64462E+00  4.35908E+00
   4.59356E+00  5.51719E+00  6.74460E+00  1.83273E+00  9.00555E-02  3.97821E+00  4.13200E-01 -6.34544E-01  1.70622E+00  6.70675E+00
   5.93663E+00  7.91293E+00  7.79962E+00  1.09592E+01  1.31353E+01  1.23991E+01  1.84538E+01  2.11398E+01  2.69164E+01  3.01734E+01
   3.17555E+01  4.20093E+01  4.59377E+01  5.00165E+01  5.48929E+01  6.28544E+01  6.22795E+01  6.63120E+01  7.45405E+01  7.58672E+01
   7.70284E+01  7.91112E+01  8.01774E+01  7.70398E+01  7.76132E+01  7.70059E+01  7.29405E+01  7.43949E+01  7.47107E+01  7.39094E+01
   7.12148E+01  6.81046E+01  6.48955E+01  6.43028E+01  5.78780E+01  5.81836E+01  5.66233E+01  5.34230E+01  4.77066E+01  4.83565E+01
   4.24350E+01  4.23648E+01  3.79832E+01  4.05753E+01  3.62842E+01  3.63153E+01  3.52023E+01  3.50515E+01  3.63299E+01  3.75791E+01
   3.25229E+01  2.83188E+01  2.82983E+01  3.34300E+01  2.86137E+01  2.83953E+01  2.91954E+01  2.24294E+01  2.48323E+01  2.94431E+01
   2.71953E+01  2.27812E+01  2.30430E+01  2.30752E+01  2.42380E+01  2.36399E+01  2.75432E+01  2.57824E+01  2.21472E+01  2.44877E+01
   2.44567E+01  2.32060E+01  2.31262E+01  2.37632E+01  2.08431E+01  2.26587E+01  2.79268E+01  2.73093E+01  2.15908E+01  2.76960E+01
   2.28999E+01  2.84864E+01  2.28327E+01  2.54484E+01  2.36700E+01  2.83490E+01  2.38095E+01  2.08843E+01  2.38680E+01  2.75478E+01
   2.32888E+01  2.42109E+01  2.46921E+01  2.60223E+01  2.21975E+01  2.33677E+01  2.26637E+01  2.02476E+01  2.05700E+01  2.42235E+01
   2.40557E+01  2.54337E+01  2.55095E+01  1.94227E+01  2.37597E+01  2.33967E+01  2.07295E+01  2.11090E+01  1.73910E+01  1.61461E+01
   1.88697E+01  1.66447E+01  1.81477E+01  1.27044E+01  1.82968E+01  1.71405E+01  1.68399E+01  1.86308E+01  1.39143E+01  1.47533E+01
   1.02514E+01  1.54184E+01  1.26193E+01  9.72696E+00  1.24626E+01  1.23494E+01  1.26200E+01  8.97882E+00  1.75104E+01  1.44856E+01
   1.10104E+01  1.15769E+01  7.11170E+00  6.49348E+00  7.32209E+00  5.07746E+00  6.81313E+00  3.65115E+00  6.58082E+00  2.92220E+00
   1.73639E+00  7.28935E+00  2.31057E+00  3.88525E+00  2.35150E+00  6.27123E+00  3.94833E+00  5.46585E+00  5.01250E+00  3.71322E+00
   3.77983E+00 -7.01420E-01  6.72653E+00  3.77674E-01  6.31109E+00  4.77397E-01  3.51060E+00  2.12469E+00 -2.08030E-01 -1.64285E+00
   4.06157E-01 -2.50279E-01 -2.56843E+00 -5.77277E-01  1.57343E-01  2.13155E+00  1.24857E-01 -6.89743E-01 -4.20828E+00 -1.11643E+00
   2.93077E+00 -4.88043E+00 -1.35453E+00 -6.27095E+00 -2.14041E+00 -5.32276E+00 -3.74018E+00 -2.24521E+00
 NY points of the fit to the data follow
  -8.83882E+01 -8.74847E+01 -8.67174E+01 -8.58303E+01 -8.50208E+01 -8.41202E+01 -8.32675E+01 -8.23247E+01 -8.13454E+01 -8.02167E+01
  -7.92014E+01 -7.84661E+01 -7.74110E+01 -7.71236E+01 -7.58434E+01 -7.54993E+01 -7.35934E+01 -7.29098E+01 -7.04827E+01 -6.99131E+01
  -6.73711E+01 -6.74585E+01 -6.50695E+01 -6.54160E+01 -6.30645E+01 -6.34377E+01 -6.10803E+01 -6.13278E+01 -5.89451E+01 -5.88690E+01
  -5.64310E+01 -5.61769E+01 -5.39678E+01 -5.37284E+01 -5.18748E+01 -5.16900E+01 -5.01715E+01 -4.98861E+01 -4.85775E+01 -4.81553E+01
  -4.70511E+01 -4.65253E+01 -4.56220E+01 -4.50396E+01 -4.43026E+01 -4.36254E+01 -4.30414E+01 -4.22157E+01 -4.17789E+01 -4.08919E+01
  -4.07498E+01 -4.03105E+01 -4.03449E+01 -3.99792E+01 -3.98219E+01 -3.91357E+01 -3.85061E+01 -3.76085E+01 -3.68668E+01 -3.63202E+01
  -3.56830E+01 -3.55871E+01 -3.50682E+01 -3.48996E+01 -3.43334E+01 -3.41628E+01 -3.35631E+01 -3.33412E+01 -3.26226E+01 -3.22776E+01
  -3.14482E+01 -3.12028E+01 -3.04695E+01 -3.03654E+01 -2.96907E+01 -2.96693E+01 -2.90177E+01 -2.90480E+01 -2.83747E+01 -2.84233E+01
  -2.77566E+01 -2.77521E+01 -2.70619E+01 -2.70098E+01 -2.62487E+01 -2.57658E+01 -2.46500E+01 -2.40724E+01 -2.26740E+01 -2.22095E+01
  -2.06162E+01 -2.03962E+01 -1.86996E+01 -1.87150E+01 -1.69005E+01 -1.71218E+01 -1.52303E+01 -1.56574E+01 -1.37309E+01 -1.43881E+01
  -1.25085E+01 -1.34113E+01 -1.16666E+01 -1.27514E+01 -1.11778E+01 -1.23313E+01 -1.09290E+01 -1.20533E+01 -1.08032E+01 -1.19250E+01
  -1.08762E+01 -1.20018E+01 -1.11314E+01 -1.21743E+01 -1.14473E+01 -1.23855E+01 -1.17923E+01 -1.26365E+01 -1.21871E+01 -1.29822E+01
  -1.27481E+01 -1.34412E+01 -1.33992E+01 -1.38248E+01 -1.38182E+01 -1.36963E+01 -1.35112E+01 -1.33469E+01 -1.31620E+01 -1.30016E+01
  -1.28247E+01 -1.26761E+01 -1.25105E+01 -1.23726E+01 -1.22174E+01 -1.20886E+01 -1.19431E+01 -1.18238E+01 -1.16899E+01 -1.15803E+01
  -1.14596E+01 -1.13633E+01 -1.12767E+01 -1.12391E+01 -1.11752E+01 -1.11825E+01 -1.11085E+01 -1.11124E+01 -1.10527E+01 -1.10525E+01
  -1.10202E+01 -1.10249E+01 -1.10265E+01 -1.10432E+01 -1.10812E+01 -1.11141E+01 -1.11906E+01 -1.12480E+01 -1.13871E+01 -1.14530E+01
  -1.15998E+01 -1.16640E+01 -1.18150E+01 -1.19273E+01 -1.20689E+01 -1.22165E+01 -1.23280E+01 -1.24966E+01 -1.25865E+01 -1.27942E+01
  -1.28255E+01 -1.30290E+01 -1.29886E+01 -1.31728E+01 -1.30606E+01 -1.32155E+01 -1.30371E+01 -1.31497E+01 -1.29004E+01 -1.29454E+01
  -1.26740E+01 -1.26693E+01 -1.23996E+01 -1.23883E+01 -1.20995E+01 -1.20090E+01 -1.16339E+01 -1.14313E+01 -1.09623E+01 -1.06385E+01
  -1.02662E+01 -9.91459E+00 -9.70205E+00 -9.72256E+00 -9.65811E+00 -1.01304E+01 -9.96348E+00 -1.04422E+01 -9.65964E+00 -8.99977E+00
  -8.08788E+00 -6.83629E+00 -6.43583E+00 -5.26617E+00 -6.03674E+00 -5.97525E+00 -8.03765E+00 -8.25756E+00 -1.06549E+01 -1.06610E+01
  -1.27942E+01 -1.23430E+01 -1.41515E+01 -1.35186E+01 -1.53032E+01 -1.48652E+01 -1.65765E+01 -1.63442E+01 -1.77003E+01 -1.74221E+01
  -1.81857E+01 -1.76952E+01 -1.78354E+01 -1.73671E+01 -1.71917E+01 -1.69156E+01 -1.67605E+01 -1.63685E+01 -1.62086E+01 -1.55004E+01
  -1.55481E+01 -1.45679E+01 -1.48546E+01 -1.43664E+01 -1.50177E+01 -1.48120E+01 -1.52373E+01 -1.44793E+01 -1.42178E+01 -1.21683E+01
  -1.18020E+01 -9.49014E+00 -8.14546E+00 -5.66048E+00 -4.39566E+00 -2.46186E+00 -1.57654E+00  6.77545E-01  1.57366E+00  3.87942E+00
   4.93939E+00  7.20249E+00  8.36219E+00  1.04104E+01  1.13819E+01  1.30551E+01  1.38417E+01  1.52465E+01  1.58272E+01  1.69838E+01
   1.74296E+01  1.82173E+01  1.86033E+01  1.88885E+01  1.92429E+01  1.92858E+01  1.96284E+01  1.98274E+01  2.03113E+01  2.07064E+01
   2.12326E+01  2.18286E+01  2.22522E+01  2.27393E+01  2.28546E+01  2.32602E+01  2.30971E+01  2.33868E+01  2.29423E+01  2.30289E+01
   2.26338E+01  2.25908E+01  2.31102E+01  2.32116E+01  2.34590E+01  2.33213E+01  2.31716E+01  2.28162E+01  2.22037E+01  2.15220E+01
   2.06026E+01  1.96363E+01  1.84540E+01  1.72745E+01  1.59328E+01  1.46390E+01  1.33146E+01  1.20955E+01  1.08869E+01  9.78753E+00
   8.73610E+00  7.78865E+00  6.91592E+00  6.12324E+00  5.42114E+00  4.81018E+00  4.29054E+00  3.86272E+00  3.52429E+00  3.27528E+00
   3.11505E+00  3.04292E+00  3.06451E+00  3.18490E+00  3.41129E+00  3.75580E+00  4.23188E+00  4.85778E+00  5.65240E+00  6.63959E+00
   7.84225E+00  9.28765E+00  1.09992E+01  1.30029E+01  1.53179E+01  1.79626E+01  2.09471E+01  2.42770E+01  2.79587E+01  3.19833E+01
   3.61671E+01  4.06411E+01  4.50860E+01  4.97137E+01  5.41068E+01  5.85207E+01  6.25227E+01  6.65028E+01  6.97938E+01  7.30095E+01
   7.52768E+01  7.74486E+01  7.84942E+01  7.94687E+01  7.92533E+01  7.90574E+01  7.77171E+01  7.65430E+01  7.43428E+01  7.24781E+01
   6.97395E+01  6.74955E+01  6.45272E+01  6.21644E+01  5.92183E+01  5.69271E+01  5.41868E+01  5.20977E+01  4.96556E+01  4.78222E+01
   4.56980E+01  4.41080E+01  4.22699E+01  4.08620E+01  3.92694E+01  3.80075E+01  3.66307E+01  3.55019E+01  3.43104E+01  3.33091E+01
   3.21841E+01  3.11785E+01  3.01247E+01  2.91235E+01  2.81538E+01  2.71986E+01  2.63488E+01  2.55843E+01  2.48963E+01  2.42835E+01
   2.37453E+01  2.32818E+01  2.28922E+01  2.25762E+01  2.23318E+01  2.21575E+01  2.20506E+01  2.20083E+01  2.20271E+01  2.21035E+01
   2.22329E+01  2.24110E+01  2.26326E+01  2.28926E+01  2.31849E+01  2.35038E+01  2.38423E+01  2.41940E+01  2.45515E+01  2.49079E+01
   2.52554E+01  2.55869E+01  2.58948E+01  2.61724E+01  2.64125E+01  2.66095E+01  2.67573E+01  2.68516E+01  2.68882E+01  2.68646E+01
   2.67787E+01  2.66301E+01  2.64187E+01  2.61465E+01  2.58154E+01  2.54292E+01  2.49916E+01  2.45077E+01  2.39826E+01  2.34221E+01
   2.28319E+01  2.22181E+01  2.15862E+01  2.09422E+01  2.02910E+01  1.96378E+01  1.89868E+01  1.83423E+01  1.77072E+01  1.70848E+01
   1.64771E+01  1.58865E+01  1.53138E+01  1.47604E+01  1.42266E+01  1.37131E+01  1.32193E+01  1.27456E+01  1.22910E+01  1.18553E+01
   1.14374E+01  1.10370E+01  1.06528E+01  1.02843E+01  9.93020E+00  9.58997E+00  9.26236E+00  8.94687E+00  8.64231E+00  8.34823E+00
   8.06351E+00  7.78776E+00  7.51997E+00  7.25984E+00  7.00642E+00  6.75949E+00  6.51818E+00  6.28233E+00  6.05116E+00  5.82459E+00
   5.60188E+00  5.38301E+00  5.16727E+00  4.95473E+00  4.74472E+00  4.53735E+00  4.33199E+00  4.12878E+00  3.92713E+00  3.72721E+00
   3.52847E+00  3.33112E+00  3.13460E+00  2.93916E+00  2.74426E+00  2.55017E+00  2.35639E+00  2.16319E+00  1.97008E+00  1.77735E+00
   1.58452E+00  1.39191E+00  1.19905E+00  1.00627E+00  8.13089E-01  6.19856E-01  4.26115E-01  2.32230E-01  3.77509E-02 -1.56958E-01
  -3.52347E-01 -5.48032E-01 -7.44440E-01 -9.41170E-01 -1.13863E+00 -1.33643E+00 -1.53493E+00 -1.73370E+00
 NY background values follow
    -9.356E+01   -9.258E+01   -9.161E+01   -9.064E+01   -8.967E+01   -8.871E+01   -8.775E+01   -8.679E+01   -8.584E+01   -8.490E+01
    -8.395E+01   -8.302E+01   -8.208E+01   -8.115E+01   -8.023E+01   -7.931E+01   -7.839E+01   -7.748E+01   -7.658E+01   -7.567E+01
    -7.478E+01   -7.388E+01   -7.299E+01   -7.211E+01   -7.123E+01   -7.036E+01   -6.949E+01   -6.862E+01   -6.777E+01   -6.691E+01
    -6.606E+01   -6.522E+01   -6.438E+01   -6.354E+01   -6.271E+01   -6.189E+01   -6.107E+01   -6.026E+01   -5.945E+01   -5.864E+01
    -5.785E+01   -5.705E+01   -5.627E+01   -5.548E+01   -5.471E+01   -5.394E+01   -5.317E+01   -5.241E+01   -5.166E+01   -5.091E+01
    -5.016E+01   -4.943E+01   -4.869E+01   -4.797E+01   -4.725E+01   -4.653E+01   -4.582E+01   -4.512E+01   -4.442E+01   -4.373E+01
    -4.305E+01   -4.237E+01   -4.170E+01   -4.103E+01   -4.037E+01   -3.971E+01   -3.907E+01   -3.842E+01   -3.779E+01   -3.716E+01
    -3.654E+01   -3.592E+01   -3.531E+01   -3.470E+01   -3.411E+01   -3.352E+01   -3.293E+01   -3.235E+01   -3.178E+01   -3.122E+01
    -3.066E+01   -3.011E+01   -2.956E+01   -2.903E+01   -2.850E+01   -2.797E+01   -2.746E+01   -2.695E+01   -2.644E+01   -2.595E+01
    -2.546E+01   -2.497E+01   -2.450E+01   -2.403E+01   -2.357E+01   -2.312E+01   -2.267E+01   -2.223E+01   -2.180E+01   -2.138E+01
    -2.096E+01   -2.055E+01   -2.015E+01   -1.975E+01   -1.937E+01   -1.899E+01   -1.862E+01   -1.825E+01   -1.790E+01   -1.755E+01
    -1.721E+01   -1.687E+01   -1.655E+01   -1.623E+01   -1.592E+01   -1.562E+01   -1.532E+01   -1.504E+01   -1.476E+01   -1.449E+01
    -1.423E+01   -1.397E+01   -1.373E+01   -1.349E+01   -1.326E+01   -1.304E+01   -1.283E+01   -1.262E+01   -1.242E+01   -1.223E+01
    -1.205E+01   -1.188E+01   -1.171E+01   -1.155E+01   -1.140E+01   -1.126E+01   -1.112E+01   -1.099E+01   -1.087E+01   -1.075E+01
    -1.064E+01   -1.054E+01   -1.044E+01   -1.035E+01   -1.027E+01   -1.019E+01   -1.012E+01   -1.006E+01   -9.997E+00   -9.943E+00
    -9.895E+00   -9.852E+00   -9.815E+00   -9.783E+00   -9.757E+00   -9.735E+00   -9.719E+00   -9.708E+00   -9.701E+00   -9.699E+00
    -9.702E+00   -9.709E+00   -9.721E+00   -9.737E+00   -9.757E+00   -9.781E+00   -9.809E+00   -9.841E+00   -9.877E+00   -9.917E+00
    -9.960E+00   -1.001E+01   -1.006E+01   -1.011E+01   -1.017E+01   -1.023E+01   -1.029E+01   -1.035E+01   -1.042E+01   -1.049E+01
    -1.056E+01   -1.064E+01   -1.072E+01   -1.080E+01   -1.088E+01   -1.096E+01   -1.105E+01   -1.114E+01   -1.123E+01   -1.132E+01
    -1.141E+01   -1.150E+01   -1.160E+01   -1.170E+01   -1.179E+01   -1.189E+01   -1.199E+01   -1.209E+01   -1.219E+01   -1.229E+01
    -1.239E+01   -1.250E+01   -1.260E+01   -1.270E+01   -1.280E+01   -1.290E+01   -1.301E+01   -1.311E+01   -1.321E+01   -1.331E+01
    -1.341E+01   -1.351E+01   -1.361E+01   -1.370E+01   -1.380E+01   -1.390E+01   -1.399E+01   -1.408E+01   -1.417E+01   -1.426E+01
    -1.435E+01   -1.444E+01   -1.452E+01   -1.460E+01   -1.468E+01   -1.476E+01   -1.484E+01   -1.491E+01   -1.498E+01   -1.505E+01
    -1.512E+01   -1.518E+01   -1.524E+01   -1.530E+01   -1.535E+01   -1.540E+01   -1.545E+01   -1.549E+01   -1.553E+01   -1.557E+01
    -1.560E+01   -1.563E+01   -1.565E+01   -1.567E+01   -1.569E+01   -1.570E+01   -1.571E+01   -1.571E+01   -1.571E+01   -1.571E+01
    -1.570E+01   -1.568E+01   -1.566E+01   -1.564E+01   -1.561E+01   -1.557E+01   -1.554E+01   -1.550E+01   -1.545E+01   -1.540E+01
    -1.534E+01   -1.529E+01   -1.522E+01   -1.516E+01   -1.509E+01   -1.501E+01   -1.493E+01   -1.485E+01   -1.477E+01   -1.468E+01
    -1.459E+01   -1.449E+01   -1.439E+01   -1.429E+01   -1.419E+01   -1.408E+01   -1.396E+01   -1.385E+01   -1.373E+01   -1.361E+01
    -1.349E+01   -1.336E+01   -1.323E+01   -1.310E+01   -1.297E+01   -1.283E+01   -1.269E+01   -1.255E+01   -1.241E+01   -1.226E+01
    -1.211E+01   -1.196E+01   -1.181E+01   -1.165E+01   -1.149E+01   -1.134E+01   -1.118E+01   -1.101E+01   -1.085E+01   -1.068E+01
    -1.051E+01   -1.035E+01   -1.018E+01   -1.000E+01   -9.830E+00   -9.655E+00   -9.479E+00   -9.302E+00   -9.124E+00   -8.945E+00
    -8.764E+00   -8.583E+00   -8.401E+00   -8.219E+00   -8.035E+00   -7.851E+00   -7.666E+00   -7.481E+00   -7.295E+00   -7.108E+00
    -6.922E+00   -6.735E+00   -6.548E+00   -6.360E+00   -6.173E+00   -5.985E+00   -5.798E+00   -5.610E+00   -5.423E+00   -5.236E+00
    -5.049E+00   -4.862E+00   -4.676E+00   -4.490E+00   -4.305E+00   -4.120E+00   -3.936E+00   -3.753E+00   -3.571E+00   -3.389E+00
    -3.208E+00   -3.028E+00   -2.849E+00   -2.671E+00   -2.495E+00   -2.319E+00   -2.145E+00   -1.972E+00   -1.800E+00   -1.630E+00
    -1.462E+00   -1.295E+00   -1.129E+00   -9.655E-01   -8.035E-01   -6.434E-01   -4.851E-01   -3.288E-01   -1.745E-01   -2.221E-02
     1.279E-01    2.758E-01    4.215E-01    5.649E-01    7.059E-01    8.444E-01    9.804E-01    1.114E+00    1.245E+00    1.373E+00
     1.498E+00    1.621E+00    1.741E+00    1.857E+00    1.971E+00    2.082E+00    2.190E+00    2.295E+00    2.397E+00    2.496E+00
     2.592E+00    2.685E+00    2.775E+00    2.863E+00    2.947E+00    3.029E+00    3.108E+00    3.184E+00    3.257E+00    3.327E+00
     3.395E+00    3.460E+00    3.522E+00    3.581E+00    3.637E+00    3.691E+00    3.742E+00    3.790E+00    3.835E+00    3.878E+00
     3.918E+00    3.955E+00    3.990E+00    4.022E+00    4.051E+00    4.078E+00    4.102E+00    4.123E+00    4.142E+00    4.158E+00
     4.172E+00    4.183E+00    4.191E+00    4.197E+00    4.200E+00    4.201E+00    4.199E+00    4.195E+00    4.188E+00    4.179E+00
     4.167E+00    4.153E+00    4.136E+00    4.117E+00    4.095E+00    4.071E+00    4.045E+00    4.016E+00    3.984E+00    3.951E+00
     3.915E+00    3.876E+00    3.835E+00    3.792E+00    3.747E+00    3.699E+00    3.649E+00    3.596E+00    3.541E+00    3.484E+00
     3.425E+00    3.364E+00    3.300E+00    3.234E+00    3.166E+00    3.095E+00    3.022E+00    2.947E+00    2.870E+00    2.791E+00
     2.710E+00    2.626E+00    2.540E+00    2.453E+00    2.363E+00    2.270E+00    2.176E+00    2.080E+00    1.982E+00    1.881E+00
     1.779E+00    1.674E+00    1.568E+00    1.459E+00    1.349E+00    1.236E+00    1.121E+00    1.005E+00    8.863E-01    7.658E-01
     6.433E-01    5.189E-01    3.926E-01    2.644E-01    1.342E-01    2.199E-03   -1.317E-01   -2.675E-01   -4.052E-01   -5.447E-01
    -6.860E-01   -8.292E-01   -9.742E-01   -1.121E+00   -1.270E+00   -1.420E+00   -1.572E+00   -1.726E+00   -1.882E+00   -2.039E+00
    -2.198E+00   -2.359E+00   -2.522E+00   -2.686E+00   -2.852E+00   -3.020E+00   -3.189E+00   -3.360E+00
 Asp      Conc. = 1.40E+02
