 LCModel (Version 6.3-1L) Copyright: S.W. Provencher.          Ref.: Magn. Reson. Med. 30:672-679 (1993).                
 Slice#3 Row#10 Col#10  PD_05_press_2_raw_act
 36 lines in following concentration table = NCONC+1
    Conc.  %SD /Cr+PCr  Metabolite                                         
   22.211 889% 5.9E-02 Ala                                                 
   32.523 225% 8.7E-02 Asp                                                 
    0.000 999%   0.000 Cr                                                  
  375.673  14%   1.000 PCr                                                 
   41.083 109%   0.109 GABA                                                
   31.335 141% 8.3E-02 Glc                                                 
 1.28E+03  32%   3.411 Gln                                                 
  951.210  48%   2.532 Glu                                                 
    0.000 999%   0.000 GPC                                                 
   67.843  28%   0.181 PCh                                                 
    0.000 999%   0.000 GSH                                                 
   90.286 250%   0.240 Ins                                                 
  928.074  25%   2.470 Lac                                                 
  699.466   8%   1.862 NAA                                                 
    0.000 999%   0.000 NAAG                                                
   11.609 115% 3.1E-02 Scyllo                                              
   78.886  90%   0.210 Tau                                                 
  174.984  44%   0.466 -CrCH2                                              
   67.843  28%   0.181 GPC+PCh                                             
  699.466   8%   1.862 NAA+NAAG                                            
  375.673  14%   1.000 Cr+PCr                                              
 2.23E+03  33%   5.943 Glu+Gln                                             
    0.000 999%   0.000 Lip13a                                              
  196.873  42%   0.524 Lip13b                                              
   45.368  61%   0.121 Lip09                                               
  424.899  25%   1.131 MM09                                                
   29.709  57% 7.9E-02 Lip20                                               
  666.182  25%   1.773 MM20                                                
  126.856  31%   0.338 MM12                                                
  595.462  19%   1.585 MM14                                                
  238.567  32%   0.635 MM17                                                
  196.873  42%   0.524 Lip13a+Lip13b                                       
  919.192  16%   2.447 MM14+Lip13a+Lip13b+MM12                             
  470.267  22%   1.252 MM09+Lip09                                          
  695.890  24%   1.852 MM20+Lip20                                          
   6 lines in following misc. output table
  FWHM = 0.099 ppm    S/N =   3                                            
  Data shift = 0.023 ppm                                                   
  Ph: -65 deg     -31.7 deg/ppm                                            
  alphaB,S = 8.5E+01,   8.2E+02                                            
   14 spline knots.   Ns =10(1)                                            
   2 inflections.     1 extrema                                            
  498 points on ppm-axis = NY
      4.000000     3.992357     3.984714     3.977070     3.969427     3.961784     3.954141     3.946497     3.938854     3.931211
      3.923568     3.915925     3.908281     3.900638     3.892995     3.885352     3.877708     3.870065     3.862422     3.854779
      3.847136     3.839492     3.831849     3.824206     3.816563     3.808919     3.801276     3.793633     3.785990     3.778347
      3.770703     3.763060     3.755417     3.747774     3.740130     3.732487     3.724844     3.717201     3.709558     3.701914
      3.694271     3.686628     3.678985     3.671341     3.663698     3.656055     3.648412     3.640769     3.633125     3.625482
      3.617839     3.610196     3.602552     3.594909     3.587266     3.579623     3.571980     3.564336     3.556693     3.549050
      3.541407     3.533763     3.526120     3.518477     3.510834     3.503191     3.495547     3.487904     3.480261     3.472618
      3.464974     3.457331     3.449688     3.442045     3.434402     3.426758     3.419115     3.411472     3.403829     3.396185
      3.388542     3.380899     3.373256     3.365613     3.357969     3.350326     3.342683     3.335040     3.327396     3.319753
      3.312110     3.304467     3.296824     3.289180     3.281537     3.273894     3.266251     3.258607     3.250964     3.243321
      3.235678     3.228034     3.220391     3.212748     3.205105     3.197462     3.189818     3.182175     3.174532     3.166889
      3.159245     3.151602     3.143959     3.136316     3.128673     3.121029     3.113386     3.105743     3.098100     3.090456
      3.082813     3.075170     3.067527     3.059884     3.052240     3.044597     3.036954     3.029311     3.021667     3.014024
      3.006381     2.998738     2.991095     2.983451     2.975808     2.968165     2.960522     2.952878     2.945235     2.937592
      2.929949     2.922306     2.914662     2.907019     2.899376     2.891733     2.884089     2.876446     2.868803     2.861160
      2.853517     2.845873     2.838230     2.830587     2.822944     2.815300     2.807657     2.800014     2.792371     2.784728
      2.777084     2.769441     2.761798     2.754155     2.746511     2.738868     2.731225     2.723582     2.715939     2.708295
      2.700652     2.693009     2.685366     2.677722     2.670079     2.662436     2.654793     2.647150     2.639506     2.631863
      2.624220     2.616577     2.608933     2.601290     2.593647     2.586004     2.578361     2.570717     2.563074     2.555431
      2.547788     2.540144     2.532501     2.524858     2.517215     2.509572     2.501928     2.494285     2.486642     2.478999
      2.471355     2.463712     2.456069     2.448426     2.440783     2.433139     2.425496     2.417853     2.410210     2.402566
      2.394923     2.387280     2.379637     2.371994     2.364350     2.356707     2.349064     2.341421     2.333777     2.326134
      2.318491     2.310848     2.303205     2.295561     2.287918     2.280275     2.272632     2.264988     2.257345     2.249702
      2.242059     2.234416     2.226772     2.219129     2.211486     2.203843     2.196199     2.188556     2.180913     2.173270
      2.165627     2.157983     2.150340     2.142697     2.135054     2.127410     2.119767     2.112124     2.104481     2.096838
      2.089194     2.081551     2.073908     2.066265     2.058621     2.050978     2.043335     2.035692     2.028049     2.020405
      2.012762     2.005119     1.997476     1.989833     1.982190     1.974546     1.966903     1.959260     1.951617     1.943974
      1.936331     1.928688     1.921045     1.913402     1.905759     1.898115     1.890472     1.882829     1.875186     1.867543
      1.859900     1.852257     1.844614     1.836971     1.829327     1.821684     1.814041     1.806398     1.798755     1.791112
      1.783469     1.775826     1.768183     1.760540     1.752896     1.745253     1.737610     1.729967     1.722324     1.714681
      1.707038     1.699395     1.691752     1.684108     1.676465     1.668822     1.661179     1.653536     1.645893     1.638250
      1.630607     1.622964     1.615321     1.607677     1.600034     1.592391     1.584748     1.577105     1.569462     1.561819
      1.554176     1.546533     1.538890     1.531246     1.523603     1.515960     1.508317     1.500674     1.493031     1.485388
      1.477745     1.470102     1.462458     1.454815     1.447172     1.439529     1.431886     1.424243     1.416600     1.408957
      1.401314     1.393671     1.386027     1.378384     1.370741     1.363098     1.355455     1.347812     1.340169     1.332526
      1.324883     1.317240     1.309596     1.301953     1.294310     1.286667     1.279024     1.271381     1.263738     1.256095
      1.248452     1.240808     1.233165     1.225522     1.217879     1.210236     1.202593     1.194950     1.187307     1.179664
      1.172021     1.164377     1.156734     1.149091     1.141448     1.133805     1.126162     1.118519     1.110876     1.103233
      1.095590     1.087946     1.080303     1.072660     1.065017     1.057374     1.049731     1.042088     1.034445     1.026802
      1.019158     1.011515     1.003872     0.996229     0.988586     0.980943     0.973300     0.965657     0.958014     0.950371
      0.942727     0.935084     0.927441     0.919798     0.912155     0.904512     0.896869     0.889226     0.881583     0.873940
      0.866296     0.858653     0.851010     0.843367     0.835724     0.828081     0.820438     0.812795     0.805152     0.797508
      0.789865     0.782222     0.774579     0.766936     0.759293     0.751650     0.744007     0.736364     0.728721     0.721077
      0.713434     0.705791     0.698148     0.690505     0.682862     0.675219     0.667576     0.659933     0.652290     0.644646
      0.637003     0.629360     0.621717     0.614074     0.606431     0.598788     0.591145     0.583502     0.575858     0.568215
      0.560572     0.552929     0.545286     0.537643     0.530000     0.522357     0.514714     0.507071     0.499427     0.491784
      0.484141     0.476498     0.468855     0.461212     0.453569     0.445925     0.438282     0.430639     0.422996     0.415353
      0.407710     0.400067     0.392424     0.384780     0.377137     0.369494     0.361851     0.354208     0.346565     0.338922
      0.331278     0.323635     0.315992     0.308349     0.300706     0.293063     0.285420     0.277777     0.270133     0.262490
      0.254847     0.247204     0.239561     0.231918     0.224275     0.216631     0.208988     0.201345
 NY phased data points follow
   3.06720E+00  2.56940E+00  5.73741E+00 -1.58540E+00 -1.61957E+00 -3.24804E+00  3.24909E+00  1.92414E+00  1.48987E+00 -1.43756E-01
  -2.22119E+00 -4.76000E-01  6.48891E-01  2.36111E+00 -2.21511E+00  1.08164E+00 -6.21593E-01 -1.47453E+00  1.81881E+00 -3.42791E+00
  -2.67863E+00 -5.81979E+00  1.34611E+00  5.03505E-02  1.56277E+00 -5.15329E+00  9.45095E-01 -5.68934E+00 -2.37463E-01 -3.77275E+00
   1.20187E+00 -2.96776E+00  1.45619E+00  2.89669E+00  3.07918E+00 -3.48220E+00 -1.77961E+00  1.41697E+00 -2.45723E-01  1.18576E+00
   8.38094E-01 -1.68101E+00  1.60361E+00  1.56209E+00 -3.32618E+00 -1.70608E+00 -1.81270E+00  2.66557E+00  4.65341E+00 -1.56312E+00
  -2.34691E+00  2.06591E-02 -9.90797E-01  1.13748E+00 -3.95086E+00  8.50028E-02  1.87279E+00 -3.86971E+00 -1.23302E+00 -4.85590E+00
   2.85152E-01 -9.86188E-01  5.83869E-01 -3.06011E+00 -5.33705E+00 -4.91456E+00 -1.21966E-01  1.09306E+00  3.42156E+00 -1.56058E+00
  -1.10251E-01 -1.07029E+00 -2.40347E+00 -5.45541E-01  2.48777E+00 -1.09838E-01  1.07249E+00 -4.76428E+00 -5.96479E-01 -2.13452E+00
  -1.08689E+00 -3.19565E+00 -9.78519E-01 -1.78514E+00  1.77034E+00  6.42443E-01  1.46034E+00 -2.59780E+00 -3.18072E+00 -2.32045E+00
  -2.76970E+00 -3.54831E+00  1.83395E+00  7.83048E-02  5.46751E+00  2.68964E+00  1.04730E+00  6.29960E+00  1.31493E+00 -1.66738E+00
   4.76224E-01  3.80952E+00  6.04645E+00  3.40401E+00  5.55809E+00  1.74503E+00  6.08523E-01  2.89408E+00  7.58257E-02 -2.32265E-01
  -1.33510E+00  7.61856E-01  3.18121E+00 -1.17960E+00  2.64069E+00  5.17518E+00  1.70098E+00  2.14105E+00  2.14458E+00  6.20369E+00
   6.34133E+00  1.36558E+00  1.68189E+00  3.35433E+00  3.32364E+00  8.65586E+00  9.59224E+00  9.59435E+00  9.91516E+00  8.29621E+00
   7.01329E+00 -7.69840E-01  6.92569E+00  5.31369E+00 -3.32206E-01 -8.85115E-01  3.40517E+00 -1.74745E+00  4.95684E+00 -8.71375E-01
   2.29244E-01  1.50745E+00 -4.58420E-01 -6.98683E+00 -3.00678E+00 -2.42065E+00  1.14448E-01 -1.20096E+00  3.14053E+00 -5.77725E-01
  -1.35951E-01  3.68214E+00  1.36835E+00  2.28896E+00 -7.96845E-01  1.91668E+00  4.06783E+00  3.11115E-02  8.16794E-01 -3.56690E+00
  -1.04323E+00 -9.93831E-01 -7.20059E-01 -3.48592E-01 -6.11341E-01  4.80080E-01 -3.43452E+00 -2.44557E+00 -2.54063E+00 -3.97041E+00
  -2.36285E+00 -3.80884E+00 -6.85390E+00 -6.37588E+00 -6.27468E-01 -7.89221E+00 -8.67387E+00 -3.59845E+00 -5.04271E+00 -2.14737E-01
  -9.39606E+00 -9.05155E-01 -2.32130E+00 -2.67951E+00  2.92862E+00 -2.15684E+00 -3.50931E+00 -2.51684E+00 -2.46983E+00 -1.34661E-02
  -1.66800E+00 -1.88277E+00  3.01046E-01 -5.10873E-01 -4.33563E+00 -1.08192E+00 -2.57636E+00 -9.30857E-01  4.00483E+00  1.02366E+00
  -4.22211E+00 -4.37520E+00 -6.91774E-01 -3.18300E+00 -1.30229E+00 -1.94992E+00 -1.34471E+00 -2.94318E+00 -1.25238E+00 -1.19436E+00
   1.15880E+00 -2.70887E+00 -1.00034E+00 -3.07439E+00 -8.86098E-01 -2.70972E+00  2.80970E+00  4.36391E+00 -1.91844E-01  4.46010E+00
  -2.04261E+00  3.98600E+00  1.80784E+00 -8.07939E-01 -1.11807E+00  6.13900E+00 -2.99755E+00  5.46611E-01  1.32880E+00  6.16044E+00
   2.76596E+00  2.67232E+00  9.08458E-01  1.75712E+00  1.03119E+00  1.76934E+00  5.76240E+00  2.63698E+00  1.95154E+00  1.57342E+00
  -1.19463E+00  2.29746E+00  3.78307E+00  1.25230E+00  1.74462E+00  1.22728E-02 -2.52467E+00  4.76501E+00  1.71963E+00  2.03571E+00
   5.16926E+00  3.29627E+00  8.72441E+00  9.32615E+00  8.64184E+00  7.48103E+00  7.32426E+00  1.35869E+01  1.14925E+01  1.42977E+01
   2.07283E+01  2.15350E+01  2.51249E+01  1.60404E+01  1.29230E+01  1.08604E+01  8.71156E+00  1.09587E+01  4.30305E+00  3.51222E+00
   7.62449E+00  9.73462E+00  3.00165E+00  6.09924E+00  8.77078E-01  7.77411E+00  2.59970E+00  6.00142E+00  5.32173E+00  4.02717E+00
   5.62126E+00  2.29318E+00  7.07127E-02  6.25678E-01  2.99963E+00  1.44502E+00  1.14738E+00 -3.56979E-02  4.42175E+00  3.49254E+00
   1.08812E+00  2.16805E+00  2.35076E+00 -3.59024E-01 -4.65548E-01  4.63572E+00  1.69291E-01  3.82143E-01  5.09534E+00  2.79817E+00
   3.15035E-01  5.42873E+00  4.21337E+00  2.20244E+00  1.69631E+00  6.99871E+00  7.48288E+00  6.66613E+00  1.26415E+00  3.39147E+00
   6.85821E+00  1.23546E+00 -6.08715E-01  2.23318E+00  1.28820E+00  1.00900E+01  5.20856E+00  2.99397E+00  1.42022E+00  2.21567E+00
   8.58583E-01  8.66679E+00  9.41059E+00  4.54304E+00  6.02170E+00  9.52280E+00  7.87369E+00  5.04309E+00  6.43316E+00  1.06468E+01
   1.46014E+01  8.21959E+00  4.92067E+00  1.19695E+01  4.25610E+00  6.45829E+00  7.21635E+00  6.25886E+00  9.60024E+00  6.58284E+00
   4.18114E+00  6.27372E+00  8.47945E+00  1.26472E+01  8.26527E+00  3.85182E+00  8.32451E+00  5.14524E+00  7.84029E+00  2.68291E+00
   5.41577E+00  5.70746E+00  9.50160E-02  1.20446E+00  2.86733E+00  6.96649E+00  7.49468E+00  6.84437E+00  8.68639E-02  7.57312E+00
   7.52600E+00  4.44348E+00  7.13680E+00  3.94584E+00  3.94668E+00  5.19862E+00  5.35260E+00  8.38124E+00  2.45363E+00  3.70525E+00
   4.45881E+00  1.28865E+00  2.76617E+00  3.49468E-01 -2.96339E+00  4.49717E+00 -1.69685E-01 -5.33848E-01  9.96537E-01  1.07444E+00
  -1.82374E+00 -1.71403E+00  6.12312E+00  7.34012E-01  3.09297E+00 -1.84949E+00  4.23791E+00 -2.28263E+00 -9.61085E-01  3.40252E+00
   8.73974E-01  4.16795E+00  5.09468E+00  3.46081E+00  3.47695E+00  1.79335E+00  1.60351E-01  3.36807E+00  1.52284E-01  3.84977E+00
  -1.74101E-01 -3.16347E+00  5.24583E+00 -3.00560E+00  4.47204E+00  5.07036E+00 -2.51132E+00 -3.26610E+00  1.86570E+00  6.65396E+00
   4.44418E+00  2.58336E+00  2.75084E+00  4.18420E+00  4.53357E+00  1.75039E+00 -3.72775E-01  5.84535E+00  1.43318E+00  1.56078E+00
   4.66488E-01  5.73894E+00  4.65254E+00  4.46452E+00  3.63829E+00  6.17667E+00  2.11936E+00 -4.17842E+00 -1.74385E+00 -8.90154E-01
   4.34585E+00  1.26085E+00  1.62122E+00  5.43247E+00  3.30873E+00  4.13261E+00 -1.04011E+00  2.26155E+00  1.71886E+00  8.09986E-01
   5.80173E+00 -3.64260E-01 -6.99132E-01 -6.09795E-01  9.40847E-01 -7.56823E-01  5.13393E+00  4.23818E+00  4.77112E+00  1.11124E+00
   9.36822E-01  3.61277E+00  6.30276E+00  2.36604E+00  3.44528E+00 -3.25568E-01  3.21602E+00  1.91622E+00 -1.20103E+00  2.17433E+00
  -1.03525E+00  3.31480E+00  2.62611E+00 -4.04911E+00 -2.23367E+00 -2.43098E-01 -2.79413E+00  2.27478E+00  4.48114E+00  4.36068E-01
   3.16032E+00  2.62673E+00 -7.02440E-01  5.44030E+00  2.99496E-01  2.37988E+00 -1.14289E-01  2.30360E+00  5.61723E+00  8.55674E-01
   1.04346E+00  3.19033E+00 -1.50178E+00  1.25876E-01  5.16497E-01  3.05971E+00  4.72124E+00 -1.78817E+00  1.41172E+00  5.43198E+00
  -1.22424E-02  1.54338E+00 -2.89718E-01 -1.22937E+00  2.00379E+00 -1.62435E+00  8.53069E-01  2.23077E+00
 NY points of the fit to the data follow
  -8.78165E-01 -7.24001E-01 -5.43811E-01 -3.03124E-01  5.51739E-03  3.42858E-01  6.70454E-01  9.55693E-01  1.16794E+00  1.27906E+00
   1.27307E+00  1.16733E+00  9.94673E-01  7.83471E-01  5.65903E-01  3.77136E-01  2.17126E-01  6.09570E-02 -1.13368E-01 -2.95211E-01
  -4.54657E-01 -6.04780E-01 -7.08792E-01 -6.98509E-01 -5.82963E-01 -4.02285E-01 -2.07708E-01 -4.28181E-02  6.14368E-02  1.23411E-01
   1.82955E-01  2.54225E-01  3.23534E-01  3.69163E-01  3.76904E-01  3.46075E-01  2.86275E-01  2.05123E-01  8.63518E-02 -7.72871E-02
  -2.71612E-01 -4.58173E-01 -5.90762E-01 -6.15104E-01 -4.95737E-01 -2.97027E-01 -1.09303E-01  9.16122E-03  2.32346E-02 -6.73347E-02
  -2.27217E-01 -3.91325E-01 -5.23169E-01 -6.26320E-01 -7.10828E-01 -7.81812E-01 -8.39644E-01 -8.82819E-01 -9.09993E-01 -9.18276E-01
  -9.13041E-01 -9.05082E-01 -9.00169E-01 -8.98899E-01 -8.99788E-01 -8.97738E-01 -8.87161E-01 -8.69111E-01 -8.47714E-01 -8.26962E-01
  -8.10095E-01 -7.96679E-01 -7.84389E-01 -7.73097E-01 -7.65063E-01 -7.61581E-01 -7.56068E-01 -7.44248E-01 -7.30006E-01 -7.17304E-01
  -7.08391E-01 -7.01400E-01 -6.95578E-01 -6.91274E-01 -6.90274E-01 -6.96142E-01 -7.10200E-01 -7.29383E-01 -7.51756E-01 -7.77019E-01
  -8.06225E-01 -8.36388E-01 -8.44886E-01 -7.49269E-01 -5.00605E-01 -1.31883E-01  3.14622E-01  8.06344E-01  1.32050E+00  1.82815E+00
   2.29801E+00  2.70399E+00  3.02036E+00  3.22246E+00  3.29103E+00  3.21672E+00  3.00486E+00  2.67488E+00  2.25406E+00  1.77284E+00
   1.26248E+00  7.54276E-01  2.78494E-01 -1.25282E-01 -4.04320E-01 -4.92565E-01 -3.04170E-01  1.92453E-01  9.17640E-01  1.78155E+00
   2.71645E+00  3.67175E+00  4.60604E+00  5.47773E+00  6.23937E+00  6.83882E+00  7.22667E+00  7.36474E+00  7.23635E+00  6.85237E+00
   6.24458E+00  5.45749E+00  4.54218E+00  3.55440E+00  2.55341E+00  1.60361E+00  7.79732E-01  1.68239E-01 -1.60553E-01 -2.85380E-01
  -3.49149E-01 -3.91921E-01 -4.23125E-01 -4.47317E-01 -4.68288E-01 -4.88493E-01 -5.09194E-01 -5.30236E-01 -5.50485E-01 -5.70020E-01
  -5.90374E-01 -6.19082E-01 -6.61381E-01 -7.13975E-01 -7.70167E-01 -8.18848E-01 -8.57738E-01 -8.92566E-01 -9.27057E-01 -9.62841E-01
  -9.99792E-01 -1.03656E+00 -1.07215E+00 -1.10689E+00 -1.14300E+00 -1.18440E+00 -1.23865E+00 -1.30988E+00 -1.38756E+00 -1.46255E+00
  -1.53245E+00 -1.60410E+00 -1.68348E+00 -1.76662E+00 -1.83928E+00 -1.88707E+00 -1.90643E+00 -1.90397E+00 -1.88822E+00 -1.85620E+00
  -1.80278E+00 -1.72648E+00 -1.62882E+00 -1.51701E+00 -1.40945E+00 -1.31646E+00 -1.25555E+00 -1.23655E+00 -1.25912E+00 -1.31569E+00
  -1.38745E+00 -1.44094E+00 -1.43343E+00 -1.33992E+00 -1.14804E+00 -8.36213E-01 -4.12688E-01  7.27658E-02  5.56963E-01  9.52121E-01
   1.12653E+00  1.06617E+00  8.39391E-01  4.87273E-01  4.51758E-02 -4.34961E-01 -8.68059E-01 -1.21308E+00 -1.46570E+00 -1.60182E+00
  -1.59702E+00 -1.45167E+00 -1.20122E+00 -8.73223E-01 -4.71167E-01 -1.40462E-02  4.50466E-01  8.81365E-01  1.21708E+00  1.40380E+00
   1.42175E+00  1.26376E+00  9.72971E-01  7.16808E-01  6.04112E-01  6.23654E-01  7.26484E-01  9.12145E-01  1.18702E+00  1.49380E+00
   1.79771E+00  2.10201E+00  2.37423E+00  2.52722E+00  2.54530E+00  2.48666E+00  2.41717E+00  2.35890E+00  2.30750E+00  2.25097E+00
   2.16778E+00  2.05338E+00  1.91619E+00  1.77492E+00  1.65713E+00  1.58758E+00  1.56739E+00  1.58060E+00  1.63158E+00  1.81804E+00
   2.38889E+00  3.57781E+00  5.26531E+00  7.23594E+00  9.27660E+00  1.12259E+01  1.30216E+01  1.46027E+01  1.58977E+01  1.68417E+01
   1.73712E+01  1.74263E+01  1.69901E+01  1.61038E+01  1.48401E+01  1.32856E+01  1.15290E+01  9.65879E+00  7.76566E+00  5.95500E+00
   4.35300E+00  3.11793E+00  2.40625E+00  2.13562E+00  2.01303E+00  1.93856E+00  1.88908E+00  1.84738E+00  1.80562E+00  1.76503E+00
   1.72280E+00  1.67726E+00  1.62912E+00  1.58157E+00  1.53930E+00  1.50981E+00  1.49747E+00  1.50131E+00  1.51946E+00  1.54991E+00
   1.58994E+00  1.63713E+00  1.68940E+00  1.74588E+00  1.80717E+00  1.87317E+00  1.94344E+00  2.01758E+00  2.09475E+00  2.17350E+00
   2.25215E+00  2.32946E+00  2.40421E+00  2.47504E+00  2.54100E+00  2.60179E+00  2.65727E+00  2.70802E+00  2.75513E+00  2.80017E+00
   2.84516E+00  2.89245E+00  2.94461E+00  3.00438E+00  3.07453E+00  3.15799E+00  3.25791E+00  3.37786E+00  3.51647E+00  3.66881E+00
   3.83136E+00  4.00140E+00  4.17600E+00  4.35152E+00  4.52360E+00  4.69133E+00  4.85621E+00  5.01686E+00  5.17100E+00  5.31725E+00
   5.45561E+00  5.58778E+00  5.71733E+00  5.85046E+00  5.99750E+00  6.17692E+00  6.42709E+00  6.83585E+00  7.43635E+00  8.03176E+00
   8.45825E+00  8.63919E+00  8.54284E+00  8.14585E+00  7.42165E+00  6.46943E+00  5.51294E+00  4.64701E+00  3.89816E+00  3.28631E+00
   2.84486E+00  2.61082E+00  2.60743E+00  2.83421E+00  3.26389E+00  3.84775E+00  4.52831E+00  5.25317E+00  5.98076E+00  6.65541E+00
   7.12552E+00  7.21039E+00  6.94789E+00  6.42028E+00  5.69858E+00  4.86125E+00  4.02278E+00  3.35927E+00  2.95067E+00  2.68927E+00
   2.50717E+00  2.37407E+00  2.27370E+00  2.19652E+00  2.13671E+00  2.09069E+00  2.05627E+00  2.03220E+00  2.01776E+00  2.01266E+00
   2.01678E+00  2.03016E+00  2.05293E+00  2.08533E+00  2.12759E+00  2.18001E+00  2.24275E+00  2.31596E+00  2.39961E+00  2.49362E+00
   2.59764E+00  2.71113E+00  2.83321E+00  2.96271E+00  3.09812E+00  3.23761E+00  3.37898E+00  3.51976E+00  3.65716E+00  3.78825E+00
   3.91000E+00  4.01942E+00  4.11364E+00  4.19007E+00  4.24647E+00  4.28112E+00  4.29289E+00  4.28128E+00  4.24644E+00  4.18920E+00
   4.11098E+00  4.01379E+00  3.90006E+00  3.77260E+00  3.63435E+00  3.48842E+00  3.33780E+00  3.18540E+00  3.03384E+00  2.88546E+00
   2.74219E+00  2.60563E+00  2.47695E+00  2.35702E+00  2.24630E+00  2.14499E+00  2.05303E+00  1.97015E+00  1.89593E+00  1.82986E+00
   1.77135E+00  1.71976E+00  1.67445E+00  1.63479E+00  1.60019E+00  1.57011E+00  1.54400E+00  1.52143E+00  1.50195E+00  1.48521E+00
   1.47086E+00  1.45865E+00  1.44829E+00  1.43959E+00  1.43232E+00  1.42635E+00  1.42152E+00  1.41772E+00  1.41481E+00  1.41273E+00
   1.41136E+00  1.41066E+00  1.41054E+00  1.41097E+00  1.41188E+00  1.41323E+00  1.41498E+00  1.41710E+00  1.41957E+00  1.42235E+00
   1.42540E+00  1.42873E+00  1.43229E+00  1.43610E+00  1.44011E+00  1.44432E+00  1.44870E+00  1.45326E+00  1.45798E+00  1.46286E+00
   1.46787E+00  1.47303E+00  1.47830E+00  1.48370E+00  1.48922E+00  1.49485E+00  1.50058E+00  1.50642E+00  1.51235E+00  1.51838E+00
   1.52451E+00  1.53074E+00  1.53705E+00  1.54345E+00  1.54994E+00  1.55653E+00  1.56320E+00  1.56998E+00  1.57684E+00  1.58381E+00
   1.59088E+00  1.59807E+00  1.60537E+00  1.61279E+00  1.62034E+00  1.62804E+00  1.63590E+00  1.64394E+00
 NY background values follow
    -1.818E+00   -1.811E+00   -1.804E+00   -1.797E+00   -1.790E+00   -1.783E+00   -1.776E+00   -1.769E+00   -1.762E+00   -1.755E+00
    -1.748E+00   -1.741E+00   -1.734E+00   -1.727E+00   -1.720E+00   -1.713E+00   -1.705E+00   -1.698E+00   -1.691E+00   -1.684E+00
    -1.677E+00   -1.670E+00   -1.663E+00   -1.656E+00   -1.649E+00   -1.642E+00   -1.635E+00   -1.628E+00   -1.621E+00   -1.614E+00
    -1.607E+00   -1.600E+00   -1.593E+00   -1.586E+00   -1.579E+00   -1.572E+00   -1.564E+00   -1.557E+00   -1.550E+00   -1.543E+00
    -1.536E+00   -1.529E+00   -1.522E+00   -1.515E+00   -1.508E+00   -1.501E+00   -1.494E+00   -1.487E+00   -1.480E+00   -1.473E+00
    -1.466E+00   -1.458E+00   -1.451E+00   -1.444E+00   -1.437E+00   -1.430E+00   -1.423E+00   -1.416E+00   -1.409E+00   -1.402E+00
    -1.395E+00   -1.388E+00   -1.381E+00   -1.374E+00   -1.366E+00   -1.359E+00   -1.352E+00   -1.345E+00   -1.338E+00   -1.331E+00
    -1.324E+00   -1.317E+00   -1.310E+00   -1.303E+00   -1.296E+00   -1.288E+00   -1.281E+00   -1.274E+00   -1.267E+00   -1.260E+00
    -1.253E+00   -1.246E+00   -1.239E+00   -1.232E+00   -1.225E+00   -1.217E+00   -1.210E+00   -1.203E+00   -1.196E+00   -1.189E+00
    -1.182E+00   -1.175E+00   -1.168E+00   -1.161E+00   -1.153E+00   -1.146E+00   -1.139E+00   -1.132E+00   -1.125E+00   -1.118E+00
    -1.111E+00   -1.104E+00   -1.097E+00   -1.089E+00   -1.082E+00   -1.075E+00   -1.068E+00   -1.061E+00   -1.054E+00   -1.047E+00
    -1.040E+00   -1.032E+00   -1.025E+00   -1.018E+00   -1.011E+00   -1.004E+00   -9.969E-01   -9.897E-01   -9.826E-01   -9.755E-01
    -9.684E-01   -9.612E-01   -9.541E-01   -9.470E-01   -9.399E-01   -9.327E-01   -9.256E-01   -9.185E-01   -9.113E-01   -9.042E-01
    -8.971E-01   -8.899E-01   -8.828E-01   -8.757E-01   -8.685E-01   -8.614E-01   -8.543E-01   -8.471E-01   -8.400E-01   -8.329E-01
    -8.257E-01   -8.186E-01   -8.115E-01   -8.043E-01   -7.972E-01   -7.900E-01   -7.829E-01   -7.758E-01   -7.686E-01   -7.615E-01
    -7.543E-01   -7.472E-01   -7.400E-01   -7.329E-01   -7.258E-01   -7.186E-01   -7.115E-01   -7.043E-01   -6.972E-01   -6.900E-01
    -6.829E-01   -6.757E-01   -6.686E-01   -6.615E-01   -6.543E-01   -6.472E-01   -6.400E-01   -6.329E-01   -6.257E-01   -6.186E-01
    -6.114E-01   -6.043E-01   -5.971E-01   -5.900E-01   -5.828E-01   -5.757E-01   -5.685E-01   -5.614E-01   -5.542E-01   -5.471E-01
    -5.399E-01   -5.328E-01   -5.256E-01   -5.185E-01   -5.113E-01   -5.042E-01   -4.970E-01   -4.899E-01   -4.827E-01   -4.755E-01
    -4.684E-01   -4.612E-01   -4.541E-01   -4.469E-01   -4.398E-01   -4.326E-01   -4.255E-01   -4.183E-01   -4.111E-01   -4.040E-01
    -3.968E-01   -3.897E-01   -3.825E-01   -3.754E-01   -3.682E-01   -3.611E-01   -3.539E-01   -3.467E-01   -3.396E-01   -3.324E-01
    -3.253E-01   -3.181E-01   -3.110E-01   -3.038E-01   -2.966E-01   -2.895E-01   -2.823E-01   -2.752E-01   -2.680E-01   -2.609E-01
    -2.537E-01   -2.465E-01   -2.394E-01   -2.322E-01   -2.251E-01   -2.179E-01   -2.107E-01   -2.036E-01   -1.964E-01   -1.893E-01
    -1.821E-01   -1.750E-01   -1.678E-01   -1.606E-01   -1.535E-01   -1.463E-01   -1.392E-01   -1.320E-01   -1.248E-01   -1.177E-01
    -1.105E-01   -1.034E-01   -9.622E-02   -8.906E-02   -8.190E-02   -7.474E-02   -6.758E-02   -6.043E-02   -5.327E-02   -4.611E-02
    -3.896E-02   -3.180E-02   -2.464E-02   -1.748E-02   -1.033E-02   -3.172E-03    3.985E-03    1.114E-02    1.830E-02    2.545E-02
     3.261E-02    3.976E-02    4.692E-02    5.408E-02    6.123E-02    6.839E-02    7.554E-02    8.269E-02    8.985E-02    9.700E-02
     1.042E-01    1.113E-01    1.185E-01    1.256E-01    1.328E-01    1.399E-01    1.471E-01    1.542E-01    1.614E-01    1.685E-01
     1.757E-01    1.828E-01    1.900E-01    1.971E-01    2.043E-01    2.114E-01    2.186E-01    2.257E-01    2.329E-01    2.400E-01
     2.472E-01    2.543E-01    2.615E-01    2.686E-01    2.758E-01    2.829E-01    2.901E-01    2.972E-01    3.044E-01    3.115E-01
     3.187E-01    3.258E-01    3.329E-01    3.401E-01    3.472E-01    3.544E-01    3.615E-01    3.687E-01    3.758E-01    3.829E-01
     3.901E-01    3.972E-01    4.044E-01    4.115E-01    4.186E-01    4.258E-01    4.329E-01    4.401E-01    4.472E-01    4.543E-01
     4.615E-01    4.686E-01    4.757E-01    4.829E-01    4.900E-01    4.971E-01    5.043E-01    5.114E-01    5.185E-01    5.257E-01
     5.328E-01    5.399E-01    5.471E-01    5.542E-01    5.613E-01    5.685E-01    5.756E-01    5.827E-01    5.898E-01    5.970E-01
     6.041E-01    6.112E-01    6.183E-01    6.255E-01    6.326E-01    6.397E-01    6.468E-01    6.540E-01    6.611E-01    6.682E-01
     6.753E-01    6.824E-01    6.896E-01    6.967E-01    7.038E-01    7.109E-01    7.180E-01    7.251E-01    7.323E-01    7.394E-01
     7.465E-01    7.536E-01    7.607E-01    7.678E-01    7.749E-01    7.821E-01    7.892E-01    7.963E-01    8.034E-01    8.105E-01
     8.176E-01    8.247E-01    8.318E-01    8.389E-01    8.460E-01    8.531E-01    8.602E-01    8.673E-01    8.744E-01    8.815E-01
     8.886E-01    8.957E-01    9.028E-01    9.099E-01    9.170E-01    9.241E-01    9.312E-01    9.383E-01    9.454E-01    9.525E-01
     9.596E-01    9.667E-01    9.737E-01    9.808E-01    9.879E-01    9.950E-01    1.002E+00    1.009E+00    1.016E+00    1.023E+00
     1.030E+00    1.038E+00    1.045E+00    1.052E+00    1.059E+00    1.066E+00    1.073E+00    1.080E+00    1.087E+00    1.094E+00
     1.101E+00    1.108E+00    1.115E+00    1.122E+00    1.129E+00    1.137E+00    1.144E+00    1.151E+00    1.158E+00    1.165E+00
     1.172E+00    1.179E+00    1.186E+00    1.193E+00    1.200E+00    1.207E+00    1.214E+00    1.221E+00    1.228E+00    1.235E+00
     1.242E+00    1.250E+00    1.257E+00    1.264E+00    1.271E+00    1.278E+00    1.285E+00    1.292E+00    1.299E+00    1.306E+00
     1.313E+00    1.320E+00    1.327E+00    1.334E+00    1.341E+00    1.348E+00    1.355E+00    1.362E+00    1.369E+00    1.376E+00
     1.383E+00    1.390E+00    1.397E+00    1.404E+00    1.411E+00    1.418E+00    1.425E+00    1.433E+00    1.440E+00    1.447E+00
     1.454E+00    1.461E+00    1.468E+00    1.475E+00    1.482E+00    1.489E+00    1.496E+00    1.503E+00    1.510E+00    1.517E+00
     1.524E+00    1.531E+00    1.538E+00    1.545E+00    1.552E+00    1.559E+00    1.566E+00    1.573E+00    1.580E+00    1.587E+00
     1.594E+00    1.601E+00    1.608E+00    1.615E+00    1.622E+00    1.629E+00    1.636E+00    1.643E+00    1.650E+00    1.657E+00
     1.664E+00    1.671E+00    1.678E+00    1.685E+00    1.692E+00    1.698E+00    1.705E+00    1.712E+00
 Ala      Conc. = 2.22E+01
