 LCModel (Version 6.3-1L) Copyright: S.W. Provencher.          Ref.: Magn. Reson. Med. 30:672-679 (1993).                
 Slice#2 Row#3 Col#2  PD_05_press_2_raw_act
 36 lines in following concentration table = NCONC+1
    Conc.  %SD /Cr+PCr  Metabolite                                         
    0.000 999%   0.000 Ala                                                 
   51.629 134%   0.173 Asp                                                 
  165.798 112%   0.556 Cr                                                  
  132.309 139%   0.444 PCr                                                 
   25.305 164% 8.5E-02 GABA                                                
   25.706 163% 8.6E-02 Glc                                                 
  648.826  52%   2.176 Gln                                                 
  558.125  65%   1.872 Glu                                                 
   75.538  42%   0.253 GPC                                                 
    0.000 999%   0.000 PCh                                                 
  216.906  53%   0.728 GSH                                                 
  301.134 124%   1.010 Ins                                                 
   91.709 194%   0.308 Lac                                                 
  424.305  24%   1.423 NAA                                                 
    0.000 999%   0.000 NAAG                                                
    4.397 307% 1.5E-02 Scyllo                                              
    2.040 999% 6.8E-03 Tau                                                 
    0.000 999%   0.000 -CrCH2                                              
   75.538  42%   0.253 GPC+PCh                                             
  424.305  24%   1.423 NAA+NAAG                                            
  298.107  27%   1.000 Cr+PCr                                              
 1.21E+03  41%   4.049 Glu+Gln                                             
 6.44E+03  13%  21.607 Lip13a                                              
    0.000 999%   0.000 Lip13b                                              
  400.757 118%   1.344 Lip09                                               
 2.13E+03  18%   7.141 MM09                                                
 1.19E+03  40%   3.990 Lip20                                               
 2.84E+03  22%   9.519 MM20                                                
  758.642  33%   2.545 MM12                                                
 4.08E+03   8%  13.681 MM14                                                
  351.125 120%   1.178 MM17                                                
 6.44E+03  13%  21.607 Lip13a+Lip13b                                       
 1.13E+04   7%  37.833 MM14+Lip13a+Lip13b+MM12                             
 2.53E+03  16%   8.485 MM09+Lip09                                          
 4.03E+03  16%  13.509 MM20+Lip20                                          
   6 lines in following misc. output table
  FWHM = 0.046 ppm    S/N =   3                                            
  Data shift = 0.023 ppm                                                   
  Ph:  74 deg      16.7 deg/ppm                                            
  alphaB,S = 9.1E-01,   2.5E+01                                            
   14 spline knots.   Ns = 5(1)                                            
  ( 8) 4 infls.   ( 9) 1 extrs.                                            
  498 points on ppm-axis = NY
      4.000000     3.992357     3.984714     3.977070     3.969427     3.961784     3.954141     3.946497     3.938854     3.931211
      3.923568     3.915925     3.908281     3.900638     3.892995     3.885352     3.877708     3.870065     3.862422     3.854779
      3.847136     3.839492     3.831849     3.824206     3.816563     3.808919     3.801276     3.793633     3.785990     3.778347
      3.770703     3.763060     3.755417     3.747774     3.740130     3.732487     3.724844     3.717201     3.709558     3.701914
      3.694271     3.686628     3.678985     3.671341     3.663698     3.656055     3.648412     3.640769     3.633125     3.625482
      3.617839     3.610196     3.602552     3.594909     3.587266     3.579623     3.571980     3.564336     3.556693     3.549050
      3.541407     3.533763     3.526120     3.518477     3.510834     3.503191     3.495547     3.487904     3.480261     3.472618
      3.464974     3.457331     3.449688     3.442045     3.434402     3.426758     3.419115     3.411472     3.403829     3.396185
      3.388542     3.380899     3.373256     3.365613     3.357969     3.350326     3.342683     3.335040     3.327396     3.319753
      3.312110     3.304467     3.296824     3.289180     3.281537     3.273894     3.266251     3.258607     3.250964     3.243321
      3.235678     3.228034     3.220391     3.212748     3.205105     3.197462     3.189818     3.182175     3.174532     3.166889
      3.159245     3.151602     3.143959     3.136316     3.128673     3.121029     3.113386     3.105743     3.098100     3.090456
      3.082813     3.075170     3.067527     3.059884     3.052240     3.044597     3.036954     3.029311     3.021667     3.014024
      3.006381     2.998738     2.991095     2.983451     2.975808     2.968165     2.960522     2.952878     2.945235     2.937592
      2.929949     2.922306     2.914662     2.907019     2.899376     2.891733     2.884089     2.876446     2.868803     2.861160
      2.853517     2.845873     2.838230     2.830587     2.822944     2.815300     2.807657     2.800014     2.792371     2.784728
      2.777084     2.769441     2.761798     2.754155     2.746511     2.738868     2.731225     2.723582     2.715939     2.708295
      2.700652     2.693009     2.685366     2.677722     2.670079     2.662436     2.654793     2.647150     2.639506     2.631863
      2.624220     2.616577     2.608933     2.601290     2.593647     2.586004     2.578361     2.570717     2.563074     2.555431
      2.547788     2.540144     2.532501     2.524858     2.517215     2.509572     2.501928     2.494285     2.486642     2.478999
      2.471355     2.463712     2.456069     2.448426     2.440783     2.433139     2.425496     2.417853     2.410210     2.402566
      2.394923     2.387280     2.379637     2.371994     2.364350     2.356707     2.349064     2.341421     2.333777     2.326134
      2.318491     2.310848     2.303205     2.295561     2.287918     2.280275     2.272632     2.264988     2.257345     2.249702
      2.242059     2.234416     2.226772     2.219129     2.211486     2.203843     2.196199     2.188556     2.180913     2.173270
      2.165627     2.157983     2.150340     2.142697     2.135054     2.127410     2.119767     2.112124     2.104481     2.096838
      2.089194     2.081551     2.073908     2.066265     2.058621     2.050978     2.043335     2.035692     2.028049     2.020405
      2.012762     2.005119     1.997476     1.989833     1.982190     1.974546     1.966903     1.959260     1.951617     1.943974
      1.936331     1.928688     1.921045     1.913402     1.905759     1.898115     1.890472     1.882829     1.875186     1.867543
      1.859900     1.852257     1.844614     1.836971     1.829327     1.821684     1.814041     1.806398     1.798755     1.791112
      1.783469     1.775826     1.768183     1.760540     1.752896     1.745253     1.737610     1.729967     1.722324     1.714681
      1.707038     1.699395     1.691752     1.684108     1.676465     1.668822     1.661179     1.653536     1.645893     1.638250
      1.630607     1.622964     1.615321     1.607677     1.600034     1.592391     1.584748     1.577105     1.569462     1.561819
      1.554176     1.546533     1.538890     1.531246     1.523603     1.515960     1.508317     1.500674     1.493031     1.485388
      1.477745     1.470102     1.462458     1.454815     1.447172     1.439529     1.431886     1.424243     1.416600     1.408957
      1.401314     1.393671     1.386027     1.378384     1.370741     1.363098     1.355455     1.347812     1.340169     1.332526
      1.324883     1.317240     1.309596     1.301953     1.294310     1.286667     1.279024     1.271381     1.263738     1.256095
      1.248452     1.240808     1.233165     1.225522     1.217879     1.210236     1.202593     1.194950     1.187307     1.179664
      1.172021     1.164377     1.156734     1.149091     1.141448     1.133805     1.126162     1.118519     1.110876     1.103233
      1.095590     1.087946     1.080303     1.072660     1.065017     1.057374     1.049731     1.042088     1.034445     1.026802
      1.019158     1.011515     1.003872     0.996229     0.988586     0.980943     0.973300     0.965657     0.958014     0.950371
      0.942727     0.935084     0.927441     0.919798     0.912155     0.904512     0.896869     0.889226     0.881583     0.873940
      0.866296     0.858653     0.851010     0.843367     0.835724     0.828081     0.820438     0.812795     0.805152     0.797508
      0.789865     0.782222     0.774579     0.766936     0.759293     0.751650     0.744007     0.736364     0.728721     0.721077
      0.713434     0.705791     0.698148     0.690505     0.682862     0.675219     0.667576     0.659933     0.652290     0.644646
      0.637003     0.629360     0.621717     0.614074     0.606431     0.598788     0.591145     0.583502     0.575858     0.568215
      0.560572     0.552929     0.545286     0.537643     0.530000     0.522357     0.514714     0.507071     0.499427     0.491784
      0.484141     0.476498     0.468855     0.461212     0.453569     0.445925     0.438282     0.430639     0.422996     0.415353
      0.407710     0.400067     0.392424     0.384780     0.377137     0.369494     0.361851     0.354208     0.346565     0.338922
      0.331278     0.323635     0.315992     0.308349     0.300706     0.293063     0.285420     0.277777     0.270133     0.262490
      0.254847     0.247204     0.239561     0.231918     0.224275     0.216631     0.208988     0.201345
 NY phased data points follow
   8.62207E+01  9.65038E+01  8.88170E+01  9.56371E+01  8.49032E+01  9.50573E+01  9.13283E+01  1.08132E+02  8.40781E+01  9.85915E+01
   8.51389E+01  8.68646E+01  9.51924E+01  1.03648E+02  8.18012E+01  8.69704E+01  8.52499E+01  8.29930E+01  8.53433E+01  8.31692E+01
   7.84569E+01  8.44524E+01  8.47357E+01  7.83662E+01  8.36516E+01  7.80316E+01  7.54743E+01  6.93833E+01  8.78808E+01  8.00094E+01
   7.97253E+01  6.65585E+01  6.93621E+01  7.55373E+01  7.58867E+01  7.89627E+01  5.93650E+01  7.59155E+01  6.73156E+01  6.49377E+01
   6.79655E+01  6.45166E+01  6.50299E+01  7.75777E+01  5.68274E+01  6.92055E+01  6.10522E+01  5.91092E+01  5.71873E+01  8.06342E+01
   6.06111E+01  6.22213E+01  6.25887E+01  6.61362E+01  7.15432E+01  4.68456E+01  5.67611E+01  6.18285E+01  5.46324E+01  5.90711E+01
   6.32853E+01  5.92175E+01  5.31962E+01  4.81980E+01  4.39920E+01  5.53161E+01  4.59741E+01  5.23245E+01  5.46765E+01  4.93010E+01
   4.24574E+01  5.05997E+01  5.78481E+01  5.22600E+01  4.62639E+01  4.41354E+01  5.18140E+01  4.18607E+01  6.12768E+01  3.91628E+01
   4.80168E+01  4.48505E+01  4.08795E+01  4.29603E+01  4.15002E+01  5.32626E+01  4.98271E+01  3.48803E+01  4.46539E+01  4.64216E+01
   3.24016E+01  4.10350E+01  4.39812E+01  3.67519E+01  3.92021E+01  4.10536E+01  4.23977E+01  5.09999E+01  4.45367E+01  3.98972E+01
   3.53569E+01  4.31272E+01  5.57203E+01  4.74286E+01  4.84026E+01  3.93428E+01  4.54674E+01  4.77345E+01  4.45941E+01  4.05471E+01
   3.04233E+01  2.99687E+01  3.78436E+01  3.11262E+01  3.34707E+01  3.08067E+01  2.66078E+01  2.94980E+01  2.66340E+01  2.34915E+01
   3.15379E+01  3.59639E+01  3.43542E+01  3.90247E+01  2.69561E+01  2.84158E+01  4.36965E+01  4.97361E+01  4.52398E+01  3.50294E+01
   4.51798E+01  3.93304E+01  2.65924E+01  3.80764E+01  3.56619E+01  4.34347E+01  2.88314E+01  3.76019E+01  3.22188E+01  3.44653E+01
   2.77267E+01  2.71382E+01  2.92718E+01  3.67488E+01  3.29344E+01  2.36817E+01  3.00113E+01  2.94344E+01  3.98207E+01  2.49302E+01
   3.71782E+01  3.00722E+01  3.91683E+01  2.71666E+01  2.72661E+01  2.19433E+01  2.66900E+01  3.04106E+01  2.54598E+01  2.22136E+01
   3.14576E+01  2.13043E+01  1.52381E+01  1.64739E+01  3.08289E+01  3.10572E+01  2.12819E+01  2.41238E+01  2.86220E+01  2.13819E+01
   3.24382E+01  3.02195E+01  2.33866E+01  1.71634E+01  1.27038E+01  2.36155E+01  3.01966E+01  1.85351E+01  2.57691E+01  2.82219E+01
   2.20370E+01  2.06689E+01  7.47713E+00  1.96369E+01  7.81947E+00  1.54904E+01  1.41161E+01  2.40552E+01  2.28858E+01  1.72522E+01
   1.42141E+01  1.73409E+01  2.46892E+01  2.15034E+01  1.95947E+01  2.40517E+01  2.50737E+01  1.53771E+01  2.40236E+01  1.68496E+01
   1.33822E+01  1.45153E+01  2.47032E+01  2.86875E+01  2.52203E+01  2.19114E+01  1.66560E+01  2.57789E+01  1.97062E+01  1.67155E+01
   2.22914E+01  6.20128E+00  2.88242E+01  1.78950E+01  2.87538E+01  2.36014E+01  2.51450E+01  4.21399E+01  2.92559E+01  1.72422E+01
   3.17234E+01  2.66450E+01  1.96357E+01  2.29367E+01  2.85915E+01  2.27813E+01  2.01899E+01  2.83674E+01  2.19088E+01  3.23010E+01
   2.97706E+01  1.97424E+01  1.79932E+01  3.36779E+01  2.39541E+01  1.56729E+01  3.87552E+01  2.44848E+01  2.00790E+01  2.95333E+01
   3.05384E+01  2.62214E+01  2.29095E+01  2.01713E+01  1.90987E+01  2.89594E+01  2.76689E+01  2.55358E+01  2.80370E+01  2.40987E+01
   2.47863E+01  1.73120E+01  3.17566E+01  2.65200E+01  3.22548E+01  2.20197E+01  3.27334E+01  2.51585E+01  2.24531E+01  4.31606E+01
   4.36305E+01  4.85348E+01  3.87209E+01  3.10561E+01  2.24833E+01  2.69515E+01  2.17826E+01  1.08050E+01  2.18823E+01  1.58103E+01
   1.75882E+01  2.14008E+01  2.19792E+01  1.71013E+01  2.63065E+01  2.81020E+01  2.50609E+01  1.77345E+01  1.28592E+01  1.17446E+01
   1.90523E+01  8.32013E+00  1.06217E+01  7.16425E+00  6.82708E+00  1.08618E+01  7.97567E+00  1.34993E+01  1.41015E+01  5.73700E+00
   3.24671E+00  1.75055E+01  2.21657E+01  7.05483E+00  9.04495E+00  6.24166E+00  7.41914E+00  9.62792E+00  1.59609E+01  1.22901E+01
   6.08449E+00  1.54962E+01  1.62171E+01  1.51360E+01  8.83551E+00  1.62214E+01  1.75066E+01  1.38865E+01 -1.89778E+00  1.76085E+01
   1.66055E+01  2.41507E+01  3.30394E+01  1.64375E+01  2.05179E+01  2.73354E+01  1.80127E+01  1.37381E+01  2.07775E+01  2.24152E+01
   2.89999E+01  2.94094E+01  2.70077E+01  2.58005E+01  3.64554E+01  4.62852E+01  5.20617E+01  4.01421E+01  4.43624E+01  5.23300E+01
   4.48520E+01  4.68006E+01  5.74111E+01  4.41713E+01  4.43248E+01  4.88458E+01  4.47174E+01  4.38794E+01  3.33759E+01  3.98307E+01
   3.20993E+01  3.49125E+01  3.06268E+01  3.98481E+01  2.47987E+01  3.78278E+01  2.67556E+01  3.81069E+01  2.54877E+01  3.73111E+01
   3.27147E+01  3.52738E+01  2.41108E+01  2.75261E+01  3.01664E+01  2.87422E+01  3.00025E+01  2.56229E+01  2.90634E+01  4.10708E+01
   3.50824E+01  4.65867E+01  3.26219E+01  3.57223E+01  3.70970E+01  3.60976E+01  4.17850E+01  4.31017E+01  1.78802E+01  3.54356E+01
   3.39782E+01  2.58294E+01  2.06117E+01  2.49955E+01  2.85151E+01  2.24678E+01  2.92659E+01  3.27712E+01  2.80690E+01  3.15308E+01
   2.78162E+01  2.43239E+01  2.85600E+01  3.20872E+01  2.37163E+01  2.20443E+01  1.21797E+01  2.10330E+01  1.80020E+01  2.83133E+01
   2.60518E+01  2.07223E+01  2.82383E+01  1.99135E+01  3.59630E+01  2.68237E+01  2.26022E+01  2.41806E+01  2.53102E+01  1.87957E+01
   2.68234E+01  2.60125E+01  2.08289E+01  1.17062E+01  1.68884E+01  8.81926E+00  2.17343E+01  1.53492E+01  1.12841E+01  1.43051E+01
   1.39231E+01  8.27816E+00  2.02137E+01  1.59102E+01  1.18994E+01  1.51661E+01  1.51605E+01  5.77051E+00  1.26969E+01  1.47883E+01
   8.95943E+00  9.28691E+00  1.77223E+01  3.06884E+00  4.20234E+00  1.23262E+01 -1.51405E+00  1.12821E+01  1.46812E+01  8.60359E+00
   1.76839E+01 -1.68923E+00  1.16091E+01  1.47865E+01  4.41321E-01  2.80710E+00  9.48462E+00  9.54629E+00 -9.59411E+00  1.05639E+00
   2.70064E+00  8.32012E+00  1.78911E+01  4.80712E+00  1.42656E+01  1.94715E+01  1.26095E+01  1.05695E+01  9.49289E+00  2.74575E+00
   1.11532E+01  2.21772E+00  1.22558E+01  2.32190E+00  2.28418E+00 -1.38730E+00  7.34966E+00 -2.31906E-01 -4.24059E+00 -2.63367E+00
   5.37030E+00 -7.68128E+00 -2.72347E+00  8.47976E+00  7.05399E+00  4.75957E+00  3.78857E-01  1.52684E+01  7.63169E+00  2.46147E+00
   6.94836E+00  4.03811E+00  6.66982E+00  6.81921E+00  5.85820E-01 -7.39695E+00  5.72743E+00  7.48964E+00  4.17389E+00  4.16107E-01
  -7.00195E-01  1.45451E+00  7.95776E+00  1.37914E+01  5.77656E-01  8.14918E+00  6.25732E+00 -1.14134E+00 -4.49484E+00 -1.75429E+00
  -1.77690E+00  5.46095E+00  9.84980E+00  1.02872E+01  3.24781E+00  8.07460E+00  4.27819E+00 -6.46928E+00
 NY points of the fit to the data follow
   8.50809E+01  8.45046E+01  8.40043E+01  8.36641E+01  8.35401E+01  8.35386E+01  8.38505E+01  8.45952E+01  8.54618E+01  8.62488E+01
   8.68062E+01  8.68517E+01  8.61385E+01  8.46664E+01  8.27983E+01  8.10263E+01  7.95739E+01  7.82929E+01  7.73139E+01  7.67375E+01
   7.63517E+01  7.59986E+01  7.55799E+01  7.51239E+01  7.47574E+01  7.43943E+01  7.38789E+01  7.38050E+01  7.46235E+01  7.59034E+01
   7.69955E+01  7.75398E+01  7.74816E+01  7.66017E+01  7.46855E+01  7.20322E+01  6.94673E+01  6.75531E+01  6.62490E+01  6.56903E+01
   6.57350E+01  6.59596E+01  6.61201E+01  6.61399E+01  6.60366E+01  6.58698E+01  6.58187E+01  6.58696E+01  6.57201E+01  6.51420E+01
   6.41691E+01  6.29884E+01  6.17993E+01  6.07200E+01  5.98492E+01  5.92740E+01  5.89191E+01  5.86736E+01  5.84880E+01  5.83435E+01
   5.81663E+01  5.78514E+01  5.73531E+01  5.67115E+01  5.60026E+01  5.53005E+01  5.46864E+01  5.42283E+01  5.38976E+01  5.36412E+01
   5.34197E+01  5.32024E+01  5.29440E+01  5.26002E+01  5.21724E+01  5.17006E+01  5.12152E+01  5.07272E+01  5.02379E+01  4.97766E+01
   4.93455E+01  4.89331E+01  4.85183E+01  4.80988E+01  4.76819E+01  4.72350E+01  4.67019E+01  4.60767E+01  4.54398E+01  4.49022E+01
   4.45114E+01  4.42475E+01  4.40832E+01  4.39867E+01  4.38967E+01  4.37590E+01  4.35608E+01  4.34468E+01  4.36013E+01  4.39278E+01
   4.48331E+01  4.66097E+01  4.85285E+01  4.94466E+01  4.88568E+01  4.71915E+01  4.51902E+01  4.31595E+01  4.12019E+01  3.97395E+01
   3.91122E+01  3.88118E+01  3.85793E+01  3.83773E+01  3.81864E+01  3.79989E+01  3.78141E+01  3.76218E+01  3.74143E+01  3.72169E+01
   3.70849E+01  3.71707E+01  3.77060E+01  3.86024E+01  4.00535E+01  4.24969E+01  4.54136E+01  4.74308E+01  4.75873E+01  4.60545E+01
   4.37522E+01  4.13554E+01  3.89348E+01  3.66575E+01  3.50119E+01  3.38371E+01  3.29120E+01  3.23146E+01  3.20822E+01  3.22085E+01
   3.25763E+01  3.29050E+01  3.29767E+01  3.27949E+01  3.24348E+01  3.19684E+01  3.14880E+01  3.10256E+01  3.06309E+01  3.02730E+01
   2.99180E+01  2.95716E+01  2.92377E+01  2.89267E+01  2.86502E+01  2.84076E+01  2.81730E+01  2.79216E+01  2.76249E+01  2.72607E+01
   2.68634E+01  2.64883E+01  2.62088E+01  2.60446E+01  2.59123E+01  2.57309E+01  2.54822E+01  2.51825E+01  2.48424E+01  2.44848E+01
   2.41284E+01  2.37857E+01  2.34709E+01  2.31472E+01  2.27754E+01  2.23889E+01  2.20639E+01  2.18501E+01  2.17020E+01  2.15151E+01
   2.12642E+01  2.10185E+01  2.08057E+01  2.05990E+01  2.03850E+01  2.02097E+01  2.01591E+01  2.03174E+01  2.06613E+01  2.10913E+01
   2.14496E+01  2.15261E+01  2.11813E+01  2.04810E+01  1.95465E+01  1.85220E+01  1.76740E+01  1.73060E+01  1.75646E+01  1.83917E+01
   1.96285E+01  2.10379E+01  2.23103E+01  2.31594E+01  2.33636E+01  2.27737E+01  2.15172E+01  1.97266E+01  1.74457E+01  1.52388E+01
   1.39833E+01  1.42148E+01  1.57363E+01  1.79619E+01  2.04709E+01  2.28741E+01  2.44874E+01  2.46208E+01  2.35551E+01  2.20552E+01
   2.03610E+01  1.86450E+01  1.74822E+01  1.74769E+01  1.84950E+01  1.99408E+01  2.13367E+01  2.24868E+01  2.32755E+01  2.34873E+01
   2.31524E+01  2.26561E+01  2.24340E+01  2.24818E+01  2.25711E+01  2.27164E+01  2.31341E+01  2.38468E+01  2.45257E+01  2.51002E+01
   2.55599E+01  2.56680E+01  2.53057E+01  2.46968E+01  2.43106E+01  2.42910E+01  2.44646E+01  2.47744E+01  2.52875E+01  2.59350E+01
   2.64453E+01  2.69101E+01  2.74146E+01  2.78443E+01  2.81477E+01  2.87119E+01  2.95230E+01  3.05497E+01  3.28656E+01  3.66060E+01
   3.99757E+01  4.09639E+01  3.91732E+01  3.57754E+01  3.19163E+01  2.78995E+01  2.40714E+01  2.15005E+01  2.02709E+01  1.94041E+01
   1.86520E+01  1.80198E+01  1.75089E+01  1.70872E+01  1.67418E+01  1.64230E+01  1.60900E+01  1.57325E+01  1.53494E+01  1.49374E+01
   1.45244E+01  1.41490E+01  1.38265E+01  1.35572E+01  1.33376E+01  1.31606E+01  1.30170E+01  1.28963E+01  1.27909E+01  1.27031E+01
   1.26331E+01  1.25795E+01  1.25429E+01  1.25251E+01  1.25254E+01  1.25416E+01  1.25734E+01  1.26211E+01  1.26832E+01  1.27588E+01
   1.28488E+01  1.29542E+01  1.30778E+01  1.32235E+01  1.33968E+01  1.36048E+01  1.38570E+01  1.41645E+01  1.45400E+01  1.49978E+01
   1.55532E+01  1.62213E+01  1.70166E+01  1.79520E+01  1.90377E+01  2.02804E+01  2.16816E+01  2.32370E+01  2.49359E+01  2.67603E+01
   2.86851E+01  3.06781E+01  3.27011E+01  3.47106E+01  3.66598E+01  3.85005E+01  4.01854E+01  4.16702E+01  4.29163E+01  4.38927E+01
   4.45777E+01  4.49607E+01  4.50424E+01  4.48351E+01  4.43621E+01  4.36564E+01  4.27595E+01  4.17191E+01  4.05866E+01  3.94156E+01
   3.82609E+01  3.71804E+01  3.62378E+01  3.54357E+01  3.47859E+01  3.43422E+01  3.39968E+01  3.35420E+01  3.29068E+01  3.22294E+01
   3.17536E+01  3.15446E+01  3.15667E+01  3.19385E+01  3.27587E+01  3.37943E+01  3.46757E+01  3.52424E+01  3.55102E+01  3.55413E+01
   3.53441E+01  3.49397E+01  3.44620E+01  3.39630E+01  3.34016E+01  3.27658E+01  3.20590E+01  3.12912E+01  3.04758E+01  2.96281E+01
   2.87647E+01  2.79023E+01  2.70577E+01  2.62465E+01  2.54836E+01  2.47824E+01  2.41543E+01  2.36091E+01  2.31544E+01  2.27954E+01
   2.25348E+01  2.23732E+01  2.23081E+01  2.23347E+01  2.24456E+01  2.26307E+01  2.28776E+01  2.31718E+01  2.34973E+01  2.38364E+01
   2.41709E+01  2.44824E+01  2.47530E+01  2.49661E+01  2.51068E+01  2.51627E+01  2.51244E+01  2.49857E+01  2.47436E+01  2.43989E+01
   2.39554E+01  2.34199E+01  2.28018E+01  2.21123E+01  2.13641E+01  2.05706E+01  1.97452E+01  1.89011E+01  1.80506E+01  1.72048E+01
   1.63737E+01  1.55652E+01  1.47862E+01  1.40415E+01  1.33349E+01  1.26687E+01  1.20440E+01  1.14611E+01  1.09193E+01  1.04175E+01
   9.95409E+00  9.52704E+00  9.13422E+00  8.77333E+00  8.44206E+00  8.13808E+00  7.85916E+00  7.60315E+00  7.36799E+00  7.15176E+00
   6.95267E+00  6.76907E+00  6.59947E+00  6.44249E+00  6.29688E+00  6.16148E+00  6.03528E+00  5.91739E+00  5.80697E+00  5.70331E+00
   5.60574E+00  5.51366E+00  5.42658E+00  5.34403E+00  5.26561E+00  5.19094E+00  5.11969E+00  5.05156E+00  4.98628E+00  4.92363E+00
   4.86340E+00  4.80539E+00  4.74940E+00  4.69531E+00  4.64297E+00  4.59227E+00  4.54308E+00  4.49531E+00  4.44883E+00  4.40357E+00
   4.35947E+00  4.31645E+00  4.27444E+00  4.23336E+00  4.19317E+00  4.15383E+00  4.11530E+00  4.07751E+00  4.04041E+00  4.00398E+00
   3.96817E+00  3.93297E+00  3.89834E+00  3.86425E+00  3.83066E+00  3.79757E+00  3.76494E+00  3.73276E+00  3.70102E+00  3.66967E+00
   3.63870E+00  3.60810E+00  3.57786E+00  3.54797E+00  3.51841E+00  3.48916E+00  3.46021E+00  3.43155E+00  3.40318E+00  3.37510E+00
   3.34727E+00  3.31969E+00  3.29236E+00  3.26528E+00  3.23845E+00  3.21185E+00  3.18547E+00  3.15931E+00
 NY background values follow
     8.375E+01    8.328E+01    8.281E+01    8.235E+01    8.188E+01    8.141E+01    8.095E+01    8.048E+01    8.001E+01    7.955E+01
     7.908E+01    7.861E+01    7.814E+01    7.768E+01    7.721E+01    7.675E+01    7.628E+01    7.581E+01    7.535E+01    7.488E+01
     7.442E+01    7.395E+01    7.349E+01    7.303E+01    7.256E+01    7.210E+01    7.164E+01    7.118E+01    7.071E+01    7.025E+01
     6.979E+01    6.933E+01    6.888E+01    6.842E+01    6.796E+01    6.750E+01    6.705E+01    6.659E+01    6.614E+01    6.569E+01
     6.523E+01    6.478E+01    6.433E+01    6.388E+01    6.343E+01    6.299E+01    6.254E+01    6.209E+01    6.165E+01    6.121E+01
     6.077E+01    6.032E+01    5.988E+01    5.945E+01    5.901E+01    5.857E+01    5.814E+01    5.771E+01    5.728E+01    5.685E+01
     5.642E+01    5.599E+01    5.556E+01    5.514E+01    5.472E+01    5.430E+01    5.388E+01    5.346E+01    5.304E+01    5.263E+01
     5.222E+01    5.181E+01    5.140E+01    5.099E+01    5.059E+01    5.019E+01    4.978E+01    4.939E+01    4.899E+01    4.859E+01
     4.820E+01    4.781E+01    4.742E+01    4.703E+01    4.665E+01    4.627E+01    4.589E+01    4.551E+01    4.513E+01    4.476E+01
     4.439E+01    4.402E+01    4.366E+01    4.329E+01    4.293E+01    4.257E+01    4.222E+01    4.186E+01    4.151E+01    4.116E+01
     4.082E+01    4.047E+01    4.013E+01    3.979E+01    3.945E+01    3.912E+01    3.879E+01    3.846E+01    3.813E+01    3.781E+01
     3.748E+01    3.716E+01    3.685E+01    3.653E+01    3.622E+01    3.591E+01    3.560E+01    3.529E+01    3.499E+01    3.469E+01
     3.439E+01    3.410E+01    3.380E+01    3.351E+01    3.322E+01    3.294E+01    3.265E+01    3.237E+01    3.209E+01    3.182E+01
     3.154E+01    3.127E+01    3.100E+01    3.074E+01    3.047E+01    3.021E+01    2.995E+01    2.969E+01    2.944E+01    2.919E+01
     2.894E+01    2.869E+01    2.845E+01    2.820E+01    2.796E+01    2.773E+01    2.749E+01    2.726E+01    2.702E+01    2.680E+01
     2.657E+01    2.634E+01    2.612E+01    2.590E+01    2.568E+01    2.547E+01    2.525E+01    2.504E+01    2.483E+01    2.462E+01
     2.442E+01    2.421E+01    2.401E+01    2.381E+01    2.361E+01    2.342E+01    2.322E+01    2.303E+01    2.284E+01    2.265E+01
     2.246E+01    2.228E+01    2.210E+01    2.192E+01    2.174E+01    2.156E+01    2.138E+01    2.121E+01    2.103E+01    2.086E+01
     2.069E+01    2.053E+01    2.036E+01    2.020E+01    2.003E+01    1.987E+01    1.971E+01    1.955E+01    1.940E+01    1.924E+01
     1.909E+01    1.893E+01    1.878E+01    1.863E+01    1.849E+01    1.834E+01    1.819E+01    1.805E+01    1.791E+01    1.776E+01
     1.762E+01    1.748E+01    1.735E+01    1.721E+01    1.708E+01    1.694E+01    1.681E+01    1.668E+01    1.655E+01    1.642E+01
     1.629E+01    1.616E+01    1.603E+01    1.591E+01    1.578E+01    1.566E+01    1.554E+01    1.542E+01    1.530E+01    1.518E+01
     1.506E+01    1.494E+01    1.482E+01    1.471E+01    1.459E+01    1.448E+01    1.436E+01    1.425E+01    1.414E+01    1.403E+01
     1.392E+01    1.381E+01    1.370E+01    1.359E+01    1.348E+01    1.338E+01    1.327E+01    1.317E+01    1.306E+01    1.296E+01
     1.286E+01    1.275E+01    1.265E+01    1.255E+01    1.245E+01    1.235E+01    1.226E+01    1.216E+01    1.206E+01    1.197E+01
     1.187E+01    1.178E+01    1.168E+01    1.159E+01    1.150E+01    1.141E+01    1.132E+01    1.123E+01    1.114E+01    1.105E+01
     1.097E+01    1.088E+01    1.080E+01    1.071E+01    1.063E+01    1.054E+01    1.046E+01    1.038E+01    1.030E+01    1.022E+01
     1.014E+01    1.006E+01    9.987E+00    9.910E+00    9.834E+00    9.760E+00    9.685E+00    9.612E+00    9.539E+00    9.468E+00
     9.397E+00    9.326E+00    9.257E+00    9.188E+00    9.120E+00    9.052E+00    8.986E+00    8.920E+00    8.855E+00    8.790E+00
     8.727E+00    8.664E+00    8.601E+00    8.540E+00    8.479E+00    8.418E+00    8.359E+00    8.300E+00    8.242E+00    8.184E+00
     8.127E+00    8.071E+00    8.015E+00    7.960E+00    7.906E+00    7.852E+00    7.799E+00    7.747E+00    7.695E+00    7.643E+00
     7.593E+00    7.543E+00    7.493E+00    7.444E+00    7.396E+00    7.348E+00    7.301E+00    7.255E+00    7.209E+00    7.163E+00
     7.118E+00    7.074E+00    7.030E+00    6.987E+00    6.944E+00    6.902E+00    6.860E+00    6.819E+00    6.778E+00    6.737E+00
     6.698E+00    6.658E+00    6.619E+00    6.581E+00    6.543E+00    6.505E+00    6.468E+00    6.431E+00    6.395E+00    6.359E+00
     6.323E+00    6.288E+00    6.253E+00    6.219E+00    6.185E+00    6.151E+00    6.118E+00    6.085E+00    6.053E+00    6.020E+00
     5.988E+00    5.957E+00    5.925E+00    5.894E+00    5.864E+00    5.833E+00    5.803E+00    5.773E+00    5.743E+00    5.714E+00
     5.685E+00    5.656E+00    5.627E+00    5.599E+00    5.571E+00    5.543E+00    5.515E+00    5.488E+00    5.460E+00    5.433E+00
     5.407E+00    5.380E+00    5.353E+00    5.327E+00    5.301E+00    5.275E+00    5.250E+00    5.224E+00    5.199E+00    5.174E+00
     5.149E+00    5.124E+00    5.100E+00    5.076E+00    5.051E+00    5.027E+00    5.004E+00    4.980E+00    4.956E+00    4.933E+00
     4.910E+00    4.887E+00    4.864E+00    4.841E+00    4.819E+00    4.796E+00    4.774E+00    4.752E+00    4.730E+00    4.708E+00
     4.686E+00    4.665E+00    4.643E+00    4.622E+00    4.600E+00    4.579E+00    4.558E+00    4.537E+00    4.516E+00    4.496E+00
     4.475E+00    4.455E+00    4.434E+00    4.414E+00    4.394E+00    4.373E+00    4.353E+00    4.333E+00    4.313E+00    4.294E+00
     4.274E+00    4.254E+00    4.234E+00    4.215E+00    4.195E+00    4.176E+00    4.156E+00    4.137E+00    4.118E+00    4.098E+00
     4.079E+00    4.060E+00    4.041E+00    4.022E+00    4.003E+00    3.983E+00    3.964E+00    3.945E+00    3.926E+00    3.907E+00
     3.888E+00    3.869E+00    3.850E+00    3.831E+00    3.812E+00    3.793E+00    3.774E+00    3.755E+00    3.736E+00    3.717E+00
     3.697E+00    3.678E+00    3.659E+00    3.640E+00    3.621E+00    3.601E+00    3.582E+00    3.563E+00    3.543E+00    3.524E+00
     3.504E+00    3.485E+00    3.465E+00    3.446E+00    3.426E+00    3.407E+00    3.387E+00    3.368E+00    3.348E+00    3.328E+00
     3.309E+00    3.289E+00    3.269E+00    3.250E+00    3.230E+00    3.210E+00    3.191E+00    3.171E+00    3.151E+00    3.131E+00
     3.112E+00    3.092E+00    3.072E+00    3.053E+00    3.033E+00    3.013E+00    2.993E+00    2.974E+00    2.954E+00    2.934E+00
     2.914E+00    2.895E+00    2.875E+00    2.855E+00    2.836E+00    2.816E+00    2.796E+00    2.777E+00
 Asp      Conc. = 5.16E+01
