 LCModel (Version 6.3-1L) Copyright: S.W. Provencher.          Ref.: Magn. Reson. Med. 30:672-679 (1993).                
 Slice#1 Row#2 Col#1  PD_05_press_2_raw_act
 36 lines in following concentration table = NCONC+1
    Conc.  %SD /Cr+PCr  Metabolite                                         
 1.12E+04   9%  12.434 Ala                                                 
    0.000 999%   0.000 Asp                                                 
  902.743 143%   1.000 Cr                                                  
    0.000 999%   0.000 PCr                                                 
   64.433 137% 7.1E-02 GABA                                                
   81.010 109% 9.0E-02 Glc                                                 
 8.67E+03  23%   9.603 Gln                                                 
 1.08E+03 209%   1.195 Glu                                                 
   45.675 999% 5.1E-02 GPC                                                 
  259.081 206%   0.287 PCh                                                 
  285.162 133%   0.316 GSH                                                 
 3.72E+03  22%   4.118 Ins                                                 
    0.000 999%   0.000 Lac                                                 
    0.000 999%   0.000 NAA                                                 
    0.000 999%   0.000 NAAG                                                
   52.617  54% 5.8E-02 Scyllo                                              
  194.401  74%   0.215 Tau                                                 
    0.000 999%   0.000 -CrCH2                                              
  304.757  22%   0.338 GPC+PCh                                             
    0.000 999%   0.000 NAA+NAAG                                            
  902.743  18%   1.000 Cr+PCr                                              
 9.75E+03  37%  10.797 Glu+Gln                                             
    0.000 999%   0.000 Lip13a                                              
    0.000 999%   0.000 Lip13b                                              
    0.000 999%   0.000 Lip09                                               
 2.19E+03  12%   2.426 MM09                                                
    0.000 999%   0.000 Lip20                                               
 3.18E+03  12%   3.518 MM20                                                
  636.646  15%   0.705 MM12                                                
 2.56E+03  10%   2.837+MM14                                                
 1.27E+03  14%   1.410 MM17                                                
    0.000 999%   0.000 Lip13a+Lip13b                                       
 3.20E+03  10%   3.542 MM14+Lip13a+Lip13b+MM12                             
 2.19E+03  12%   2.426 MM09+Lip09                                          
 3.18E+03  12%   3.518 MM20+Lip20                                          
   6 lines in following misc. output table
  FWHM = 0.168 ppm    S/N =   3                                            
  Data shift = 0.199 ppm                                                   
  Ph: 120 deg     -33.2 deg/ppm                                            
  alphaB,S = 8.5E+01,   2.5E+02                                            
    6 spline knots.   Ns = 9(2)                                            
   6 inflections.     1 extrema                                            
  498 points on ppm-axis = NY
      4.000000     3.992357     3.984714     3.977070     3.969427     3.961784     3.954141     3.946497     3.938854     3.931211
      3.923568     3.915925     3.908281     3.900638     3.892995     3.885352     3.877708     3.870065     3.862422     3.854779
      3.847136     3.839492     3.831849     3.824206     3.816563     3.808919     3.801276     3.793633     3.785990     3.778347
      3.770703     3.763060     3.755417     3.747774     3.740130     3.732487     3.724844     3.717201     3.709558     3.701914
      3.694271     3.686628     3.678985     3.671341     3.663698     3.656055     3.648412     3.640769     3.633125     3.625482
      3.617839     3.610196     3.602552     3.594909     3.587266     3.579623     3.571980     3.564336     3.556693     3.549050
      3.541407     3.533763     3.526120     3.518477     3.510834     3.503191     3.495547     3.487904     3.480261     3.472618
      3.464974     3.457331     3.449688     3.442045     3.434402     3.426758     3.419115     3.411472     3.403829     3.396185
      3.388542     3.380899     3.373256     3.365613     3.357969     3.350326     3.342683     3.335040     3.327396     3.319753
      3.312110     3.304467     3.296824     3.289180     3.281537     3.273894     3.266251     3.258607     3.250964     3.243321
      3.235678     3.228034     3.220391     3.212748     3.205105     3.197462     3.189818     3.182175     3.174532     3.166889
      3.159245     3.151602     3.143959     3.136316     3.128673     3.121029     3.113386     3.105743     3.098100     3.090456
      3.082813     3.075170     3.067527     3.059884     3.052240     3.044597     3.036954     3.029311     3.021667     3.014024
      3.006381     2.998738     2.991095     2.983451     2.975808     2.968165     2.960522     2.952878     2.945235     2.937592
      2.929949     2.922306     2.914662     2.907019     2.899376     2.891733     2.884089     2.876446     2.868803     2.861160
      2.853517     2.845873     2.838230     2.830587     2.822944     2.815300     2.807657     2.800014     2.792371     2.784728
      2.777084     2.769441     2.761798     2.754155     2.746511     2.738868     2.731225     2.723582     2.715939     2.708295
      2.700652     2.693009     2.685366     2.677722     2.670079     2.662436     2.654793     2.647150     2.639506     2.631863
      2.624220     2.616577     2.608933     2.601290     2.593647     2.586004     2.578361     2.570717     2.563074     2.555431
      2.547788     2.540144     2.532501     2.524858     2.517215     2.509572     2.501928     2.494285     2.486642     2.478999
      2.471355     2.463712     2.456069     2.448426     2.440783     2.433139     2.425496     2.417853     2.410210     2.402566
      2.394923     2.387280     2.379637     2.371994     2.364350     2.356707     2.349064     2.341421     2.333777     2.326134
      2.318491     2.310848     2.303205     2.295561     2.287918     2.280275     2.272632     2.264988     2.257345     2.249702
      2.242059     2.234416     2.226772     2.219129     2.211486     2.203843     2.196199     2.188556     2.180913     2.173270
      2.165627     2.157983     2.150340     2.142697     2.135054     2.127410     2.119767     2.112124     2.104481     2.096838
      2.089194     2.081551     2.073908     2.066265     2.058621     2.050978     2.043335     2.035692     2.028049     2.020405
      2.012762     2.005119     1.997476     1.989833     1.982190     1.974546     1.966903     1.959260     1.951617     1.943974
      1.936331     1.928688     1.921045     1.913402     1.905759     1.898115     1.890472     1.882829     1.875186     1.867543
      1.859900     1.852257     1.844614     1.836971     1.829327     1.821684     1.814041     1.806398     1.798755     1.791112
      1.783469     1.775826     1.768183     1.760540     1.752896     1.745253     1.737610     1.729967     1.722324     1.714681
      1.707038     1.699395     1.691752     1.684108     1.676465     1.668822     1.661179     1.653536     1.645893     1.638250
      1.630607     1.622964     1.615321     1.607677     1.600034     1.592391     1.584748     1.577105     1.569462     1.561819
      1.554176     1.546533     1.538890     1.531246     1.523603     1.515960     1.508317     1.500674     1.493031     1.485388
      1.477745     1.470102     1.462458     1.454815     1.447172     1.439529     1.431886     1.424243     1.416600     1.408957
      1.401314     1.393671     1.386027     1.378384     1.370741     1.363098     1.355455     1.347812     1.340169     1.332526
      1.324883     1.317240     1.309596     1.301953     1.294310     1.286667     1.279024     1.271381     1.263738     1.256095
      1.248452     1.240808     1.233165     1.225522     1.217879     1.210236     1.202593     1.194950     1.187307     1.179664
      1.172021     1.164377     1.156734     1.149091     1.141448     1.133805     1.126162     1.118519     1.110876     1.103233
      1.095590     1.087946     1.080303     1.072660     1.065017     1.057374     1.049731     1.042088     1.034445     1.026802
      1.019158     1.011515     1.003872     0.996229     0.988586     0.980943     0.973300     0.965657     0.958014     0.950371
      0.942727     0.935084     0.927441     0.919798     0.912155     0.904512     0.896869     0.889226     0.881583     0.873940
      0.866296     0.858653     0.851010     0.843367     0.835724     0.828081     0.820438     0.812795     0.805152     0.797508
      0.789865     0.782222     0.774579     0.766936     0.759293     0.751650     0.744007     0.736364     0.728721     0.721077
      0.713434     0.705791     0.698148     0.690505     0.682862     0.675219     0.667576     0.659933     0.652290     0.644646
      0.637003     0.629360     0.621717     0.614074     0.606431     0.598788     0.591145     0.583502     0.575858     0.568215
      0.560572     0.552929     0.545286     0.537643     0.530000     0.522357     0.514714     0.507071     0.499427     0.491784
      0.484141     0.476498     0.468855     0.461212     0.453569     0.445925     0.438282     0.430639     0.422996     0.415353
      0.407710     0.400067     0.392424     0.384780     0.377137     0.369494     0.361851     0.354208     0.346565     0.338922
      0.331278     0.323635     0.315992     0.308349     0.300706     0.293063     0.285420     0.277777     0.270133     0.262490
      0.254847     0.247204     0.239561     0.231918     0.224275     0.216631     0.208988     0.201345
 NY phased data points follow
   3.39573E+00  5.51522E+00  3.93692E+00  2.25182E-01  1.76057E+00  8.57077E+00  7.82957E-01 -2.18666E+00  4.50589E+00 -3.94148E+00
  -2.44001E+00  1.50411E+01 -6.65081E+00  1.71456E+00 -3.76055E+00  1.06276E+01  1.03086E+01  5.28412E+00  9.31685E+00 -1.57669E+00
   2.50584E+00  1.47930E+00  5.90735E+00  9.12411E+00  5.57427E+00 -7.83742E+00 -1.07889E+01 -3.40862E+00  7.54267E-01 -3.69557E+00
  -6.14421E+00  7.63294E+00  8.08072E+00  4.89800E+00 -3.02544E+00 -1.41928E-02 -1.26057E-01 -2.15316E-01 -5.65235E+00  3.07124E+00
   7.51491E+00 -5.38763E+00 -2.54948E+00  6.02103E+00  5.62445E+00 -3.05611E+00 -1.77087E+00 -2.52204E+00 -4.13863E+00  8.98391E+00
  -3.51448E+00 -2.35341E-01  1.39502E+00  2.10676E+00  6.89841E+00 -8.60000E+00  9.42755E-01 -6.19197E+00  2.00603E+00  5.61294E-01
   2.51341E+00  2.62826E-01  3.97240E+00  1.61090E+00 -2.78621E+00 -5.89996E+00  1.21044E+00 -4.40279E+00  7.71077E+00  5.01555E+00
  -4.15982E+00 -3.43316E+00  1.96502E+00  1.33500E+00  4.47308E+00  8.96291E+00 -2.02203E+00 -1.15547E+01 -2.35007E+00 -1.10014E+01
  -1.98654E+00  2.24558E-01  5.16132E+00  3.65146E+00  2.54617E-01 -3.55174E+00  5.41984E+00  9.99556E-01  4.45968E+00 -8.28714E+00
  -3.83617E+00 -9.73546E+00 -1.83857E+00 -4.06384E+00  4.95001E-01  1.63310E+01 -6.52665E+00 -1.40364E+00  3.28213E+00 -4.55779E+00
  -5.43454E+00 -4.11891E+00 -5.52213E+00 -6.02565E+00 -5.94492E+00 -8.90750E+00 -1.72229E+00 -5.25994E+00 -9.46671E+00  7.68232E+00
   1.56859E+00 -9.52973E+00  1.14609E+01 -3.88633E+00  9.66575E-01  4.31930E+00  5.57981E-01  7.73658E-01 -3.59443E+00 -1.72699E+00
  -2.04604E+00 -1.12120E+00  3.94549E+00 -6.08760E+00 -7.83398E+00  8.31493E-01  3.50289E+00  1.64998E+00  3.23774E+00  1.10139E+00
   1.86316E-01 -1.44675E+00  2.51766E+00 -7.57219E+00 -4.27507E+00  2.02030E+00  1.58655E+00  4.04322E+00  2.91046E+00 -5.27039E+00
  -3.05622E-01 -4.46072E+00 -3.14459E+00 -1.90861E+00  2.26518E+00  4.36220E+00  2.64777E-01 -5.83897E+00 -6.55057E+00 -9.32167E-01
  -3.42142E+00  6.01956E+00 -8.33351E+00  3.14457E+00 -2.33785E+00  7.54085E-03 -4.14430E+00 -1.63440E+00 -6.91120E+00 -1.06508E+00
  -7.05949E+00 -1.01399E+01 -6.79387E+00 -5.29265E+00 -3.87228E+00 -9.45129E+00 -4.66264E+00 -1.12587E+01 -2.36176E+00 -9.05420E+00
  -1.52794E+01 -4.70813E+00 -7.53981E+00 -1.70478E+01 -1.07760E+01 -1.82311E+01 -1.21510E+01 -1.01397E+01 -1.49210E+01 -2.55263E+01
  -2.21315E+01 -1.71375E+01 -1.36110E+01 -1.69499E+01 -2.54499E+01 -1.84763E+01 -1.93578E+01 -1.92346E+01 -1.95011E+01 -2.03094E+01
  -1.68841E+01 -1.35389E+01 -2.01265E+01 -1.55926E+01 -1.52559E+01 -2.03679E+01 -9.70671E+00 -1.09785E+01 -1.42843E+01 -7.19639E+00
  -5.47820E+00 -1.80378E+01 -1.42532E+01 -1.55343E+01 -2.41351E+01 -1.59606E+01 -1.51018E+01 -1.88303E+01 -1.04631E+01 -1.49829E+01
  -5.72030E+00 -1.35190E+01 -1.66933E+01 -1.26052E+01 -1.42693E+01 -8.00020E+00 -6.98731E+00 -6.03899E+00 -7.63612E+00 -1.16506E+01
  -1.40853E+00 -3.14842E+00 -2.96292E+00 -5.73183E+00 -6.25994E+00 -6.80071E+00 -5.30495E+00 -7.29461E+00  2.02549E+00 -5.80599E-01
   7.20509E+00  2.75144E+00 -3.03659E-02  6.08449E+00  1.33070E-02 -6.10906E+00 -6.23215E+00 -8.46029E+00 -6.14352E+00 -7.83253E-01
   6.10505E+00  7.40190E+00  1.20269E+01  5.00151E+00  2.32002E+00  5.71604E+00  7.20427E+00  4.18552E+00 -3.67090E+00 -1.32829E+00
  -4.00465E+00 -2.95225E+00  4.23617E+00  5.96900E+00  6.45574E+00 -8.69815E-01  5.09596E+00 -1.33684E+00 -3.23261E+00  5.21369E-01
   7.23233E-01  4.32561E+00  1.35363E+00  2.49316E+00  5.04884E+00  3.18713E+00  2.10872E+00 -1.17996E+00  2.73672E+00  5.00778E+00
  -3.36648E-01 -2.34997E+00 -4.55419E+00 -5.09304E+00 -1.63705E+00 -6.74250E+00 -7.80038E-01 -6.97418E+00  1.09629E+00 -1.02415E+01
  -6.56501E+00 -6.23793E+00 -1.03819E+01 -1.37761E+00 -7.95688E+00  8.59697E+00 -2.42260E+00 -1.23891E+01 -9.03285E+00 -7.96395E+00
  -1.95825E+00 -7.73092E+00  2.46008E-01  2.53243E+00 -4.95624E+00  7.77279E+00  1.36363E+01  9.15331E+00  1.03244E+01  1.09359E+01
   8.90356E+00  1.38466E+01  1.05953E+01  2.00943E+01  1.25666E+01  2.26696E+01  2.50909E+01  2.56037E+01  2.86397E+01  3.43027E+01
   3.64471E+01  4.19322E+01  4.08330E+01  4.24663E+01  4.07075E+01  4.09800E+01  3.64063E+01  5.13128E+01  5.42293E+01  3.39690E+01
   4.46547E+01  3.22286E+01  4.19579E+01  3.58174E+01  3.00816E+01  2.46304E+01  3.66630E+01  3.00156E+01  3.48311E+01  2.55262E+01
   1.84710E+01  1.46587E+01  1.97817E+01  1.57910E+01  1.58665E+01  1.88131E+01  1.46384E+01  1.66494E+01  1.11301E+01  1.19623E+01
   1.41009E+01  1.45177E+01  5.71086E+00  1.19369E+01  2.11703E+01  1.11773E+01  1.49776E+01  9.58223E+00  2.75003E-01  5.83370E+00
   1.13561E+01  5.34024E+00  9.36625E+00  1.37915E+01  9.53796E+00  6.77069E+00  8.04575E+00  1.41979E+00  4.51653E+00 -6.14546E-01
   3.85488E+00  9.23111E+00  2.84431E+00  1.34323E+00  4.31140E+00 -2.38163E+00  9.17750E+00 -9.08351E+00  5.36052E+00  2.10643E+00
  -1.18094E+00  1.24535E+00 -6.01908E+00  3.65021E+00  1.30474E+00  6.92767E+00  9.09595E+00  5.31859E+00  2.21470E+00  2.60018E+00
  -4.67355E-01 -3.43279E+00  2.26517E+00  1.08002E+00  4.15619E+00  7.69146E-01  1.89608E+00  4.28795E+00  4.77828E+00  6.69317E+00
   4.40973E+00  8.77536E+00  1.21336E+01  2.54056E+00  4.70215E-01  2.94358E+00  2.33730E+00  8.27778E+00  5.91909E+00  3.90492E+00
   2.01535E+00  7.87657E+00 -2.38496E+00  4.57440E+00  7.50905E+00  5.73570E+00  4.13127E+00 -5.50329E+00 -1.93594E+00  9.00907E+00
  -1.13568E+00 -3.86724E+00  7.75849E+00  2.29256E+00  6.85068E+00 -1.17924E+00 -4.91078E+00  4.32086E+00 -4.18496E+00 -2.30118E+00
   1.32717E+01 -4.71119E-01 -5.66977E+00  6.09504E+00  2.66538E+00  1.57575E+00  1.45983E+00 -9.99728E-01  7.57766E+00  2.02850E-01
  -5.48040E-01  1.04498E+01 -4.65510E+00  8.45395E+00  6.16317E+00 -6.12225E+00  4.93902E+00  8.91059E+00  1.75174E+00  6.29441E+00
  -7.65074E-01  5.65211E+00 -1.74628E+00  6.93481E+00  7.03407E+00  4.95246E+00  3.12387E+00  1.10064E+01 -4.40218E+00  6.63127E+00
   3.64118E-01  5.54456E+00  1.80915E-01  2.25077E+00 -1.30774E-01  6.11420E+00 -4.62530E+00 -4.05608E+00  6.83273E+00  9.67021E+00
  -2.39780E+00 -3.10279E+00 -1.60468E+00 -6.63394E+00 -2.24358E+00 -4.22590E-01  8.71366E+00  2.70342E+00 -1.59950E+00 -3.75381E+00
  -4.79570E+00 -1.07422E+00 -2.03380E+00 -5.71024E-01  8.15956E+00  1.46552E+00 -8.10534E+00 -2.20637E+00  9.06523E-01 -7.81176E-01
   1.79799E+00  2.63883E+00  1.46481E+00 -3.41060E+00 -4.19313E+00  5.92214E+00  2.82278E+00 -4.93839E+00  3.45958E+00  3.58842E-01
   2.00735E+00 -1.23476E+00 -8.96230E-01 -4.84694E+00 -1.07455E+01  5.00430E-01 -1.36916E+00 -7.48775E-01
 NY points of the fit to the data follow
   2.03466E+00  1.78547E+00  2.11526E+00  1.71605E+00  2.18305E+00  1.81519E+00  2.62926E+00  2.90244E+00  2.96628E+00  2.65565E+00
   2.32573E+00  1.73310E+00  1.41777E+00  6.08745E-01  6.65147E-01  7.97430E-01  7.19712E-01  5.86421E-01  4.81846E-01  1.59364E-01
   2.63805E-01  3.81550E-01  5.37316E-01  7.63704E-01  7.52802E-01  6.49415E-01  3.46570E-01 -1.72805E-01 -3.23937E-01 -4.75458E-01
   5.14405E-02  1.00358E-01  7.09344E-01  8.68553E-01  1.53560E+00  1.28835E+00  2.15003E+00  1.86690E+00  3.01858E+00  2.54689E+00
   3.22513E+00  2.46362E+00  3.02305E+00  2.00692E+00  2.82998E+00  2.04655E+00  3.51367E+00  3.52447E+00  4.34941E+00  3.53690E+00
   3.77756E+00  2.40489E+00  2.32100E+00  6.58428E-01  1.07591E+00  1.89530E-01  1.01731E+00  1.44779E-01  9.38699E-01 -8.73129E-02
   6.26565E-01 -1.55381E-01  4.20484E-01 -5.15402E-01 -5.31117E-02 -1.07462E+00 -7.43347E-01 -1.76732E+00 -1.34533E+00 -2.14482E+00
  -1.43407E+00 -2.24671E+00 -1.71193E+00 -2.65548E+00 -2.20983E+00 -3.23544E+00 -2.85249E+00 -4.01477E+00 -3.72113E+00 -4.91590E+00
  -4.77703E+00 -5.80914E+00 -5.63059E+00 -6.45820E+00 -6.09157E+00 -6.26022E+00 -5.86906E+00 -5.95459E+00 -5.70394E+00 -5.66096E+00
  -5.44241E+00 -5.10371E+00 -4.84310E+00 -4.20685E+00 -3.90167E+00 -3.32507E+00 -3.15626E+00 -2.67671E+00 -2.57636E+00 -2.06763E+00
  -2.01028E+00 -1.54193E+00 -1.58399E+00 -1.27014E+00 -1.43086E+00 -1.34422E+00 -1.58574E+00 -1.59269E+00 -1.66579E+00 -1.24299E+00
  -1.07902E+00 -8.70650E-01 -6.42762E-01 -7.35317E-01 -3.72080E-01 -4.66842E-01  1.99308E-01  2.28538E-01  1.13639E+00  8.47373E-01
   1.70273E+00  9.87481E-01  1.78213E+00  9.17130E-01  1.89920E+00  1.46768E+00  2.52791E+00  1.85117E+00  2.79205E+00  1.78415E+00
   2.55800E+00  1.31615E+00  1.92777E+00  5.81781E-01  1.04563E+00 -3.74481E-01 -8.38498E-02 -1.64319E+00 -1.54062E+00 -3.03861E+00
  -3.04134E+00 -4.33594E+00 -4.41094E+00 -5.62221E+00 -5.81930E+00 -6.99908E+00 -7.31710E+00 -8.34050E+00 -8.61979E+00 -8.91949E+00
  -8.98365E+00 -9.21734E+00 -9.27878E+00 -9.46517E+00 -9.51430E+00 -9.62832E+00 -9.65793E+00 -9.76406E+00 -9.81365E+00 -9.91927E+00
  -9.99547E+00 -1.00777E+01 -1.01456E+01 -1.01918E+01 -1.02330E+01 -1.02647E+01 -1.02905E+01 -1.03226E+01 -1.03409E+01 -1.03653E+01
  -1.03602E+01 -1.03782E+01 -1.03410E+01 -1.03400E+01 -1.02715E+01 -1.02950E+01 -1.03824E+01 -1.04941E+01 -1.07973E+01 -1.11722E+01
  -1.15242E+01 -1.20117E+01 -1.23223E+01 -1.26173E+01 -1.24961E+01 -1.26185E+01 -1.23383E+01 -1.22255E+01 -1.17019E+01 -1.16254E+01
  -1.11000E+01 -1.14324E+01 -1.19219E+01 -1.24249E+01 -1.25525E+01 -1.30469E+01 -1.29223E+01 -1.35232E+01 -1.32158E+01 -1.39890E+01
  -1.35634E+01 -1.42306E+01 -1.30990E+01 -1.37043E+01 -1.21788E+01 -1.29162E+01 -1.12386E+01 -1.21036E+01 -1.03138E+01 -1.11256E+01
  -9.06107E+00 -9.72656E+00 -7.29663E+00 -7.81868E+00 -5.22884E+00 -5.67852E+00 -3.30346E+00 -3.88601E+00 -2.51489E+00 -3.16702E+00
  -1.74250E+00 -2.22146E+00 -8.33303E-01 -7.03807E-01  7.18097E-01  5.04250E-01  1.79770E+00  1.59216E+00  3.13246E+00  2.63013E+00
   4.14181E+00  2.67783E+00  2.93914E+00  8.13470E-01  1.57700E+00 -6.78504E-01  5.95538E-01 -1.42477E+00  5.71479E-01 -1.45012E+00
   1.01126E+00 -1.19349E+00  1.46897E+00 -9.62930E-01  1.68397E+00 -7.54742E-01  2.09680E+00 -1.78874E-01  2.66236E+00  5.16271E-01
   3.09663E+00  1.06524E+00  3.41559E+00  1.66542E+00  3.77253E+00  2.29876E+00  4.12581E+00  2.54798E+00  3.36246E+00  1.89240E+00
   2.49960E+00  1.51088E+00  2.09916E+00  1.93062E+00  2.43198E+00  2.06286E+00  2.39067E+00  1.89418E+00  1.89391E+00  1.27671E+00
   1.10260E+00  3.90117E-01  1.21464E-01 -3.53597E-01 -5.17849E-01 -7.70805E-01 -8.73723E-01 -9.58251E-01 -1.10005E+00 -1.17595E+00
  -1.34525E+00 -1.49129E+00 -1.63623E+00 -1.73367E+00 -1.82129E+00 -1.85475E+00 -1.86016E+00 -1.82023E+00 -1.72920E+00 -1.58199E+00
  -1.36888E+00 -1.08792E+00 -7.24147E-01 -2.72001E-01  2.83613E-01  9.60739E-01  1.76395E+00  2.70755E+00  3.79759E+00  5.04437E+00
   6.44614E+00  8.01457E+00  9.74541E+00  1.16546E+01  1.37507E+01  1.60715E+01  1.86854E+01  2.17705E+01  2.58112E+01  3.10347E+01
   3.33544E+01  3.70271E+01  3.77090E+01  4.00904E+01  3.92902E+01  4.03240E+01  3.72828E+01  3.96231E+01  3.67765E+01  3.76781E+01
   3.45742E+01  3.40301E+01  3.11477E+01  3.03695E+01  2.81538E+01  2.75878E+01  2.67432E+01  2.49131E+01  2.45032E+01  2.08422E+01
   2.08997E+01  1.67353E+01  1.81522E+01  1.43141E+01  1.71307E+01  1.32458E+01  1.68493E+01  1.20837E+01  1.62927E+01  1.15506E+01
   1.61214E+01  1.20963E+01  1.65049E+01  1.26094E+01  1.67843E+01  1.23518E+01  1.60465E+01  1.22746E+01  1.66999E+01  1.59431E+01
   1.87907E+01  1.71776E+01  1.85677E+01  1.59953E+01  1.54708E+01  1.17306E+01  9.06994E+00  7.49319E+00  6.42858E+00  5.65409E+00
   5.06551E+00  4.60439E+00  4.23431E+00  3.93087E+00  3.67705E+00  3.46057E+00  3.27272E+00  3.10728E+00  2.96005E+00  2.82829E+00
   2.71050E+00  2.60614E+00  2.51547E+00  2.43939E+00  2.37931E+00  2.33692E+00  2.31413E+00  2.31292E+00  2.33529E+00  2.38316E+00
   2.45829E+00  2.56219E+00  2.69601E+00  2.86055E+00  3.05614E+00  3.28266E+00  3.53939E+00  3.82496E+00  4.13735E+00  4.47381E+00
   4.83086E+00  5.20428E+00  5.58912E+00  5.97974E+00  6.36989E+00  6.75284E+00  7.12153E+00  7.46875E+00  7.78732E+00  8.07032E+00
   8.31131E+00  8.50458E+00  8.64538E+00  8.73001E+00  8.75604E+00  8.72235E+00  8.62918E+00  8.47815E+00  8.27212E+00  8.01514E+00
   7.71218E+00  7.36901E+00  6.99194E+00  6.58763E+00  6.16283E+00  5.72418E+00  5.27798E+00  4.83010E+00  4.38583E+00  3.94981E+00
   3.52597E+00  3.11750E+00  2.72687E+00  2.35589E+00  2.00577E+00  1.67717E+00  1.37027E+00  1.08486E+00  8.20417E-01  5.76171E-01
   3.51202E-01  1.44442E-01 -4.52280E-02 -2.18983E-01 -3.77979E-01 -5.23352E-01 -6.56176E-01 -7.77481E-01 -8.88250E-01 -9.89377E-01
  -1.08171E+00 -1.16600E+00 -1.24295E+00 -1.31317E+00 -1.37729E+00 -1.43580E+00 -1.48919E+00 -1.53787E+00 -1.58224E+00 -1.62263E+00
  -1.65940E+00 -1.69281E+00 -1.72314E+00 -1.75060E+00 -1.77541E+00 -1.79777E+00 -1.81786E+00 -1.83585E+00 -1.85187E+00 -1.86606E+00
  -1.87854E+00 -1.88943E+00 -1.89883E+00 -1.90685E+00 -1.91354E+00 -1.91901E+00 -1.92332E+00 -1.92655E+00 -1.92875E+00 -1.93000E+00
  -1.93032E+00 -1.92978E+00 -1.92841E+00 -1.92629E+00 -1.92342E+00 -1.91986E+00 -1.91562E+00 -1.91075E+00 -1.90526E+00 -1.89921E+00
  -1.89259E+00 -1.88544E+00 -1.87776E+00 -1.86957E+00 -1.86091E+00 -1.85178E+00 -1.84217E+00 -1.83210E+00 -1.82155E+00 -1.81055E+00
  -1.79909E+00 -1.78715E+00 -1.77469E+00 -1.76169E+00 -1.74809E+00 -1.73385E+00 -1.71887E+00 -1.70297E+00
 NY background values follow
    -1.266E+01   -1.264E+01   -1.262E+01   -1.260E+01   -1.258E+01   -1.256E+01   -1.254E+01   -1.252E+01   -1.250E+01   -1.248E+01
    -1.246E+01   -1.243E+01   -1.241E+01   -1.239E+01   -1.237E+01   -1.235E+01   -1.233E+01   -1.231E+01   -1.229E+01   -1.227E+01
    -1.225E+01   -1.223E+01   -1.221E+01   -1.219E+01   -1.217E+01   -1.215E+01   -1.213E+01   -1.211E+01   -1.208E+01   -1.206E+01
    -1.204E+01   -1.202E+01   -1.200E+01   -1.198E+01   -1.196E+01   -1.194E+01   -1.192E+01   -1.190E+01   -1.188E+01   -1.186E+01
    -1.184E+01   -1.182E+01   -1.180E+01   -1.178E+01   -1.175E+01   -1.173E+01   -1.171E+01   -1.169E+01   -1.167E+01   -1.165E+01
    -1.163E+01   -1.161E+01   -1.159E+01   -1.157E+01   -1.155E+01   -1.153E+01   -1.151E+01   -1.149E+01   -1.147E+01   -1.145E+01
    -1.142E+01   -1.140E+01   -1.138E+01   -1.136E+01   -1.134E+01   -1.132E+01   -1.130E+01   -1.128E+01   -1.126E+01   -1.124E+01
    -1.122E+01   -1.120E+01   -1.118E+01   -1.116E+01   -1.114E+01   -1.112E+01   -1.110E+01   -1.107E+01   -1.105E+01   -1.103E+01
    -1.101E+01   -1.099E+01   -1.097E+01   -1.095E+01   -1.093E+01   -1.091E+01   -1.089E+01   -1.087E+01   -1.085E+01   -1.083E+01
    -1.081E+01   -1.079E+01   -1.077E+01   -1.074E+01   -1.072E+01   -1.070E+01   -1.068E+01   -1.066E+01   -1.064E+01   -1.062E+01
    -1.060E+01   -1.058E+01   -1.056E+01   -1.054E+01   -1.052E+01   -1.050E+01   -1.048E+01   -1.046E+01   -1.043E+01   -1.041E+01
    -1.039E+01   -1.037E+01   -1.035E+01   -1.033E+01   -1.031E+01   -1.029E+01   -1.027E+01   -1.025E+01   -1.023E+01   -1.021E+01
    -1.019E+01   -1.017E+01   -1.015E+01   -1.013E+01   -1.010E+01   -1.008E+01   -1.006E+01   -1.004E+01   -1.002E+01   -1.000E+01
    -9.981E+00   -9.960E+00   -9.939E+00   -9.919E+00   -9.898E+00   -9.877E+00   -9.857E+00   -9.836E+00   -9.815E+00   -9.795E+00
    -9.774E+00   -9.753E+00   -9.732E+00   -9.712E+00   -9.691E+00   -9.670E+00   -9.650E+00   -9.629E+00   -9.608E+00   -9.588E+00
    -9.567E+00   -9.546E+00   -9.526E+00   -9.505E+00   -9.484E+00   -9.463E+00   -9.443E+00   -9.422E+00   -9.401E+00   -9.381E+00
    -9.360E+00   -9.339E+00   -9.319E+00   -9.298E+00   -9.277E+00   -9.256E+00   -9.236E+00   -9.215E+00   -9.194E+00   -9.173E+00
    -9.153E+00   -9.132E+00   -9.111E+00   -9.091E+00   -9.070E+00   -9.049E+00   -9.028E+00   -9.008E+00   -8.987E+00   -8.966E+00
    -8.945E+00   -8.925E+00   -8.904E+00   -8.883E+00   -8.862E+00   -8.842E+00   -8.821E+00   -8.800E+00   -8.779E+00   -8.759E+00
    -8.738E+00   -8.717E+00   -8.696E+00   -8.675E+00   -8.655E+00   -8.634E+00   -8.613E+00   -8.592E+00   -8.572E+00   -8.551E+00
    -8.530E+00   -8.509E+00   -8.488E+00   -8.468E+00   -8.447E+00   -8.426E+00   -8.405E+00   -8.384E+00   -8.364E+00   -8.343E+00
    -8.322E+00   -8.301E+00   -8.280E+00   -8.260E+00   -8.239E+00   -8.218E+00   -8.197E+00   -8.176E+00   -8.156E+00   -8.135E+00
    -8.114E+00   -8.093E+00   -8.072E+00   -8.051E+00   -8.031E+00   -8.010E+00   -7.989E+00   -7.968E+00   -7.947E+00   -7.926E+00
    -7.906E+00   -7.885E+00   -7.864E+00   -7.843E+00   -7.822E+00   -7.801E+00   -7.780E+00   -7.760E+00   -7.739E+00   -7.718E+00
    -7.697E+00   -7.676E+00   -7.655E+00   -7.634E+00   -7.613E+00   -7.593E+00   -7.572E+00   -7.551E+00   -7.530E+00   -7.509E+00
    -7.488E+00   -7.467E+00   -7.446E+00   -7.425E+00   -7.405E+00   -7.384E+00   -7.363E+00   -7.342E+00   -7.321E+00   -7.300E+00
    -7.279E+00   -7.258E+00   -7.237E+00   -7.216E+00   -7.196E+00   -7.175E+00   -7.154E+00   -7.133E+00   -7.112E+00   -7.091E+00
    -7.070E+00   -7.049E+00   -7.028E+00   -7.007E+00   -6.986E+00   -6.965E+00   -6.944E+00   -6.923E+00   -6.902E+00   -6.881E+00
    -6.860E+00   -6.840E+00   -6.819E+00   -6.798E+00   -6.777E+00   -6.756E+00   -6.735E+00   -6.714E+00   -6.693E+00   -6.672E+00
    -6.651E+00   -6.630E+00   -6.609E+00   -6.588E+00   -6.567E+00   -6.546E+00   -6.525E+00   -6.504E+00   -6.483E+00   -6.462E+00
    -6.441E+00   -6.420E+00   -6.399E+00   -6.378E+00   -6.357E+00   -6.336E+00   -6.315E+00   -6.294E+00   -6.273E+00   -6.252E+00
    -6.231E+00   -6.210E+00   -6.189E+00   -6.168E+00   -6.147E+00   -6.126E+00   -6.105E+00   -6.084E+00   -6.062E+00   -6.041E+00
    -6.020E+00   -5.999E+00   -5.978E+00   -5.957E+00   -5.936E+00   -5.915E+00   -5.894E+00   -5.873E+00   -5.852E+00   -5.831E+00
    -5.810E+00   -5.789E+00   -5.768E+00   -5.746E+00   -5.725E+00   -5.704E+00   -5.683E+00   -5.662E+00   -5.641E+00   -5.620E+00
    -5.599E+00   -5.578E+00   -5.557E+00   -5.536E+00   -5.514E+00   -5.493E+00   -5.472E+00   -5.451E+00   -5.430E+00   -5.409E+00
    -5.388E+00   -5.367E+00   -5.345E+00   -5.324E+00   -5.303E+00   -5.282E+00   -5.261E+00   -5.240E+00   -5.219E+00   -5.198E+00
    -5.176E+00   -5.155E+00   -5.134E+00   -5.113E+00   -5.092E+00   -5.071E+00   -5.049E+00   -5.028E+00   -5.007E+00   -4.986E+00
    -4.965E+00   -4.944E+00   -4.922E+00   -4.901E+00   -4.880E+00   -4.859E+00   -4.838E+00   -4.817E+00   -4.795E+00   -4.774E+00
    -4.753E+00   -4.732E+00   -4.711E+00   -4.690E+00   -4.668E+00   -4.647E+00   -4.626E+00   -4.605E+00   -4.584E+00   -4.562E+00
    -4.541E+00   -4.520E+00   -4.499E+00   -4.478E+00   -4.456E+00   -4.435E+00   -4.414E+00   -4.393E+00   -4.372E+00   -4.350E+00
    -4.329E+00   -4.308E+00   -4.287E+00   -4.265E+00   -4.244E+00   -4.223E+00   -4.202E+00   -4.181E+00   -4.159E+00   -4.138E+00
    -4.117E+00   -4.096E+00   -4.074E+00   -4.053E+00   -4.032E+00   -4.011E+00   -3.990E+00   -3.968E+00   -3.947E+00   -3.926E+00
    -3.905E+00   -3.883E+00   -3.862E+00   -3.841E+00   -3.820E+00   -3.798E+00   -3.777E+00   -3.756E+00   -3.735E+00   -3.713E+00
    -3.692E+00   -3.671E+00   -3.650E+00   -3.628E+00   -3.607E+00   -3.586E+00   -3.565E+00   -3.543E+00   -3.522E+00   -3.501E+00
    -3.480E+00   -3.458E+00   -3.437E+00   -3.416E+00   -3.395E+00   -3.373E+00   -3.352E+00   -3.331E+00   -3.310E+00   -3.288E+00
    -3.267E+00   -3.246E+00   -3.225E+00   -3.203E+00   -3.182E+00   -3.161E+00   -3.140E+00   -3.118E+00   -3.097E+00   -3.076E+00
    -3.054E+00   -3.033E+00   -3.012E+00   -2.991E+00   -2.969E+00   -2.948E+00   -2.927E+00   -2.906E+00   -2.884E+00   -2.863E+00
    -2.842E+00   -2.821E+00   -2.799E+00   -2.778E+00   -2.757E+00   -2.735E+00   -2.714E+00   -2.693E+00   -2.672E+00   -2.650E+00
    -2.629E+00   -2.608E+00   -2.587E+00   -2.565E+00   -2.544E+00   -2.523E+00   -2.501E+00   -2.480E+00   -2.459E+00   -2.438E+00
    -2.416E+00   -2.395E+00   -2.374E+00   -2.353E+00   -2.331E+00   -2.310E+00   -2.289E+00   -2.267E+00
 Ala      Conc. = 1.12E+04
