 LCModel (Version 6.3-1L) Copyright: S.W. Provencher.          Ref.: Magn. Reson. Med. 30:672-679 (1993).                
 Slice#2 Row#7 Col#7  PD_05_press_2_raw_act
 Data of: Institute of Biomedical Engineering, Bogazici University, Istanbul
 05-January-2018  19:18
 36 lines in following concentration table = NCONC+1
    Conc.  %SD /Cr+PCr  Metabolite                                         
    0.000 999%   0.000 Ala                                                 
  435.029 131%   0.115 Asp                                                 
 1.17E+03  50%   0.308 Cr                                                  
 2.63E+03  23%   0.692 PCr                                                 
  129.278 284% 3.4E-02 GABA                                                
   59.351 619% 1.6E-02 Glc                                                 
 1.73E+03  36%   0.455 Gln                                                 
 4.66E+03  16%   1.229 Glu                                                 
 1.01E+03   6%   0.267 GPC                                                 
    0.000 999%   0.000 PCh                                                 
 1.14E+03  18%   0.300 GSH                                                 
 4.09E+03  16%   1.077 Ins                                                 
  342.139  98% 9.0E-02 Lac                                                 
 5.79E+03   5%   1.526 NAA                                                 
  350.998  94% 9.3E-02 NAAG                                                
  181.814  39% 4.8E-02 Scyllo                                              
    0.000 999%   0.000 Tau                                                 
  243.169 122% 6.4E-02 -CrCH2                                              
 1.01E+03   6%   0.267 GPC+PCh                                             
 6.14E+03   4%   1.619 NAA+NAAG                                            
 3.79E+03   5%   1.000 Cr+PCr                                              
 6.39E+03  15%   1.684 Glu+Gln                                             
 5.53E+03  31%   1.458 Lip13a                                              
    0.000 999%   0.000 Lip13b                                              
  476.214 146%   0.126 Lip09                                               
 4.28E+03  20%   1.128 MM09                                                
  784.341  59%   0.207 Lip20                                               
 8.99E+03  12%   2.369 MM20                                                
 1.54E+03  34%   0.405 MM12                                                
 9.29E+03  15%   2.449 MM14                                                
 3.38E+03  23%   0.890 MM17                                                
 5.53E+03  31%   1.458 Lip13a+Lip13b                                       
 1.64E+04   7%   4.313 MM14+Lip13a+Lip13b+MM12                             
 4.76E+03  12%   1.254 MM09+Lip09                                          
 9.77E+03  11%   2.576 MM20+Lip20                                          
   6 lines in following misc. output table
  FWHM = 0.046 ppm    S/N =  11                                            
  Data shift = 0.008 ppm                                                   
  Ph: -34 deg      -5.7 deg/ppm                                            
  alphaB,S = 8.5E+01,   1.0E+02                                            
   14 spline knots.   Ns = 6(1)                                            
   2 inflections.     1 extrema                                            
  498 points on ppm-axis = NY
      4.000000     3.992357     3.984714     3.977070     3.969427     3.961784     3.954141     3.946497     3.938854     3.931211
      3.923568     3.915925     3.908281     3.900638     3.892995     3.885352     3.877708     3.870065     3.862422     3.854779
      3.847136     3.839492     3.831849     3.824206     3.816563     3.808919     3.801276     3.793633     3.785990     3.778347
      3.770703     3.763060     3.755417     3.747774     3.740130     3.732487     3.724844     3.717201     3.709558     3.701914
      3.694271     3.686628     3.678985     3.671341     3.663698     3.656055     3.648412     3.640769     3.633125     3.625482
      3.617839     3.610196     3.602552     3.594909     3.587266     3.579623     3.571980     3.564336     3.556693     3.549050
      3.541407     3.533763     3.526120     3.518477     3.510834     3.503191     3.495547     3.487904     3.480261     3.472618
      3.464974     3.457331     3.449688     3.442045     3.434402     3.426758     3.419115     3.411472     3.403829     3.396185
      3.388542     3.380899     3.373256     3.365613     3.357969     3.350326     3.342683     3.335040     3.327396     3.319753
      3.312110     3.304467     3.296824     3.289180     3.281537     3.273894     3.266251     3.258607     3.250964     3.243321
      3.235678     3.228034     3.220391     3.212748     3.205105     3.197462     3.189818     3.182175     3.174532     3.166889
      3.159245     3.151602     3.143959     3.136316     3.128673     3.121029     3.113386     3.105743     3.098100     3.090456
      3.082813     3.075170     3.067527     3.059884     3.052240     3.044597     3.036954     3.029311     3.021667     3.014024
      3.006381     2.998738     2.991095     2.983451     2.975808     2.968165     2.960522     2.952878     2.945235     2.937592
      2.929949     2.922306     2.914662     2.907019     2.899376     2.891733     2.884089     2.876446     2.868803     2.861160
      2.853517     2.845873     2.838230     2.830587     2.822944     2.815300     2.807657     2.800014     2.792371     2.784728
      2.777084     2.769441     2.761798     2.754155     2.746511     2.738868     2.731225     2.723582     2.715939     2.708295
      2.700652     2.693009     2.685366     2.677722     2.670079     2.662436     2.654793     2.647150     2.639506     2.631863
      2.624220     2.616577     2.608933     2.601290     2.593647     2.586004     2.578361     2.570717     2.563074     2.555431
      2.547788     2.540144     2.532501     2.524858     2.517215     2.509572     2.501928     2.494285     2.486642     2.478999
      2.471355     2.463712     2.456069     2.448426     2.440783     2.433139     2.425496     2.417853     2.410210     2.402566
      2.394923     2.387280     2.379637     2.371994     2.364350     2.356707     2.349064     2.341421     2.333777     2.326134
      2.318491     2.310848     2.303205     2.295561     2.287918     2.280275     2.272632     2.264988     2.257345     2.249702
      2.242059     2.234416     2.226772     2.219129     2.211486     2.203843     2.196199     2.188556     2.180913     2.173270
      2.165627     2.157983     2.150340     2.142697     2.135054     2.127410     2.119767     2.112124     2.104481     2.096838
      2.089194     2.081551     2.073908     2.066265     2.058621     2.050978     2.043335     2.035692     2.028049     2.020405
      2.012762     2.005119     1.997476     1.989833     1.982190     1.974546     1.966903     1.959260     1.951617     1.943974
      1.936331     1.928688     1.921045     1.913402     1.905759     1.898115     1.890472     1.882829     1.875186     1.867543
      1.859900     1.852257     1.844614     1.836971     1.829327     1.821684     1.814041     1.806398     1.798755     1.791112
      1.783469     1.775826     1.768183     1.760540     1.752896     1.745253     1.737610     1.729967     1.722324     1.714681
      1.707038     1.699395     1.691752     1.684108     1.676465     1.668822     1.661179     1.653536     1.645893     1.638250
      1.630607     1.622964     1.615321     1.607677     1.600034     1.592391     1.584748     1.577105     1.569462     1.561819
      1.554176     1.546533     1.538890     1.531246     1.523603     1.515960     1.508317     1.500674     1.493031     1.485388
      1.477745     1.470102     1.462458     1.454815     1.447172     1.439529     1.431886     1.424243     1.416600     1.408957
      1.401314     1.393671     1.386027     1.378384     1.370741     1.363098     1.355455     1.347812     1.340169     1.332526
      1.324883     1.317240     1.309596     1.301953     1.294310     1.286667     1.279024     1.271381     1.263738     1.256095
      1.248452     1.240808     1.233165     1.225522     1.217879     1.210236     1.202593     1.194950     1.187307     1.179664
      1.172021     1.164377     1.156734     1.149091     1.141448     1.133805     1.126162     1.118519     1.110876     1.103233
      1.095590     1.087946     1.080303     1.072660     1.065017     1.057374     1.049731     1.042088     1.034445     1.026802
      1.019158     1.011515     1.003872     0.996229     0.988586     0.980943     0.973300     0.965657     0.958014     0.950371
      0.942727     0.935084     0.927441     0.919798     0.912155     0.904512     0.896869     0.889226     0.881583     0.873940
      0.866296     0.858653     0.851010     0.843367     0.835724     0.828081     0.820438     0.812795     0.805152     0.797508
      0.789865     0.782222     0.774579     0.766936     0.759293     0.751650     0.744007     0.736364     0.728721     0.721077
      0.713434     0.705791     0.698148     0.690505     0.682862     0.675219     0.667576     0.659933     0.652290     0.644646
      0.637003     0.629360     0.621717     0.614074     0.606431     0.598788     0.591145     0.583502     0.575858     0.568215
      0.560572     0.552929     0.545286     0.537643     0.530000     0.522357     0.514714     0.507071     0.499427     0.491784
      0.484141     0.476498     0.468855     0.461212     0.453569     0.445925     0.438282     0.430639     0.422996     0.415353
      0.407710     0.400067     0.392424     0.384780     0.377137     0.369494     0.361851     0.354208     0.346565     0.338922
      0.331278     0.323635     0.315992     0.308349     0.300706     0.293063     0.285420     0.277777     0.270133     0.262490
      0.254847     0.247204     0.239561     0.231918     0.224275     0.216631     0.208988     0.201345
 NY phased data points follow
   2.37617E+01  3.19062E+01  2.28582E+01  5.16291E+01  3.02354E+01  6.13135E+01  5.57519E+01  9.60786E+01  1.01266E+02  1.12420E+02
   1.04723E+02  9.59932E+01  8.82557E+01  9.32634E+01  6.02813E+01  3.46913E+01  3.42475E+01  4.95308E+01  3.64388E+01  5.64853E+01
   4.14200E+01  3.50819E+01  2.69300E+01  3.89955E+01  4.85833E+01  4.87582E+01  4.12322E+01  4.21187E+01  5.25304E+01  5.88055E+01
   6.52765E+01  5.99936E+01  4.12350E+01  4.43869E+01  3.28046E+01  3.72951E+01  3.48109E+01  5.40781E+01  4.15476E+01  4.42992E+01
   3.49997E+01  3.74556E+01  3.71749E+01  3.87897E+01  5.06418E+01  4.82375E+01  6.83991E+01  8.35698E+01  6.48195E+01  5.78758E+01
   3.96574E+01  4.89588E+01  3.49908E+01  4.80998E+01  4.55688E+01  3.52544E+01  2.95277E+01  5.00447E+01  3.87674E+01  4.39037E+01
   2.48540E+01  4.47829E+01  2.51265E+01  2.67169E+01  2.13685E+01  1.25929E+01  8.58029E+00  2.16089E+01  2.20448E+01  2.39492E+01
   1.25227E+01  1.24077E+01  3.13570E+01  1.48223E+01  1.64845E+01  2.55776E+01  2.75136E+01  4.46800E+01  1.92319E+01 -3.82534E+00
   4.56573E+01  2.64041E+01  1.24843E+01  3.27868E+01  3.30744E+01  2.81695E+01  4.65177E+01  3.00605E+01  7.35386E+00  3.22136E+01
   1.00593E+01  2.81380E+01  3.81663E+01  3.70870E+01  3.41838E+01  3.43389E+01  2.90915E+01  3.85708E+01  2.83793E+01  6.05894E+01
   7.13462E+01  1.05011E+02  9.52919E+01  1.44809E+02  1.14042E+02  9.06426E+01  9.43495E+01  5.49749E+01  6.06366E+01  5.30079E+01
   5.10547E+01  3.13464E+01  4.22752E+01  3.62655E+01  2.82102E+01  2.49377E+01  4.02964E+01  3.32137E+01  4.00867E+01  1.88863E+01
   3.91026E+01  5.72878E+01  5.29543E+01  7.94620E+01  1.07942E+02  1.26903E+02  1.56786E+02  1.68676E+02  1.61678E+02  1.50581E+02
   9.74300E+01  8.14989E+01  5.71967E+01  5.21292E+01  4.69440E+01  3.36367E+01  3.37445E+01  3.30689E+01  2.16517E+01  2.83640E+01
   2.84794E+01  2.71012E+01  1.71454E+01  3.26432E+01  2.89347E+01  3.20249E+01  3.47704E+01  1.78152E+01  1.86166E+01  1.35535E+01
   1.33729E+01  3.03127E+01  2.32626E+01  1.33784E+01  2.27189E+01  1.55981E+01  3.24323E+01  2.94242E+01  2.23786E+01  2.86027E+01
   5.22791E+00 -5.07848E+00  1.33883E+01  2.09550E+01  7.24605E+00  3.31419E+01  2.35143E+01  2.19630E+01  1.24737E+01  1.43779E+01
  -2.66564E+00  1.70543E+01 -8.09299E-01  8.01065E+00  3.48819E+00 -5.11264E+00 -7.60953E+00 -9.54098E+00 -4.95042E+00  1.84698E+01
  -1.03796E+00 -1.74146E+00  5.77332E+00  8.58910E+00  1.22558E+01  3.15397E+00  1.71970E+01  6.11713E-01  2.92104E+01  1.15391E+01
   5.10186E+01  4.25720E+01  2.58049E+01  1.02164E+01  1.52524E+01  3.53937E+01  2.94031E+01  2.18094E+01  1.87216E+01 -1.53748E-01
   2.81763E+01  2.50306E+01  2.46855E+01  4.07158E+01  2.66408E+01  2.98271E+01  1.42115E+01  8.84696E+00  1.01340E+01  1.57115E+01
   2.83372E+01  2.34236E+01  3.27392E+01  6.16575E+01  4.91771E+01  6.17416E+01  6.31888E+01  7.78338E+01  4.25450E+01  3.03287E+01
   1.38425E+01  6.74837E+00  8.82791E+00  2.22883E+01  3.32130E+01  3.93352E+01  3.66416E+01  4.04693E+01  4.31966E+01  4.99477E+01
   3.96352E+01  4.28166E+01  5.51206E+01  5.11953E+01  3.87863E+01  6.58494E+01  5.21225E+01  5.16405E+01  5.22989E+01  4.97370E+01
   2.90794E+01  5.01400E+01  6.20216E+01  4.73065E+01  4.61988E+01  4.46917E+01  6.58846E+01  6.04995E+01  7.83679E+01  7.07036E+01
   6.23604E+01  6.69918E+01  7.47656E+01  8.64971E+01  9.49744E+01  1.29884E+02  1.20259E+02  1.81968E+02  2.16769E+02  2.63583E+02
   2.87439E+02  2.69905E+02  2.23551E+02  1.55961E+02  1.28251E+02  9.49313E+01  8.35023E+01  5.55745E+01  6.64420E+01  4.70551E+01
   4.02526E+01  6.05581E+01  3.37750E+01  4.50082E+01  4.56402E+01  4.04541E+01  4.56343E+01  3.38022E+01  2.27336E+01  3.19951E+01
   3.81036E+01  3.31654E+01  4.18695E+01  3.44273E+01  1.73176E+01  3.99296E+01  3.75099E+01  3.45708E+01  4.99832E+01  2.57247E+01
   2.39658E+01  3.34791E+01  3.11522E+01  2.15559E+01  2.29212E+01  4.06684E+01  3.02709E+01  2.67494E+01  4.38651E+01  3.67911E+01
   4.36971E+01  3.92692E+01  5.09339E+01  3.90965E+01  4.78401E+01  4.54316E+01  4.65886E+01  5.09401E+01  5.38714E+01  6.46897E+01
   5.16389E+01  5.21081E+01  7.14903E+01  6.36405E+01  7.13306E+01  7.50217E+01  3.74291E+01  4.53584E+01  4.73439E+01  4.48331E+01
   7.49181E+01  6.03582E+01  6.61323E+01  7.07962E+01  7.13073E+01  6.17320E+01  7.41645E+01  7.48246E+01  7.43811E+01  8.45062E+01
   8.92907E+01  8.75503E+01  9.11515E+01  9.00053E+01  9.42881E+01  1.02218E+02  9.87080E+01  7.96436E+01  9.08164E+01  9.20751E+01
   8.47931E+01  7.60059E+01  9.37102E+01  7.38477E+01  9.09846E+01  1.12216E+02  8.53046E+01  8.93906E+01  7.64426E+01  7.01200E+01
   6.18558E+01  7.16927E+01  8.00584E+01  6.33269E+01  6.25079E+01  5.60081E+01  6.87559E+01  5.91023E+01  6.75624E+01  5.75915E+01
   5.80765E+01  4.75848E+01  4.97817E+01  6.14532E+01  4.89368E+01  6.78355E+01  8.42747E+01  4.82767E+01  5.01633E+01  4.39172E+01
   5.97500E+01  6.65021E+01  3.81959E+01  6.13908E+01  5.77535E+01  5.20583E+01  4.35886E+01  4.33760E+01  2.94308E+01  4.32840E+01
   3.83197E+01  3.49703E+01  3.66824E+01  3.82674E+01  2.68260E+01  3.76212E+01  4.60691E+01  3.28907E+01  5.15158E+01  2.43044E+01
   4.17523E+01  2.66163E+01  3.63158E+01  5.29227E+01  4.70424E+01  2.97076E+01  5.67618E+01  5.49916E+01  4.46851E+01  4.87948E+01
   4.43539E+01  4.20727E+01  5.47185E+01  5.26161E+01  4.17109E+01  6.03241E+01  4.77651E+01  6.26101E+01  5.28203E+01  6.45468E+01
   5.32569E+01  4.23904E+01  6.01850E+01  5.85364E+01  3.30635E+01  4.62002E+01  3.50823E+01  4.78434E+01  3.06002E+01  4.90464E+01
   5.84382E+01  5.22042E+01  3.88177E+01  3.53529E+01  4.14390E+01  2.84576E+01  2.01118E+01  3.30067E+01  4.17269E+01  3.52795E+01
   2.02699E+01  1.71905E+01  3.69848E+01  2.12789E+01  5.12382E+01  3.77957E+01  3.98477E+01  1.96075E+01  3.19293E+01  3.43581E+01
   1.56712E+01  3.56902E+01  3.03344E+01  2.25180E+01  3.93314E+01  3.68500E+01  2.40366E+01  3.69025E+01  2.57298E+01  2.86943E+01
   8.00445E+00  1.57507E+01  2.97565E+01  3.18227E+01  3.22584E+01  2.10253E+01  3.77232E+01  2.17663E+01  1.47198E+01  3.47586E+01
   2.00377E+01  3.42035E+01  2.35159E+01  1.25245E+01  2.21160E+01  1.33410E+01  3.50050E+01  2.22970E+01  1.66414E+01  3.19277E+01
   2.98878E+01  2.36175E+01  1.85158E+01  2.20526E+01  3.41240E+01  3.70403E+01  1.27167E+01  4.29743E+01  3.02905E+01  2.38511E+01
   3.22559E+01  2.48896E+01  2.08849E+01  2.44800E+01  1.64226E+01  3.45524E+01  2.17548E+01  2.68508E+01  2.97086E+01  1.18299E+01
   2.42764E+01  3.76819E+01  1.95789E+01  2.52106E+01  4.00898E+01  8.11540E+00  3.21528E+01  4.40500E+01
 NY points of the fit to the data follow
   3.21458E+01  3.15438E+01  3.23755E+01  3.58520E+01  4.30548E+01  5.37780E+01  6.82364E+01  8.45598E+01  9.95261E+01  1.09090E+02
   1.10136E+02  1.02604E+02  8.94903E+01  7.50229E+01  6.22106E+01  5.19409E+01  4.39626E+01  3.86651E+01  3.55890E+01  3.36055E+01
   3.29139E+01  3.27521E+01  3.23658E+01  3.23038E+01  3.33157E+01  3.55134E+01  3.95262E+01  4.53611E+01  5.22238E+01  5.84417E+01
   6.19852E+01  6.18440E+01  5.84259E+01  5.28730E+01  4.64414E+01  3.99396E+01  3.38607E+01  2.98247E+01  2.84689E+01  2.85755E+01
   2.96584E+01  3.19729E+01  3.59489E+01  4.13590E+01  4.76662E+01  5.43081E+01  5.98464E+01  6.20787E+01  5.96004E+01  5.27616E+01
   4.38745E+01  3.59539E+01  3.05998E+01  2.75827E+01  2.62515E+01  2.65974E+01  2.87566E+01  3.18872E+01  3.49483E+01  3.71605E+01
   3.77866E+01  3.64961E+01  3.36395E+01  3.02601E+01  2.75623E+01  2.61888E+01  2.62180E+01  2.73341E+01  2.90994E+01  3.09955E+01
   3.26951E+01  3.38510E+01  3.42270E+01  3.37778E+01  3.27042E+01  3.14602E+01  3.04374E+01  2.97346E+01  2.92395E+01  2.88972E+01
   2.91375E+01  2.98906E+01  3.07837E+01  3.15863E+01  3.19366E+01  3.12839E+01  2.92326E+01  2.60845E+01  2.29647E+01  2.11476E+01
   2.12481E+01  2.28151E+01  2.47422E+01  2.63287E+01  2.76148E+01  2.85368E+01  2.93031E+01  3.24922E+01  4.11883E+01  5.50728E+01
   7.41779E+01  9.63536E+01  1.16137E+02  1.26515E+02  1.22762E+02  1.06387E+02  8.44344E+01  6.47549E+01  5.07882E+01  4.09887E+01
   3.28981E+01  2.74711E+01  2.61444E+01  2.62174E+01  2.65621E+01  2.69724E+01  2.74230E+01  2.79545E+01  2.87335E+01  3.01034E+01
   3.32314E+01  4.19709E+01  5.79782E+01  8.00472E+01  1.07493E+02  1.36494E+02  1.59592E+02  1.68427E+02  1.58806E+02  1.34845E+02
   1.06567E+02  8.25365E+01  6.46715E+01  4.99527E+01  3.64918E+01  2.78157E+01  2.49766E+01  2.50138E+01  2.65869E+01  2.86063E+01
   3.02553E+01  3.11835E+01  3.12704E+01  3.06833E+01  2.98260E+01  2.88903E+01  2.78666E+01  2.68186E+01  2.57428E+01  2.48180E+01
   2.40605E+01  2.34319E+01  2.29673E+01  2.27057E+01  2.25920E+01  2.23409E+01  2.18059E+01  2.08898E+01  1.95891E+01  1.82864E+01
   1.73646E+01  1.72759E+01  1.81360E+01  1.94229E+01  2.02932E+01  2.01307E+01  1.90418E+01  1.76800E+01  1.65713E+01  1.56534E+01
   1.46480E+01  1.34054E+01  1.21155E+01  1.09961E+01  1.01148E+01  9.62926E+00  9.84323E+00  1.06912E+01  1.15522E+01  1.18565E+01
   1.15802E+01  1.11550E+01  1.12551E+01  1.20494E+01  1.31254E+01  1.45693E+01  1.70781E+01  2.08333E+01  2.52780E+01  2.90475E+01
   3.09545E+01  3.07420E+01  2.88895E+01  2.64659E+01  2.43673E+01  2.30229E+01  2.28258E+01  2.40594E+01  2.68015E+01  3.06488E+01
   3.49248E+01  3.86981E+01  4.11646E+01  4.15936E+01  3.92620E+01  3.44359E+01  2.77056E+01  2.03878E+01  1.45467E+01  1.19658E+01
   1.38065E+01  1.96395E+01  2.82565E+01  3.81070E+01  4.71244E+01  5.27881E+01  5.26229E+01  4.58399E+01  3.44663E+01  2.24966E+01
   1.28599E+01  7.28571E+00  6.95659E+00  1.20884E+01  2.15605E+01  3.19167E+01  3.98559E+01  4.44309E+01  4.62937E+01  4.64677E+01
   4.56503E+01  4.47932E+01  4.49432E+01  4.65429E+01  4.90157E+01  5.16457E+01  5.36715E+01  5.43513E+01  5.34214E+01  5.10660E+01
   4.82312E+01  4.62758E+01  4.62344E+01  4.82858E+01  5.19470E+01  5.62597E+01  5.98415E+01  6.20891E+01  6.33454E+01  6.44139E+01
   6.60988E+01  6.86841E+01  7.25105E+01  7.86378E+01  9.19795E+01  1.15163E+02  1.45678E+02  1.83681E+02  2.25372E+02  2.60404E+02
   2.75121E+02  2.60960E+02  2.22315E+02  1.74727E+02  1.33887E+02  1.04804E+02  8.27215E+01  6.32185E+01  5.01826E+01  4.53141E+01
   4.29126E+01  4.14561E+01  4.07525E+01  4.04926E+01  4.02167E+01  3.97203E+01  3.89124E+01  3.78593E+01  3.67112E+01  3.55964E+01
   3.45646E+01  3.36913E+01  3.30531E+01  3.26320E+01  3.23502E+01  3.21431E+01  3.19978E+01  3.19328E+01  3.19574E+01  3.20699E+01
   3.22977E+01  3.26581E+01  3.31454E+01  3.37456E+01  3.44582E+01  3.52848E+01  3.62250E+01  3.72806E+01  3.84498E+01  3.97223E+01
   4.10861E+01  4.25188E+01  4.39860E+01  4.54519E+01  4.68832E+01  4.82512E+01  4.95310E+01  5.07020E+01  5.17531E+01  5.26795E+01
   5.34820E+01  5.41711E+01  5.47671E+01  5.52979E+01  5.57995E+01  5.63127E+01  5.68809E+01  5.75477E+01  5.83546E+01  5.93389E+01
   6.05299E+01  6.19468E+01  6.35965E+01  6.54738E+01  6.75608E+01  6.98277E+01  7.22323E+01  7.47223E+01  7.72376E+01  7.97137E+01
   8.20847E+01  8.42867E+01  8.62595E+01  8.79505E+01  8.93173E+01  9.03312E+01  9.09779E+01  9.12594E+01  9.11949E+01  9.08262E+01
   9.02329E+01  8.95588E+01  8.88076E+01  8.78418E+01  8.65973E+01  8.48915E+01  8.24876E+01  7.92709E+01  7.54357E+01  7.16657E+01
   6.86564E+01  6.67125E+01  6.58207E+01  6.57432E+01  6.61828E+01  6.68033E+01  6.70599E+01  6.65181E+01  6.53214E+01  6.38455E+01
   6.23501E+01  6.08396E+01  5.92226E+01  5.76306E+01  5.61649E+01  5.47552E+01  5.33700E+01  5.20024E+01  5.06548E+01  4.93344E+01
   4.80504E+01  4.68133E+01  4.56330E+01  4.45196E+01  4.34822E+01  4.25298E+01  4.16700E+01  4.09093E+01  4.02531E+01  3.97060E+01
   3.92721E+01  3.89551E+01  3.87578E+01  3.86824E+01  3.87304E+01  3.89033E+01  3.92019E+01  3.96262E+01  4.01749E+01  4.08451E+01
   4.16323E+01  4.25301E+01  4.35296E+01  4.46192E+01  4.57838E+01  4.70051E+01  4.82619E+01  4.95306E+01  5.07848E+01  5.19962E+01
   5.31353E+01  5.41729E+01  5.50807E+01  5.58331E+01  5.64075E+01  5.67856E+01  5.69538E+01  5.69049E+01  5.66378E+01  5.61576E+01
   5.54749E+01  5.46058E+01  5.35705E+01  5.23933E+01  5.11006E+01  4.97204E+01  4.82802E+01  4.68067E+01  4.53248E+01  4.38573E+01
   4.24237E+01  4.10404E+01  3.97198E+01  3.84715E+01  3.73016E+01  3.62141E+01  3.52099E+01  3.42883E+01  3.34462E+01  3.26801E+01
   3.19854E+01  3.13573E+01  3.07903E+01  3.02790E+01  2.98179E+01  2.94021E+01  2.90270E+01  2.86884E+01  2.83823E+01  2.81049E+01
   2.78531E+01  2.76240E+01  2.74153E+01  2.72250E+01  2.70508E+01  2.68910E+01  2.67439E+01  2.66085E+01  2.64837E+01  2.63685E+01
   2.62617E+01  2.61626E+01  2.60704E+01  2.59847E+01  2.59050E+01  2.58308E+01  2.57614E+01  2.56963E+01  2.56354E+01  2.55785E+01
   2.55252E+01  2.54752E+01  2.54280E+01  2.53836E+01  2.53419E+01  2.53028E+01  2.52661E+01  2.52313E+01  2.51984E+01  2.51674E+01
   2.51382E+01  2.51108E+01  2.50849E+01  2.50604E+01  2.50371E+01  2.50152E+01  2.49947E+01  2.49754E+01  2.49571E+01  2.49397E+01
   2.49232E+01  2.49078E+01  2.48934E+01  2.48798E+01  2.48669E+01  2.48547E+01  2.48432E+01  2.48325E+01  2.48226E+01  2.48134E+01
   2.48045E+01  2.47962E+01  2.47886E+01  2.47817E+01  2.47753E+01  2.47694E+01  2.47638E+01  2.47588E+01
 NY background values follow
     1.839E+01    1.840E+01    1.841E+01    1.842E+01    1.843E+01    1.844E+01    1.845E+01    1.846E+01    1.847E+01    1.848E+01
     1.849E+01    1.850E+01    1.851E+01    1.852E+01    1.853E+01    1.854E+01    1.855E+01    1.857E+01    1.858E+01    1.859E+01
     1.860E+01    1.861E+01    1.862E+01    1.863E+01    1.864E+01    1.865E+01    1.866E+01    1.867E+01    1.868E+01    1.869E+01
     1.870E+01    1.871E+01    1.872E+01    1.873E+01    1.874E+01    1.875E+01    1.876E+01    1.877E+01    1.878E+01    1.879E+01
     1.880E+01    1.881E+01    1.882E+01    1.883E+01    1.884E+01    1.885E+01    1.886E+01    1.887E+01    1.888E+01    1.889E+01
     1.890E+01    1.891E+01    1.892E+01    1.893E+01    1.894E+01    1.896E+01    1.897E+01    1.898E+01    1.899E+01    1.900E+01
     1.901E+01    1.902E+01    1.903E+01    1.904E+01    1.905E+01    1.906E+01    1.907E+01    1.908E+01    1.909E+01    1.910E+01
     1.911E+01    1.912E+01    1.913E+01    1.914E+01    1.915E+01    1.916E+01    1.917E+01    1.918E+01    1.919E+01    1.920E+01
     1.921E+01    1.922E+01    1.923E+01    1.924E+01    1.925E+01    1.926E+01    1.927E+01    1.928E+01    1.929E+01    1.930E+01
     1.931E+01    1.932E+01    1.933E+01    1.935E+01    1.936E+01    1.937E+01    1.938E+01    1.939E+01    1.940E+01    1.941E+01
     1.942E+01    1.943E+01    1.944E+01    1.945E+01    1.946E+01    1.947E+01    1.948E+01    1.949E+01    1.950E+01    1.951E+01
     1.952E+01    1.953E+01    1.954E+01    1.955E+01    1.956E+01    1.957E+01    1.958E+01    1.959E+01    1.960E+01    1.961E+01
     1.962E+01    1.963E+01    1.964E+01    1.965E+01    1.966E+01    1.967E+01    1.968E+01    1.969E+01    1.970E+01    1.971E+01
     1.972E+01    1.974E+01    1.975E+01    1.976E+01    1.977E+01    1.978E+01    1.979E+01    1.980E+01    1.981E+01    1.982E+01
     1.983E+01    1.984E+01    1.985E+01    1.986E+01    1.987E+01    1.988E+01    1.989E+01    1.990E+01    1.991E+01    1.992E+01
     1.993E+01    1.994E+01    1.995E+01    1.996E+01    1.997E+01    1.998E+01    1.999E+01    2.000E+01    2.001E+01    2.002E+01
     2.003E+01    2.004E+01    2.005E+01    2.006E+01    2.007E+01    2.008E+01    2.009E+01    2.011E+01    2.012E+01    2.013E+01
     2.014E+01    2.015E+01    2.016E+01    2.017E+01    2.018E+01    2.019E+01    2.020E+01    2.021E+01    2.022E+01    2.023E+01
     2.024E+01    2.025E+01    2.026E+01    2.027E+01    2.028E+01    2.029E+01    2.030E+01    2.031E+01    2.032E+01    2.033E+01
     2.034E+01    2.035E+01    2.036E+01    2.037E+01    2.038E+01    2.039E+01    2.040E+01    2.041E+01    2.042E+01    2.043E+01
     2.044E+01    2.046E+01    2.047E+01    2.048E+01    2.049E+01    2.050E+01    2.051E+01    2.052E+01    2.053E+01    2.054E+01
     2.055E+01    2.056E+01    2.057E+01    2.058E+01    2.059E+01    2.060E+01    2.061E+01    2.062E+01    2.063E+01    2.064E+01
     2.065E+01    2.066E+01    2.067E+01    2.068E+01    2.069E+01    2.070E+01    2.071E+01    2.072E+01    2.073E+01    2.074E+01
     2.075E+01    2.076E+01    2.077E+01    2.079E+01    2.080E+01    2.081E+01    2.082E+01    2.083E+01    2.084E+01    2.085E+01
     2.086E+01    2.087E+01    2.088E+01    2.089E+01    2.090E+01    2.091E+01    2.092E+01    2.093E+01    2.094E+01    2.095E+01
     2.096E+01    2.097E+01    2.098E+01    2.099E+01    2.100E+01    2.101E+01    2.102E+01    2.103E+01    2.104E+01    2.105E+01
     2.106E+01    2.107E+01    2.108E+01    2.109E+01    2.111E+01    2.112E+01    2.113E+01    2.114E+01    2.115E+01    2.116E+01
     2.117E+01    2.118E+01    2.119E+01    2.120E+01    2.121E+01    2.122E+01    2.123E+01    2.124E+01    2.125E+01    2.126E+01
     2.127E+01    2.128E+01    2.129E+01    2.130E+01    2.131E+01    2.132E+01    2.133E+01    2.134E+01    2.135E+01    2.136E+01
     2.137E+01    2.138E+01    2.139E+01    2.140E+01    2.141E+01    2.143E+01    2.144E+01    2.145E+01    2.146E+01    2.147E+01
     2.148E+01    2.149E+01    2.150E+01    2.151E+01    2.152E+01    2.153E+01    2.154E+01    2.155E+01    2.156E+01    2.157E+01
     2.158E+01    2.159E+01    2.160E+01    2.161E+01    2.162E+01    2.163E+01    2.164E+01    2.165E+01    2.166E+01    2.167E+01
     2.168E+01    2.169E+01    2.170E+01    2.171E+01    2.172E+01    2.173E+01    2.174E+01    2.176E+01    2.177E+01    2.178E+01
     2.179E+01    2.180E+01    2.181E+01    2.182E+01    2.183E+01    2.184E+01    2.185E+01    2.186E+01    2.187E+01    2.188E+01
     2.189E+01    2.190E+01    2.191E+01    2.192E+01    2.193E+01    2.194E+01    2.195E+01    2.196E+01    2.197E+01    2.198E+01
     2.199E+01    2.200E+01    2.201E+01    2.202E+01    2.203E+01    2.204E+01    2.205E+01    2.206E+01    2.207E+01    2.208E+01
     2.210E+01    2.211E+01    2.212E+01    2.213E+01    2.214E+01    2.215E+01    2.216E+01    2.217E+01    2.218E+01    2.219E+01
     2.220E+01    2.221E+01    2.222E+01    2.223E+01    2.224E+01    2.225E+01    2.226E+01    2.227E+01    2.228E+01    2.229E+01
     2.230E+01    2.231E+01    2.232E+01    2.233E+01    2.234E+01    2.235E+01    2.236E+01    2.237E+01    2.238E+01    2.239E+01
     2.240E+01    2.241E+01    2.242E+01    2.243E+01    2.245E+01    2.246E+01    2.247E+01    2.248E+01    2.249E+01    2.250E+01
     2.251E+01    2.252E+01    2.253E+01    2.254E+01    2.255E+01    2.256E+01    2.257E+01    2.258E+01    2.259E+01    2.260E+01
     2.261E+01    2.262E+01    2.263E+01    2.264E+01    2.265E+01    2.266E+01    2.267E+01    2.268E+01    2.269E+01    2.270E+01
     2.271E+01    2.272E+01    2.273E+01    2.274E+01    2.275E+01    2.276E+01    2.277E+01    2.278E+01    2.279E+01    2.280E+01
     2.282E+01    2.283E+01    2.284E+01    2.285E+01    2.286E+01    2.287E+01    2.288E+01    2.289E+01    2.290E+01    2.291E+01
     2.292E+01    2.293E+01    2.294E+01    2.295E+01    2.296E+01    2.297E+01    2.298E+01    2.299E+01    2.300E+01    2.301E+01
     2.302E+01    2.303E+01    2.304E+01    2.305E+01    2.306E+01    2.307E+01    2.308E+01    2.309E+01    2.310E+01    2.311E+01
     2.312E+01    2.313E+01    2.314E+01    2.315E+01    2.316E+01    2.317E+01    2.318E+01    2.319E+01    2.321E+01    2.322E+01
     2.323E+01    2.324E+01    2.325E+01    2.326E+01    2.327E+01    2.328E+01    2.329E+01    2.330E+01    2.331E+01    2.332E+01
     2.333E+01    2.334E+01    2.335E+01    2.336E+01    2.337E+01    2.338E+01    2.339E+01    2.340E+01    2.341E+01    2.342E+01
     2.343E+01    2.344E+01    2.345E+01    2.346E+01    2.347E+01    2.348E+01    2.349E+01    2.350E+01
