 LCModel (Version 6.3-1L) Copyright: S.W. Provencher.          Ref.: Magn. Reson. Med. 30:672-679 (1993).                
 Slice#1 Row#8 Col#8  PD_05_press_2_raw_act
 36 lines in following concentration table = NCONC+1
    Conc.  %SD /Cr+PCr  Metabolite                                         
  400.209  40%   0.254 Ala                                                 
   56.512 498% 3.6E-02 Asp                                                 
 1.30E+03  20%   0.825 Cr                                                  
  275.055  99%   0.175 PCr                                                 
   33.565 532% 2.1E-02 GABA                                                
    7.905 999% 5.0E-03 Glc                                                 
 1.32E+03  25%   0.841 Gln                                                 
 2.69E+03  14%   1.709 Glu                                                 
  391.337   8%   0.249 GPC                                                 
    0.000 999%   0.000 PCh                                                 
  632.771  17%   0.402 GSH                                                 
 1.71E+03  21%   1.087 Ins                                                 
  162.081 106%   0.103 Lac                                                 
 3.04E+03   5%   1.929 NAA                                                 
  220.219  80%   0.140 NAAG                                                
   97.352  37% 6.2E-02 Scyllo                                              
    0.000 999%   0.000 Tau                                                 
    0.000 999%   0.000 -CrCH2                                              
  391.337   8%   0.249 GPC+PCh                                             
 3.26E+03   4%   2.069 NAA+NAAG                                            
 1.57E+03   5%   1.000 Cr+PCr                                              
 4.01E+03  13%   2.550 Glu+Gln                                             
 1.35E+03  48%   0.857 Lip13a                                              
    0.000 999%   0.000 Lip13b                                              
    0.000 999%   0.000 Lip09                                               
 3.32E+03  11%   2.108 MM09                                                
  218.214 109%   0.139 Lip20                                               
 7.36E+03   9%   4.677 MM20                                                
 1.30E+03  24%   0.825 MM12                                                
 2.88E+03  22%   1.831 MM14                                                
 3.13E+03  15%   1.986 MM17                                                
 1.35E+03  48%   0.857 Lip13a+Lip13b                                       
 5.53E+03  11%   3.512 MM14+Lip13a+Lip13b+MM12                             
 3.32E+03  11%   2.108 MM09+Lip09                                          
 7.58E+03   9%   4.816 MM20+Lip20                                          
   6 lines in following misc. output table
  FWHM = 0.046 ppm    S/N =  12                                            
  Data shift = 0.008 ppm                                                   
  Ph:   2 deg       9.7 deg/ppm                                            
  alphaB,S = 1.8E+00,   8.8E+01                                            
   14 spline knots.   Ns = 6(1)                                            
  (11) 2 infls.   ( 9) 1 extrs.                                            
  498 points on ppm-axis = NY
      4.000000     3.992357     3.984714     3.977070     3.969427     3.961784     3.954141     3.946497     3.938854     3.931211
      3.923568     3.915925     3.908281     3.900638     3.892995     3.885352     3.877708     3.870065     3.862422     3.854779
      3.847136     3.839492     3.831849     3.824206     3.816563     3.808919     3.801276     3.793633     3.785990     3.778347
      3.770703     3.763060     3.755417     3.747774     3.740130     3.732487     3.724844     3.717201     3.709558     3.701914
      3.694271     3.686628     3.678985     3.671341     3.663698     3.656055     3.648412     3.640769     3.633125     3.625482
      3.617839     3.610196     3.602552     3.594909     3.587266     3.579623     3.571980     3.564336     3.556693     3.549050
      3.541407     3.533763     3.526120     3.518477     3.510834     3.503191     3.495547     3.487904     3.480261     3.472618
      3.464974     3.457331     3.449688     3.442045     3.434402     3.426758     3.419115     3.411472     3.403829     3.396185
      3.388542     3.380899     3.373256     3.365613     3.357969     3.350326     3.342683     3.335040     3.327396     3.319753
      3.312110     3.304467     3.296824     3.289180     3.281537     3.273894     3.266251     3.258607     3.250964     3.243321
      3.235678     3.228034     3.220391     3.212748     3.205105     3.197462     3.189818     3.182175     3.174532     3.166889
      3.159245     3.151602     3.143959     3.136316     3.128673     3.121029     3.113386     3.105743     3.098100     3.090456
      3.082813     3.075170     3.067527     3.059884     3.052240     3.044597     3.036954     3.029311     3.021667     3.014024
      3.006381     2.998738     2.991095     2.983451     2.975808     2.968165     2.960522     2.952878     2.945235     2.937592
      2.929949     2.922306     2.914662     2.907019     2.899376     2.891733     2.884089     2.876446     2.868803     2.861160
      2.853517     2.845873     2.838230     2.830587     2.822944     2.815300     2.807657     2.800014     2.792371     2.784728
      2.777084     2.769441     2.761798     2.754155     2.746511     2.738868     2.731225     2.723582     2.715939     2.708295
      2.700652     2.693009     2.685366     2.677722     2.670079     2.662436     2.654793     2.647150     2.639506     2.631863
      2.624220     2.616577     2.608933     2.601290     2.593647     2.586004     2.578361     2.570717     2.563074     2.555431
      2.547788     2.540144     2.532501     2.524858     2.517215     2.509572     2.501928     2.494285     2.486642     2.478999
      2.471355     2.463712     2.456069     2.448426     2.440783     2.433139     2.425496     2.417853     2.410210     2.402566
      2.394923     2.387280     2.379637     2.371994     2.364350     2.356707     2.349064     2.341421     2.333777     2.326134
      2.318491     2.310848     2.303205     2.295561     2.287918     2.280275     2.272632     2.264988     2.257345     2.249702
      2.242059     2.234416     2.226772     2.219129     2.211486     2.203843     2.196199     2.188556     2.180913     2.173270
      2.165627     2.157983     2.150340     2.142697     2.135054     2.127410     2.119767     2.112124     2.104481     2.096838
      2.089194     2.081551     2.073908     2.066265     2.058621     2.050978     2.043335     2.035692     2.028049     2.020405
      2.012762     2.005119     1.997476     1.989833     1.982190     1.974546     1.966903     1.959260     1.951617     1.943974
      1.936331     1.928688     1.921045     1.913402     1.905759     1.898115     1.890472     1.882829     1.875186     1.867543
      1.859900     1.852257     1.844614     1.836971     1.829327     1.821684     1.814041     1.806398     1.798755     1.791112
      1.783469     1.775826     1.768183     1.760540     1.752896     1.745253     1.737610     1.729967     1.722324     1.714681
      1.707038     1.699395     1.691752     1.684108     1.676465     1.668822     1.661179     1.653536     1.645893     1.638250
      1.630607     1.622964     1.615321     1.607677     1.600034     1.592391     1.584748     1.577105     1.569462     1.561819
      1.554176     1.546533     1.538890     1.531246     1.523603     1.515960     1.508317     1.500674     1.493031     1.485388
      1.477745     1.470102     1.462458     1.454815     1.447172     1.439529     1.431886     1.424243     1.416600     1.408957
      1.401314     1.393671     1.386027     1.378384     1.370741     1.363098     1.355455     1.347812     1.340169     1.332526
      1.324883     1.317240     1.309596     1.301953     1.294310     1.286667     1.279024     1.271381     1.263738     1.256095
      1.248452     1.240808     1.233165     1.225522     1.217879     1.210236     1.202593     1.194950     1.187307     1.179664
      1.172021     1.164377     1.156734     1.149091     1.141448     1.133805     1.126162     1.118519     1.110876     1.103233
      1.095590     1.087946     1.080303     1.072660     1.065017     1.057374     1.049731     1.042088     1.034445     1.026802
      1.019158     1.011515     1.003872     0.996229     0.988586     0.980943     0.973300     0.965657     0.958014     0.950371
      0.942727     0.935084     0.927441     0.919798     0.912155     0.904512     0.896869     0.889226     0.881583     0.873940
      0.866296     0.858653     0.851010     0.843367     0.835724     0.828081     0.820438     0.812795     0.805152     0.797508
      0.789865     0.782222     0.774579     0.766936     0.759293     0.751650     0.744007     0.736364     0.728721     0.721077
      0.713434     0.705791     0.698148     0.690505     0.682862     0.675219     0.667576     0.659933     0.652290     0.644646
      0.637003     0.629360     0.621717     0.614074     0.606431     0.598788     0.591145     0.583502     0.575858     0.568215
      0.560572     0.552929     0.545286     0.537643     0.530000     0.522357     0.514714     0.507071     0.499427     0.491784
      0.484141     0.476498     0.468855     0.461212     0.453569     0.445925     0.438282     0.430639     0.422996     0.415353
      0.407710     0.400067     0.392424     0.384780     0.377137     0.369494     0.361851     0.354208     0.346565     0.338922
      0.331278     0.323635     0.315992     0.308349     0.300706     0.293063     0.285420     0.277777     0.270133     0.262490
      0.254847     0.247204     0.239561     0.231918     0.224275     0.216631     0.208988     0.201345
 NY phased data points follow
   3.24961E+01  3.65891E+01  2.78473E+01  2.31520E+01  2.53289E+01  2.92494E+01  4.03310E+01  5.15435E+01  4.56567E+01  4.89745E+01
   6.48751E+01  6.09570E+01  5.24133E+01  6.30822E+01  4.22985E+01  4.28072E+01  3.44591E+01  3.64882E+01  3.29779E+01  2.76270E+01
   2.86013E+01  3.82216E+01  3.33676E+01  3.23750E+01  2.53695E+01  2.28304E+01  3.50916E+01  3.27910E+01  2.31723E+01  3.25348E+01
   3.87146E+01  3.21002E+01  3.50543E+01  3.30546E+01  3.50745E+01  2.82562E+01  1.79394E+01  2.36994E+01  1.97830E+01  2.14856E+01
   2.17509E+01  1.87482E+01  2.88814E+01  2.08636E+01  3.16941E+01  3.45131E+01  3.05938E+01  3.54234E+01  3.33426E+01  2.48848E+01
   2.95957E+01  3.06597E+01  2.54193E+01  2.10464E+01  1.81403E+01  2.19019E+01  2.50683E+01  2.68334E+01  2.02073E+01  2.09957E+01
   1.06924E+01  2.01517E+01  1.76473E+01  9.85526E+00  8.87006E+00  9.96584E+00  1.16453E+01  1.06422E+01  9.49650E+00  8.15218E+00
   1.27665E+01  1.07724E+01  1.45070E+01  1.26247E+01  1.47650E+01  6.80797E+00  5.55108E+00  1.27545E+01  1.62361E+01  9.24352E+00
   4.29611E+00  1.21925E+01  1.51841E+01  8.80869E+00  1.07824E+01  1.35803E+01  1.47001E+01  1.80457E+01  1.29682E+01  1.46436E+01
   1.02064E+01  1.75760E+01  1.26622E+01  1.89704E+01  6.53142E+00  1.08181E+01  1.08082E+01  1.80470E+01  1.71065E+01  2.26566E+01
   2.34965E+01  3.67006E+01  4.96621E+01  5.07227E+01  4.51802E+01  2.81434E+01  3.11408E+01  1.77120E+01  2.74898E+01  1.53670E+01
   1.75190E+01  9.26193E+00  1.00260E+01  9.00932E+00  5.07142E+00  8.17297E+00  8.00121E+00  1.38541E+01  1.38276E+01  3.75436E+00
   1.74455E+01  1.58075E+01  8.71878E+00  2.39292E+01  4.51199E+01  4.86292E+01  5.92475E+01  7.24475E+01  7.14359E+01  5.65183E+01
   3.76302E+01  3.27943E+01  2.56439E+01  2.46810E+01  1.12382E+01  1.40328E+01  9.12407E+00  1.35330E+01  1.31406E+01  1.46050E+01
   1.40457E+01  1.31815E+01  1.71481E+01  7.86835E+00  5.48709E+00  4.97830E+00  1.97747E+01  1.84768E+00  9.51278E+00  4.08098E+00
   6.93204E+00  9.41938E+00 -2.28879E+00 -7.32784E+00  3.12931E+00  5.97172E+00 -5.12297E-01  1.34248E+00  4.32027E+00  4.19235E+00
   4.44955E+00 -3.00417E+00 -2.79595E+00 -1.03541E+00  6.41770E+00 -3.58831E+00 -3.92502E+00  4.83483E+00 -1.41920E+01 -2.47116E+00
  -3.46474E+00 -1.12655E+01 -1.48425E+01 -1.06956E+01 -2.11441E+01 -6.03712E+00 -1.64955E+01 -2.19791E+01 -1.48943E+01 -2.22622E+01
  -1.66946E+01 -8.40273E+00 -1.16455E+01 -1.01389E+01 -8.27826E+00 -3.58086E+00 -1.01643E+01 -7.48714E+00 -5.03192E+00 -1.14460E-01
   3.83144E+00 -5.87095E+00 -9.37929E+00 -2.22393E+00 -1.02861E+01 -1.28578E+01 -9.18519E+00 -9.01495E+00 -7.91086E+00 -4.31223E+00
  -3.53374E+00 -3.51433E+00 -2.82208E+00  8.59394E+00  3.92778E-01  2.39808E+00  2.66720E+00 -5.28365E+00 -9.13265E+00 -8.32268E+00
  -2.45938E+00 -1.79904E-01  8.33457E+00  1.92668E+01  2.26461E+01  1.73555E+01  2.58128E+01  1.02020E+01  7.12522E+00  7.79923E+00
  -3.73733E+00 -7.50661E+00 -9.09066E-01 -1.27787E+00  4.03768E-01  1.56057E+01  1.76358E+01  1.59051E+01  1.97581E+01  2.02945E+01
   1.11002E+01  1.86594E+01  9.19899E+00  2.07974E+01  1.41238E+01  8.47014E+00  1.93286E+01  2.23632E+01  1.57331E+01  7.19291E+00
   1.19072E+01  9.67894E+00  1.56618E+01  1.42437E+01  2.81200E+01  2.03775E+01  2.45156E+01  2.41064E+01  3.06160E+01  3.18100E+01
   3.91029E+01  2.15363E+01  3.80037E+01  4.07471E+01  4.51773E+01  5.07014E+01  7.19040E+01  9.15809E+01  1.10107E+02  1.36718E+02
   1.38321E+02  1.35016E+02  1.01491E+02  7.67867E+01  5.83674E+01  3.32500E+01  2.69842E+01  1.92500E+01  2.43194E+01  3.63687E+00
   8.30578E+00  9.25664E+00  1.44588E+01  1.01001E+01 -7.99874E-01  1.07671E+01  1.71658E+00 -1.42210E+00  2.00876E+00  1.13438E+01
   8.28535E+00  4.98533E+00  9.25302E+00  2.44901E+00  3.44025E+00 -2.42125E+00 -3.07024E+00  8.09679E+00  1.30575E+01  4.59960E+00
   1.18075E+01  6.77162E+00  5.79294E+00  8.04791E+00  7.63452E+00  1.74879E+01 -1.59889E+00  1.37741E+01  9.50892E+00  8.53440E+00
   1.52152E+01  1.70420E+01  8.72198E+00  1.97654E+01  1.68742E+01  1.13878E+01  1.48070E+01  5.54445E+00  2.03115E+01  2.10642E+01
   1.83194E+01  1.97486E+01  1.63714E+01  1.62538E+01  2.16857E+01  1.13135E+01  1.21357E+01  8.17256E+00  1.28587E+01  6.12751E+00
   1.35899E+01  1.32749E+01  4.30992E+00  1.23889E+01  5.63843E+00  7.15777E+00  5.49894E+00  9.25033E+00  2.53840E+00 -7.56218E+00
   1.07494E+01  7.57241E+00  7.17341E+00  6.31785E+00  1.41884E+01  1.52507E+01  1.60460E+01  1.33648E+01  1.56096E+01  1.45184E+01
   1.20587E+01  1.29655E+01  1.80161E+01  1.12543E+01  1.28195E+01  1.44122E+01  1.62054E+01  1.24073E+01  8.79167E+00  1.55838E+01
   3.29432E+00  9.80086E+00  8.73945E+00  5.57009E+00 -2.23640E+00  9.65105E+00  1.08539E+01  1.81844E+00  4.64593E+00  4.61473E+00
   9.43649E+00  1.18890E+01  1.40841E+01  1.16685E+01  1.58991E+01  2.40112E+01  1.53835E+01  7.65974E+00  1.37692E+01  1.06629E+01
   1.34823E+01  8.71528E+00  2.07454E+00  5.32058E+00  9.48085E+00  1.87211E+00 -1.15004E+00  1.36555E+00  8.89389E+00 -3.60062E+00
  -5.75938E+00 -3.61335E-01  2.57937E-01  7.74888E+00 -2.42949E-01  1.21766E+01  3.60865E+00  1.04262E+01  9.09371E+00  9.61821E+00
   5.77942E+00  6.81351E+00  4.62424E-01  1.30420E+01  8.11563E+00  3.82330E+00  1.64056E+01  1.44395E+01  1.73694E+01  1.39397E+01
   1.22446E+01  1.51823E+01  2.17040E+01  1.16066E+01  1.60362E+01  1.26341E+01  1.29796E+01  1.04373E+01  1.56572E+01  1.61988E+01
   1.46671E+01  6.58669E+00  1.44271E+01  9.42018E+00  6.05560E+00 -1.83322E+00  5.50179E+00  2.82425E+00 -2.45258E-01 -1.93731E+00
  -4.55699E+00 -2.92033E+00  6.16818E+00  4.07436E+00  3.25895E+00 -7.82911E+00  4.01752E-01 -9.54199E-01  2.00890E+00 -1.70788E+00
  -1.49814E+00  2.80754E+00  4.61366E+00 -7.39100E+00 -5.75661E+00  5.53425E-01 -1.02715E+01 -3.45640E+00 -7.65341E+00 -8.14629E+00
  -2.79102E+00 -3.31493E+00 -4.48724E+00  3.83849E+00 -5.15899E-01 -9.06880E-01 -1.15202E+01 -6.24712E+00 -3.74662E+00 -1.38699E+00
  -7.61934E+00  5.35295E-01 -5.00050E+00 -7.79853E+00 -1.35196E+01 -6.47199E+00  9.90169E-01 -2.44227E+00  1.14467E+00 -1.40859E+01
  -7.09838E+00 -1.82111E+00 -5.07362E+00 -7.75494E+00 -7.57985E+00 -7.41804E+00 -1.65411E-01 -3.92291E+00 -1.04087E+01  2.44684E+00
   3.44112E-01 -3.97873E+00 -7.92156E+00 -3.90583E+00 -1.07056E+01 -4.03806E+00 -1.13107E+00 -7.81644E+00 -5.56276E+00 -9.34561E+00
  -6.37869E-01 -1.11516E+01 -1.00720E+01 -1.02089E+00 -6.99670E+00 -9.21138E+00  2.96563E+00 -9.52318E+00  2.96589E-01 -5.43506E+00
  -1.05929E+01 -5.50719E+00 -6.39526E+00 -1.04412E+01 -9.56589E+00 -9.41065E+00 -1.57960E+00 -1.05777E+01
 NY points of the fit to the data follow
   2.56388E+01  2.52269E+01  2.52413E+01  2.58421E+01  2.72195E+01  2.96366E+01  3.39105E+01  3.98602E+01  4.66405E+01  5.31942E+01
   5.82090E+01  6.01714E+01  5.80750E+01  5.23009E+01  4.49150E+01  3.82942E+01  3.34672E+01  3.02170E+01  2.78608E+01  2.62927E+01
   2.58560E+01  2.57905E+01  2.53942E+01  2.49517E+01  2.48466E+01  2.51990E+01  2.65037E+01  2.91950E+01  3.30260E+01  3.68442E+01
   3.92586E+01  3.95052E+01  3.77120E+01  3.43091E+01  2.98491E+01  2.51494E+01  2.11435E+01  1.88668E+01  1.83210E+01  1.86704E+01
   1.95374E+01  2.08720E+01  2.28104E+01  2.52635E+01  2.79594E+01  3.05106E+01  3.22248E+01  3.23014E+01  3.03658E+01  2.68408E+01
   2.29220E+01  1.97281E+01  1.76050E+01  1.63681E+01  1.58654E+01  1.61267E+01  1.70656E+01  1.82806E+01  1.93627E+01  1.99802E+01
   1.98488E+01  1.89132E+01  1.74493E+01  1.59442E+01  1.48294E+01  1.42890E+01  1.43062E+01  1.47433E+01  1.53879E+01  1.60232E+01
   1.65233E+01  1.67592E+01  1.66550E+01  1.62161E+01  1.55732E+01  1.49331E+01  1.44113E+01  1.40137E+01  1.36879E+01  1.34314E+01
   1.33961E+01  1.36718E+01  1.41092E+01  1.45380E+01  1.48031E+01  1.46878E+01  1.39736E+01  1.26877E+01  1.12417E+01  1.02168E+01
   9.93405E+00  1.02251E+01  1.06772E+01  1.09904E+01  1.11321E+01  1.11699E+01  1.12812E+01  1.27448E+01  1.67512E+01  2.31384E+01
   3.13042E+01  3.99102E+01  4.66269E+01  4.88023E+01  4.52667E+01  3.75607E+01  2.90512E+01  2.22230E+01  1.74343E+01  1.39119E+01
   1.11282E+01  9.61289E+00  9.36511E+00  9.44864E+00  9.59493E+00  9.75050E+00  9.91340E+00  1.01057E+01  1.03960E+01  1.09049E+01
   1.19493E+01  1.46802E+01  2.07083E+01  2.98680E+01  4.12768E+01  5.34705E+01  6.38912E+01  6.91549E+01  6.69205E+01  5.79909E+01
   4.62956E+01  3.56320E+01  2.71187E+01  2.00647E+01  1.38758E+01  9.46299E+00  7.81628E+00  7.87071E+00  8.65036E+00  9.55628E+00
   1.01700E+01  1.03226E+01  9.98496E+00  9.29712E+00  8.49929E+00  7.70338E+00  6.93198E+00  6.20680E+00  5.49830E+00  4.85084E+00
   4.26640E+00  3.75644E+00  3.35139E+00  3.07602E+00  2.90313E+00  2.67228E+00  2.26479E+00  1.63455E+00  8.22901E-01  4.31318E-02
  -4.91056E-01 -6.03100E-01 -2.74588E-01  2.07015E-01  3.74841E-01 -4.72028E-02 -9.35278E-01 -1.89348E+00 -2.62978E+00 -3.21408E+00
  -3.83864E+00 -4.61173E+00 -5.42297E+00 -6.11095E+00 -6.60973E+00 -6.85915E+00 -6.75084E+00 -6.34362E+00 -5.96543E+00 -5.93233E+00
  -6.20921E+00 -6.53498E+00 -6.61945E+00 -6.36671E+00 -5.88680E+00 -5.06658E+00 -3.56238E+00 -1.36949E+00  1.06607E+00  2.97972E+00
   3.73890E+00  3.26411E+00  1.89311E+00  1.98990E-01 -1.29408E+00 -2.22355E+00 -2.28780E+00 -1.32230E+00  6.23221E-01  3.28443E+00
   6.19743E+00  8.72237E+00  1.03073E+01  1.04309E+01  8.53251E+00  4.80385E+00 -4.26373E-02 -5.03708E+00 -8.92513E+00 -1.04110E+01
  -8.57730E+00 -3.82425E+00  2.55731E+00  9.04540E+00  1.42611E+01  1.67678E+01  1.54691E+01  1.04275E+01  3.25803E+00 -3.57299E+00
  -8.51848E+00 -1.07703E+01 -9.77896E+00 -5.66028E+00  4.25927E-01  6.20889E+00  1.02091E+01  1.23541E+01  1.31832E+01  1.31524E+01
   1.25448E+01  1.20243E+01  1.22143E+01  1.31427E+01  1.44092E+01  1.58403E+01  1.71988E+01  1.80633E+01  1.82106E+01  1.76992E+01
   1.69201E+01  1.63920E+01  1.66271E+01  1.78260E+01  1.97534E+01  2.18991E+01  2.36403E+01  2.48408E+01  2.57660E+01  2.68549E+01
   2.84836E+01  3.06819E+01  3.34014E+01  3.68507E+01  4.35246E+01  5.59052E+01  7.29711E+01  9.33856E+01  1.14745E+02  1.31829E+02
   1.37452E+02  1.27489E+02  1.05196E+02  7.98253E+01  5.88585E+01  4.35321E+01  3.16230E+01  2.15740E+01  1.49154E+01  1.21252E+01
   1.05986E+01  9.60463E+00  9.00234E+00  8.57591E+00  8.10702E+00  7.50225E+00  6.75486E+00  5.94312E+00  5.15253E+00  4.43143E+00
   3.80742E+00  3.32713E+00  3.01548E+00  2.84214E+00  2.76546E+00  2.76649E+00  2.85402E+00  3.04395E+00  3.34133E+00  3.74972E+00
   4.27958E+00  4.92963E+00  5.68594E+00  6.52658E+00  7.43411E+00  8.39362E+00  9.38831E+00  1.04007E+01  1.14109E+01  1.23950E+01
   1.33289E+01  1.41843E+01  1.49305E+01  1.55410E+01  1.59958E+01  1.62828E+01  1.63971E+01  1.63402E+01  1.61214E+01  1.57559E+01
   1.52634E+01  1.46689E+01  1.40009E+01  1.32904E+01  1.25698E+01  1.18717E+01  1.12284E+01  1.06733E+01  1.02442E+01  9.99422E+00
   1.00261E+01  1.04242E+01  1.09783E+01  1.14482E+01  1.15973E+01  1.11532E+01  9.89532E+00  7.88084E+00  5.58224E+00  3.87923E+00
   3.31472E+00  3.86685E+00  5.32621E+00  7.48996E+00  1.00657E+01  1.25047E+01  1.40739E+01  1.46237E+01  1.45438E+01  1.42609E+01
   1.39830E+01  1.37360E+01  1.34992E+01  1.33529E+01  1.32341E+01  1.29708E+01  1.24209E+01  1.15086E+01  1.03134E+01  9.14569E+00
   8.36072E+00  8.08626E+00  8.26767E+00  8.79651E+00  9.53908E+00  1.03143E+01  1.08661E+01  1.10152E+01  1.08589E+01  1.05736E+01
   1.02572E+01  9.91244E+00  9.51289E+00  9.10637E+00  8.73323E+00  8.36276E+00  7.97954E+00  7.57981E+00  7.16492E+00  6.73915E+00
   6.30863E+00  5.88059E+00  5.46311E+00  5.06491E+00  4.69507E+00  4.36266E+00  4.07637E+00  3.84428E+00  3.67392E+00  3.57221E+00
   3.54536E+00  3.59858E+00  3.73588E+00  3.96001E+00  4.27256E+00  4.67379E+00  5.16234E+00  5.73492E+00  6.38608E+00  7.10816E+00
   7.89136E+00  8.72359E+00  9.59040E+00  1.04750E+01  1.13587E+01  1.22213E+01  1.30421E+01  1.37998E+01  1.44740E+01  1.50452E+01
   1.54962E+01  1.58127E+01  1.59841E+01  1.60037E+01  1.58693E+01  1.55826E+01  1.51498E+01  1.45814E+01  1.38909E+01  1.30947E+01
   1.22111E+01  1.12592E+01  1.02588E+01  9.22917E+00  8.18866E+00  7.15369E+00  6.13859E+00  5.15544E+00  4.21404E+00  3.32186E+00
   2.48402E+00  1.70349E+00  9.81376E-01  3.17369E-01 -2.89947E-01 -8.42915E-01 -1.34464E+00 -1.79874E+00 -2.20905E+00 -2.57931E+00
  -2.91317E+00 -3.21415E+00 -3.48568E+00 -3.73100E+00 -3.95297E+00 -4.15412E+00 -4.33663E+00 -4.50256E+00 -4.65380E+00 -4.79206E+00
  -4.91871E+00 -5.03490E+00 -5.14164E+00 -5.23993E+00 -5.33074E+00 -5.41484E+00 -5.49283E+00 -5.56518E+00 -5.63240E+00 -5.69501E+00
  -5.75350E+00 -5.80824E+00 -5.85943E+00 -5.90730E+00 -5.95212E+00 -5.99423E+00 -6.03390E+00 -6.07127E+00 -6.10641E+00 -6.13946E+00
  -6.17061E+00 -6.20009E+00 -6.22801E+00 -6.25441E+00 -6.27930E+00 -6.30279E+00 -6.32506E+00 -6.34625E+00 -6.36640E+00 -6.38547E+00
  -6.40349E+00 -6.42055E+00 -6.43680E+00 -6.45232E+00 -6.46706E+00 -6.48099E+00 -6.49416E+00 -6.50669E+00 -6.51868E+00 -6.53014E+00
  -6.54101E+00 -6.55127E+00 -6.56098E+00 -6.57026E+00 -6.57916E+00 -6.58765E+00 -6.59565E+00 -6.60319E+00 -6.61033E+00 -6.61719E+00
  -6.62377E+00 -6.62999E+00 -6.63581E+00 -6.64126E+00 -6.64645E+00 -6.65143E+00 -6.65615E+00 -6.66054E+00
 NY background values follow
     2.033E+01    2.019E+01    2.004E+01    1.990E+01    1.976E+01    1.962E+01    1.948E+01    1.934E+01    1.920E+01    1.906E+01
     1.892E+01    1.878E+01    1.864E+01    1.850E+01    1.836E+01    1.822E+01    1.808E+01    1.793E+01    1.779E+01    1.765E+01
     1.751E+01    1.737E+01    1.723E+01    1.709E+01    1.695E+01    1.681E+01    1.667E+01    1.653E+01    1.639E+01    1.625E+01
     1.611E+01    1.597E+01    1.583E+01    1.569E+01    1.555E+01    1.541E+01    1.527E+01    1.513E+01    1.500E+01    1.486E+01
     1.472E+01    1.458E+01    1.444E+01    1.430E+01    1.416E+01    1.402E+01    1.389E+01    1.375E+01    1.361E+01    1.347E+01
     1.333E+01    1.320E+01    1.306E+01    1.292E+01    1.279E+01    1.265E+01    1.251E+01    1.238E+01    1.224E+01    1.210E+01
     1.197E+01    1.183E+01    1.170E+01    1.156E+01    1.143E+01    1.129E+01    1.116E+01    1.102E+01    1.089E+01    1.076E+01
     1.062E+01    1.049E+01    1.036E+01    1.022E+01    1.009E+01    9.959E+00    9.827E+00    9.695E+00    9.564E+00    9.433E+00
     9.303E+00    9.173E+00    9.043E+00    8.913E+00    8.784E+00    8.655E+00    8.527E+00    8.399E+00    8.271E+00    8.143E+00
     8.016E+00    7.890E+00    7.763E+00    7.637E+00    7.512E+00    7.387E+00    7.262E+00    7.138E+00    7.014E+00    6.890E+00
     6.767E+00    6.644E+00    6.522E+00    6.400E+00    6.278E+00    6.157E+00    6.037E+00    5.916E+00    5.797E+00    5.677E+00
     5.558E+00    5.440E+00    5.322E+00    5.204E+00    5.087E+00    4.970E+00    4.854E+00    4.738E+00    4.623E+00    4.508E+00
     4.394E+00    4.280E+00    4.166E+00    4.053E+00    3.941E+00    3.829E+00    3.717E+00    3.606E+00    3.496E+00    3.386E+00
     3.276E+00    3.167E+00    3.058E+00    2.950E+00    2.843E+00    2.736E+00    2.629E+00    2.523E+00    2.418E+00    2.313E+00
     2.209E+00    2.105E+00    2.001E+00    1.899E+00    1.796E+00    1.695E+00    1.594E+00    1.493E+00    1.393E+00    1.294E+00
     1.195E+00    1.097E+00    9.992E-01    9.021E-01    8.057E-01    7.098E-01    6.146E-01    5.200E-01    4.260E-01    3.326E-01
     2.399E-01    1.477E-01    5.624E-02   -3.461E-02   -1.248E-01   -2.144E-01   -3.033E-01   -3.916E-01   -4.792E-01   -5.661E-01
    -6.524E-01   -7.380E-01   -8.229E-01   -9.071E-01   -9.907E-01   -1.074E+00   -1.156E+00   -1.237E+00   -1.318E+00   -1.398E+00
    -1.477E+00   -1.556E+00   -1.634E+00   -1.711E+00   -1.787E+00   -1.863E+00   -1.938E+00   -2.013E+00   -2.086E+00   -2.159E+00
    -2.232E+00   -2.303E+00   -2.374E+00   -2.444E+00   -2.514E+00   -2.583E+00   -2.651E+00   -2.719E+00   -2.786E+00   -2.853E+00
    -2.918E+00   -2.983E+00   -3.048E+00   -3.112E+00   -3.175E+00   -3.238E+00   -3.300E+00   -3.362E+00   -3.423E+00   -3.483E+00
    -3.543E+00   -3.602E+00   -3.661E+00   -3.719E+00   -3.776E+00   -3.833E+00   -3.890E+00   -3.946E+00   -4.001E+00   -4.056E+00
    -4.110E+00   -4.164E+00   -4.217E+00   -4.270E+00   -4.322E+00   -4.374E+00   -4.425E+00   -4.476E+00   -4.526E+00   -4.576E+00
    -4.625E+00   -4.674E+00   -4.722E+00   -4.770E+00   -4.817E+00   -4.864E+00   -4.911E+00   -4.957E+00   -5.002E+00   -5.047E+00
    -5.092E+00   -5.136E+00   -5.179E+00   -5.223E+00   -5.265E+00   -5.308E+00   -5.350E+00   -5.391E+00   -5.432E+00   -5.473E+00
    -5.513E+00   -5.552E+00   -5.592E+00   -5.631E+00   -5.669E+00   -5.707E+00   -5.744E+00   -5.782E+00   -5.818E+00   -5.855E+00
    -5.891E+00   -5.926E+00   -5.961E+00   -5.996E+00   -6.030E+00   -6.064E+00   -6.097E+00   -6.131E+00   -6.163E+00   -6.196E+00
    -6.228E+00   -6.259E+00   -6.290E+00   -6.321E+00   -6.351E+00   -6.382E+00   -6.411E+00   -6.441E+00   -6.469E+00   -6.498E+00
    -6.526E+00   -6.554E+00   -6.582E+00   -6.609E+00   -6.635E+00   -6.662E+00   -6.688E+00   -6.714E+00   -6.739E+00   -6.764E+00
    -6.789E+00   -6.813E+00   -6.837E+00   -6.861E+00   -6.884E+00   -6.907E+00   -6.930E+00   -6.953E+00   -6.975E+00   -6.996E+00
    -7.018E+00   -7.039E+00   -7.060E+00   -7.080E+00   -7.101E+00   -7.120E+00   -7.140E+00   -7.159E+00   -7.178E+00   -7.197E+00
    -7.215E+00   -7.234E+00   -7.251E+00   -7.269E+00   -7.286E+00   -7.303E+00   -7.320E+00   -7.336E+00   -7.353E+00   -7.368E+00
    -7.384E+00   -7.399E+00   -7.415E+00   -7.429E+00   -7.444E+00   -7.458E+00   -7.472E+00   -7.486E+00   -7.500E+00   -7.513E+00
    -7.526E+00   -7.539E+00   -7.551E+00   -7.563E+00   -7.575E+00   -7.587E+00   -7.599E+00   -7.610E+00   -7.621E+00   -7.632E+00
    -7.642E+00   -7.653E+00   -7.663E+00   -7.673E+00   -7.682E+00   -7.692E+00   -7.701E+00   -7.710E+00   -7.719E+00   -7.727E+00
    -7.735E+00   -7.743E+00   -7.751E+00   -7.759E+00   -7.766E+00   -7.774E+00   -7.781E+00   -7.787E+00   -7.794E+00   -7.800E+00
    -7.807E+00   -7.813E+00   -7.819E+00   -7.824E+00   -7.830E+00   -7.835E+00   -7.840E+00   -7.845E+00   -7.849E+00   -7.854E+00
    -7.858E+00   -7.862E+00   -7.866E+00   -7.870E+00   -7.873E+00   -7.877E+00   -7.880E+00   -7.883E+00   -7.886E+00   -7.888E+00
    -7.891E+00   -7.893E+00   -7.895E+00   -7.897E+00   -7.899E+00   -7.901E+00   -7.902E+00   -7.903E+00   -7.904E+00   -7.905E+00
    -7.906E+00   -7.907E+00   -7.907E+00   -7.908E+00   -7.908E+00   -7.908E+00   -7.908E+00   -7.907E+00   -7.907E+00   -7.906E+00
    -7.905E+00   -7.905E+00   -7.903E+00   -7.902E+00   -7.901E+00   -7.899E+00   -7.898E+00   -7.896E+00   -7.894E+00   -7.892E+00
    -7.890E+00   -7.888E+00   -7.885E+00   -7.883E+00   -7.880E+00   -7.877E+00   -7.874E+00   -7.871E+00   -7.868E+00   -7.865E+00
    -7.861E+00   -7.858E+00   -7.854E+00   -7.851E+00   -7.847E+00   -7.843E+00   -7.839E+00   -7.835E+00   -7.831E+00   -7.827E+00
    -7.823E+00   -7.818E+00   -7.814E+00   -7.809E+00   -7.805E+00   -7.800E+00   -7.795E+00   -7.791E+00   -7.786E+00   -7.781E+00
    -7.776E+00   -7.771E+00   -7.766E+00   -7.761E+00   -7.756E+00   -7.751E+00   -7.746E+00   -7.741E+00   -7.735E+00   -7.730E+00
    -7.725E+00   -7.720E+00   -7.714E+00   -7.709E+00   -7.704E+00   -7.698E+00   -7.693E+00   -7.687E+00   -7.682E+00   -7.677E+00
    -7.671E+00   -7.666E+00   -7.660E+00   -7.655E+00   -7.649E+00   -7.644E+00   -7.638E+00   -7.633E+00   -7.627E+00   -7.622E+00
    -7.616E+00   -7.611E+00   -7.605E+00   -7.600E+00   -7.594E+00   -7.588E+00   -7.583E+00   -7.577E+00   -7.572E+00   -7.566E+00
    -7.561E+00   -7.555E+00   -7.549E+00   -7.544E+00   -7.538E+00   -7.533E+00   -7.527E+00   -7.522E+00   -7.516E+00   -7.511E+00
    -7.505E+00   -7.499E+00   -7.494E+00   -7.488E+00   -7.483E+00   -7.477E+00   -7.472E+00   -7.466E+00
 Ala      Conc. = 4.00E+02
