 LCModel (Version 6.3-1L) Copyright: S.W. Provencher.          Ref.: Magn. Reson. Med. 30:672-679 (1993).                
 Slice#3 Row#3 Col#3  PD_05_press_2_raw_act
 36 lines in following concentration table = NCONC+1
    Conc.  %SD /Cr+PCr  Metabolite                                         
    0.000 999%   0.000 Ala                                                 
   59.856 224% 7.0E-02 Asp                                                 
    0.000 999%   0.000 Cr                                                  
  853.516  10%   1.000 PCr                                                 
   46.395 171% 5.4E-02 GABA                                                
   39.051 210% 4.6E-02 Glc                                                 
  421.771  57%   0.494 Gln                                                 
  147.170 177%   0.172 Glu                                                 
    0.000 999%   0.000 GPC                                                 
  243.435  12%   0.285 PCh                                                 
  136.936  66%   0.160 GSH                                                 
  298.534  99%   0.350 Ins                                                 
    0.000 999%   0.000 Lac                                                 
  829.042  12%   0.971 NAA                                                 
    0.000 999%   0.000 NAAG                                                
   49.121  47% 5.8E-02 Scyllo                                              
  201.935  63%   0.237 Tau                                                 
  505.501  25%   0.592 -CrCH2                                              
  243.435  12%   0.285 GPC+PCh                                             
  829.042  12%   0.971 NAA+NAAG                                            
  853.516  10%   1.000 Cr+PCr                                              
  568.941  57%   0.667 Glu+Gln                                             
    0.000 999%   0.000 Lip13a                                              
    0.000 999%   0.000 Lip13b                                              
    0.000 999%   0.000 Lip09                                               
 2.56E+03  12%   2.995 MM09                                                
    3.733 999% 4.4E-03 Lip20                                               
 3.39E+03  17%   3.975 MM20                                                
 1.53E+03  22%   1.796 MM12                                                
    0.000 999%   0.000 MM14                                                
 1.30E+03  28%   1.521 MM17                                                
    0.000 999%   0.000 Lip13a+Lip13b                                       
 1.53E+03  22%   1.796 MM14+Lip13a+Lip13b+MM12                             
 2.56E+03  12%   2.995 MM09+Lip09                                          
 3.40E+03  16%   3.979 MM20+Lip20                                          
   6 lines in following misc. output table
  FWHM = 0.046 ppm    S/N =   3                                            
  Data shift = 0.038 ppm                                                   
  Ph: -33 deg     -16.7 deg/ppm                                            
  alphaB,S = 2.1E+00,   6.4E+00                                            
   14 spline knots.   Ns = 5(1)                                            
  ( 6) 1 infls.   ( 4) 2 extrs.                                            
  498 points on ppm-axis = NY
      4.000000     3.992357     3.984714     3.977070     3.969427     3.961784     3.954141     3.946497     3.938854     3.931211
      3.923568     3.915925     3.908281     3.900638     3.892995     3.885352     3.877708     3.870065     3.862422     3.854779
      3.847136     3.839492     3.831849     3.824206     3.816563     3.808919     3.801276     3.793633     3.785990     3.778347
      3.770703     3.763060     3.755417     3.747774     3.740130     3.732487     3.724844     3.717201     3.709558     3.701914
      3.694271     3.686628     3.678985     3.671341     3.663698     3.656055     3.648412     3.640769     3.633125     3.625482
      3.617839     3.610196     3.602552     3.594909     3.587266     3.579623     3.571980     3.564336     3.556693     3.549050
      3.541407     3.533763     3.526120     3.518477     3.510834     3.503191     3.495547     3.487904     3.480261     3.472618
      3.464974     3.457331     3.449688     3.442045     3.434402     3.426758     3.419115     3.411472     3.403829     3.396185
      3.388542     3.380899     3.373256     3.365613     3.357969     3.350326     3.342683     3.335040     3.327396     3.319753
      3.312110     3.304467     3.296824     3.289180     3.281537     3.273894     3.266251     3.258607     3.250964     3.243321
      3.235678     3.228034     3.220391     3.212748     3.205105     3.197462     3.189818     3.182175     3.174532     3.166889
      3.159245     3.151602     3.143959     3.136316     3.128673     3.121029     3.113386     3.105743     3.098100     3.090456
      3.082813     3.075170     3.067527     3.059884     3.052240     3.044597     3.036954     3.029311     3.021667     3.014024
      3.006381     2.998738     2.991095     2.983451     2.975808     2.968165     2.960522     2.952878     2.945235     2.937592
      2.929949     2.922306     2.914662     2.907019     2.899376     2.891733     2.884089     2.876446     2.868803     2.861160
      2.853517     2.845873     2.838230     2.830587     2.822944     2.815300     2.807657     2.800014     2.792371     2.784728
      2.777084     2.769441     2.761798     2.754155     2.746511     2.738868     2.731225     2.723582     2.715939     2.708295
      2.700652     2.693009     2.685366     2.677722     2.670079     2.662436     2.654793     2.647150     2.639506     2.631863
      2.624220     2.616577     2.608933     2.601290     2.593647     2.586004     2.578361     2.570717     2.563074     2.555431
      2.547788     2.540144     2.532501     2.524858     2.517215     2.509572     2.501928     2.494285     2.486642     2.478999
      2.471355     2.463712     2.456069     2.448426     2.440783     2.433139     2.425496     2.417853     2.410210     2.402566
      2.394923     2.387280     2.379637     2.371994     2.364350     2.356707     2.349064     2.341421     2.333777     2.326134
      2.318491     2.310848     2.303205     2.295561     2.287918     2.280275     2.272632     2.264988     2.257345     2.249702
      2.242059     2.234416     2.226772     2.219129     2.211486     2.203843     2.196199     2.188556     2.180913     2.173270
      2.165627     2.157983     2.150340     2.142697     2.135054     2.127410     2.119767     2.112124     2.104481     2.096838
      2.089194     2.081551     2.073908     2.066265     2.058621     2.050978     2.043335     2.035692     2.028049     2.020405
      2.012762     2.005119     1.997476     1.989833     1.982190     1.974546     1.966903     1.959260     1.951617     1.943974
      1.936331     1.928688     1.921045     1.913402     1.905759     1.898115     1.890472     1.882829     1.875186     1.867543
      1.859900     1.852257     1.844614     1.836971     1.829327     1.821684     1.814041     1.806398     1.798755     1.791112
      1.783469     1.775826     1.768183     1.760540     1.752896     1.745253     1.737610     1.729967     1.722324     1.714681
      1.707038     1.699395     1.691752     1.684108     1.676465     1.668822     1.661179     1.653536     1.645893     1.638250
      1.630607     1.622964     1.615321     1.607677     1.600034     1.592391     1.584748     1.577105     1.569462     1.561819
      1.554176     1.546533     1.538890     1.531246     1.523603     1.515960     1.508317     1.500674     1.493031     1.485388
      1.477745     1.470102     1.462458     1.454815     1.447172     1.439529     1.431886     1.424243     1.416600     1.408957
      1.401314     1.393671     1.386027     1.378384     1.370741     1.363098     1.355455     1.347812     1.340169     1.332526
      1.324883     1.317240     1.309596     1.301953     1.294310     1.286667     1.279024     1.271381     1.263738     1.256095
      1.248452     1.240808     1.233165     1.225522     1.217879     1.210236     1.202593     1.194950     1.187307     1.179664
      1.172021     1.164377     1.156734     1.149091     1.141448     1.133805     1.126162     1.118519     1.110876     1.103233
      1.095590     1.087946     1.080303     1.072660     1.065017     1.057374     1.049731     1.042088     1.034445     1.026802
      1.019158     1.011515     1.003872     0.996229     0.988586     0.980943     0.973300     0.965657     0.958014     0.950371
      0.942727     0.935084     0.927441     0.919798     0.912155     0.904512     0.896869     0.889226     0.881583     0.873940
      0.866296     0.858653     0.851010     0.843367     0.835724     0.828081     0.820438     0.812795     0.805152     0.797508
      0.789865     0.782222     0.774579     0.766936     0.759293     0.751650     0.744007     0.736364     0.728721     0.721077
      0.713434     0.705791     0.698148     0.690505     0.682862     0.675219     0.667576     0.659933     0.652290     0.644646
      0.637003     0.629360     0.621717     0.614074     0.606431     0.598788     0.591145     0.583502     0.575858     0.568215
      0.560572     0.552929     0.545286     0.537643     0.530000     0.522357     0.514714     0.507071     0.499427     0.491784
      0.484141     0.476498     0.468855     0.461212     0.453569     0.445925     0.438282     0.430639     0.422996     0.415353
      0.407710     0.400067     0.392424     0.384780     0.377137     0.369494     0.361851     0.354208     0.346565     0.338922
      0.331278     0.323635     0.315992     0.308349     0.300706     0.293063     0.285420     0.277777     0.270133     0.262490
      0.254847     0.247204     0.239561     0.231918     0.224275     0.216631     0.208988     0.201345
 NY phased data points follow
  -4.48631E+01 -4.86965E+01 -5.53779E+01 -4.72792E+01 -4.85533E+01 -4.97708E+01 -4.94355E+01 -3.52967E+01 -3.09139E+01 -2.23352E+01
  -2.08277E+01 -1.65290E+01 -2.16397E+01 -3.24923E+01 -3.94944E+01 -3.52397E+01 -3.72530E+01 -3.37969E+01 -2.63168E+01 -4.17628E+01
  -4.13608E+01 -4.03876E+01 -3.60760E+01 -4.20348E+01 -4.33664E+01 -4.37425E+01 -3.62239E+01 -3.89355E+01 -2.63930E+01 -2.65847E+01
  -2.04566E+01 -3.38471E+01 -3.15701E+01 -2.54193E+01 -2.30791E+01 -2.16740E+01 -2.69002E+01 -3.40457E+01 -2.80193E+01 -3.77039E+01
  -3.53789E+01 -3.13392E+01 -3.47547E+01 -2.90267E+01 -3.12733E+01 -2.35900E+01 -2.22745E+01 -2.24974E+01 -2.94455E+01 -1.23907E+01
  -3.06416E+01 -1.40536E+01 -3.01079E+01 -2.60599E+01 -2.94611E+01 -1.22939E+01 -1.07009E+01 -2.80899E+01 -2.32826E+01 -1.86672E+01
  -1.67924E+01 -2.71060E+01 -5.35326E+00 -2.21554E+01 -2.77581E+01 -2.87205E+01 -1.60273E+01 -2.65020E+01 -2.16809E+01 -1.99457E+01
  -2.59923E+01 -2.13254E+01 -2.02892E+01 -2.58774E+01 -1.04407E+01 -1.97026E+01 -2.39204E+01 -1.94190E+01 -2.24391E+01 -1.33841E+01
  -9.73364E+00 -1.35163E+01 -1.39261E+01 -1.20921E+01 -2.31494E+00 -1.33062E+01 -1.17199E+01 -1.13033E+01 -1.57645E+01 -1.10759E+01
  -6.22035E+00 -4.26063E+00 -1.00340E+01 -1.42681E+00 -1.21069E+01 -4.23032E+00 -1.65615E+01 -3.85955E+00 -1.01759E+01 -1.01023E+01
  -3.72895E+00  9.36879E+00  1.75006E+01  1.99531E+01  1.82081E+01  1.72600E+01  1.72194E+00 -5.38284E+00 -1.49309E+01 -5.22802E+00
  -9.35559E+00 -5.18176E+00 -4.19599E+00 -1.11256E+01  3.82249E+00 -1.60855E+00  1.91307E+00 -9.13256E+00 -4.42171E+00  3.57463E+00
  -7.69183E+00 -9.90898E+00 -1.31854E+01 -4.26458E+00  5.26675E+00  1.88279E+01  3.24302E+01  2.55696E+01  3.95159E+01  2.50118E+01
   1.88142E+01  5.00017E+00  1.15253E+01 -4.75550E+00 -4.58492E+00 -4.19017E+00 -4.11975E+00  7.73916E+00 -7.65478E+00 -1.41372E+00
  -4.96264E+00 -3.82113E+00 -7.19721E+00  1.51450E+00 -8.00411E+00  1.26124E+00  7.75050E+00 -4.35314E+00  2.09050E+00  1.38859E+00
  -1.27079E-01  7.39942E+00 -1.36954E+01 -1.37885E+01 -1.04284E+00 -1.58750E+01  2.34518E+00 -1.26917E+01 -1.26052E+01 -1.24360E+01
   2.75945E+00  3.64680E+00  8.92891E+00 -9.45815E+00  4.67547E+00 -3.32296E-01 -5.92483E-01 -1.36664E+00  7.08817E+00 -2.39175E+00
  -4.95004E+00 -1.54477E-01  6.86168E-01  4.79964E+00 -1.52515E+00 -3.92481E-01  7.96058E+00 -1.03694E+01  7.78913E+00 -5.23421E+00
  -7.59713E+00 -6.75271E+00 -9.05260E+00 -1.24255E+00 -1.17016E+01 -3.84908E+00 -7.11169E+00  9.14836E+00 -1.17725E+01 -5.15294E+00
  -2.63148E-01  6.49763E+00  9.29257E+00  1.26783E+01  1.18163E+01  7.67579E+00  7.23300E+00 -2.49391E-01 -1.14386E+01 -9.95760E+00
   8.20515E+00  1.90613E+00  2.77834E+00  1.22251E+01  1.28911E+00  1.59207E+01 -7.23936E+00  2.65382E+00  7.89470E+00 -1.27691E+00
  -5.34798E+00 -4.88425E+00  2.59181E+00  1.02792E+01  5.78427E+00  2.13549E+01  1.23749E+01  1.65823E+01  2.17509E+01  1.39235E+01
   1.73612E+01  1.53040E+01  8.33094E+00  3.54234E+00  1.35918E+01  1.90568E+01  9.29414E+00  1.57738E+01  9.35180E+00  8.55089E+00
   6.46020E+00  2.24929E+01  3.58787E+00  2.17433E+00  1.32333E+01  1.39584E+01  7.43175E+00  1.41156E+01  1.28590E+01  1.47018E+01
   7.48805E+00  4.27207E+00  1.43862E+01  1.51201E+01  9.15096E+00  7.85870E+00  1.88306E+01  1.83339E+01  1.95599E+01  2.11923E+01
   1.08755E+01  2.61620E+01  2.57180E+01  2.74970E+01  1.87970E+01  1.38426E+01  1.96308E+01  2.51966E+01  4.02331E+01  5.30240E+01
   5.95760E+01  6.34581E+01  4.86987E+01  4.90334E+01  2.85876E+01  1.61696E+01  1.98293E+01  2.10378E+01  2.37192E+01  1.94552E+01
   1.64857E+01  1.82158E+01  1.83480E+01  1.60596E+01  2.42743E+01  1.18765E+01  1.77938E+01  2.70918E+01  1.85497E+01  1.79081E+01
   2.79280E+01  2.09736E+01  1.53675E+01  2.29696E+01  1.90684E+01  2.23538E+01  2.40411E+01  2.71071E+01  1.39821E+01  2.50501E+01
   2.30862E+01  1.64438E+01  1.96153E+01  1.83225E+01  8.79456E+00  1.69511E+01  1.47141E+01  2.78080E+01  9.11287E+00  2.37988E+01
   3.17166E+01  2.90745E+01  1.88273E+01  2.65851E+01  1.80833E+01  2.18439E+01  2.09822E+01  6.80287E+00  1.64431E+01  3.49063E+01
   2.06441E+01  2.14792E+01  2.51862E+01  1.76305E+01  1.50237E+01  1.97664E+01  1.52404E+01  1.43563E+01  7.14286E+00  1.67812E+01
   4.76280E+00  2.10604E+01  8.84918E+00  2.30173E+01 -1.44225E-01  1.62449E+01  1.97138E+00  1.80596E+01  1.64355E+01  1.47073E+01
   2.66150E+01  1.94507E+01  1.31957E+01  2.24597E+01  2.34381E+01  1.62358E+01  1.39879E+01  1.45785E+01  1.03592E+01 -5.24591E+00
   1.57186E+01  2.37994E+01  4.03363E+00  1.96805E+01  1.30005E+01  2.24657E+01  1.42185E+01  1.63684E+01  2.08034E+01  1.63858E+01
   1.85072E+01  1.59366E+01  1.88376E+01  1.50323E+01  2.82653E+01  2.70946E+01  1.00548E+01  2.11207E+01  2.43447E+01  2.58391E+01
   2.14077E+01  2.46250E+01  1.98042E+01  1.61994E+01  1.86424E+01  1.40053E+01  2.07124E+01  3.74034E+01  3.03847E+01  2.64363E+01
   2.94394E+01  3.77478E+01  2.93586E+01  3.01191E+01  2.79717E+01  3.53389E+01  3.13636E+01  3.22355E+01  2.34737E+01  4.63901E+01
   3.56284E+01  3.26760E+01  4.10381E+01  3.17721E+01  3.51442E+01  3.18611E+01  3.29348E+01  3.29182E+01  2.58643E+01  2.00161E+01
   3.54921E+01  3.26268E+01  4.50101E+01  3.62770E+01  3.10128E+01  3.15920E+01  3.47136E+01  2.51024E+01  4.55492E+01  3.38181E+01
   3.10837E+01  3.36512E+01  3.15052E+01  2.94706E+01  2.79199E+01  3.49497E+01  2.17570E+01  3.00283E+01  3.19614E+01  3.10543E+01
   3.40965E+01  3.53416E+01  3.15631E+01  3.46490E+01  4.02960E+01  3.90111E+01  2.39646E+01  3.51474E+01  2.40843E+01  2.72762E+01
   3.57036E+01  2.77931E+01  3.05079E+01  2.74933E+01  3.05551E+01  3.06991E+01  2.35454E+01  2.34787E+01  3.03603E+01  2.34868E+01
   2.82464E+01  3.62786E+01  1.92265E+01  2.61342E+01  2.59865E+01  1.83630E+01  2.57551E+01  2.04767E+01  2.80031E+01  2.13098E+01
   2.92920E+01  2.27946E+01  1.80026E+01  2.04124E+01  1.45021E+01  2.65517E+01  2.08541E+01  2.68700E+01  1.97405E+01  1.95766E+01
   3.40614E+01  1.94583E+01  2.03738E+01  2.86377E+01  1.87975E+01  2.78836E+01  1.06929E+01  1.95129E+01  2.47940E+01  1.73868E+01
   2.75448E+01  2.72083E+01  1.86615E+01  1.90852E+01  2.99480E+01  2.40746E+01  2.55058E+01  2.31381E+01  1.66401E+01  2.10796E+01
   1.37903E+01  1.40684E+01  2.15372E+01  1.69429E+01  1.96608E+01  1.77806E+01  1.71128E+01  1.39593E+01  1.07117E+01  1.89665E+01
   1.34749E+01  2.80087E+01  2.67669E+01  2.08512E+01  2.48742E+01  1.10797E+01  1.08907E+01  2.45977E+01  3.01267E+01  2.51373E+01
   2.01578E+01  2.75522E+01  2.07780E+01  2.21955E+01  2.66628E+01  2.03203E+01  1.94120E+01  2.45059E+01
 NY points of the fit to the data follow
  -3.74703E+01 -3.73051E+01 -3.69546E+01 -3.61649E+01 -3.83976E+01 -4.25414E+01 -4.11883E+01 -3.45686E+01 -2.83529E+01 -2.42616E+01
  -2.05738E+01 -1.92305E+01 -2.21351E+01 -2.86441E+01 -3.29630E+01 -3.35759E+01 -3.34304E+01 -3.33134E+01 -3.31045E+01 -3.27666E+01
  -3.23638E+01 -3.18774E+01 -3.13836E+01 -3.11772E+01 -3.14407E+01 -3.20939E+01 -3.20649E+01 -3.08364E+01 -2.87659E+01 -2.64352E+01
  -2.42846E+01 -2.30810E+01 -2.33329E+01 -2.48917E+01 -2.69833E+01 -2.85784E+01 -2.94053E+01 -2.93887E+01 -2.87611E+01 -2.80591E+01
  -2.74858E+01 -2.71934E+01 -2.72240E+01 -2.71768E+01 -2.64185E+01 -2.50786E+01 -2.37931E+01 -2.31221E+01 -2.30873E+01 -2.35181E+01
  -2.43116E+01 -2.51655E+01 -2.55075E+01 -2.52239E+01 -2.47344E+01 -2.43397E+01 -2.39440E+01 -2.34041E+01 -2.27595E+01 -2.21945E+01
  -2.17974E+01 -2.16291E+01 -2.16508E+01 -2.17346E+01 -2.17744E+01 -2.16131E+01 -2.12783E+01 -2.09698E+01 -2.07257E+01 -2.04100E+01
  -2.01824E+01 -1.99496E+01 -1.93342E+01 -1.84966E+01 -1.78525E+01 -1.76300E+01 -1.77497E+01 -1.81588E+01 -1.86810E+01 -1.90273E+01
  -1.89626E+01 -1.86641E+01 -1.76417E+01 -1.57557E+01 -1.39823E+01 -1.31929E+01 -1.31175E+01 -1.34692E+01 -1.42185E+01 -1.52322E+01
  -1.60307E+01 -1.62020E+01 -1.60464E+01 -1.59924E+01 -1.59869E+01 -1.56351E+01 -1.49653E+01 -1.45457E+01 -1.52870E+01 -1.27342E+01
  -3.02439E+00  8.82771E+00  1.67310E+01  2.02010E+01  1.99886E+01  1.45382E+01  4.76314E+00 -4.94964E+00 -9.49330E+00 -1.01102E+01
  -1.01656E+01 -1.02371E+01 -1.02440E+01 -1.01386E+01 -9.96612E+00 -9.75327E+00 -9.54796E+00 -9.37221E+00 -9.18095E+00 -8.96926E+00
  -8.77784E+00 -8.80879E+00 -1.00466E+01 -7.94180E+00  3.38982E+00  1.83533E+01  2.89979E+01  3.38315E+01  3.41024E+01  2.80022E+01
   1.65954E+01  4.64524E+00 -1.50853E+00 -2.71555E+00 -3.34444E+00 -4.15864E+00 -4.85218E+00 -5.21901E+00 -5.04809E+00 -4.46893E+00
  -3.80670E+00 -3.31874E+00 -3.03286E+00 -2.99966E+00 -3.13405E+00 -3.32016E+00 -3.45032E+00 -3.50165E+00 -3.54678E+00 -3.59070E+00
  -3.60941E+00 -3.61325E+00 -3.61338E+00 -3.58336E+00 -3.48980E+00 -3.34077E+00 -3.12959E+00 -3.07405E+00 -3.30836E+00 -3.67059E+00
  -3.93457E+00 -3.86268E+00 -3.44748E+00 -2.91341E+00 -2.43327E+00 -2.09453E+00 -2.06356E+00 -2.29631E+00 -2.58813E+00 -2.73168E+00
  -2.63486E+00 -2.46258E+00 -2.44728E+00 -2.74419E+00 -3.01200E+00 -2.95568E+00 -2.58760E+00 -2.25129E+00 -2.03098E+00 -1.82773E+00
  -1.57602E+00 -1.45361E+00 -1.41845E+00 -1.40800E+00 -1.43515E+00 -1.31658E+00 -9.96750E-01 -4.43348E-01  4.28315E-01  1.55091E+00
   2.51217E+00  2.98079E+00  2.87674E+00  2.51759E+00  1.96802E+00  1.31251E+00  8.14721E-01  7.51695E-01  1.16038E+00  2.00838E+00
   3.27966E+00  4.83669E+00  6.34734E+00  7.28455E+00  7.49466E+00  7.10272E+00  5.71154E+00  3.42806E+00  1.48643E+00  5.70696E-01
   4.11630E-01  9.75723E-01  2.55959E+00  4.77445E+00  6.66171E+00  7.62682E+00  8.12742E+00  8.44126E+00  8.27312E+00  7.69394E+00
   7.18701E+00  7.17739E+00  7.57104E+00  8.15204E+00  8.87532E+00  9.68760E+00  1.03970E+01  1.07621E+01  1.06851E+01  1.04499E+01
   1.04260E+01  1.07153E+01  1.08791E+01  1.08802E+01  1.12941E+01  1.22456E+01  1.32142E+01  1.42064E+01  1.56265E+01  1.68652E+01
   1.72549E+01  1.68339E+01  1.63311E+01  1.59487E+01  1.57888E+01  1.60137E+01  1.67335E+01  1.76923E+01  1.86004E+01  1.94422E+01
   2.01862E+01  2.08259E+01  2.13152E+01  2.15443E+01  2.12872E+01  1.94765E+01  1.95816E+01  2.86877E+01  4.26392E+01  5.34545E+01
   5.86089E+01  5.96643E+01  5.45492E+01  4.35784E+01  3.08449E+01  2.32910E+01  2.13445E+01  2.05384E+01  1.97897E+01  1.91563E+01
   1.86423E+01  1.82340E+01  1.79396E+01  1.77491E+01  1.76197E+01  1.74923E+01  1.73536E+01  1.71957E+01  1.70287E+01  1.68716E+01
   1.67461E+01  1.66736E+01  1.66807E+01  1.67666E+01  1.69211E+01  1.71311E+01  1.73918E+01  1.76914E+01  1.80134E+01  1.83474E+01
   1.86967E+01  1.90562E+01  1.94160E+01  1.97665E+01  2.01040E+01  2.04196E+01  2.07043E+01  2.09483E+01  2.11464E+01  2.12879E+01
   2.13709E+01  2.13917E+01  2.13530E+01  2.12554E+01  2.11051E+01  2.09057E+01  2.06662E+01  2.03928E+01  2.00959E+01  1.97820E+01
   1.94611E+01  1.91391E+01  1.88246E+01  1.85215E+01  1.82365E+01  1.79713E+01  1.77302E+01  1.75128E+01  1.73217E+01  1.71547E+01
   1.70130E+01  1.68935E+01  1.67967E+01  1.67191E+01  1.66609E+01  1.66187E+01  1.65927E+01  1.65794E+01  1.65795E+01  1.65900E+01
   1.66120E+01  1.66429E+01  1.66841E+01  1.67332E+01  1.67923E+01  1.68593E+01  1.69367E+01  1.70229E+01  1.71204E+01  1.72282E+01
   1.73493E+01  1.74830E+01  1.76325E+01  1.77972E+01  1.79807E+01  1.81826E+01  1.84064E+01  1.86516E+01  1.89214E+01  1.92149E+01
   1.95344E+01  1.98781E+01  2.02473E+01  2.06387E+01  2.10521E+01  2.14825E+01  2.19279E+01  2.23819E+01  2.28408E+01  2.32967E+01
   2.37450E+01  2.41772E+01  2.45886E+01  2.49712E+01  2.53216E+01  2.56332E+01  2.59047E+01  2.61324E+01  2.63180E+01  2.64611E+01
   2.65666E+01  2.66374E+01  2.66815E+01  2.67044E+01  2.67165E+01  2.67250E+01  2.67412E+01  2.67729E+01  2.68311E+01  2.69228E+01
   2.70576E+01  2.72405E+01  2.74786E+01  2.77737E+01  2.81296E+01  2.85445E+01  2.90180E+01  2.95443E+01  3.01185E+01  3.07305E+01
   3.13718E+01  3.20285E+01  3.26890E+01  3.33369E+01  3.39589E+01  3.45382E+01  3.50621E+01  3.55154E+01  3.58880E+01  3.61685E+01
   3.63512E+01  3.64302E+01  3.64056E+01  3.62772E+01  3.60507E+01  3.57314E+01  3.53297E+01  3.48547E+01  3.43199E+01  3.37361E+01
   3.31177E+01  3.24754E+01  3.18226E+01  3.11682E+01  3.05234E+01  2.98945E+01  2.92896E+01  2.87121E+01  2.81672E+01  2.76558E+01
   2.71806E+01  2.67403E+01  2.63359E+01  2.59648E+01  2.56270E+01  2.53190E+01  2.50405E+01  2.47874E+01  2.45594E+01  2.43527E+01
   2.41670E+01  2.39987E+01  2.38476E+01  2.37105E+01  2.35876E+01  2.34760E+01  2.33760E+01  2.32851E+01  2.32038E+01  2.31296E+01
   2.30634E+01  2.30031E+01  2.29495E+01  2.29005E+01  2.28572E+01  2.28176E+01  2.27830E+01  2.27514E+01  2.27241E+01  2.26992E+01
   2.26780E+01  2.26588E+01  2.26428E+01  2.26285E+01  2.26172E+01  2.26070E+01  2.25995E+01  2.25930E+01  2.25890E+01  2.25857E+01
   2.25846E+01  2.25840E+01  2.25855E+01  2.25874E+01  2.25912E+01  2.25954E+01  2.26012E+01  2.26072E+01  2.26148E+01  2.26226E+01
   2.26319E+01  2.26412E+01  2.26519E+01  2.26625E+01  2.26746E+01  2.26865E+01  2.26998E+01  2.27128E+01  2.27271E+01  2.27412E+01
   2.27565E+01  2.27715E+01  2.27877E+01  2.28035E+01  2.28205E+01  2.28371E+01  2.28548E+01  2.28722E+01  2.28906E+01  2.29086E+01
   2.29276E+01  2.29462E+01  2.29658E+01  2.29849E+01  2.30050E+01  2.30246E+01  2.30451E+01  2.30652E+01
 NY background values follow
    -3.803E+01   -3.779E+01   -3.754E+01   -3.730E+01   -3.706E+01   -3.682E+01   -3.658E+01   -3.634E+01   -3.610E+01   -3.586E+01
    -3.561E+01   -3.537E+01   -3.513E+01   -3.489E+01   -3.465E+01   -3.441E+01   -3.417E+01   -3.393E+01   -3.369E+01   -3.345E+01
    -3.320E+01   -3.296E+01   -3.272E+01   -3.248E+01   -3.224E+01   -3.200E+01   -3.176E+01   -3.152E+01   -3.128E+01   -3.104E+01
    -3.080E+01   -3.056E+01   -3.033E+01   -3.009E+01   -2.985E+01   -2.961E+01   -2.937E+01   -2.913E+01   -2.889E+01   -2.866E+01
    -2.842E+01   -2.818E+01   -2.794E+01   -2.771E+01   -2.747E+01   -2.723E+01   -2.700E+01   -2.676E+01   -2.652E+01   -2.629E+01
    -2.605E+01   -2.582E+01   -2.558E+01   -2.535E+01   -2.512E+01   -2.488E+01   -2.465E+01   -2.442E+01   -2.418E+01   -2.395E+01
    -2.372E+01   -2.349E+01   -2.326E+01   -2.303E+01   -2.280E+01   -2.257E+01   -2.234E+01   -2.211E+01   -2.188E+01   -2.165E+01
    -2.143E+01   -2.120E+01   -2.097E+01   -2.075E+01   -2.052E+01   -2.030E+01   -2.007E+01   -1.985E+01   -1.962E+01   -1.940E+01
    -1.918E+01   -1.896E+01   -1.874E+01   -1.852E+01   -1.830E+01   -1.808E+01   -1.786E+01   -1.764E+01   -1.743E+01   -1.721E+01
    -1.699E+01   -1.678E+01   -1.656E+01   -1.635E+01   -1.614E+01   -1.592E+01   -1.571E+01   -1.550E+01   -1.529E+01   -1.508E+01
    -1.487E+01   -1.466E+01   -1.446E+01   -1.425E+01   -1.404E+01   -1.384E+01   -1.363E+01   -1.343E+01   -1.323E+01   -1.302E+01
    -1.282E+01   -1.262E+01   -1.242E+01   -1.222E+01   -1.202E+01   -1.182E+01   -1.163E+01   -1.143E+01   -1.123E+01   -1.104E+01
    -1.085E+01   -1.065E+01   -1.046E+01   -1.027E+01   -1.008E+01   -9.885E+00   -9.695E+00   -9.506E+00   -9.318E+00   -9.131E+00
    -8.944E+00   -8.758E+00   -8.573E+00   -8.389E+00   -8.205E+00   -8.022E+00   -7.840E+00   -7.659E+00   -7.479E+00   -7.299E+00
    -7.120E+00   -6.942E+00   -6.765E+00   -6.588E+00   -6.413E+00   -6.238E+00   -6.064E+00   -5.890E+00   -5.718E+00   -5.546E+00
    -5.375E+00   -5.205E+00   -5.035E+00   -4.866E+00   -4.698E+00   -4.531E+00   -4.365E+00   -4.199E+00   -4.034E+00   -3.870E+00
    -3.707E+00   -3.544E+00   -3.382E+00   -3.221E+00   -3.061E+00   -2.901E+00   -2.742E+00   -2.584E+00   -2.427E+00   -2.270E+00
    -2.114E+00   -1.959E+00   -1.805E+00   -1.651E+00   -1.498E+00   -1.346E+00   -1.195E+00   -1.044E+00   -8.939E-01   -7.446E-01
    -5.962E-01   -4.484E-01   -3.013E-01   -1.550E-01   -9.439E-03    1.354E-01    2.796E-01    4.230E-01    5.657E-01    7.077E-01
     8.490E-01    9.896E-01    1.129E+00    1.269E+00    1.407E+00    1.545E+00    1.682E+00    1.818E+00    1.954E+00    2.089E+00
     2.223E+00    2.357E+00    2.490E+00    2.622E+00    2.753E+00    2.884E+00    3.015E+00    3.144E+00    3.273E+00    3.401E+00
     3.529E+00    3.655E+00    3.782E+00    3.907E+00    4.032E+00    4.156E+00    4.280E+00    4.402E+00    4.525E+00    4.646E+00
     4.767E+00    4.887E+00    5.007E+00    5.126E+00    5.244E+00    5.362E+00    5.479E+00    5.596E+00    5.711E+00    5.827E+00
     5.941E+00    6.055E+00    6.168E+00    6.281E+00    6.393E+00    6.504E+00    6.615E+00    6.726E+00    6.835E+00    6.944E+00
     7.053E+00    7.160E+00    7.268E+00    7.374E+00    7.480E+00    7.586E+00    7.691E+00    7.795E+00    7.898E+00    8.002E+00
     8.104E+00    8.206E+00    8.307E+00    8.408E+00    8.508E+00    8.608E+00    8.707E+00    8.806E+00    8.904E+00    9.001E+00
     9.098E+00    9.194E+00    9.290E+00    9.385E+00    9.480E+00    9.574E+00    9.668E+00    9.761E+00    9.853E+00    9.945E+00
     1.004E+01    1.013E+01    1.022E+01    1.031E+01    1.040E+01    1.049E+01    1.057E+01    1.066E+01    1.075E+01    1.084E+01
     1.092E+01    1.101E+01    1.109E+01    1.118E+01    1.126E+01    1.135E+01    1.143E+01    1.151E+01    1.160E+01    1.168E+01
     1.176E+01    1.184E+01    1.192E+01    1.200E+01    1.208E+01    1.216E+01    1.224E+01    1.232E+01    1.240E+01    1.247E+01
     1.255E+01    1.263E+01    1.270E+01    1.278E+01    1.285E+01    1.293E+01    1.300E+01    1.308E+01    1.315E+01    1.323E+01
     1.330E+01    1.337E+01    1.344E+01    1.352E+01    1.359E+01    1.366E+01    1.373E+01    1.380E+01    1.387E+01    1.394E+01
     1.401E+01    1.408E+01    1.415E+01    1.422E+01    1.428E+01    1.435E+01    1.442E+01    1.449E+01    1.455E+01    1.462E+01
     1.468E+01    1.475E+01    1.481E+01    1.488E+01    1.494E+01    1.501E+01    1.507E+01    1.514E+01    1.520E+01    1.526E+01
     1.532E+01    1.539E+01    1.545E+01    1.551E+01    1.557E+01    1.563E+01    1.569E+01    1.575E+01    1.581E+01    1.587E+01
     1.593E+01    1.599E+01    1.605E+01    1.611E+01    1.616E+01    1.622E+01    1.628E+01    1.634E+01    1.639E+01    1.645E+01
     1.650E+01    1.656E+01    1.662E+01    1.667E+01    1.673E+01    1.678E+01    1.683E+01    1.689E+01    1.694E+01    1.700E+01
     1.705E+01    1.710E+01    1.715E+01    1.721E+01    1.726E+01    1.731E+01    1.736E+01    1.741E+01    1.746E+01    1.751E+01
     1.756E+01    1.761E+01    1.766E+01    1.771E+01    1.776E+01    1.781E+01    1.786E+01    1.790E+01    1.795E+01    1.800E+01
     1.805E+01    1.809E+01    1.814E+01    1.819E+01    1.823E+01    1.828E+01    1.832E+01    1.837E+01    1.841E+01    1.846E+01
     1.850E+01    1.855E+01    1.859E+01    1.863E+01    1.868E+01    1.872E+01    1.876E+01    1.881E+01    1.885E+01    1.889E+01
     1.893E+01    1.897E+01    1.901E+01    1.906E+01    1.910E+01    1.914E+01    1.918E+01    1.922E+01    1.926E+01    1.930E+01
     1.934E+01    1.938E+01    1.941E+01    1.945E+01    1.949E+01    1.953E+01    1.957E+01    1.961E+01    1.964E+01    1.968E+01
     1.972E+01    1.976E+01    1.979E+01    1.983E+01    1.987E+01    1.990E+01    1.994E+01    1.998E+01    2.001E+01    2.005E+01
     2.008E+01    2.012E+01    2.016E+01    2.019E+01    2.023E+01    2.026E+01    2.030E+01    2.033E+01    2.037E+01    2.040E+01
     2.044E+01    2.047E+01    2.051E+01    2.054E+01    2.057E+01    2.061E+01    2.064E+01    2.068E+01    2.071E+01    2.074E+01
     2.078E+01    2.081E+01    2.085E+01    2.088E+01    2.091E+01    2.095E+01    2.098E+01    2.101E+01    2.105E+01    2.108E+01
     2.111E+01    2.115E+01    2.118E+01    2.121E+01    2.125E+01    2.128E+01    2.131E+01    2.134E+01    2.138E+01    2.141E+01
     2.144E+01    2.148E+01    2.151E+01    2.154E+01    2.157E+01    2.161E+01    2.164E+01    2.167E+01    2.171E+01    2.174E+01
     2.177E+01    2.180E+01    2.184E+01    2.187E+01    2.190E+01    2.193E+01    2.197E+01    2.200E+01
 Asp      Conc. = 5.99E+01
