 LCModel (Version 6.3-1L) Copyright: S.W. Provencher.          Ref.: Magn. Reson. Med. 30:672-679 (1993).                
 Slice#2 Row#11 Col#3  PD_05_press_2_raw_act
 36 lines in following concentration table = NCONC+1
    Conc.  %SD /Cr+PCr  Metabolite                                         
  494.178  63%   3.579 Ala                                                 
    6.917  65% 5.0E-02 Asp                                                 
    0.000 999%   0.000 Cr                                                  
  138.093  44%   1.000 PCr                                                 
    4.077  66% 3.0E-02 GABA                                                
    4.121  65% 3.0E-02 Glc                                                 
    0.000 999%   0.000 Gln                                                 
   54.019 827%   0.391 Glu                                                 
    0.000 999%   0.000 GPC                                                 
    0.000 999%   0.000 PCh                                                 
    0.000 999%   0.000 GSH                                                 
    0.000 999%   0.000 Ins                                                 
    0.000 999%   0.000 Lac                                                 
    0.000 999%   0.000 NAA                                                 
    0.000 999%   0.000 NAAG                                                
    1.354  66% 9.8E-03 Scyllo                                              
    6.784  66% 4.9E-02 Tau                                                 
   13.339  52% 9.7E-02 -CrCH2                                              
    0.000 999%   0.000 GPC+PCh                                             
    0.000 999%   0.000 NAA+NAAG                                            
  138.093  44%   1.000 Cr+PCr                                              
   54.019 827%   0.391 Glu+Gln                                             
    0.000 999%   0.000 Lip13a                                              
    0.000 999%   0.000 Lip13b                                              
    0.000 999%   0.000 Lip09                                               
  294.565  43%   2.133 MM09                                                
    0.000 999%   0.000 Lip20                                               
    0.000 999%   0.000 MM20                                                
    0.000 999%   0.000 MM12                                                
 4.66E+03   5%  33.759 MM14                                                
 3.29E+03  11%  23.851+MM17                                                
    0.000 999%   0.000 Lip13a+Lip13b                                       
 4.66E+03   5%  33.759 MM14+Lip13a+Lip13b+MM12                             
  294.565  43%   2.133 MM09+Lip09                                          
    0.000 999%   0.000 MM20+Lip20                                          
   6 lines in following misc. output table
  FWHM = 0.107 ppm    S/N =   8                                            
  Data shift = 0.122 ppm                                                   
  Ph: 136 deg     -14.4 deg/ppm                                            
  alphaB,S = 2.6E+00,   3.4E+01                                            
    7 spline knots.   Ns = 9(2)                                            
  ( 4) 2 infls.   ( 2) 1 extrs.                                            
  498 points on ppm-axis = NY
      4.000000     3.992357     3.984714     3.977070     3.969427     3.961784     3.954141     3.946497     3.938854     3.931211
      3.923568     3.915925     3.908281     3.900638     3.892995     3.885352     3.877708     3.870065     3.862422     3.854779
      3.847136     3.839492     3.831849     3.824206     3.816563     3.808919     3.801276     3.793633     3.785990     3.778347
      3.770703     3.763060     3.755417     3.747774     3.740130     3.732487     3.724844     3.717201     3.709558     3.701914
      3.694271     3.686628     3.678985     3.671341     3.663698     3.656055     3.648412     3.640769     3.633125     3.625482
      3.617839     3.610196     3.602552     3.594909     3.587266     3.579623     3.571980     3.564336     3.556693     3.549050
      3.541407     3.533763     3.526120     3.518477     3.510834     3.503191     3.495547     3.487904     3.480261     3.472618
      3.464974     3.457331     3.449688     3.442045     3.434402     3.426758     3.419115     3.411472     3.403829     3.396185
      3.388542     3.380899     3.373256     3.365613     3.357969     3.350326     3.342683     3.335040     3.327396     3.319753
      3.312110     3.304467     3.296824     3.289180     3.281537     3.273894     3.266251     3.258607     3.250964     3.243321
      3.235678     3.228034     3.220391     3.212748     3.205105     3.197462     3.189818     3.182175     3.174532     3.166889
      3.159245     3.151602     3.143959     3.136316     3.128673     3.121029     3.113386     3.105743     3.098100     3.090456
      3.082813     3.075170     3.067527     3.059884     3.052240     3.044597     3.036954     3.029311     3.021667     3.014024
      3.006381     2.998738     2.991095     2.983451     2.975808     2.968165     2.960522     2.952878     2.945235     2.937592
      2.929949     2.922306     2.914662     2.907019     2.899376     2.891733     2.884089     2.876446     2.868803     2.861160
      2.853517     2.845873     2.838230     2.830587     2.822944     2.815300     2.807657     2.800014     2.792371     2.784728
      2.777084     2.769441     2.761798     2.754155     2.746511     2.738868     2.731225     2.723582     2.715939     2.708295
      2.700652     2.693009     2.685366     2.677722     2.670079     2.662436     2.654793     2.647150     2.639506     2.631863
      2.624220     2.616577     2.608933     2.601290     2.593647     2.586004     2.578361     2.570717     2.563074     2.555431
      2.547788     2.540144     2.532501     2.524858     2.517215     2.509572     2.501928     2.494285     2.486642     2.478999
      2.471355     2.463712     2.456069     2.448426     2.440783     2.433139     2.425496     2.417853     2.410210     2.402566
      2.394923     2.387280     2.379637     2.371994     2.364350     2.356707     2.349064     2.341421     2.333777     2.326134
      2.318491     2.310848     2.303205     2.295561     2.287918     2.280275     2.272632     2.264988     2.257345     2.249702
      2.242059     2.234416     2.226772     2.219129     2.211486     2.203843     2.196199     2.188556     2.180913     2.173270
      2.165627     2.157983     2.150340     2.142697     2.135054     2.127410     2.119767     2.112124     2.104481     2.096838
      2.089194     2.081551     2.073908     2.066265     2.058621     2.050978     2.043335     2.035692     2.028049     2.020405
      2.012762     2.005119     1.997476     1.989833     1.982190     1.974546     1.966903     1.959260     1.951617     1.943974
      1.936331     1.928688     1.921045     1.913402     1.905759     1.898115     1.890472     1.882829     1.875186     1.867543
      1.859900     1.852257     1.844614     1.836971     1.829327     1.821684     1.814041     1.806398     1.798755     1.791112
      1.783469     1.775826     1.768183     1.760540     1.752896     1.745253     1.737610     1.729967     1.722324     1.714681
      1.707038     1.699395     1.691752     1.684108     1.676465     1.668822     1.661179     1.653536     1.645893     1.638250
      1.630607     1.622964     1.615321     1.607677     1.600034     1.592391     1.584748     1.577105     1.569462     1.561819
      1.554176     1.546533     1.538890     1.531246     1.523603     1.515960     1.508317     1.500674     1.493031     1.485388
      1.477745     1.470102     1.462458     1.454815     1.447172     1.439529     1.431886     1.424243     1.416600     1.408957
      1.401314     1.393671     1.386027     1.378384     1.370741     1.363098     1.355455     1.347812     1.340169     1.332526
      1.324883     1.317240     1.309596     1.301953     1.294310     1.286667     1.279024     1.271381     1.263738     1.256095
      1.248452     1.240808     1.233165     1.225522     1.217879     1.210236     1.202593     1.194950     1.187307     1.179664
      1.172021     1.164377     1.156734     1.149091     1.141448     1.133805     1.126162     1.118519     1.110876     1.103233
      1.095590     1.087946     1.080303     1.072660     1.065017     1.057374     1.049731     1.042088     1.034445     1.026802
      1.019158     1.011515     1.003872     0.996229     0.988586     0.980943     0.973300     0.965657     0.958014     0.950371
      0.942727     0.935084     0.927441     0.919798     0.912155     0.904512     0.896869     0.889226     0.881583     0.873940
      0.866296     0.858653     0.851010     0.843367     0.835724     0.828081     0.820438     0.812795     0.805152     0.797508
      0.789865     0.782222     0.774579     0.766936     0.759293     0.751650     0.744007     0.736364     0.728721     0.721077
      0.713434     0.705791     0.698148     0.690505     0.682862     0.675219     0.667576     0.659933     0.652290     0.644646
      0.637003     0.629360     0.621717     0.614074     0.606431     0.598788     0.591145     0.583502     0.575858     0.568215
      0.560572     0.552929     0.545286     0.537643     0.530000     0.522357     0.514714     0.507071     0.499427     0.491784
      0.484141     0.476498     0.468855     0.461212     0.453569     0.445925     0.438282     0.430639     0.422996     0.415353
      0.407710     0.400067     0.392424     0.384780     0.377137     0.369494     0.361851     0.354208     0.346565     0.338922
      0.331278     0.323635     0.315992     0.308349     0.300706     0.293063     0.285420     0.277777     0.270133     0.262490
      0.254847     0.247204     0.239561     0.231918     0.224275     0.216631     0.208988     0.201345
 NY phased data points follow
   1.04427E+02  1.00422E+02  1.02917E+02  9.80684E+01  1.01397E+02  1.00354E+02  1.00868E+02  9.52540E+01  9.80892E+01  9.56370E+01
   9.12760E+01  8.89724E+01  9.21244E+01  9.15748E+01  8.90750E+01  9.04063E+01  8.71360E+01  8.58102E+01  8.49599E+01  8.35464E+01
   8.10450E+01  8.81676E+01  8.11359E+01  8.09200E+01  8.57756E+01  8.71315E+01  7.70485E+01  7.93055E+01  7.67561E+01  7.43549E+01
   7.64198E+01  7.24844E+01  7.06348E+01  7.37722E+01  7.44572E+01  7.20151E+01  7.65902E+01  7.13961E+01  7.09979E+01  6.74791E+01
   6.82612E+01  6.65294E+01  6.76092E+01  6.95881E+01  6.95018E+01  6.52836E+01  7.02147E+01  6.56132E+01  6.50781E+01  6.60845E+01
   6.67987E+01  6.77970E+01  6.78942E+01  6.36144E+01  6.33046E+01  6.55622E+01  6.64578E+01  6.18290E+01  6.20848E+01  6.45629E+01
   6.26965E+01  5.85008E+01  6.03678E+01  6.02743E+01  5.94673E+01  6.00123E+01  5.93647E+01  5.68709E+01  5.99387E+01  5.42412E+01
   5.59916E+01  5.70955E+01  5.36058E+01  5.14394E+01  5.37543E+01  5.15785E+01  5.53643E+01  5.22078E+01  5.04176E+01  5.39292E+01
   5.51570E+01  5.20990E+01  5.44084E+01  5.31649E+01  4.90739E+01  4.47674E+01  4.46743E+01  4.64355E+01  4.55198E+01  4.78850E+01
   4.89399E+01  4.41633E+01  4.98448E+01  4.88237E+01  4.70367E+01  4.77249E+01  4.75826E+01  4.47783E+01  4.27344E+01  4.30698E+01
   4.47061E+01  4.34483E+01  4.55887E+01  4.68617E+01  4.49199E+01  4.10358E+01  4.71389E+01  4.53038E+01  3.91234E+01  4.33329E+01
   3.80265E+01  4.15381E+01  3.98065E+01  3.83665E+01  4.17879E+01  3.83873E+01  3.89282E+01  3.60090E+01  4.10254E+01  4.14993E+01
   3.77142E+01  4.57768E+01  3.94672E+01  3.99206E+01  3.43625E+01  3.83826E+01  4.07655E+01  3.69028E+01  3.76545E+01  3.46851E+01
   3.84705E+01  3.54461E+01  3.50081E+01  3.26920E+01  3.57304E+01  3.45526E+01  3.46822E+01  3.07192E+01  3.57787E+01  3.34782E+01
   2.98243E+01  3.18169E+01  3.63535E+01  3.40344E+01  3.28497E+01  3.13899E+01  3.09703E+01  3.22652E+01  3.24927E+01  2.83931E+01
   2.94555E+01  3.24368E+01  2.98925E+01  3.25989E+01  2.97239E+01  3.09463E+01  2.94778E+01  2.66536E+01  3.16314E+01  2.74452E+01
   2.65265E+01  2.91048E+01  2.88958E+01  2.76123E+01  2.74669E+01  3.03727E+01  2.93878E+01  2.85214E+01  3.11000E+01  2.41097E+01
   2.82864E+01  2.78528E+01  2.76537E+01  2.93277E+01  2.56439E+01  2.50644E+01  2.71801E+01  2.89063E+01  2.69577E+01  2.35019E+01
   2.87279E+01  2.54360E+01  2.48423E+01  2.70496E+01  2.55620E+01  2.32118E+01  2.49097E+01  2.48633E+01  2.87434E+01  2.29506E+01
   2.50680E+01  2.69913E+01  2.72381E+01  2.58051E+01  2.36448E+01  2.38921E+01  2.49634E+01  2.31462E+01  2.50839E+01  2.39016E+01
   2.64411E+01  2.46191E+01  2.19918E+01  2.57039E+01  1.91655E+01  2.74723E+01  2.77984E+01  1.96715E+01  2.36882E+01  2.05916E+01
   1.91652E+01  2.32434E+01  2.23377E+01  2.20756E+01  1.69265E+01  1.93305E+01  1.84745E+01  1.59997E+01  2.16026E+01  1.71578E+01
   1.47061E+01  1.88435E+01  1.88681E+01  1.66253E+01  1.71374E+01  2.04958E+01  1.66388E+01  1.99426E+01  1.31628E+01  1.57012E+01
   1.54171E+01  1.66240E+01  1.26167E+01  1.01697E+01  1.54291E+01  1.15224E+01  1.52687E+01  1.38966E+01  9.93058E+00  1.70653E+01
   9.47207E+00  1.00894E+01  8.08304E+00  7.92585E+00  7.00620E+00  8.01034E+00  5.21491E+00  6.66777E+00  9.74940E+00  9.18763E+00
   7.09440E+00  8.56560E+00  8.55523E+00  7.75753E+00  1.10131E+01  8.09040E+00  6.81684E+00  9.15644E+00  1.03671E+01  7.48771E+00
   9.70664E+00  8.87564E+00  8.61881E+00  9.78786E+00  1.21757E+01  1.15755E+01  6.80359E+00  7.20777E+00  8.19167E+00  6.81542E+00
   1.35246E+01  7.48739E+00  5.62711E+00  1.22476E+01  1.30433E+01  5.12809E+00  7.60494E+00  8.93602E+00  1.12585E+01  1.10286E+01
   1.36054E+01  1.10873E+01  8.31694E+00  1.30731E+01  1.32032E+01  1.32718E+01  9.56971E+00  1.30716E+01  1.59026E+01  1.42742E+01
   1.90764E+01  1.77528E+01  1.26044E+01  1.75769E+01  2.03297E+01  1.72835E+01  1.71718E+01  1.97974E+01  2.21498E+01  2.56421E+01
   2.93591E+01  2.90334E+01  3.36841E+01  3.12468E+01  3.70863E+01  3.78880E+01  3.73957E+01  3.95266E+01  4.36487E+01  4.01483E+01
   4.49444E+01  4.62464E+01  4.71102E+01  4.80079E+01  4.84413E+01  5.23453E+01  4.86407E+01  5.11991E+01  5.17598E+01  4.99091E+01
   4.80033E+01  4.46238E+01  4.66544E+01  4.13703E+01  4.11766E+01  3.73639E+01  3.40568E+01  3.41191E+01  3.53149E+01  3.13863E+01
   2.65515E+01  2.83463E+01  2.31218E+01  1.95337E+01  1.80588E+01  1.77728E+01  1.59054E+01  1.27152E+01  1.16355E+01  1.14202E+01
   1.27695E+01  4.19759E+00  6.60467E+00  8.81910E+00  4.56126E+00  4.76451E+00  9.85443E-01  2.55445E+00  6.58517E+00  8.32667E+00
   6.92703E-01  1.56375E+00  9.44142E-01  2.47828E+00  3.58357E+00  5.69993E+00  2.24115E-01  9.01167E-02  4.00124E+00  6.14938E-01
   2.53518E-01  2.81257E+00 -1.05332E+00 -2.27934E+00  2.18271E+00  2.11709E+00  4.34252E+00  5.44579E+00  2.97892E+00  4.09639E+00
   5.72688E+00  2.19847E+00  1.59803E+00 -1.66641E+00  1.15830E+00  6.71409E+00 -9.39715E-02  3.21228E+00 -3.71125E-02  4.08704E+00
   5.23193E+00  3.65363E+00  5.19569E+00  1.14467E+00  5.89586E+00  2.99139E+00  2.88368E+00  4.96977E+00  2.45784E+00  4.43076E+00
   3.01473E-01  4.60430E+00  1.00750E+00  4.42663E+00  1.74073E+00  4.57214E+00  1.17805E+00  7.72017E-01  1.85277E+00  2.23587E+00
   3.29407E+00  7.69773E+00  6.06891E+00  6.26465E-01  7.10685E+00  5.90796E+00  5.94540E+00  3.20595E+00  2.11513E+00  4.85362E+00
   1.83475E+00  4.38682E+00  4.75046E+00  4.70974E+00  3.45322E+00  4.01128E+00  6.69418E+00  5.22528E+00  5.04792E+00  1.43362E+00
   6.88957E+00  6.11384E+00  3.36716E+00  9.39947E-01  4.93446E+00  6.45957E+00  2.88903E+00  5.70607E+00  5.14204E+00  7.51411E+00
   9.82264E+00  6.39085E+00  5.13753E+00  6.47129E+00  4.64125E+00  4.91637E+00  3.67303E+00  6.52852E+00  3.84392E+00  2.20303E+00
   3.23195E+00  4.55100E+00  4.81266E+00  6.92591E+00  1.56654E+00  5.19930E+00  5.50513E+00  3.37198E+00  9.89223E-01  6.32435E+00
   1.15986E+00  3.68999E+00  5.37601E-01  3.29171E+00  4.12216E+00  2.89871E+00  5.86366E+00  5.77498E+00  4.90017E+00  3.55918E+00
   6.09792E+00  2.58506E+00 -2.02895E-01  5.03897E+00  4.51755E+00  5.48826E+00  3.86350E+00  2.69426E+00  2.72313E+00  1.18601E+00
   5.04934E+00  5.17087E+00  6.13183E+00  1.27609E+00 -2.06716E-01  5.29652E-01  6.96764E+00  3.72556E+00  1.69238E+00  2.65723E+00
   5.21246E+00  3.32439E+00  1.73282E+00  1.13711E+00  6.25368E-01  4.14784E+00  1.71645E+00  2.25744E+00  2.18978E+00  2.75489E-01
   2.72874E+00  9.48709E-01  1.83980E+00  3.27225E+00  5.32054E-01 -3.53557E+00  1.48010E+00 -8.11354E-01
 NY points of the fit to the data follow
   9.95321E+01  9.90253E+01  9.82987E+01  9.76270E+01  9.68059E+01  9.60014E+01  9.51023E+01  9.42456E+01  9.33621E+01  9.25787E+01
   9.17371E+01  9.10286E+01  9.02027E+01  8.95358E+01  8.86606E+01  8.79521E+01  8.69636E+01  8.62777E+01  8.52092E+01  8.45737E+01
   8.35530E+01  8.30267E+01  8.21387E+01  8.16654E+01  8.09162E+01  8.04772E+01  7.97970E+01  7.92682E+01  7.86038E+01  7.79879E+01
   7.73523E+01  7.67047E+01  7.61564E+01  7.55222E+01  7.50373E+01  7.44021E+01  7.39236E+01  7.32646E+01  7.27272E+01  7.20183E+01
   7.14500E+01  7.07834E+01  7.02339E+01  6.96284E+01  6.91249E+01  6.85978E+01  6.81376E+01  6.76241E+01  6.71359E+01  6.66225E+01
   6.61195E+01  6.55956E+01  6.50800E+01  6.45565E+01  6.40553E+01  6.35557E+01  6.30680E+01  6.25814E+01  6.21034E+01  6.16311E+01
   6.11582E+01  6.06975E+01  6.02293E+01  5.97768E+01  5.93173E+01  5.88726E+01  5.84219E+01  5.79826E+01  5.75385E+01  5.71036E+01
   5.66685E+01  5.62400E+01  5.58171E+01  5.53966E+01  5.49869E+01  5.45746E+01  5.41760E+01  5.37698E+01  5.33769E+01  5.29744E+01
   5.25816E+01  5.21821E+01  5.17914E+01  5.13979E+01  5.10122E+01  5.06268E+01  5.02474E+01  4.98707E+01  4.94967E+01  4.91274E+01
   4.87573E+01  4.83960E+01  4.80302E+01  4.76759E+01  4.73180E+01  4.69707E+01  4.66211E+01  4.62802E+01  4.59394E+01  4.56031E+01
   4.52674E+01  4.49346E+01  4.46042E+01  4.42748E+01  4.39488E+01  4.36234E+01  4.33022E+01  4.29789E+01  4.26392E+01  4.22508E+01
   4.19535E+01  4.16475E+01  4.14397E+01  4.13467E+01  4.12135E+01  4.13827E+01  4.12459E+01  4.16055E+01  4.13585E+01  4.17317E+01
   4.12873E+01  4.14556E+01  4.08523E+01  4.08105E+01  4.01377E+01  3.99535E+01  3.92858E+01  3.90337E+01  3.83813E+01  3.80282E+01
   3.74073E+01  3.69636E+01  3.64035E+01  3.59120E+01  3.54744E+01  3.50881E+01  3.47567E+01  3.44777E+01  3.42068E+01  3.40089E+01
   3.37173E+01  3.34555E+01  3.31604E+01  3.28939E+01  3.25996E+01  3.23103E+01  3.20317E+01  3.17539E+01  3.14977E+01  3.12482E+01
   3.09995E+01  3.07551E+01  3.05096E+01  3.02699E+01  3.00281E+01  2.97930E+01  2.95552E+01  2.93244E+01  2.90903E+01  2.88632E+01
   2.86322E+01  2.84081E+01  2.81800E+01  2.79583E+01  2.77329E+01  2.75131E+01  2.72901E+01  2.70720E+01  2.68513E+01  2.66346E+01
   2.64166E+01  2.62017E+01  2.59863E+01  2.57740E+01  2.55617E+01  2.53525E+01  2.51425E+01  2.49361E+01  2.47280E+01  2.45234E+01
   2.43172E+01  2.41136E+01  2.39100E+01  2.37081E+01  2.35079E+01  2.33081E+01  2.31113E+01  2.29142E+01  2.27204E+01  2.25274E+01
   2.23368E+01  2.21475E+01  2.19620E+01  2.17742E+01  2.15918E+01  2.14025E+01  2.12184E+01  2.10254E+01  2.08343E+01  2.06459E+01
   2.04579E+01  2.02805E+01  2.01075E+01  1.99403E+01  1.97914E+01  1.96205E+01  1.94812E+01  1.92870E+01  1.91397E+01  1.89164E+01
   1.87504E+01  1.85154E+01  1.83414E+01  1.81189E+01  1.79523E+01  1.77557E+01  1.76048E+01  1.74298E+01  1.72800E+01  1.71162E+01
   1.69595E+01  1.68038E+01  1.66428E+01  1.65008E+01  1.63501E+01  1.62202E+01  1.60753E+01  1.59454E+01  1.57988E+01  1.56537E+01
   1.54927E+01  1.53340E+01  1.51726E+01  1.50087E+01  1.48550E+01  1.46950E+01  1.45570E+01  1.44026E+01  1.42688E+01  1.41133E+01
   1.39807E+01  1.38243E+01  1.36883E+01  1.35335E+01  1.33962E+01  1.32500E+01  1.31113E+01  1.29755E+01  1.28337E+01  1.27064E+01
   1.25619E+01  1.24403E+01  1.22989E+01  1.21816E+01  1.20457E+01  1.19294E+01  1.17973E+01  1.16803E+01  1.15472E+01  1.14284E+01
   1.12967E+01  1.11794E+01  1.10515E+01  1.09381E+01  1.08185E+01  1.07105E+01  1.05973E+01  1.04940E+01  1.03868E+01  1.02896E+01
   1.01897E+01  1.01013E+01  1.00141E+01  9.93772E+00  9.86751E+00  9.80900E+00  9.76282E+00  9.73053E+00  9.71709E+00  9.72524E+00
   9.76085E+00  9.82977E+00  9.93935E+00  1.00984E+01  1.03150E+01  1.06004E+01  1.09637E+01  1.14167E+01  1.19688E+01  1.26318E+01
   1.34129E+01  1.43210E+01  1.53592E+01  1.65304E+01  1.78311E+01  1.92565E+01  2.07949E+01  2.24330E+01  2.41519E+01  2.59318E+01
   2.77494E+01  2.95825E+01  3.14077E+01  3.32049E+01  3.49551E+01  3.66437E+01  3.82572E+01  3.97845E+01  4.12055E+01  4.25228E+01
   4.39221E+01  4.52191E+01  4.65329E+01  4.78151E+01  4.88002E+01  4.99075E+01  5.02325E+01  5.07124E+01  4.99613E+01  4.96439E+01
   4.78340E+01  4.67695E+01  4.43696E+01  4.29071E+01  4.03587E+01  3.87332E+01  3.63032E+01  3.45413E+01  3.22323E+01  3.00914E+01
   2.78403E+01  2.54337E+01  2.33319E+01  2.09415E+01  1.91869E+01  1.71787E+01  1.57460E+01  1.40389E+01  1.27955E+01  1.12955E+01
   1.00701E+01  8.62335E+00  7.53249E+00  6.45794E+00  5.61685E+00  4.90748E+00  4.39202E+00  4.06690E+00  3.86192E+00  3.63891E+00
   3.48547E+00  3.32480E+00  3.22162E+00  3.06688E+00  2.95971E+00  2.82983E+00  2.73126E+00  2.65582E+00  2.59359E+00  2.54127E+00
   2.49589E+00  2.45675E+00  2.42218E+00  2.39226E+00  2.36581E+00  2.34327E+00  2.32370E+00  2.30770E+00  2.29448E+00  2.28472E+00
   2.27772E+00  2.27425E+00  2.27365E+00  2.27677E+00  2.28299E+00  2.29317E+00  2.30675E+00  2.32465E+00  2.34639E+00  2.37296E+00
   2.40398E+00  2.44053E+00  2.48228E+00  2.53038E+00  2.58456E+00  2.64597E+00  2.71430E+00  2.79064E+00  2.87452E+00  2.96682E+00
   3.06679E+00  3.17490E+00  3.28996E+00  3.41192E+00  3.53896E+00  3.67043E+00  3.80389E+00  3.93807E+00  4.07001E+00  4.19803E+00
   4.31892E+00  4.43093E+00  4.53097E+00  4.61766E+00  4.68850E+00  4.74286E+00  4.77918E+00  4.79788E+00  4.79851E+00  4.78260E+00
   4.75072E+00  4.70535E+00  4.64781E+00  4.58112E+00  4.50696E+00  4.42847E+00  4.34724E+00  4.26612E+00  4.18629E+00  4.11007E+00
   4.03802E+00  3.97183E+00  3.91143E+00  3.85792E+00  3.81069E+00  3.77038E+00  3.73602E+00  3.70796E+00  3.68500E+00  3.66735E+00
   3.65375E+00  3.64438E+00  3.63797E+00  3.63477E+00  3.63357E+00  3.63468E+00  3.63697E+00  3.64084E+00  3.64525E+00  3.65064E+00
   3.65604E+00  3.66198E+00  3.66752E+00  3.67323E+00  3.67824E+00  3.68311E+00  3.68702E+00  3.69057E+00  3.69294E+00  3.69475E+00
   3.69520E+00  3.69493E+00  3.69313E+00  3.69046E+00  3.68613E+00  3.68080E+00  3.67367E+00  3.66542E+00  3.65526E+00  3.64386E+00
   3.63044E+00  3.61567E+00  3.59877E+00  3.58043E+00  3.55986E+00  3.53774E+00  3.51329E+00  3.48720E+00  3.45870E+00  3.42846E+00
   3.39570E+00  3.36112E+00  3.32393E+00  3.28483E+00  3.24303E+00  3.19923E+00  3.15265E+00  3.10397E+00  3.05243E+00  2.99871E+00
   2.94204E+00  2.88310E+00  2.82112E+00  2.75679E+00  2.68934E+00  2.61946E+00  2.54637E+00  2.47076E+00  2.39186E+00  2.31036E+00
   2.22549E+00  2.13793E+00  2.04692E+00  1.95314E+00  1.85583E+00  1.75567E+00  1.65189E+00  1.54519E+00
 NY background values follow
     9.835E+01    9.756E+01    9.678E+01    9.600E+01    9.523E+01    9.446E+01    9.370E+01    9.295E+01    9.220E+01    9.146E+01
     9.073E+01    9.000E+01    8.928E+01    8.856E+01    8.785E+01    8.715E+01    8.645E+01    8.576E+01    8.508E+01    8.440E+01
     8.372E+01    8.305E+01    8.239E+01    8.174E+01    8.108E+01    8.044E+01    7.980E+01    7.917E+01    7.854E+01    7.791E+01
     7.730E+01    7.668E+01    7.608E+01    7.548E+01    7.488E+01    7.429E+01    7.370E+01    7.312E+01    7.254E+01    7.197E+01
     7.141E+01    7.085E+01    7.029E+01    6.974E+01    6.920E+01    6.865E+01    6.812E+01    6.759E+01    6.706E+01    6.654E+01
     6.602E+01    6.551E+01    6.500E+01    6.450E+01    6.400E+01    6.350E+01    6.301E+01    6.252E+01    6.204E+01    6.157E+01
     6.109E+01    6.062E+01    6.016E+01    5.970E+01    5.924E+01    5.879E+01    5.834E+01    5.789E+01    5.745E+01    5.702E+01
     5.658E+01    5.615E+01    5.573E+01    5.531E+01    5.489E+01    5.447E+01    5.406E+01    5.366E+01    5.325E+01    5.285E+01
     5.245E+01    5.206E+01    5.167E+01    5.128E+01    5.090E+01    5.052E+01    5.014E+01    4.977E+01    4.940E+01    4.903E+01
     4.867E+01    4.830E+01    4.795E+01    4.759E+01    4.724E+01    4.689E+01    4.654E+01    4.620E+01    4.585E+01    4.552E+01
     4.518E+01    4.485E+01    4.451E+01    4.419E+01    4.386E+01    4.354E+01    4.321E+01    4.290E+01    4.258E+01    4.226E+01
     4.195E+01    4.164E+01    4.133E+01    4.103E+01    4.073E+01    4.042E+01    4.012E+01    3.983E+01    3.953E+01    3.924E+01
     3.895E+01    3.866E+01    3.837E+01    3.808E+01    3.780E+01    3.751E+01    3.723E+01    3.695E+01    3.667E+01    3.640E+01
     3.612E+01    3.585E+01    3.558E+01    3.531E+01    3.504E+01    3.477E+01    3.451E+01    3.424E+01    3.398E+01    3.372E+01
     3.346E+01    3.320E+01    3.295E+01    3.269E+01    3.244E+01    3.219E+01    3.194E+01    3.169E+01    3.144E+01    3.119E+01
     3.095E+01    3.070E+01    3.046E+01    3.022E+01    2.998E+01    2.975E+01    2.951E+01    2.927E+01    2.904E+01    2.881E+01
     2.858E+01    2.835E+01    2.812E+01    2.789E+01    2.767E+01    2.744E+01    2.722E+01    2.700E+01    2.678E+01    2.656E+01
     2.634E+01    2.613E+01    2.591E+01    2.570E+01    2.549E+01    2.527E+01    2.506E+01    2.485E+01    2.465E+01    2.444E+01
     2.423E+01    2.403E+01    2.383E+01    2.362E+01    2.342E+01    2.322E+01    2.303E+01    2.283E+01    2.263E+01    2.244E+01
     2.224E+01    2.205E+01    2.186E+01    2.167E+01    2.148E+01    2.129E+01    2.110E+01    2.091E+01    2.073E+01    2.054E+01
     2.036E+01    2.018E+01    2.000E+01    1.982E+01    1.964E+01    1.946E+01    1.928E+01    1.910E+01    1.893E+01    1.875E+01
     1.858E+01    1.841E+01    1.823E+01    1.806E+01    1.789E+01    1.772E+01    1.755E+01    1.739E+01    1.722E+01    1.705E+01
     1.689E+01    1.672E+01    1.656E+01    1.640E+01    1.624E+01    1.608E+01    1.592E+01    1.576E+01    1.560E+01    1.544E+01
     1.528E+01    1.513E+01    1.497E+01    1.482E+01    1.466E+01    1.451E+01    1.436E+01    1.420E+01    1.405E+01    1.390E+01
     1.375E+01    1.360E+01    1.345E+01    1.331E+01    1.316E+01    1.301E+01    1.287E+01    1.272E+01    1.258E+01    1.243E+01
     1.229E+01    1.214E+01    1.200E+01    1.186E+01    1.172E+01    1.158E+01    1.144E+01    1.130E+01    1.116E+01    1.102E+01
     1.089E+01    1.075E+01    1.061E+01    1.048E+01    1.034E+01    1.021E+01    1.008E+01    9.946E+00    9.815E+00    9.684E+00
     9.554E+00    9.425E+00    9.297E+00    9.170E+00    9.043E+00    8.917E+00    8.792E+00    8.668E+00    8.545E+00    8.423E+00
     8.301E+00    8.180E+00    8.061E+00    7.942E+00    7.824E+00    7.706E+00    7.590E+00    7.475E+00    7.361E+00    7.247E+00
     7.135E+00    7.023E+00    6.913E+00    6.803E+00    6.694E+00    6.587E+00    6.480E+00    6.375E+00    6.270E+00    6.166E+00
     6.064E+00    5.962E+00    5.862E+00    5.763E+00    5.664E+00    5.567E+00    5.471E+00    5.376E+00    5.282E+00    5.189E+00
     5.097E+00    5.007E+00    4.917E+00    4.829E+00    4.742E+00    4.656E+00    4.571E+00    4.488E+00    4.405E+00    4.324E+00
     4.244E+00    4.165E+00    4.088E+00    4.011E+00    3.936E+00    3.862E+00    3.790E+00    3.718E+00    3.648E+00    3.580E+00
     3.512E+00    3.446E+00    3.381E+00    3.318E+00    3.255E+00    3.195E+00    3.135E+00    3.077E+00    3.020E+00    2.965E+00
     2.911E+00    2.858E+00    2.807E+00    2.757E+00    2.708E+00    2.661E+00    2.616E+00    2.572E+00    2.529E+00    2.488E+00
     2.448E+00    2.410E+00    2.373E+00    2.337E+00    2.304E+00    2.271E+00    2.241E+00    2.211E+00    2.184E+00    2.157E+00
     2.133E+00    2.110E+00    2.088E+00    2.068E+00    2.050E+00    2.033E+00    2.018E+00    2.005E+00    1.993E+00    1.983E+00
     1.974E+00    1.967E+00    1.962E+00    1.958E+00    1.956E+00    1.956E+00    1.957E+00    1.960E+00    1.964E+00    1.970E+00
     1.977E+00    1.986E+00    1.995E+00    2.007E+00    2.019E+00    2.033E+00    2.048E+00    2.064E+00    2.081E+00    2.099E+00
     2.118E+00    2.138E+00    2.159E+00    2.181E+00    2.204E+00    2.227E+00    2.252E+00    2.277E+00    2.303E+00    2.329E+00
     2.356E+00    2.384E+00    2.412E+00    2.440E+00    2.469E+00    2.499E+00    2.529E+00    2.559E+00    2.589E+00    2.620E+00
     2.651E+00    2.682E+00    2.713E+00    2.745E+00    2.776E+00    2.807E+00    2.839E+00    2.870E+00    2.901E+00    2.932E+00
     2.963E+00    2.993E+00    3.023E+00    3.053E+00    3.083E+00    3.112E+00    3.140E+00    3.169E+00    3.196E+00    3.223E+00
     3.250E+00    3.276E+00    3.301E+00    3.325E+00    3.349E+00    3.372E+00    3.394E+00    3.415E+00    3.435E+00    3.454E+00
     3.473E+00    3.490E+00    3.506E+00    3.521E+00    3.534E+00    3.547E+00    3.558E+00    3.568E+00    3.577E+00    3.584E+00
     3.590E+00    3.594E+00    3.597E+00    3.599E+00    3.598E+00    3.597E+00    3.593E+00    3.588E+00    3.581E+00    3.572E+00
     3.562E+00    3.549E+00    3.535E+00    3.519E+00    3.501E+00    3.480E+00    3.458E+00    3.434E+00    3.407E+00    3.378E+00
     3.347E+00    3.314E+00    3.279E+00    3.241E+00    3.200E+00    3.158E+00    3.113E+00    3.065E+00    3.015E+00    2.962E+00
     2.906E+00    2.848E+00    2.787E+00    2.724E+00    2.657E+00    2.588E+00    2.516E+00    2.441E+00    2.363E+00    2.282E+00
     2.198E+00    2.111E+00    2.021E+00    1.927E+00    1.831E+00    1.731E+00    1.628E+00    1.521E+00
 Ala      Conc. = 4.94E+02
