 LCModel (Version 6.3-1L) Copyright: S.W. Provencher.          Ref.: Magn. Reson. Med. 30:672-679 (1993).                
 Slice#2 Row#8 Col#4  PD_05_press_2_raw_act
 36 lines in following concentration table = NCONC+1
    Conc.  %SD /Cr+PCr  Metabolite                                         
  222.620 116% 6.4E-02 Ala                                                 
    0.000 999%   0.000 Asp                                                 
 2.23E+03  21%   0.638 Cr                                                  
 1.27E+03  38%   0.362 PCr                                                 
    0.000 999%   0.000 GABA                                                
    0.000 999%   0.000 Glc                                                 
 1.93E+03  28%   0.553 Gln                                                 
 4.34E+03  14%   1.242 Glu                                                 
 1.50E+03   4%   0.428 GPC                                                 
    0.000 999%   0.000 PCh                                                 
 1.31E+03  13%   0.376 GSH                                                 
 3.16E+03  18%   0.904 Ins                                                 
  386.632  74%   0.111 Lac                                                 
 6.33E+03   5%   1.810 NAA                                                 
 1.25E+03  25%   0.359 NAAG                                                
  224.747  28% 6.4E-02 Scyllo                                              
    0.000 999%   0.000 Tau                                                 
    0.000 999%   0.000 -CrCH2                                              
 1.50E+03   4%   0.428 GPC+PCh                                             
 7.59E+03   3%   2.169 NAA+NAAG                                            
 3.50E+03   4%   1.000 Cr+PCr                                              
 6.28E+03  14%   1.795 Glu+Gln                                             
 6.59E+03  28%   1.883 Lip13a                                              
    0.000 999%   0.000 Lip13b                                              
  503.819 199%   0.144 Lip09                                               
 4.19E+03  25%   1.198 MM09                                                
  639.177 113%   0.183 Lip20                                               
 9.34E+03  12%   2.670 MM20                                                
 1.48E+03  45%   0.423 MM12                                                
 2.60E+03  42%   0.744 MM14                                                
 2.92E+03  20%   0.835 MM17                                                
 6.59E+03  28%   1.883 Lip13a+Lip13b                                       
 1.07E+04  10%   3.050 MM14+Lip13a+Lip13b+MM12                             
 4.70E+03  11%   1.342 MM09+Lip09                                          
 9.98E+03  10%   2.852 MM20+Lip20                                          
   6 lines in following misc. output table
  FWHM = 0.054 ppm    S/N =  16                                            
  Data shift = 0.008 ppm                                                   
  Ph:  -8 deg      -2.0 deg/ppm                                            
  alphaB,S = 1.8E+00,   1.4E+02                                            
   14 spline knots.   Ns = 7(1)                                            
  (12) 4 infls.   ( 9) 1 extrs.                                            
  498 points on ppm-axis = NY
      4.000000     3.992357     3.984714     3.977070     3.969427     3.961784     3.954141     3.946497     3.938854     3.931211
      3.923568     3.915925     3.908281     3.900638     3.892995     3.885352     3.877708     3.870065     3.862422     3.854779
      3.847136     3.839492     3.831849     3.824206     3.816563     3.808919     3.801276     3.793633     3.785990     3.778347
      3.770703     3.763060     3.755417     3.747774     3.740130     3.732487     3.724844     3.717201     3.709558     3.701914
      3.694271     3.686628     3.678985     3.671341     3.663698     3.656055     3.648412     3.640769     3.633125     3.625482
      3.617839     3.610196     3.602552     3.594909     3.587266     3.579623     3.571980     3.564336     3.556693     3.549050
      3.541407     3.533763     3.526120     3.518477     3.510834     3.503191     3.495547     3.487904     3.480261     3.472618
      3.464974     3.457331     3.449688     3.442045     3.434402     3.426758     3.419115     3.411472     3.403829     3.396185
      3.388542     3.380899     3.373256     3.365613     3.357969     3.350326     3.342683     3.335040     3.327396     3.319753
      3.312110     3.304467     3.296824     3.289180     3.281537     3.273894     3.266251     3.258607     3.250964     3.243321
      3.235678     3.228034     3.220391     3.212748     3.205105     3.197462     3.189818     3.182175     3.174532     3.166889
      3.159245     3.151602     3.143959     3.136316     3.128673     3.121029     3.113386     3.105743     3.098100     3.090456
      3.082813     3.075170     3.067527     3.059884     3.052240     3.044597     3.036954     3.029311     3.021667     3.014024
      3.006381     2.998738     2.991095     2.983451     2.975808     2.968165     2.960522     2.952878     2.945235     2.937592
      2.929949     2.922306     2.914662     2.907019     2.899376     2.891733     2.884089     2.876446     2.868803     2.861160
      2.853517     2.845873     2.838230     2.830587     2.822944     2.815300     2.807657     2.800014     2.792371     2.784728
      2.777084     2.769441     2.761798     2.754155     2.746511     2.738868     2.731225     2.723582     2.715939     2.708295
      2.700652     2.693009     2.685366     2.677722     2.670079     2.662436     2.654793     2.647150     2.639506     2.631863
      2.624220     2.616577     2.608933     2.601290     2.593647     2.586004     2.578361     2.570717     2.563074     2.555431
      2.547788     2.540144     2.532501     2.524858     2.517215     2.509572     2.501928     2.494285     2.486642     2.478999
      2.471355     2.463712     2.456069     2.448426     2.440783     2.433139     2.425496     2.417853     2.410210     2.402566
      2.394923     2.387280     2.379637     2.371994     2.364350     2.356707     2.349064     2.341421     2.333777     2.326134
      2.318491     2.310848     2.303205     2.295561     2.287918     2.280275     2.272632     2.264988     2.257345     2.249702
      2.242059     2.234416     2.226772     2.219129     2.211486     2.203843     2.196199     2.188556     2.180913     2.173270
      2.165627     2.157983     2.150340     2.142697     2.135054     2.127410     2.119767     2.112124     2.104481     2.096838
      2.089194     2.081551     2.073908     2.066265     2.058621     2.050978     2.043335     2.035692     2.028049     2.020405
      2.012762     2.005119     1.997476     1.989833     1.982190     1.974546     1.966903     1.959260     1.951617     1.943974
      1.936331     1.928688     1.921045     1.913402     1.905759     1.898115     1.890472     1.882829     1.875186     1.867543
      1.859900     1.852257     1.844614     1.836971     1.829327     1.821684     1.814041     1.806398     1.798755     1.791112
      1.783469     1.775826     1.768183     1.760540     1.752896     1.745253     1.737610     1.729967     1.722324     1.714681
      1.707038     1.699395     1.691752     1.684108     1.676465     1.668822     1.661179     1.653536     1.645893     1.638250
      1.630607     1.622964     1.615321     1.607677     1.600034     1.592391     1.584748     1.577105     1.569462     1.561819
      1.554176     1.546533     1.538890     1.531246     1.523603     1.515960     1.508317     1.500674     1.493031     1.485388
      1.477745     1.470102     1.462458     1.454815     1.447172     1.439529     1.431886     1.424243     1.416600     1.408957
      1.401314     1.393671     1.386027     1.378384     1.370741     1.363098     1.355455     1.347812     1.340169     1.332526
      1.324883     1.317240     1.309596     1.301953     1.294310     1.286667     1.279024     1.271381     1.263738     1.256095
      1.248452     1.240808     1.233165     1.225522     1.217879     1.210236     1.202593     1.194950     1.187307     1.179664
      1.172021     1.164377     1.156734     1.149091     1.141448     1.133805     1.126162     1.118519     1.110876     1.103233
      1.095590     1.087946     1.080303     1.072660     1.065017     1.057374     1.049731     1.042088     1.034445     1.026802
      1.019158     1.011515     1.003872     0.996229     0.988586     0.980943     0.973300     0.965657     0.958014     0.950371
      0.942727     0.935084     0.927441     0.919798     0.912155     0.904512     0.896869     0.889226     0.881583     0.873940
      0.866296     0.858653     0.851010     0.843367     0.835724     0.828081     0.820438     0.812795     0.805152     0.797508
      0.789865     0.782222     0.774579     0.766936     0.759293     0.751650     0.744007     0.736364     0.728721     0.721077
      0.713434     0.705791     0.698148     0.690505     0.682862     0.675219     0.667576     0.659933     0.652290     0.644646
      0.637003     0.629360     0.621717     0.614074     0.606431     0.598788     0.591145     0.583502     0.575858     0.568215
      0.560572     0.552929     0.545286     0.537643     0.530000     0.522357     0.514714     0.507071     0.499427     0.491784
      0.484141     0.476498     0.468855     0.461212     0.453569     0.445925     0.438282     0.430639     0.422996     0.415353
      0.407710     0.400067     0.392424     0.384780     0.377137     0.369494     0.361851     0.354208     0.346565     0.338922
      0.331278     0.323635     0.315992     0.308349     0.300706     0.293063     0.285420     0.277777     0.270133     0.262490
      0.254847     0.247204     0.239561     0.231918     0.224275     0.216631     0.208988     0.201345
 NY phased data points follow
   1.96153E+01  1.74751E+01  1.75526E+01  3.58710E+01  3.99747E+01  5.25347E+01  6.48387E+01  7.56894E+01  8.66398E+01  9.46346E+01
   9.32421E+01  9.11210E+01  8.40299E+01  8.43004E+01  6.53547E+01  5.18742E+01  4.28312E+01  4.08787E+01  4.17801E+01  3.55600E+01
   3.01751E+01  2.55044E+01  2.75878E+01  3.13304E+01  2.95595E+01  2.65511E+01  2.19249E+01  3.63734E+01  3.33500E+01  4.39069E+01
   4.47195E+01  4.86920E+01  3.73499E+01  4.24948E+01  4.80560E+01  2.95996E+01  2.99664E+01  3.36204E+01  2.97280E+01  3.20984E+01
   3.12496E+01  3.08718E+01  3.20365E+01  3.39321E+01  4.13461E+01  3.71678E+01  4.98951E+01  4.93744E+01  3.76855E+01  4.20620E+01
   2.73014E+01  3.24636E+01  1.62520E+01  3.65307E+01  2.39744E+01  2.09540E+01  2.31395E+01  2.92945E+01  2.14934E+01  2.52343E+01
   5.90905E+00  5.93038E+00  1.03320E+01 -2.80329E+00 -1.09581E+00 -9.55067E+00 -1.28965E+00  6.58429E+00  2.64288E+00 -2.28084E+00
  -4.91334E-01  2.25528E+00 -2.77968E+00 -1.55162E+00 -1.53603E+00  6.44161E+00  1.57064E+01 -2.41002E+00 -7.23817E-01  4.73738E+00
  -2.03104E+00  1.42741E+00  8.08955E+00  6.39422E+00  4.23697E+00  9.57243E+00  6.95676E+00  7.08121E+00  1.29868E+01  1.39078E+01
   6.65470E+00  1.47556E+01  6.72131E+00  1.56376E+01  7.44543E+00  1.40888E+01  1.51116E+01  4.51602E+01  3.59711E+01  6.62990E+01
   8.01291E+01  1.07389E+02  1.25922E+02  1.39795E+02  1.17970E+02  1.05781E+02  7.32393E+01  6.28719E+01  3.91681E+01  3.08307E+01
   2.58163E+01  2.09789E+01  3.06190E+01  2.24679E+01  4.36482E+00 -3.10605E-01  1.61715E+00  4.60550E+00  1.58789E+01  2.10420E+01
   1.83935E+01  2.09529E+01  4.51504E+01  5.79294E+01  7.60193E+01  9.34876E+01  1.06258E+02  1.15313E+02  1.11547E+02  8.70692E+01
   6.85362E+01  4.71248E+01  3.46337E+01  2.13098E+01  8.91545E+00  1.76946E+01  4.21463E+00 -1.29423E-01 -9.09918E-01  1.80779E+01
   1.62916E+00  1.92712E+00 -4.24021E+00  5.71836E+00  1.26115E+01  2.23241E+00  7.25872E+00 -6.02328E-01  2.55947E+00  4.93401E+00
  -2.61666E+00  5.37854E+00 -3.55839E+00 -1.43528E+01 -9.37103E+00 -9.59968E+00 -3.65302E+00 -5.25153E+00 -4.71040E+00 -6.37138E+00
  -1.00993E+01 -1.12819E+01 -1.47620E+01 -3.50909E+00 -1.14086E+01 -1.64154E+01 -6.74076E+00 -1.16139E+01 -3.16117E+01 -1.85665E+01
  -2.82566E+01 -2.76340E+01 -2.98163E+01 -3.02774E+01 -4.04928E+01 -3.98713E+01 -4.78506E+01 -4.04051E+01 -5.08002E+01 -4.32578E+01
  -4.29626E+01 -3.97359E+01 -4.26731E+01 -3.51335E+01 -3.33092E+01 -3.12680E+01 -1.98214E+01 -1.76597E+01 -4.76007E+00 -5.34128E+00
  -8.98539E-01  5.26809E+00 -3.65848E+00 -7.11690E+00 -3.30369E+00 -2.57139E+00 -1.57799E+01 -1.41487E+01 -1.88248E+01 -8.89651E+00
  -8.80539E+00 -1.16143E+01 -1.24103E+01 -1.00298E+01 -1.14453E+01 -6.41413E+00 -4.45652E+00 -2.10076E+01 -2.63049E+01 -1.85562E+01
  -2.22388E+01 -1.15608E+01 -2.70884E+00  1.31653E+01  8.01079E+00  2.01113E+01  2.30790E+01  2.34938E+01  8.24376E+00  1.48743E+00
  -2.06178E+01 -1.42210E+01 -1.83086E+01 -1.55687E+00 -4.08937E+00 -2.66084E+00  1.38054E+01  8.34650E+00  7.65366E+00  1.53278E+01
   8.90293E+00  2.34570E+00  1.79270E+01  1.72192E+01  1.35479E+01  1.50475E+01  1.12951E+01  6.40029E+00  1.13257E+01  4.61704E+00
   4.55053E+00 -7.14950E+00 -3.24182E+00  1.27037E+01  1.16590E+01  2.04128E+01  3.37945E+01  3.14378E+01  3.05642E+01  4.17776E+01
   4.50949E+01  5.02496E+01  6.09952E+01  7.10510E+01  9.13357E+01  1.32800E+02  1.51721E+02  1.75259E+02  2.09366E+02  2.31793E+02
   2.48636E+02  2.40512E+02  2.07920E+02  1.48627E+02  9.72826E+01  6.92850E+01  5.27886E+01  3.67719E+01  1.99622E+01  2.62232E+01
   1.23639E+01  6.85531E+00  1.77388E+01  3.57106E+00 -2.36910E+00  4.26472E+00  2.15922E+00  2.65589E+00  3.36666E+00  2.99764E+00
   4.71970E+00  8.37466E+00  9.40243E+00  1.73714E+00 -1.60888E-01 -5.89751E+00  1.88052E+00  2.16412E+00  2.78453E+00  1.51655E+00
   1.68430E+00  5.19853E+00  1.32229E+01  7.60434E+00  4.58537E+00  3.59701E+00 -3.77823E+00  8.98774E+00  9.70180E-01  5.69874E+00
   1.17805E+00  6.73982E+00  1.21591E+01  7.64496E+00  1.34409E+01  3.70338E+00  2.35890E+00  2.24717E+01  2.36631E+00  4.04232E+00
   8.77761E+00  1.32539E+01  1.19117E+01  9.30640E+00  6.60340E+00  9.06621E+00  5.32105E+00  7.97192E+00  1.47046E+00  1.07114E+00
   4.71894E+00  5.58665E+00  4.59072E-03 -8.91756E+00 -4.49282E+00 -6.96198E+00 -5.46946E+00  7.67070E-01 -6.20452E+00 -2.01743E+00
   4.56310E+00  4.96673E-01  1.07102E+01  1.13599E+01  1.09637E+01  1.04874E+01  1.02994E+01  2.02781E+01  1.11037E+01  2.12009E+01
   2.17890E+01  3.34403E+01  2.69761E+01  2.36265E+01  2.64412E+01  3.62392E+01  4.07612E+01  3.62527E+01  2.91637E+01  3.57625E+01
   2.60961E+01  2.34735E+01  3.43648E+01  2.45741E+01  2.60496E+01  2.71201E+01  3.29615E+01  3.55776E+01  2.69737E+01  2.83670E+01
   2.83479E+01  2.20682E+01  2.49254E+01  2.59513E+01  2.14228E+01  2.60791E+01  3.05049E+01  2.14360E+01  1.97185E+01  1.70624E+01
   2.90141E+01  2.38711E+01  2.15477E+01  1.30104E+01  1.17340E+01  1.56152E+01  1.64269E+01  9.65837E+00  7.28812E+00  1.95152E+01
   1.54594E+01  8.67989E+00  4.31112E+00  5.75132E+00  1.34992E+01  9.59760E+00  5.71245E+00  6.92865E+00  1.13597E+01  1.11449E+01
   1.35924E+01  1.44529E+01  1.67146E+01  2.04911E+01  1.73922E+01  2.30030E+01  1.81776E+01  2.40513E+01  2.07893E+01  3.29592E+01
   2.14026E+01  2.29629E+01  2.79485E+01  1.97144E+01  1.90850E+01  2.60034E+01  2.29674E+01  1.86388E+01  2.37045E+01  1.82256E+01
   1.64050E+01  3.37380E+01  2.50201E+01  2.11012E+01  9.82195E+00  1.84956E+01  1.49672E+01  1.43813E+01  4.63114E+00  5.83980E+00
   6.95645E+00  9.07608E+00  5.23468E+00  1.62243E+00  5.46200E+00  5.60271E+00  9.92810E+00  2.82306E+00  9.17801E+00  9.86805E+00
   2.22003E-01  1.02285E+01  7.55983E+00  3.24379E+00 -3.73793E-01  1.29022E+01  6.55383E+00  9.30196E+00  1.45918E+00 -6.64622E+00
   7.76557E+00  3.49048E+00  8.82005E-01  3.16514E+00  1.28396E+01 -1.16119E+01 -5.76855E+00 -6.39611E+00 -1.35876E+00 -1.92666E-01
   3.97277E+00  2.03809E+00  3.36033E+00  9.62604E+00  3.34415E+00 -8.42053E+00  5.83280E-01 -3.68630E+00 -3.93206E-01  1.16212E+01
  -2.04708E+00  3.32051E+00  3.60158E+00 -2.17473E+00  5.81476E+00 -4.73956E+00 -8.90300E+00  3.57121E+00 -1.81012E+00  1.07176E+00
  -1.05043E+00  6.32622E+00 -1.27850E+01  4.35299E+00 -1.25562E+00 -4.12980E+00 -8.27652E+00 -8.56457E+00  9.97606E-01 -6.35563E+00
  -4.10163E+00  3.31314E-02 -4.04254E+00  6.25894E+00 -6.00029E+00 -9.74545E+00 -3.17153E+00  2.57823E+00 -2.60377E+00  4.07813E+00
   6.89312E+00 -6.13200E+00 -5.77253E+00  9.88134E+00 -1.14571E+00 -4.27319E+00 -8.36991E+00  1.02484E+00
 NY points of the fit to the data follow
   2.32366E+01  2.38121E+01  2.68078E+01  3.14926E+01  3.84702E+01  4.85819E+01  6.01827E+01  7.17622E+01  8.22334E+01  9.01808E+01
   9.38798E+01  9.20700E+01  8.48743E+01  7.39966E+01  6.20226E+01  5.14289E+01  4.33992E+01  3.77032E+01  3.35887E+01  2.97174E+01
   2.66071E+01  2.46314E+01  2.30907E+01  2.29565E+01  2.42386E+01  2.63964E+01  2.97292E+01  3.47430E+01  4.11626E+01  4.74093E+01
   5.16721E+01  5.25694E+01  4.95118E+01  4.36399E+01  3.68503E+01  3.05144E+01  2.54540E+01  2.15441E+01  1.88232E+01  1.84858E+01
   2.07324E+01  2.43874E+01  2.81826E+01  3.17716E+01  3.53059E+01  3.82985E+01  3.99774E+01  3.94316E+01  3.61253E+01  3.08355E+01
   2.50155E+01  2.01745E+01  1.72935E+01  1.60289E+01  1.54461E+01  1.52665E+01  1.57644E+01  1.67085E+01  1.74301E+01  1.75095E+01
   1.67940E+01  1.52065E+01  1.30378E+01  1.08244E+01  9.28594E+00  8.81304E+00  9.12057E+00  9.78233E+00  1.05682E+01  1.12815E+01
   1.17961E+01  1.19839E+01  1.17404E+01  1.10861E+01  1.01547E+01  9.17973E+00  8.38182E+00  7.80074E+00  7.39499E+00  7.15979E+00
   7.48358E+00  8.06754E+00  8.56246E+00  9.04210E+00  9.58213E+00  9.99759E+00  9.94390E+00  9.16287E+00  7.72008E+00  6.14955E+00
   5.01696E+00  4.60891E+00  4.76948E+00  5.12744E+00  5.55372E+00  7.24226E+00  1.47227E+01  2.89901E+01  4.61315E+01  6.50969E+01
   8.65336E+01  1.08986E+02  1.27460E+02  1.35386E+02  1.28480E+02  1.08131E+02  8.13176E+01  5.67073E+01  3.91019E+01  2.76378E+01
   1.86769E+01  1.02786E+01  4.78466E+00  2.97570E+00  2.39431E+00  2.20633E+00  2.25394E+00  2.57088E+00  3.44976E+00  6.30988E+00
   1.46053E+01  2.80097E+01  4.33898E+01  6.01171E+01  7.85122E+01  9.69269E+01  1.11132E+02  1.16057E+02  1.08702E+02  9.09432E+01
   6.91319E+01  4.99264E+01  3.60953E+01  2.60500E+01  1.68098E+01  7.94082E+00  2.24993E+00  2.89064E-01  4.38235E-01  1.75019E+00
   3.27977E+00  4.25570E+00  4.43877E+00  3.95608E+00  2.95389E+00  1.73961E+00  5.79205E-01 -5.60808E-01 -1.72663E+00 -2.86505E+00
  -3.92776E+00 -4.78922E+00 -5.45276E+00 -5.97158E+00 -6.58849E+00 -7.28175E+00 -7.90581E+00 -8.52211E+00 -9.16992E+00 -1.01038E+01
  -1.12901E+01 -1.21806E+01 -1.23659E+01 -1.20478E+01 -1.18301E+01 -1.23411E+01 -1.37842E+01 -1.57448E+01 -1.75736E+01 -1.90073E+01
  -2.02363E+01 -2.11820E+01 -2.20663E+01 -2.31224E+01 -2.42870E+01 -2.52511E+01 -2.54867E+01 -2.48241E+01 -2.38755E+01 -2.34234E+01
  -2.38259E+01 -2.44860E+01 -2.43865E+01 -2.31887E+01 -2.12155E+01 -1.89469E+01 -1.64903E+01 -1.33943E+01 -9.61110E+00 -5.80910E+00
  -3.12089E+00 -2.60630E+00 -3.98930E+00 -6.18630E+00 -8.22420E+00 -9.55372E+00 -9.97861E+00 -8.97847E+00 -6.54340E+00 -3.22884E+00
   3.10451E-01  3.18618E+00  4.44945E+00  3.54833E+00  8.30729E-01 -3.43999E+00 -9.09505E+00 -1.52132E+01 -1.98466E+01 -2.11057E+01
  -1.85234E+01 -1.34945E+01 -7.21288E+00 -3.50941E-01  5.97063E+00  1.00492E+01  1.01785E+01  5.99298E+00 -1.24845E+00 -9.72462E+00
  -1.70197E+01 -2.13546E+01 -2.20947E+01 -1.91748E+01 -1.34206E+01 -6.25469E+00  5.83879E-01  5.26664E+00  7.35425E+00  7.73770E+00
   7.81781E+00  8.22122E+00  8.88762E+00  1.01842E+01  1.23391E+01  1.46255E+01  1.62120E+01  1.66808E+01  1.59581E+01  1.42494E+01
   1.18466E+01  9.64589E+00  8.96871E+00  1.04637E+01  1.36449E+01  1.75679E+01  2.14913E+01  2.48928E+01  2.82583E+01  3.31448E+01
   3.91170E+01  4.56050E+01  5.38011E+01  7.04902E+01  9.90659E+01  1.29792E+02  1.57882E+02  1.84794E+02  2.11634E+02  2.34244E+02
   2.44065E+02  2.32909E+02  1.99833E+02  1.53947E+02  1.10188E+02  7.88681E+01  5.88593E+01  4.34486E+01  2.81459E+01  1.66659E+01
   1.23210E+01  1.02020E+01  8.76415E+00  7.73403E+00  6.87462E+00  5.90539E+00  4.82688E+00  3.70701E+00  2.64694E+00  1.75208E+00
   1.06573E+00  5.39229E-01  1.30497E-01 -1.53220E-01 -3.14991E-01 -3.92962E-01 -4.10342E-01 -3.32404E-01 -1.09592E-01  2.78062E-01
   8.12220E-01  1.47420E+00  2.23284E+00  3.03981E+00  3.84472E+00  4.62288E+00  5.37067E+00  6.09217E+00  6.78295E+00  7.42594E+00
   8.00597E+00  8.51031E+00  8.90740E+00  9.16693E+00  9.27286E+00  9.22461E+00  9.03176E+00  8.70465E+00  8.25463E+00  7.70793E+00
   7.08957E+00  6.42286E+00  5.73342E+00  5.04894E+00  4.39669E+00  3.80250E+00  3.29019E+00  2.88349E+00  2.61124E+00  2.52287E+00
   2.67970E+00  2.96398E+00  3.25889E+00  3.57450E+00  3.90326E+00  4.15290E+00  4.19445E+00  3.97124E+00  3.70320E+00  3.71874E+00
   4.19729E+00  5.21382E+00  6.73674E+00  8.65302E+00  1.08128E+01  1.30646E+01  1.52528E+01  1.71500E+01  1.87045E+01  2.01245E+01
   2.17060E+01  2.34860E+01  2.51183E+01  2.64674E+01  2.76112E+01  2.85076E+01  2.88891E+01  2.85468E+01  2.77010E+01  2.68665E+01
   2.63982E+01  2.65595E+01  2.74283E+01  2.88393E+01  3.04752E+01  3.19962E+01  3.31418E+01  3.36468E+01  3.33225E+01  3.24258E+01
   3.13102E+01  3.01536E+01  2.89213E+01  2.75079E+01  2.60100E+01  2.45767E+01  2.31738E+01  2.17846E+01  2.04132E+01  1.90706E+01
   1.77702E+01  1.65255E+01  1.53487E+01  1.42510E+01  1.32429E+01  1.23344E+01  1.15339E+01  1.08483E+01  1.02831E+01  9.84272E+00
   9.53158E+00  9.35333E+00  9.31044E+00  9.40395E+00  9.63369E+00  9.99868E+00  1.04969E+01  1.11247E+01  1.18757E+01  1.27409E+01
   1.37085E+01  1.47648E+01  1.58929E+01  1.70732E+01  1.82823E+01  1.94948E+01  2.06833E+01  2.18201E+01  2.28770E+01  2.38264E+01
   2.46419E+01  2.53000E+01  2.57815E+01  2.60722E+01  2.61627E+01  2.60490E+01  2.57326E+01  2.52209E+01  2.45268E+01  2.36678E+01
   2.26649E+01  2.15413E+01  2.03215E+01  1.90315E+01  1.76969E+01  1.63421E+01  1.49888E+01  1.36562E+01  1.23609E+01  1.11165E+01
   9.93411E+00  8.82128E+00  7.78261E+00  6.82021E+00  5.93446E+00  5.12442E+00  4.38778E+00  3.72087E+00  3.11908E+00  2.57752E+00
   2.09156E+00  1.65675E+00  1.26856E+00  9.22253E-01  6.13294E-01  3.37757E-01  9.24190E-02 -1.25588E-01 -3.19160E-01 -4.91183E-01
  -6.44189E-01 -7.80071E-01 -9.00261E-01 -1.00615E+00 -1.09932E+00 -1.18136E+00 -1.25346E+00 -1.31635E+00 -1.37054E+00 -1.41678E+00
  -1.45606E+00 -1.48923E+00 -1.51679E+00 -1.53887E+00 -1.55570E+00 -1.56779E+00 -1.57584E+00 -1.58031E+00 -1.58126E+00 -1.57865E+00
  -1.57265E+00 -1.56373E+00 -1.55236E+00 -1.53872E+00 -1.52267E+00 -1.50411E+00 -1.48329E+00 -1.46066E+00 -1.43651E+00 -1.41077E+00
  -1.38322E+00 -1.35386E+00 -1.32299E+00 -1.29098E+00 -1.25793E+00 -1.22365E+00 -1.18793E+00 -1.15089E+00 -1.11290E+00 -1.07420E+00
  -1.03472E+00 -9.94193E-01 -9.52528E-01 -9.09950E-01 -8.66791E-01 -8.23156E-01 -7.78836E-01 -7.33592E-01 -6.87459E-01 -6.40742E-01
  -5.93695E-01 -5.46262E-01 -4.98165E-01 -4.49250E-01 -3.99683E-01 -3.49780E-01 -2.99660E-01 -2.49127E-01
 NY background values follow
     1.326E+01    1.309E+01    1.292E+01    1.275E+01    1.259E+01    1.242E+01    1.225E+01    1.208E+01    1.191E+01    1.175E+01
     1.158E+01    1.141E+01    1.124E+01    1.107E+01    1.091E+01    1.074E+01    1.057E+01    1.040E+01    1.023E+01    1.007E+01
     9.898E+00    9.730E+00    9.562E+00    9.395E+00    9.227E+00    9.059E+00    8.891E+00    8.724E+00    8.556E+00    8.388E+00
     8.221E+00    8.054E+00    7.886E+00    7.719E+00    7.552E+00    7.385E+00    7.218E+00    7.051E+00    6.884E+00    6.718E+00
     6.551E+00    6.385E+00    6.219E+00    6.052E+00    5.886E+00    5.721E+00    5.555E+00    5.389E+00    5.224E+00    5.058E+00
     4.893E+00    4.728E+00    4.564E+00    4.399E+00    4.235E+00    4.071E+00    3.907E+00    3.743E+00    3.580E+00    3.417E+00
     3.254E+00    3.091E+00    2.929E+00    2.766E+00    2.605E+00    2.443E+00    2.282E+00    2.121E+00    1.960E+00    1.800E+00
     1.640E+00    1.481E+00    1.321E+00    1.162E+00    1.004E+00    8.459E-01    6.881E-01    5.308E-01    3.739E-01    2.174E-01
     6.126E-02   -9.440E-02   -2.496E-01   -4.044E-01   -5.587E-01   -7.126E-01   -8.660E-01   -1.019E+00   -1.171E+00   -1.323E+00
    -1.475E+00   -1.626E+00   -1.776E+00   -1.926E+00   -2.075E+00   -2.224E+00   -2.372E+00   -2.520E+00   -2.667E+00   -2.814E+00
    -2.960E+00   -3.106E+00   -3.251E+00   -3.395E+00   -3.539E+00   -3.682E+00   -3.825E+00   -3.967E+00   -4.108E+00   -4.249E+00
    -4.389E+00   -4.529E+00   -4.668E+00   -4.806E+00   -4.944E+00   -5.081E+00   -5.218E+00   -5.353E+00   -5.489E+00   -5.623E+00
    -5.757E+00   -5.890E+00   -6.023E+00   -6.155E+00   -6.286E+00   -6.416E+00   -6.546E+00   -6.675E+00   -6.804E+00   -6.932E+00
    -7.059E+00   -7.185E+00   -7.311E+00   -7.436E+00   -7.560E+00   -7.683E+00   -7.806E+00   -7.928E+00   -8.049E+00   -8.169E+00
    -8.289E+00   -8.408E+00   -8.526E+00   -8.643E+00   -8.759E+00   -8.875E+00   -8.990E+00   -9.104E+00   -9.216E+00   -9.329E+00
    -9.440E+00   -9.550E+00   -9.659E+00   -9.768E+00   -9.875E+00   -9.981E+00   -1.009E+01   -1.019E+01   -1.029E+01   -1.040E+01
    -1.050E+01   -1.060E+01   -1.070E+01   -1.080E+01   -1.089E+01   -1.099E+01   -1.108E+01   -1.118E+01   -1.127E+01   -1.136E+01
    -1.145E+01   -1.154E+01   -1.163E+01   -1.172E+01   -1.180E+01   -1.189E+01   -1.197E+01   -1.205E+01   -1.213E+01   -1.221E+01
    -1.229E+01   -1.237E+01   -1.245E+01   -1.252E+01   -1.259E+01   -1.267E+01   -1.274E+01   -1.281E+01   -1.287E+01   -1.294E+01
    -1.301E+01   -1.307E+01   -1.313E+01   -1.320E+01   -1.326E+01   -1.332E+01   -1.338E+01   -1.343E+01   -1.349E+01   -1.354E+01
    -1.360E+01   -1.365E+01   -1.370E+01   -1.375E+01   -1.380E+01   -1.385E+01   -1.390E+01   -1.394E+01   -1.399E+01   -1.403E+01
    -1.408E+01   -1.412E+01   -1.416E+01   -1.420E+01   -1.424E+01   -1.428E+01   -1.431E+01   -1.435E+01   -1.439E+01   -1.442E+01
    -1.445E+01   -1.448E+01   -1.452E+01   -1.455E+01   -1.458E+01   -1.460E+01   -1.463E+01   -1.466E+01   -1.468E+01   -1.471E+01
    -1.473E+01   -1.476E+01   -1.478E+01   -1.480E+01   -1.482E+01   -1.484E+01   -1.486E+01   -1.487E+01   -1.489E+01   -1.491E+01
    -1.492E+01   -1.494E+01   -1.495E+01   -1.496E+01   -1.497E+01   -1.499E+01   -1.500E+01   -1.501E+01   -1.501E+01   -1.502E+01
    -1.503E+01   -1.503E+01   -1.504E+01   -1.504E+01   -1.505E+01   -1.505E+01   -1.505E+01   -1.505E+01   -1.505E+01   -1.505E+01
    -1.505E+01   -1.505E+01   -1.505E+01   -1.504E+01   -1.504E+01   -1.503E+01   -1.503E+01   -1.502E+01   -1.501E+01   -1.500E+01
    -1.499E+01   -1.498E+01   -1.497E+01   -1.496E+01   -1.495E+01   -1.494E+01   -1.492E+01   -1.491E+01   -1.489E+01   -1.488E+01
    -1.486E+01   -1.484E+01   -1.483E+01   -1.481E+01   -1.479E+01   -1.477E+01   -1.475E+01   -1.473E+01   -1.470E+01   -1.468E+01
    -1.466E+01   -1.463E+01   -1.461E+01   -1.458E+01   -1.456E+01   -1.453E+01   -1.450E+01   -1.447E+01   -1.444E+01   -1.441E+01
    -1.438E+01   -1.435E+01   -1.432E+01   -1.429E+01   -1.426E+01   -1.422E+01   -1.419E+01   -1.416E+01   -1.412E+01   -1.408E+01
    -1.405E+01   -1.401E+01   -1.397E+01   -1.394E+01   -1.390E+01   -1.386E+01   -1.382E+01   -1.378E+01   -1.374E+01   -1.369E+01
    -1.365E+01   -1.361E+01   -1.357E+01   -1.352E+01   -1.348E+01   -1.343E+01   -1.339E+01   -1.334E+01   -1.330E+01   -1.325E+01
    -1.320E+01   -1.315E+01   -1.310E+01   -1.306E+01   -1.301E+01   -1.296E+01   -1.291E+01   -1.286E+01   -1.280E+01   -1.275E+01
    -1.270E+01   -1.265E+01   -1.259E+01   -1.254E+01   -1.249E+01   -1.243E+01   -1.238E+01   -1.232E+01   -1.227E+01   -1.221E+01
    -1.215E+01   -1.210E+01   -1.204E+01   -1.198E+01   -1.192E+01   -1.186E+01   -1.181E+01   -1.175E+01   -1.169E+01   -1.163E+01
    -1.157E+01   -1.151E+01   -1.144E+01   -1.138E+01   -1.132E+01   -1.126E+01   -1.120E+01   -1.113E+01   -1.107E+01   -1.101E+01
    -1.094E+01   -1.088E+01   -1.082E+01   -1.075E+01   -1.069E+01   -1.062E+01   -1.056E+01   -1.049E+01   -1.043E+01   -1.036E+01
    -1.029E+01   -1.023E+01   -1.016E+01   -1.009E+01   -1.002E+01   -9.957E+00   -9.889E+00   -9.821E+00   -9.753E+00   -9.685E+00
    -9.616E+00   -9.547E+00   -9.478E+00   -9.408E+00   -9.339E+00   -9.269E+00   -9.199E+00   -9.129E+00   -9.059E+00   -8.988E+00
    -8.918E+00   -8.847E+00   -8.776E+00   -8.705E+00   -8.634E+00   -8.563E+00   -8.491E+00   -8.420E+00   -8.348E+00   -8.276E+00
    -8.204E+00   -8.132E+00   -8.060E+00   -7.988E+00   -7.915E+00   -7.843E+00   -7.770E+00   -7.698E+00   -7.625E+00   -7.552E+00
    -7.479E+00   -7.407E+00   -7.334E+00   -7.261E+00   -7.187E+00   -7.114E+00   -7.041E+00   -6.968E+00   -6.895E+00   -6.821E+00
    -6.748E+00   -6.675E+00   -6.601E+00   -6.528E+00   -6.455E+00   -6.381E+00   -6.308E+00   -6.234E+00   -6.161E+00   -6.088E+00
    -6.014E+00   -5.941E+00   -5.868E+00   -5.795E+00   -5.721E+00   -5.648E+00   -5.575E+00   -5.502E+00   -5.429E+00   -5.356E+00
    -5.283E+00   -5.211E+00   -5.138E+00   -5.065E+00   -4.993E+00   -4.920E+00   -4.848E+00   -4.775E+00   -4.703E+00   -4.631E+00
    -4.558E+00   -4.486E+00   -4.414E+00   -4.342E+00   -4.270E+00   -4.198E+00   -4.127E+00   -4.055E+00   -3.983E+00   -3.911E+00
    -3.840E+00   -3.768E+00   -3.696E+00   -3.625E+00   -3.553E+00   -3.482E+00   -3.410E+00   -3.339E+00   -3.267E+00   -3.196E+00
    -3.125E+00   -3.053E+00   -2.982E+00   -2.911E+00   -2.839E+00   -2.768E+00   -2.697E+00   -2.625E+00   -2.554E+00   -2.483E+00
    -2.411E+00   -2.340E+00   -2.269E+00   -2.197E+00   -2.126E+00   -2.055E+00   -1.983E+00   -1.912E+00
 Ala      Conc. = 2.23E+02
