 LCModel (Version 6.3-1L) Copyright: S.W. Provencher.          Ref.: Magn. Reson. Med. 30:672-679 (1993).                
 Slice#1 Row#10 Col#9  PD_05_press_2_raw_act
 36 lines in following concentration table = NCONC+1
    Conc.  %SD /Cr+PCr  Metabolite                                         
  739.295  22%   0.956 Ala                                                 
    0.000 999%   0.000 Asp                                                 
  773.508   8%   1.000 Cr                                                  
    0.000 999%   0.000 PCr                                                 
   39.211 311% 5.1E-02 GABA                                                
   47.457 247% 6.1E-02 Glc                                                 
 1.41E+03  26%   1.819 Gln                                                 
 1.47E+03  28%   1.898 Glu                                                 
  191.086  12%   0.247 GPC                                                 
    0.000 999%   0.000 PCh                                                 
  342.605  25%   0.443 GSH                                                 
 1.39E+03  18%   1.797 Ins                                                 
    0.000 999%   0.000 Lac                                                 
 1.98E+03   9%   2.565 NAA                                                 
   35.534 575% 4.6E-02 NAAG                                                
   44.724  57% 5.8E-02 Scyllo                                              
  107.925 157%   0.140 Tau                                                 
   22.042 492% 2.8E-02 -CrCH2                                              
  191.086  12%   0.247 GPC+PCh                                             
 2.02E+03   5%   2.611 NAA+NAAG                                            
  773.508   8%   1.000 Cr+PCr                                              
 2.88E+03  23%   3.717 Glu+Gln                                             
  879.483  26%   1.137 Lip13a                                              
    0.000 999%   0.000 Lip13b                                              
    0.000 999%   0.000 Lip09                                               
 1.45E+03  11%   1.879 MM09                                                
  225.137  58%   0.291 Lip20                                               
 3.63E+03   9%   4.694 MM20                                                
  468.369  31%   0.606 MM12                                                
    0.000 999%   0.000 MM14                                                
  855.766  20%   1.106 MM17                                                
  879.483  26%   1.137 Lip13a+Lip13b                                       
 1.35E+03  15%   1.743 MM14+Lip13a+Lip13b+MM12                             
 1.45E+03  11%   1.879 MM09+Lip09                                          
 3.86E+03   9%   4.985 MM20+Lip20                                          
   6 lines in following misc. output table
  FWHM = 0.069 ppm    S/N =   9                                            
  Data shift = 0.023 ppm                                                   
  Ph:   3 deg      11.6 deg/ppm                                            
  alphaB,S = 8.5E+01,   1.6E+02                                            
   14 spline knots.   Ns = 9(1)                                            
   5 inflections.     1 extrema                                            
  498 points on ppm-axis = NY
      4.000000     3.992357     3.984714     3.977070     3.969427     3.961784     3.954141     3.946497     3.938854     3.931211
      3.923568     3.915925     3.908281     3.900638     3.892995     3.885352     3.877708     3.870065     3.862422     3.854779
      3.847136     3.839492     3.831849     3.824206     3.816563     3.808919     3.801276     3.793633     3.785990     3.778347
      3.770703     3.763060     3.755417     3.747774     3.740130     3.732487     3.724844     3.717201     3.709558     3.701914
      3.694271     3.686628     3.678985     3.671341     3.663698     3.656055     3.648412     3.640769     3.633125     3.625482
      3.617839     3.610196     3.602552     3.594909     3.587266     3.579623     3.571980     3.564336     3.556693     3.549050
      3.541407     3.533763     3.526120     3.518477     3.510834     3.503191     3.495547     3.487904     3.480261     3.472618
      3.464974     3.457331     3.449688     3.442045     3.434402     3.426758     3.419115     3.411472     3.403829     3.396185
      3.388542     3.380899     3.373256     3.365613     3.357969     3.350326     3.342683     3.335040     3.327396     3.319753
      3.312110     3.304467     3.296824     3.289180     3.281537     3.273894     3.266251     3.258607     3.250964     3.243321
      3.235678     3.228034     3.220391     3.212748     3.205105     3.197462     3.189818     3.182175     3.174532     3.166889
      3.159245     3.151602     3.143959     3.136316     3.128673     3.121029     3.113386     3.105743     3.098100     3.090456
      3.082813     3.075170     3.067527     3.059884     3.052240     3.044597     3.036954     3.029311     3.021667     3.014024
      3.006381     2.998738     2.991095     2.983451     2.975808     2.968165     2.960522     2.952878     2.945235     2.937592
      2.929949     2.922306     2.914662     2.907019     2.899376     2.891733     2.884089     2.876446     2.868803     2.861160
      2.853517     2.845873     2.838230     2.830587     2.822944     2.815300     2.807657     2.800014     2.792371     2.784728
      2.777084     2.769441     2.761798     2.754155     2.746511     2.738868     2.731225     2.723582     2.715939     2.708295
      2.700652     2.693009     2.685366     2.677722     2.670079     2.662436     2.654793     2.647150     2.639506     2.631863
      2.624220     2.616577     2.608933     2.601290     2.593647     2.586004     2.578361     2.570717     2.563074     2.555431
      2.547788     2.540144     2.532501     2.524858     2.517215     2.509572     2.501928     2.494285     2.486642     2.478999
      2.471355     2.463712     2.456069     2.448426     2.440783     2.433139     2.425496     2.417853     2.410210     2.402566
      2.394923     2.387280     2.379637     2.371994     2.364350     2.356707     2.349064     2.341421     2.333777     2.326134
      2.318491     2.310848     2.303205     2.295561     2.287918     2.280275     2.272632     2.264988     2.257345     2.249702
      2.242059     2.234416     2.226772     2.219129     2.211486     2.203843     2.196199     2.188556     2.180913     2.173270
      2.165627     2.157983     2.150340     2.142697     2.135054     2.127410     2.119767     2.112124     2.104481     2.096838
      2.089194     2.081551     2.073908     2.066265     2.058621     2.050978     2.043335     2.035692     2.028049     2.020405
      2.012762     2.005119     1.997476     1.989833     1.982190     1.974546     1.966903     1.959260     1.951617     1.943974
      1.936331     1.928688     1.921045     1.913402     1.905759     1.898115     1.890472     1.882829     1.875186     1.867543
      1.859900     1.852257     1.844614     1.836971     1.829327     1.821684     1.814041     1.806398     1.798755     1.791112
      1.783469     1.775826     1.768183     1.760540     1.752896     1.745253     1.737610     1.729967     1.722324     1.714681
      1.707038     1.699395     1.691752     1.684108     1.676465     1.668822     1.661179     1.653536     1.645893     1.638250
      1.630607     1.622964     1.615321     1.607677     1.600034     1.592391     1.584748     1.577105     1.569462     1.561819
      1.554176     1.546533     1.538890     1.531246     1.523603     1.515960     1.508317     1.500674     1.493031     1.485388
      1.477745     1.470102     1.462458     1.454815     1.447172     1.439529     1.431886     1.424243     1.416600     1.408957
      1.401314     1.393671     1.386027     1.378384     1.370741     1.363098     1.355455     1.347812     1.340169     1.332526
      1.324883     1.317240     1.309596     1.301953     1.294310     1.286667     1.279024     1.271381     1.263738     1.256095
      1.248452     1.240808     1.233165     1.225522     1.217879     1.210236     1.202593     1.194950     1.187307     1.179664
      1.172021     1.164377     1.156734     1.149091     1.141448     1.133805     1.126162     1.118519     1.110876     1.103233
      1.095590     1.087946     1.080303     1.072660     1.065017     1.057374     1.049731     1.042088     1.034445     1.026802
      1.019158     1.011515     1.003872     0.996229     0.988586     0.980943     0.973300     0.965657     0.958014     0.950371
      0.942727     0.935084     0.927441     0.919798     0.912155     0.904512     0.896869     0.889226     0.881583     0.873940
      0.866296     0.858653     0.851010     0.843367     0.835724     0.828081     0.820438     0.812795     0.805152     0.797508
      0.789865     0.782222     0.774579     0.766936     0.759293     0.751650     0.744007     0.736364     0.728721     0.721077
      0.713434     0.705791     0.698148     0.690505     0.682862     0.675219     0.667576     0.659933     0.652290     0.644646
      0.637003     0.629360     0.621717     0.614074     0.606431     0.598788     0.591145     0.583502     0.575858     0.568215
      0.560572     0.552929     0.545286     0.537643     0.530000     0.522357     0.514714     0.507071     0.499427     0.491784
      0.484141     0.476498     0.468855     0.461212     0.453569     0.445925     0.438282     0.430639     0.422996     0.415353
      0.407710     0.400067     0.392424     0.384780     0.377137     0.369494     0.361851     0.354208     0.346565     0.338922
      0.331278     0.323635     0.315992     0.308349     0.300706     0.293063     0.285420     0.277777     0.270133     0.262490
      0.254847     0.247204     0.239561     0.231918     0.224275     0.216631     0.208988     0.201345
 NY phased data points follow
   1.13061E+00  5.57761E+00 -2.01933E-01  5.39345E+00  2.24094E+00  9.57579E+00  6.96994E+00  8.17978E+00  3.43333E+00  1.64291E+01
   1.15175E+01  1.67670E+01  1.14049E+01  1.46992E+01  9.87750E+00  1.31171E+01  8.23675E+00  5.98634E+00  6.10086E+00  7.13586E+00
   8.62243E+00  6.57999E+00  4.40600E+00  1.62934E+00  7.86740E+00  6.37077E+00 -1.44915E+00  4.93325E+00  6.08642E+00  8.74655E+00
   7.30806E+00  1.06526E+01  3.86036E+00  9.41237E+00  2.61341E+00  6.92806E+00  4.50268E+00  4.69687E+00  6.97490E+00  8.99111E+00
   4.59877E+00  7.80930E+00  4.17331E+00  9.39278E+00  3.92597E+00  6.04931E+00  4.98670E+00  7.46262E+00  5.24790E+00  7.05435E+00
   1.94489E+00  1.07977E+01  9.01032E+00  2.72245E+00  3.72425E+00  6.26591E+00  5.42850E+00  4.89630E+00  2.39102E-02  7.55930E+00
   5.62669E+00  2.27323E+00 -1.26034E-01  6.90547E+00 -2.58841E+00  5.07190E+00  2.39574E+00  3.38399E+00 -9.06804E-01  4.49296E+00
  -3.13785E+00  3.40728E+00 -2.72396E+00  1.71473E+00 -2.18211E+00 -1.73627E+00  2.95627E+00  5.21663E+00  3.77083E+00 -1.91939E+00
   1.36566E+00  1.04818E+00 -2.67698E+00  3.16901E+00  2.24976E+00  1.67876E-01 -2.15238E+00 -1.32451E-01 -3.85643E+00 -1.48975E+00
   4.89522E+00 -1.47228E-01  3.91976E+00  2.56669E+00  3.55726E+00  4.33711E+00 -2.14898E-01  5.57407E+00  4.59148E+00  7.64761E+00
   8.78195E+00  1.08797E+01  8.05299E+00  1.09642E+01  1.13640E+01  1.28933E+01  1.23845E+01  9.57768E+00  1.01617E+00  7.35687E+00
  -2.00519E+00  2.12062E+00  6.83832E-01  4.49770E+00  3.14799E+00 -1.66954E-01 -1.22280E+00 -1.48699E+00  2.67792E+00  5.29920E+00
   2.32765E+00  7.90551E+00  1.01488E+01  1.53602E+01  1.44772E+01  1.88190E+01  1.69861E+01  2.11300E+01  1.79480E+01  1.92512E+01
   2.20975E+01  1.72600E+01  1.17928E+01  1.34742E+01  6.11319E+00  4.89582E+00  3.02801E+00  6.49728E+00  3.58476E+00  3.33897E+00
   4.60287E-01  7.18172E+00  3.95881E+00 -2.95551E-01 -2.74714E+00  8.19577E-01 -7.41336E-01  2.02958E+00  1.14322E+00 -2.75084E-01
   1.19659E+00 -1.14834E+00 -4.00283E+00  2.18349E+00 -4.59429E+00  8.07613E-01  1.73380E+00  3.21167E-01  4.37887E+00  6.76040E-01
  -3.14433E-01 -7.47508E-01 -1.88016E+00  1.01901E+00  2.60202E+00 -1.15304E+00 -1.00866E+00  2.40544E+00 -4.35310E+00 -7.04631E+00
  -8.85906E+00 -4.65128E+00 -6.96036E+00 -1.96977E+00 -7.81961E+00 -1.25477E+01 -1.02129E+01 -1.07738E+01 -6.95910E+00 -9.05066E+00
  -8.92580E+00 -1.01473E+01 -9.22348E+00 -8.69886E-01 -6.12068E+00 -4.12535E+00 -1.64095E-01  1.32730E+00 -7.33503E+00 -6.68645E+00
  -7.98138E+00  1.19426E+00 -5.54683E+00 -5.71240E+00 -3.98883E+00 -5.33172E+00 -6.15288E+00 -5.56528E+00 -4.78818E+00 -3.48895E+00
  -2.55661E+00 -2.17165E+00 -8.22193E+00  1.91579E+00  8.54069E-01 -1.13965E+00 -1.92913E+00  1.32389E+00 -2.73203E+00  2.98782E+00
  -4.81097E-01 -1.34804E+00  3.07221E-01  5.38264E+00  4.60039E+00  7.86474E+00  3.80949E+00  9.22763E+00  5.01580E+00  2.55690E+00
   1.71995E+00 -2.38718E+00 -1.45609E+00  7.83670E+00 -1.56102E-01  5.65522E+00  6.25627E+00  1.08349E+01  7.34134E+00  1.22342E+01
   9.30853E+00  6.61153E+00  6.44248E+00  8.70014E+00  8.99060E+00  6.93647E+00  1.04118E+01  1.00082E+01  5.81978E+00  9.24618E+00
   6.35553E+00  1.14258E+01  8.66277E+00  1.12260E+01  6.63767E+00  1.03809E+01  1.26911E+01  8.37373E+00  9.68136E+00  1.60731E+01
   1.68704E+01  2.27825E+01  2.41315E+01  2.58964E+01  3.23337E+01  3.87210E+01  4.34974E+01  5.58166E+01  5.74740E+01  6.21459E+01
   6.55558E+01  6.50131E+01  5.68708E+01  4.53653E+01  3.93968E+01  3.02359E+01  2.26134E+01  1.35177E+01  1.69872E+01  1.35944E+01
   1.12727E+01  9.35732E+00  6.94095E+00  8.42839E+00  6.48840E+00  6.69814E+00  1.09593E+01  4.20713E+00  2.25685E+00  2.08732E+00
   4.05961E+00  7.72199E+00  3.91072E+00  4.45095E+00  4.43389E+00  1.80539E+00 -6.85814E-01  4.27026E+00  2.65247E+00  3.34012E+00
   3.61365E+00  5.01478E+00  1.67979E+00  4.15265E+00  6.71586E+00  6.22342E+00  6.04290E+00  5.05608E+00  3.01538E+00  3.00512E+00
   4.75313E+00  2.60634E+00  7.10165E+00 -1.34288E+00  5.18390E+00  5.34348E+00  5.70215E+00  1.04225E+01  9.45189E+00  6.64867E+00
   9.61915E+00  1.03231E+01  3.63891E+00  1.04116E+01  5.45393E+00  2.25771E+00  3.16007E+00  9.28454E+00  2.44863E+00  7.25397E+00
   3.39889E+00  4.98851E+00  1.56205E+00  3.56437E+00 -1.52949E+00  2.06908E+00 -3.64955E+00 -1.55717E+00 -2.82143E+00 -2.51025E+00
  -1.13386E+01 -1.07050E+01 -6.03261E+00 -1.10963E+01 -7.38304E+00 -2.45077E+00 -1.20079E+00  2.95612E-01  1.84814E-01  1.13993E+00
  -1.56111E+00  7.09648E+00 -6.06350E-02  6.97598E-01  1.88474E+00  3.22652E+00  8.75922E+00  3.55444E+00  2.36898E+00  1.90091E+00
   3.25719E+00  4.77410E+00  7.42819E+00  5.32521E+00  3.51272E+00  5.13086E+00  9.15081E+00  6.19932E+00  7.94982E+00  5.10614E+00
   6.23584E+00  1.07032E+01  1.05641E+01  1.12473E+01  1.22515E+01  9.52719E+00  1.00093E+01  9.91691E+00  8.26981E+00  7.72635E+00
   5.61051E+00  6.37196E+00  7.85637E+00  2.07074E+00  8.28503E+00  1.06684E+00  3.08330E+00  3.64185E+00  2.25113E+00  2.95922E+00
   2.52230E+00  6.06343E+00  4.53073E+00  2.38301E+00  1.38655E+00  2.03554E+00 -6.19620E-01 -3.84994E+00  6.55891E+00  5.81988E+00
   7.74243E+00  5.54962E+00  2.88140E+00  7.74248E+00  8.83349E+00  8.54547E+00  8.65713E+00  1.18551E+01  9.34400E+00  1.02975E+01
   9.75861E+00  1.32965E+01  8.09139E+00  1.19752E+01  1.57963E+01  7.87970E+00  1.12699E+01  8.07743E+00  8.21410E+00  8.88316E+00
   1.19223E+01  7.75058E+00  7.04793E+00  7.05495E+00  4.47413E+00  2.86908E+00  7.56706E+00  5.91027E+00  1.92774E+00  4.93918E+00
   4.03726E+00  1.36365E+00 -3.27675E+00 -1.90538E+00 -1.18860E-01  2.28220E+00 -4.17537E+00 -8.86624E-01  9.49726E-01  3.23686E-01
  -2.48996E+00  7.72443E-01 -1.29488E+00  1.09945E+00 -4.25419E-01  1.18148E+00  6.06600E-01 -3.20992E-01  1.05326E+00  1.30085E+00
   1.28633E+00 -8.95483E-01 -4.14737E-01  1.29714E+00  1.50762E-01  4.51032E+00 -1.40284E+00 -9.18538E-02  6.03027E-01  2.80205E+00
   2.15127E+00 -6.44044E-01  1.58944E+00  4.77751E+00  2.58205E+00 -2.72543E+00  9.26282E-01  2.27964E+00  3.26186E+00 -4.00774E+00
   9.37030E-01  9.03288E-01  3.94183E-01  1.69920E+00  6.10963E-01 -9.09587E-01  2.73086E+00 -1.56130E+00 -1.99743E+00  1.24555E+00
   1.25292E+00  2.75120E+00  4.82181E+00  9.39069E+00 -3.11088E+00  1.78749E+00 -3.10657E+00  4.62652E+00  1.53363E+00 -4.90517E+00
  -1.89258E+00 -2.36570E+00 -2.28613E+00 -9.84495E-01  2.63844E-01 -1.59296E+00  1.44218E+00 -4.23216E-01  1.70399E+00  4.09563E+00
  -1.46098E+00 -4.75166E+00  2.94483E+00  3.33395E+00  1.98800E+00 -1.73242E+00 -4.46891E+00  3.42264E+00
 NY points of the fit to the data follow
   2.64639E+00  2.31186E+00  2.29713E+00  3.03046E+00  4.23289E+00  5.47192E+00  6.78939E+00  8.31233E+00  9.97866E+00  1.15880E+01
   1.29170E+01  1.37862E+01  1.40082E+01  1.34597E+01  1.21837E+01  1.04610E+01  8.71621E+00  7.14806E+00  5.85114E+00  4.95786E+00
   4.44770E+00  4.13913E+00  3.83196E+00  3.88216E+00  4.19952E+00  4.61537E+00  5.08034E+00  5.65036E+00  6.42339E+00  7.36227E+00
   8.33528E+00  9.10821E+00  9.33316E+00  8.84725E+00  7.66939E+00  6.05238E+00  4.48234E+00  3.36901E+00  2.91074E+00  3.02293E+00
   3.50519E+00  4.23922E+00  5.02678E+00  5.86300E+00  6.70748E+00  7.45890E+00  7.94510E+00  8.03125E+00  7.58895E+00  6.57910E+00
   5.26971E+00  3.98685E+00  2.90252E+00  2.17752E+00  1.89418E+00  1.97677E+00  2.17141E+00  2.30871E+00  2.46860E+00  2.67717E+00
   2.81145E+00  2.74552E+00  2.50517E+00  2.21169E+00  1.93024E+00  1.72219E+00  1.67986E+00  1.84233E+00  2.11522E+00  2.37592E+00
   2.58238E+00  2.71298E+00  2.76089E+00  2.73418E+00  2.62087E+00  2.43643E+00  2.21394E+00  2.01449E+00  1.82612E+00  1.59829E+00
   1.35839E+00  1.12091E+00  8.99199E-01  7.07420E-01  4.92367E-01  2.20896E-01 -9.34087E-02 -3.91739E-01 -6.51138E-01 -8.33098E-01
  -8.80266E-01 -7.93671E-01 -5.88620E-01 -2.04793E-01  6.79528E-01  1.95414E+00  3.17003E+00  4.40117E+00  5.80031E+00  7.38163E+00
   9.04540E+00  1.05868E+01  1.17679E+01  1.23622E+01  1.21628E+01  1.10963E+01  9.33956E+00  7.28387E+00  5.29135E+00  3.65362E+00
   2.57482E+00  1.96490E+00  1.45167E+00  8.47427E-01  4.92038E-01  5.06031E-01  6.53244E-01  9.22675E-01  1.61446E+00  3.25416E+00
   5.30894E+00  7.40073E+00  9.64827E+00  1.21799E+01  1.49555E+01  1.77049E+01  1.99788E+01  2.14219E+01  2.17465E+01  2.07685E+01
   1.85791E+01  1.55902E+01  1.23441E+01  9.32072E+00  6.87586E+00  5.18989E+00  4.00512E+00  2.86733E+00  1.87948E+00  1.56400E+00
   1.64354E+00  1.78105E+00  1.82928E+00  1.73357E+00  1.54017E+00  1.30680E+00  1.04565E+00  7.92935E-01  5.66356E-01  3.53168E-01
   1.52816E-01 -6.34198E-02 -3.31150E-01 -5.84992E-01 -7.97524E-01 -9.56251E-01 -1.06099E+00 -1.20069E+00 -1.39199E+00 -1.58996E+00
  -1.75931E+00 -1.88759E+00 -1.97454E+00 -2.03334E+00 -2.10059E+00 -2.23517E+00 -2.49382E+00 -2.90979E+00 -3.39118E+00 -3.80539E+00
  -4.10934E+00 -4.34313E+00 -4.60723E+00 -4.86320E+00 -5.06840E+00 -5.18410E+00 -5.19746E+00 -5.17714E+00 -5.16585E+00 -5.09794E+00
  -4.96458E+00 -4.78543E+00 -4.55271E+00 -4.24017E+00 -3.82575E+00 -3.30798E+00 -2.70106E+00 -2.10782E+00 -1.58254E+00 -1.16538E+00
  -8.59847E-01 -7.18627E-01 -7.71532E-01 -9.34468E-01 -1.07123E+00 -1.03671E+00 -6.90059E-01 -3.40299E-02  7.94889E-01  1.75870E+00
   2.64111E+00  3.06841E+00  3.09525E+00  2.78351E+00  1.94843E+00  6.24550E-01 -8.89500E-01 -2.17676E+00 -3.11766E+00 -3.55465E+00
  -3.25226E+00 -2.16446E+00 -5.11550E-01  1.22683E+00  2.66689E+00  3.64517E+00  3.97831E+00  3.51385E+00  2.46680E+00  1.34654E+00
   4.66747E-01 -1.06836E-01 -1.28298E-01  5.37788E-01  1.68571E+00  3.00607E+00  4.23050E+00  5.19454E+00  5.81544E+00  6.13819E+00
   6.25314E+00  6.36684E+00  6.65913E+00  6.99214E+00  7.21665E+00  7.53464E+00  8.02567E+00  8.56576E+00  9.04357E+00  9.38250E+00
   9.53465E+00  9.51412E+00  9.35387E+00  9.14984E+00  9.13495E+00  9.49104E+00  1.01706E+01  1.10010E+01  1.19591E+01  1.30386E+01
   1.46023E+01  1.83033E+01  2.36660E+01  2.90678E+01  3.43772E+01  4.00773E+01  4.62308E+01  5.23835E+01  5.77517E+01  6.15496E+01
   6.29551E+01  6.12535E+01  5.62842E+01  4.88174E+01  4.02347E+01  3.18520E+01  2.47966E+01  1.98434E+01  1.65786E+01  1.35239E+01
   1.01924E+01  8.04354E+00  7.12486E+00  6.52967E+00  6.05273E+00  5.64583E+00  5.24516E+00  4.82871E+00  4.41174E+00  4.00527E+00
   3.62927E+00  3.30269E+00  3.02568E+00  2.78967E+00  2.60059E+00  2.46559E+00  2.38054E+00  2.34082E+00  2.34592E+00  2.39896E+00
   2.50279E+00  2.65455E+00  2.85084E+00  3.09103E+00  3.37179E+00  3.68627E+00  4.02668E+00  4.38536E+00  4.75176E+00  5.11275E+00
   5.45609E+00  5.76981E+00  6.04112E+00  6.25904E+00  6.41509E+00  6.50261E+00  6.51824E+00  6.46225E+00  6.33839E+00  6.15345E+00
   5.91703E+00  5.64151E+00  5.34159E+00  5.03444E+00  4.74061E+00  4.48555E+00  4.30669E+00  4.27894E+00  4.54619E+00  4.93062E+00
   5.08937E+00  5.08745E+00  5.00271E+00  4.77238E+00  4.23625E+00  3.20243E+00  1.77934E+00  3.07499E-01 -1.29066E+00 -2.96703E+00
  -4.40169E+00 -5.21518E+00 -5.17992E+00 -4.27420E+00 -2.66464E+00 -7.11914E-01  1.10075E+00  2.49655E+00  3.53054E+00  4.16453E+00
   4.27542E+00  4.04350E+00  3.74932E+00  3.63813E+00  3.68831E+00  3.66178E+00  3.58366E+00  3.71505E+00  4.01275E+00  4.41424E+00
   4.88752E+00  5.40935E+00  5.95883E+00  6.51543E+00  7.05864E+00  7.56830E+00  8.02532E+00  8.41247E+00  8.71521E+00  8.92238E+00
   9.02684E+00  9.02580E+00  8.92093E+00  8.71814E+00  8.42704E+00  8.06027E+00  7.63271E+00  7.16055E+00  6.66041E+00  6.14849E+00
   5.63986E+00  5.14793E+00  4.68419E+00  4.25803E+00  3.87678E+00  3.54587E+00  3.26907E+00  3.04884E+00  2.88671E+00  2.78358E+00
   2.73997E+00  2.75622E+00  2.83259E+00  2.96928E+00  3.16643E+00  3.42386E+00  3.74090E+00  4.11606E+00  4.54675E+00  5.02899E+00
   5.55719E+00  6.12386E+00  6.71960E+00  7.33301E+00  7.95098E+00  8.55896E+00  9.14144E+00  9.68251E+00  1.01665E+01  1.05789E+01
   1.09067E+01  1.11395E+01  1.12700E+01  1.12939E+01  1.12107E+01  1.10234E+01  1.07385E+01  1.03653E+01  9.91554E+00  9.40275E+00
   8.84144E+00  8.24642E+00  7.63216E+00  7.01218E+00  6.39856E+00  5.80162E+00  5.22976E+00  4.68939E+00  4.18502E+00  3.71932E+00
   3.29344E+00  2.90716E+00  2.55928E+00  2.24778E+00  1.97017E+00  1.72358E+00  1.50506E+00  1.31160E+00  1.14035E+00  9.88642E-01
   8.54032E-01  7.34305E-01  6.27498E-01  5.31881E-01  4.45979E-01  3.68512E-01  2.98390E-01  2.34654E-01  1.76499E-01  1.23232E-01
   7.42849E-02  2.91617E-02 -1.25618E-02 -5.12725E-02 -8.72918E-02 -1.20896E-01 -1.52309E-01 -1.81742E-01 -2.09379E-01 -2.35400E-01
  -2.59943E-01 -2.83133E-01 -3.05067E-01 -3.25850E-01 -3.45576E-01 -3.64342E-01 -3.82210E-01 -3.99245E-01 -4.15491E-01 -4.31018E-01
  -4.45880E-01 -4.60132E-01 -4.73801E-01 -4.86920E-01 -4.99516E-01 -5.11638E-01 -5.23320E-01 -5.34596E-01 -5.45475E-01 -5.55979E-01
  -5.66128E-01 -5.75960E-01 -5.85493E-01 -5.94744E-01 -6.03714E-01 -6.12423E-01 -6.20887E-01 -6.29140E-01 -6.37189E-01 -6.45044E-01
  -6.52704E-01 -6.60188E-01 -6.67514E-01 -6.74706E-01 -6.81764E-01 -6.88697E-01 -6.95501E-01 -7.02203E-01 -7.08818E-01 -7.15367E-01
  -7.21846E-01 -7.28264E-01 -7.34624E-01 -7.40958E-01 -7.47281E-01 -7.53614E-01 -7.59953E-01 -7.66314E-01
 NY background values follow
    -1.928E+00   -1.927E+00   -1.926E+00   -1.925E+00   -1.925E+00   -1.924E+00   -1.923E+00   -1.922E+00   -1.921E+00   -1.920E+00
    -1.919E+00   -1.918E+00   -1.917E+00   -1.916E+00   -1.916E+00   -1.915E+00   -1.914E+00   -1.913E+00   -1.912E+00   -1.911E+00
    -1.910E+00   -1.909E+00   -1.908E+00   -1.907E+00   -1.907E+00   -1.906E+00   -1.905E+00   -1.904E+00   -1.903E+00   -1.902E+00
    -1.901E+00   -1.900E+00   -1.899E+00   -1.898E+00   -1.898E+00   -1.897E+00   -1.896E+00   -1.895E+00   -1.894E+00   -1.893E+00
    -1.892E+00   -1.891E+00   -1.890E+00   -1.889E+00   -1.888E+00   -1.888E+00   -1.887E+00   -1.886E+00   -1.885E+00   -1.884E+00
    -1.883E+00   -1.882E+00   -1.881E+00   -1.880E+00   -1.879E+00   -1.878E+00   -1.877E+00   -1.877E+00   -1.876E+00   -1.875E+00
    -1.874E+00   -1.873E+00   -1.872E+00   -1.871E+00   -1.870E+00   -1.869E+00   -1.868E+00   -1.867E+00   -1.866E+00   -1.866E+00
    -1.865E+00   -1.864E+00   -1.863E+00   -1.862E+00   -1.861E+00   -1.860E+00   -1.859E+00   -1.858E+00   -1.857E+00   -1.856E+00
    -1.855E+00   -1.854E+00   -1.854E+00   -1.853E+00   -1.852E+00   -1.851E+00   -1.850E+00   -1.849E+00   -1.848E+00   -1.847E+00
    -1.846E+00   -1.845E+00   -1.844E+00   -1.843E+00   -1.842E+00   -1.841E+00   -1.841E+00   -1.840E+00   -1.839E+00   -1.838E+00
    -1.837E+00   -1.836E+00   -1.835E+00   -1.834E+00   -1.833E+00   -1.832E+00   -1.831E+00   -1.830E+00   -1.829E+00   -1.828E+00
    -1.827E+00   -1.827E+00   -1.826E+00   -1.825E+00   -1.824E+00   -1.823E+00   -1.822E+00   -1.821E+00   -1.820E+00   -1.819E+00
    -1.818E+00   -1.817E+00   -1.816E+00   -1.815E+00   -1.814E+00   -1.813E+00   -1.812E+00   -1.811E+00   -1.811E+00   -1.810E+00
    -1.809E+00   -1.808E+00   -1.807E+00   -1.806E+00   -1.805E+00   -1.804E+00   -1.803E+00   -1.802E+00   -1.801E+00   -1.800E+00
    -1.799E+00   -1.798E+00   -1.797E+00   -1.796E+00   -1.795E+00   -1.794E+00   -1.794E+00   -1.793E+00   -1.792E+00   -1.791E+00
    -1.790E+00   -1.789E+00   -1.788E+00   -1.787E+00   -1.786E+00   -1.785E+00   -1.784E+00   -1.783E+00   -1.782E+00   -1.781E+00
    -1.780E+00   -1.779E+00   -1.778E+00   -1.777E+00   -1.776E+00   -1.775E+00   -1.774E+00   -1.774E+00   -1.773E+00   -1.772E+00
    -1.771E+00   -1.770E+00   -1.769E+00   -1.768E+00   -1.767E+00   -1.766E+00   -1.765E+00   -1.764E+00   -1.763E+00   -1.762E+00
    -1.761E+00   -1.760E+00   -1.759E+00   -1.758E+00   -1.757E+00   -1.756E+00   -1.755E+00   -1.754E+00   -1.753E+00   -1.752E+00
    -1.751E+00   -1.750E+00   -1.749E+00   -1.749E+00   -1.748E+00   -1.747E+00   -1.746E+00   -1.745E+00   -1.744E+00   -1.743E+00
    -1.742E+00   -1.741E+00   -1.740E+00   -1.739E+00   -1.738E+00   -1.737E+00   -1.736E+00   -1.735E+00   -1.734E+00   -1.733E+00
    -1.732E+00   -1.731E+00   -1.730E+00   -1.729E+00   -1.728E+00   -1.727E+00   -1.726E+00   -1.725E+00   -1.724E+00   -1.723E+00
    -1.722E+00   -1.721E+00   -1.720E+00   -1.719E+00   -1.718E+00   -1.717E+00   -1.716E+00   -1.715E+00   -1.714E+00   -1.714E+00
    -1.713E+00   -1.712E+00   -1.711E+00   -1.710E+00   -1.709E+00   -1.708E+00   -1.707E+00   -1.706E+00   -1.705E+00   -1.704E+00
    -1.703E+00   -1.702E+00   -1.701E+00   -1.700E+00   -1.699E+00   -1.698E+00   -1.697E+00   -1.696E+00   -1.695E+00   -1.694E+00
    -1.693E+00   -1.692E+00   -1.691E+00   -1.690E+00   -1.689E+00   -1.688E+00   -1.687E+00   -1.686E+00   -1.685E+00   -1.684E+00
    -1.683E+00   -1.682E+00   -1.681E+00   -1.680E+00   -1.679E+00   -1.678E+00   -1.677E+00   -1.676E+00   -1.675E+00   -1.674E+00
    -1.673E+00   -1.672E+00   -1.671E+00   -1.670E+00   -1.669E+00   -1.668E+00   -1.667E+00   -1.666E+00   -1.665E+00   -1.664E+00
    -1.663E+00   -1.662E+00   -1.661E+00   -1.660E+00   -1.659E+00   -1.658E+00   -1.657E+00   -1.656E+00   -1.655E+00   -1.654E+00
    -1.653E+00   -1.652E+00   -1.651E+00   -1.650E+00   -1.649E+00   -1.648E+00   -1.647E+00   -1.646E+00   -1.645E+00   -1.644E+00
    -1.643E+00   -1.642E+00   -1.641E+00   -1.640E+00   -1.639E+00   -1.638E+00   -1.637E+00   -1.636E+00   -1.635E+00   -1.634E+00
    -1.633E+00   -1.632E+00   -1.631E+00   -1.630E+00   -1.629E+00   -1.628E+00   -1.627E+00   -1.626E+00   -1.625E+00   -1.624E+00
    -1.623E+00   -1.622E+00   -1.621E+00   -1.620E+00   -1.619E+00   -1.618E+00   -1.617E+00   -1.616E+00   -1.615E+00   -1.614E+00
    -1.613E+00   -1.612E+00   -1.611E+00   -1.610E+00   -1.609E+00   -1.608E+00   -1.607E+00   -1.606E+00   -1.605E+00   -1.604E+00
    -1.603E+00   -1.602E+00   -1.601E+00   -1.600E+00   -1.599E+00   -1.598E+00   -1.597E+00   -1.596E+00   -1.595E+00   -1.594E+00
    -1.593E+00   -1.592E+00   -1.591E+00   -1.590E+00   -1.589E+00   -1.588E+00   -1.587E+00   -1.586E+00   -1.585E+00   -1.584E+00
    -1.583E+00   -1.582E+00   -1.581E+00   -1.580E+00   -1.579E+00   -1.578E+00   -1.577E+00   -1.576E+00   -1.575E+00   -1.574E+00
    -1.573E+00   -1.571E+00   -1.570E+00   -1.569E+00   -1.568E+00   -1.567E+00   -1.566E+00   -1.565E+00   -1.564E+00   -1.563E+00
    -1.562E+00   -1.561E+00   -1.560E+00   -1.559E+00   -1.558E+00   -1.557E+00   -1.556E+00   -1.555E+00   -1.554E+00   -1.553E+00
    -1.552E+00   -1.551E+00   -1.550E+00   -1.549E+00   -1.548E+00   -1.547E+00   -1.546E+00   -1.545E+00   -1.544E+00   -1.543E+00
    -1.542E+00   -1.541E+00   -1.540E+00   -1.539E+00   -1.538E+00   -1.537E+00   -1.536E+00   -1.535E+00   -1.534E+00   -1.533E+00
    -1.531E+00   -1.530E+00   -1.529E+00   -1.528E+00   -1.527E+00   -1.526E+00   -1.525E+00   -1.524E+00   -1.523E+00   -1.522E+00
    -1.521E+00   -1.520E+00   -1.519E+00   -1.518E+00   -1.517E+00   -1.516E+00   -1.515E+00   -1.514E+00   -1.513E+00   -1.512E+00
    -1.511E+00   -1.510E+00   -1.509E+00   -1.508E+00   -1.507E+00   -1.506E+00   -1.505E+00   -1.504E+00   -1.503E+00   -1.502E+00
    -1.501E+00   -1.499E+00   -1.498E+00   -1.497E+00   -1.496E+00   -1.495E+00   -1.494E+00   -1.493E+00   -1.492E+00   -1.491E+00
    -1.490E+00   -1.489E+00   -1.488E+00   -1.487E+00   -1.486E+00   -1.485E+00   -1.484E+00   -1.483E+00   -1.482E+00   -1.481E+00
    -1.480E+00   -1.479E+00   -1.478E+00   -1.477E+00   -1.476E+00   -1.475E+00   -1.474E+00   -1.472E+00   -1.471E+00   -1.470E+00
    -1.469E+00   -1.468E+00   -1.467E+00   -1.466E+00   -1.465E+00   -1.464E+00   -1.463E+00   -1.462E+00   -1.461E+00   -1.460E+00
    -1.459E+00   -1.458E+00   -1.457E+00   -1.456E+00   -1.455E+00   -1.454E+00   -1.453E+00   -1.452E+00   -1.451E+00   -1.450E+00
    -1.448E+00   -1.447E+00   -1.446E+00   -1.445E+00   -1.444E+00   -1.443E+00   -1.442E+00   -1.441E+00
 Ala      Conc. = 7.39E+02
