 LCModel (Version 6.3-1L) Copyright: S.W. Provencher.          Ref.: Magn. Reson. Med. 30:672-679 (1993).                
 Slice#2 Row#1 Col#9  PD_05_press_2_raw_act
 36 lines in following concentration table = NCONC+1
    Conc.  %SD /Cr+PCr  Metabolite                                         
    0.000 999%   0.000 Ala                                                 
   72.215  64%   0.218 Asp                                                 
  331.380  31%   1.000 Cr                                                  
    0.000 999%   0.000 PCr                                                 
   46.349  60%   0.140 GABA                                                
   42.999  65%   0.130 Glc                                                 
  803.460  46%   2.425 Gln                                                 
    0.000 999%   0.000 Glu                                                 
   74.260  52%   0.224 GPC                                                 
    0.000 999%   0.000 PCh                                                 
    0.000 999%   0.000 GSH                                                 
 1.86E+03  28%   5.611 Ins                                                 
    0.000 999%   0.000 Lac                                                 
  408.498  31%   1.233 NAA                                                 
  486.532  25%   1.468 NAAG                                                
   16.441  56% 5.0E-02 Scyllo                                              
   73.875  63%   0.223 Tau                                                 
    0.000 999%   0.000 -CrCH2                                              
   74.260  52%   0.224 GPC+PCh                                             
  895.031  18%   2.701 NAA+NAAG                                            
  331.380  31%   1.000 Cr+PCr                                              
  803.460  46%   2.425 Glu+Gln                                             
    0.000 999%   0.000 Lip13a                                              
  194.166 135%   0.586 Lip13b                                              
  242.673 131%   0.732 Lip09                                               
  222.227 137%   0.671 MM09                                                
    0.000 999%   0.000 Lip20                                               
  300.963 163%   0.908 MM20                                                
   89.230 167%   0.269 MM12                                                
    0.000 999%   0.000 MM14                                                
    0.000 999%   0.000 MM17                                                
  194.166 135%   0.586 Lip13a+Lip13b                                       
  283.396  98%   0.855 MM14+Lip13a+Lip13b+MM12                             
  464.900  64%   1.403 MM09+Lip09                                          
  300.963 163%   0.908 MM20+Lip20                                          
   6 lines in following misc. output table
  FWHM = 0.038 ppm    S/N =   1                                            
  Data shift = 0.000 ppm                                                   
  Ph: 100 deg      29.0 deg/ppm                                            
  alphaB,S = 8.5E+01,   8.7E+00                                            
   14 spline knots.   Ns = 5(1)                                            
  ( 8) 3 infls.   ( 7) 3 extrs.                                            
  498 points on ppm-axis = NY
      4.000000     3.992357     3.984714     3.977070     3.969427     3.961784     3.954141     3.946497     3.938854     3.931211
      3.923568     3.915925     3.908281     3.900638     3.892995     3.885352     3.877708     3.870065     3.862422     3.854779
      3.847136     3.839492     3.831849     3.824206     3.816563     3.808919     3.801276     3.793633     3.785990     3.778347
      3.770703     3.763060     3.755417     3.747774     3.740130     3.732487     3.724844     3.717201     3.709558     3.701914
      3.694271     3.686628     3.678985     3.671341     3.663698     3.656055     3.648412     3.640769     3.633125     3.625482
      3.617839     3.610196     3.602552     3.594909     3.587266     3.579623     3.571980     3.564336     3.556693     3.549050
      3.541407     3.533763     3.526120     3.518477     3.510834     3.503191     3.495547     3.487904     3.480261     3.472618
      3.464974     3.457331     3.449688     3.442045     3.434402     3.426758     3.419115     3.411472     3.403829     3.396185
      3.388542     3.380899     3.373256     3.365613     3.357969     3.350326     3.342683     3.335040     3.327396     3.319753
      3.312110     3.304467     3.296824     3.289180     3.281537     3.273894     3.266251     3.258607     3.250964     3.243321
      3.235678     3.228034     3.220391     3.212748     3.205105     3.197462     3.189818     3.182175     3.174532     3.166889
      3.159245     3.151602     3.143959     3.136316     3.128673     3.121029     3.113386     3.105743     3.098100     3.090456
      3.082813     3.075170     3.067527     3.059884     3.052240     3.044597     3.036954     3.029311     3.021667     3.014024
      3.006381     2.998738     2.991095     2.983451     2.975808     2.968165     2.960522     2.952878     2.945235     2.937592
      2.929949     2.922306     2.914662     2.907019     2.899376     2.891733     2.884089     2.876446     2.868803     2.861160
      2.853517     2.845873     2.838230     2.830587     2.822944     2.815300     2.807657     2.800014     2.792371     2.784728
      2.777084     2.769441     2.761798     2.754155     2.746511     2.738868     2.731225     2.723582     2.715939     2.708295
      2.700652     2.693009     2.685366     2.677722     2.670079     2.662436     2.654793     2.647150     2.639506     2.631863
      2.624220     2.616577     2.608933     2.601290     2.593647     2.586004     2.578361     2.570717     2.563074     2.555431
      2.547788     2.540144     2.532501     2.524858     2.517215     2.509572     2.501928     2.494285     2.486642     2.478999
      2.471355     2.463712     2.456069     2.448426     2.440783     2.433139     2.425496     2.417853     2.410210     2.402566
      2.394923     2.387280     2.379637     2.371994     2.364350     2.356707     2.349064     2.341421     2.333777     2.326134
      2.318491     2.310848     2.303205     2.295561     2.287918     2.280275     2.272632     2.264988     2.257345     2.249702
      2.242059     2.234416     2.226772     2.219129     2.211486     2.203843     2.196199     2.188556     2.180913     2.173270
      2.165627     2.157983     2.150340     2.142697     2.135054     2.127410     2.119767     2.112124     2.104481     2.096838
      2.089194     2.081551     2.073908     2.066265     2.058621     2.050978     2.043335     2.035692     2.028049     2.020405
      2.012762     2.005119     1.997476     1.989833     1.982190     1.974546     1.966903     1.959260     1.951617     1.943974
      1.936331     1.928688     1.921045     1.913402     1.905759     1.898115     1.890472     1.882829     1.875186     1.867543
      1.859900     1.852257     1.844614     1.836971     1.829327     1.821684     1.814041     1.806398     1.798755     1.791112
      1.783469     1.775826     1.768183     1.760540     1.752896     1.745253     1.737610     1.729967     1.722324     1.714681
      1.707038     1.699395     1.691752     1.684108     1.676465     1.668822     1.661179     1.653536     1.645893     1.638250
      1.630607     1.622964     1.615321     1.607677     1.600034     1.592391     1.584748     1.577105     1.569462     1.561819
      1.554176     1.546533     1.538890     1.531246     1.523603     1.515960     1.508317     1.500674     1.493031     1.485388
      1.477745     1.470102     1.462458     1.454815     1.447172     1.439529     1.431886     1.424243     1.416600     1.408957
      1.401314     1.393671     1.386027     1.378384     1.370741     1.363098     1.355455     1.347812     1.340169     1.332526
      1.324883     1.317240     1.309596     1.301953     1.294310     1.286667     1.279024     1.271381     1.263738     1.256095
      1.248452     1.240808     1.233165     1.225522     1.217879     1.210236     1.202593     1.194950     1.187307     1.179664
      1.172021     1.164377     1.156734     1.149091     1.141448     1.133805     1.126162     1.118519     1.110876     1.103233
      1.095590     1.087946     1.080303     1.072660     1.065017     1.057374     1.049731     1.042088     1.034445     1.026802
      1.019158     1.011515     1.003872     0.996229     0.988586     0.980943     0.973300     0.965657     0.958014     0.950371
      0.942727     0.935084     0.927441     0.919798     0.912155     0.904512     0.896869     0.889226     0.881583     0.873940
      0.866296     0.858653     0.851010     0.843367     0.835724     0.828081     0.820438     0.812795     0.805152     0.797508
      0.789865     0.782222     0.774579     0.766936     0.759293     0.751650     0.744007     0.736364     0.728721     0.721077
      0.713434     0.705791     0.698148     0.690505     0.682862     0.675219     0.667576     0.659933     0.652290     0.644646
      0.637003     0.629360     0.621717     0.614074     0.606431     0.598788     0.591145     0.583502     0.575858     0.568215
      0.560572     0.552929     0.545286     0.537643     0.530000     0.522357     0.514714     0.507071     0.499427     0.491784
      0.484141     0.476498     0.468855     0.461212     0.453569     0.445925     0.438282     0.430639     0.422996     0.415353
      0.407710     0.400067     0.392424     0.384780     0.377137     0.369494     0.361851     0.354208     0.346565     0.338922
      0.331278     0.323635     0.315992     0.308349     0.300706     0.293063     0.285420     0.277777     0.270133     0.262490
      0.254847     0.247204     0.239561     0.231918     0.224275     0.216631     0.208988     0.201345
 NY phased data points follow
   3.92378E+01  2.68375E+01  1.11464E+01  1.14666E+01  1.86066E+01  2.41883E+01  2.30651E+01  2.15355E+01  1.72339E+01  1.86960E+01
   1.22686E+01  3.25426E+01  4.51332E+01  2.79035E+01  2.35987E+01  3.32066E+01  2.06396E+01  2.49223E+01  3.30053E+01  3.27211E+01
   2.33014E+01  1.83386E+01  5.75307E+00  1.93758E+01  2.39545E+01  3.22831E+01  1.96271E+01  9.68310E+00  2.79191E+01  1.88904E+01
   1.52939E+01  5.05083E+00  1.94099E+00  1.80203E+01  6.60441E+00  2.35036E+01  1.07942E+01  2.38138E+00  8.99061E+00  1.46774E+01
  -3.30598E-01  2.18770E+00  2.47752E+01  1.32954E+01  1.86130E+01  1.09794E+01  1.45339E+01  1.58458E+01  3.69250E+01  2.07685E+01
   3.15802E+01  3.04064E+01  2.15108E+01 -8.07363E+00  1.08875E+01  1.26127E+01  6.92036E+00  1.55186E+01  9.31615E+00  1.76081E+01
   1.72185E+01 -3.64007E+00  1.96973E+01  1.30661E+01  1.66265E+01  9.11629E-01  1.11649E+01  9.66098E+00 -9.60078E+00 -9.10172E+00
   9.31175E+00  7.70075E+00  1.53352E+01  1.16466E+01  1.70758E+01  2.37904E+01  1.90359E+01  1.17153E+00  4.39763E+00  1.68834E+01
   7.61158E+00  2.29907E+00  9.56729E+00  4.26630E+00  7.07657E+00  9.81673E-01  8.71720E+00  1.08948E+01  1.57673E+01 -3.39641E+00
   1.74974E+01  1.19815E+01 -2.02349E+00  1.54748E+01  2.20844E+01  1.92784E+01  5.55922E+00  3.46653E+00 -5.64149E-01  2.70868E+00
   4.78985E+00  4.60975E+00  3.71854E+00  8.64923E+00  1.16547E+01  9.04275E+00  2.32967E+00  1.25623E+01 -6.08804E+00  1.14552E+01
  -9.39261E+00  1.12142E-01  8.82681E+00  1.04654E+00  1.64189E+01  1.30311E+01  1.40411E+00 -4.40755E+00  7.04411E+00  4.66725E+00
  -2.66724E+00  6.93552E+00 -3.50636E-01 -5.87025E+00 -1.65527E+01 -5.50570E+00 -3.44802E+00  1.27028E+01  7.65560E+00  1.90417E+01
   1.06884E+01 -1.64640E+00 -7.01706E+00  5.13349E+00 -1.53264E+01 -7.38938E+00 -7.40790E+00 -1.07883E+00  5.49255E+00 -1.21590E+01
   2.80750E+00  5.10860E+00 -1.34369E+01 -2.58789E+00  4.04594E+00  1.44900E+01  6.00693E+00 -6.83821E-01  3.33944E+00 -1.57501E+01
   4.52901E+00 -1.60069E+00  2.09149E+00  3.96049E+00 -5.45394E+00 -2.24498E+00 -7.00373E+00  3.07092E+00 -1.85575E+01  6.76878E+00
   7.30784E+00 -1.88272E+00 -1.12515E+01 -1.51449E+01 -4.33423E+00 -7.77365E+00 -4.80252E+00 -2.98330E+00 -4.70795E+00 -1.51106E+00
  -4.78710E+00 -1.02862E+01 -1.70108E+01 -5.75544E+00 -1.06949E+01 -9.97289E+00 -7.67926E+00  1.26735E+01 -1.11936E+01 -8.53080E+00
  -1.29919E+01  1.09154E+01  4.66844E+00 -1.72732E+01 -6.93436E+00 -2.93979E+00 -1.40905E+01  4.01004E+00 -1.13857E+01 -3.23785E+00
  -1.77272E+01  4.11573E-01 -1.28252E+01  4.24498E+00  6.74739E+00 -2.32639E+00 -3.14531E+00 -3.61440E+00  1.12118E+01  1.63898E+01
  -1.22391E+01  1.68493E+00  6.90176E+00  6.58632E+00  3.40403E+00  1.02759E+01  1.60998E+01  1.45263E+01  2.72611E+00 -8.21871E+00
  -4.50755E+00  1.26180E+00  3.58286E-01 -2.15517E-01  1.60063E-01 -8.79499E+00 -5.20050E+00  5.81367E+00  4.46733E-01  4.63526E+00
   5.09185E-01  9.76949E+00  8.97487E-02  1.13159E+01  1.07885E+01  1.17355E+01  4.29610E+00 -5.85452E-01  6.00095E+00  3.75276E+00
   3.81030E+00 -1.31267E+01 -4.06288E+00  2.76984E+00  1.28625E+01  9.19113E-01 -2.39674E-01  1.06063E+01 -3.34438E+00 -4.11677E+00
   6.67093E+00  5.13431E+00  4.46938E+00  1.04698E+01 -4.06720E+00 -8.05669E-01  9.65603E+00 -5.49718E+00  1.19720E+01  7.60027E+00
   6.18428E+00  1.84461E+01  5.94503E+00  2.85583E+00  1.01378E+01  9.02532E+00  2.35707E+01  2.49461E+01  1.91949E+01  1.69662E+01
   2.69956E+01  1.51182E+01  2.38375E+00  1.15511E+00  8.40317E+00  6.96824E+00  4.38563E+00  4.94669E+00 -3.71099E+00 -8.23625E-02
  -7.83928E+00 -1.44296E+01  1.90483E+00  2.90861E+00 -4.04365E+00 -2.57504E+00 -1.16283E+01  9.15477E-01  4.95055E+00 -7.34764E+00
  -1.33448E+01 -3.30108E+00 -4.50549E+00 -6.63455E+00 -5.26762E+00 -9.24182E+00 -6.25529E+00 -1.77095E+00 -4.71611E+00 -1.10203E+01
  -1.01755E+01 -1.05747E+01 -9.45335E+00 -6.99741E+00 -5.56002E+00 -2.34744E+01 -4.73536E+00  2.86494E+00  1.82196E+00 -2.12740E+01
  -1.55481E+01  1.19959E+01 -1.16810E+01 -1.80554E+01 -2.33826E+01 -6.52078E+00 -2.03573E+01 -3.86443E+00 -1.43848E+01 -1.49772E+01
  -9.40692E+00  9.33972E+00 -1.37867E+01 -1.02779E+01 -1.12987E+01 -1.26306E+01 -1.32052E+01 -1.89221E+01 -1.62327E+01 -7.90739E+00
  -5.15731E+00  1.81503E+00 -1.15755E+01 -1.44262E+01 -2.37795E+01  1.73745E+01 -1.02789E+01 -1.06237E+01 -8.02970E+00 -3.92565E+00
  -1.36911E+00  8.97518E+00 -7.23467E+00 -1.01754E+01 -2.15428E+01 -1.04674E+01 -2.01256E+01 -2.86044E+01 -2.26351E+01 -1.01380E+01
  -1.66000E+01 -7.47808E+00 -3.52170E-01 -7.30465E+00 -6.06271E-01  8.45064E+00  4.24197E+00 -3.48017E+00  7.18299E+00  1.12572E+01
   5.34670E+00  2.18586E+00  1.52326E+01  2.92409E+00 -4.96342E+00  1.77602E+01 -4.52091E+00  1.20857E-01 -3.37910E+00 -2.99847E+00
   1.19982E+01  1.60556E+00  5.16370E+00  1.19596E+01  4.23853E+00  2.78100E+00  8.36680E+00 -1.90637E+01 -1.58221E+01 -5.40778E+00
   1.99993E+00  8.32196E+00  9.33381E+00 -1.13433E+01  2.27794E+01  8.54129E-02 -2.44818E+00 -1.37580E+01  4.32666E+00 -4.84065E+00
   2.21759E+00 -1.39029E+01  2.90272E+00 -1.35626E+01 -2.37866E+00 -1.12170E+01 -9.60003E+00 -5.13264E+00 -9.20617E+00 -5.12918E+00
   1.35984E+01 -1.07080E+01 -4.25122E+00 -7.64846E+00 -6.69280E+00  2.72054E+00  5.03136E+00 -1.04428E+01 -6.79714E+00 -7.09789E+00
  -4.68194E+00 -6.67386E+00  9.88988E+00 -9.98317E+00 -6.00922E+00  1.36864E+00  9.81225E-01  1.48048E+00 -1.31657E+01 -4.22954E+00
  -7.22580E+00  2.79571E+00  7.15914E+00  6.31249E+00 -4.41748E+00  9.22757E-01 -2.41548E+00 -4.37318E+00 -7.08297E+00  9.86192E-01
  -4.80217E+00  5.41288E+00 -1.55476E+00 -3.70045E-01 -1.17282E+01 -9.95874E+00 -5.06376E+00 -6.46759E+00 -1.08174E+01 -2.09075E+01
  -1.32916E+01  5.10670E+00  8.97627E+00 -1.87066E-01 -3.41118E+00  2.59535E+00 -7.33837E+00 -7.98969E-01 -1.25810E+01 -2.24517E+01
  -3.67355E+00  5.44352E+00 -5.78062E+00 -1.14810E+01 -1.74411E+01  2.62219E+00 -3.18608E+00  1.14031E+01 -5.09708E+00  2.10887E+00
   2.87082E+00 -6.64316E-01  1.05532E+01  2.43229E+00 -5.07183E+00 -4.23391E+00 -2.66901E+00 -1.95875E+01 -4.63925E+00 -1.17465E+01
  -3.07457E+00 -4.63217E+00 -5.25548E+00  2.02905E+00  4.71790E+00 -1.15868E+00  6.15396E+00 -1.05406E-01 -1.20883E+01  3.11989E+00
  -1.02493E+01  2.22800E+00  1.02090E+01 -1.56702E+01  5.68617E-01 -6.53006E+00 -6.94213E+00 -3.61370E+00  1.06554E+01 -1.45211E+01
  -1.23962E+01  6.52535E+00  7.42345E+00 -1.05215E+01 -1.49055E+01 -4.33442E+00  2.21927E+00 -1.28405E+01 -2.48199E+01 -1.23452E+01
  -8.72266E+00 -1.39176E+01 -1.87696E+00 -9.59637E+00 -2.44200E+00 -5.16535E+00 -6.56835E+00  1.24073E+01
 NY points of the fit to the data follow
   2.02853E+01  1.81188E+01  1.62807E+01  1.55669E+01  1.54620E+01  1.61624E+01  1.76771E+01  1.73790E+01  1.53350E+01  1.44138E+01
   1.63076E+01  1.99297E+01  2.27165E+01  2.38047E+01  2.38020E+01  2.22131E+01  1.85233E+01  1.48331E+01  1.36396E+01  1.35456E+01
   1.35444E+01  1.31835E+01  1.26821E+01  1.28879E+01  1.37922E+01  1.46067E+01  1.48043E+01  1.47640E+01  1.41033E+01  1.23545E+01
   1.08277E+01  1.12928E+01  1.39196E+01  1.64725E+01  1.73962E+01  1.75445E+01  1.74296E+01  1.65289E+01  1.49659E+01  1.39334E+01
   1.36479E+01  1.41937E+01  1.56584E+01  1.55821E+01  1.25785E+01  9.96544E+00  1.21038E+01  1.88908E+01  2.58317E+01  2.93836E+01
   2.93868E+01  2.60443E+01  1.87006E+01  1.01402E+01  5.93739E+00  6.33281E+00  7.76773E+00  8.43502E+00  9.16328E+00  1.10864E+01
   1.37307E+01  1.60372E+01  1.75466E+01  1.75764E+01  1.55544E+01  1.20719E+01  9.37859E+00  8.34351E+00  8.42522E+00  9.15275E+00
   1.04388E+01  1.21298E+01  1.33498E+01  1.35817E+01  1.32960E+01  1.28716E+01  1.22444E+01  1.09873E+01  9.83925E+00  9.27461E+00
   8.82486E+00  8.12894E+00  7.21319E+00  6.64473E+00  6.92810E+00  7.68691E+00  7.78945E+00  6.59908E+00  4.66856E+00  2.90690E+00
   1.71719E+00  1.57270E+00  2.53036E+00  4.44279E+00  6.65464E+00  8.38766E+00  9.46388E+00  1.01668E+01  1.03101E+01  8.10883E+00
   5.00033E+00  3.76880E+00  5.49410E+00  8.98305E+00  1.14498E+01  1.23819E+01  1.22818E+01  1.04209E+01  6.80908E+00  3.98183E+00
   3.60505E+00  3.79494E+00  4.03476E+00  4.25612E+00  4.42914E+00  4.58671E+00  4.72750E+00  4.84052E+00  4.92006E+00  5.07614E+00
   5.56856E+00  7.10927E+00  8.62755E+00  6.81725E+00  3.98536E+00  4.42918E+00  8.84167E+00  1.40746E+01  1.67705E+01  1.69140E+01
   1.53470E+01  1.10659E+01  4.47959E+00 -7.98956E-02 -5.37432E-01 -1.56777E-01  8.63577E-02  2.35172E-01  4.09159E-01  6.43291E-01
   8.51416E-01  9.48242E-01  9.32065E-01  9.02624E-01  9.00224E-01  9.30587E-01  9.87787E-01  1.03598E+00  1.02801E+00  8.95175E-01
   7.66616E-01  7.75349E-01  8.23225E-01  7.84341E-01  5.61980E-01  1.54992E-01 -1.48150E-01 -7.95748E-02  2.95916E-01  6.87137E-01
   8.04516E-01  4.59468E-01 -6.94906E-02 -4.84247E-01 -7.22087E-01 -6.53767E-01 -1.83358E-01  2.33419E-01  1.64364E-01 -3.20668E-01
  -9.01015E-01 -1.12324E+00 -7.37374E-01 -1.67132E-01  1.18728E-01  8.46717E-03 -4.06956E-01 -8.08372E-01 -7.81396E-01 -3.39900E-01
   5.03041E-02  1.40805E-01 -4.07298E-02 -1.48208E-01  7.47085E-02  4.37344E-01  7.85767E-01  1.16970E+00  1.31460E+00  1.05528E+00
   8.65014E-01  1.02645E+00  1.32709E+00  1.33238E+00  9.14592E-01  4.08858E-01 -7.97742E-02 -6.37076E-01 -1.14485E+00 -1.19811E+00
  -4.68999E-01  6.85711E-01  1.86818E+00  2.64510E+00  2.87640E+00  2.66951E+00  2.89511E+00  2.66074E+00  3.09555E-01 -3.56754E+00
  -6.92239E+00 -8.00111E+00 -6.70115E+00 -4.24039E+00 -8.68282E-01  2.95594E+00  5.14821E+00  4.69143E+00  3.68524E+00  3.18524E+00
   2.66518E+00  2.16794E+00  1.91111E+00  1.80287E+00  1.77596E+00  1.72662E+00  1.59295E+00  1.44930E+00  1.27282E+00  9.96267E-01
   4.79748E-01 -2.12742E-01 -7.37774E-02  7.97988E-01  1.27634E+00  8.38314E-01  8.67384E-03 -8.31834E-01 -1.13357E+00  1.96619E-02
   2.29860E+00  4.56538E+00  5.43021E+00  4.37649E+00  2.61407E+00  8.30571E-01 -5.55597E-01 -7.31076E-01  5.39073E-01  2.43423E+00
   5.42583E+00  9.27812E+00  8.69388E+00  5.99877E+00  7.80012E+00  1.57466E+01  2.22627E+01  2.09272E+01  1.68350E+01  1.56118E+01
   1.47643E+01  9.89376E+00  4.03740E+00  2.06664E+00 -4.30638E-01 -6.26627E+00 -1.27212E+01 -1.45617E+01 -1.29701E+01 -1.16247E+01
  -1.06897E+01 -9.98707E+00 -9.40050E+00 -8.79685E+00 -8.18181E+00 -7.71139E+00 -7.52200E+00 -7.55039E+00 -7.57230E+00 -7.56435E+00
  -7.56571E+00 -7.46656E+00 -7.19768E+00 -6.87750E+00 -6.64153E+00 -6.48984E+00 -6.34910E+00 -6.22043E+00 -6.20948E+00 -6.29580E+00
  -6.34787E+00 -6.31822E+00 -6.21347E+00 -6.08348E+00 -5.97306E+00 -5.84117E+00 -5.73224E+00 -5.74449E+00 -5.84363E+00 -5.91640E+00
  -5.93666E+00 -5.91972E+00 -5.87938E+00 -5.80770E+00 -5.70865E+00 -5.62747E+00 -5.59329E+00 -5.57172E+00 -5.55358E+00 -5.53718E+00
  -5.51914E+00 -5.49966E+00 -5.47916E+00 -5.45825E+00 -5.43790E+00 -5.41776E+00 -5.39748E+00 -5.37722E+00 -5.35642E+00 -5.33384E+00
  -5.30970E+00 -5.28493E+00 -5.25961E+00 -5.23365E+00 -5.20694E+00 -5.17930E+00 -5.15050E+00 -5.12036E+00 -5.08882E+00 -5.05582E+00
  -5.02123E+00 -4.98478E+00 -4.94604E+00 -4.90467E+00 -4.86031E+00 -4.81253E+00 -4.76066E+00 -4.70371E+00 -4.64036E+00 -4.56900E+00
  -4.48761E+00 -4.39362E+00 -4.28394E+00 -4.15543E+00 -4.00557E+00 -3.83340E+00 -3.64067E+00 -3.43311E+00 -3.22150E+00 -3.02210E+00
  -2.85603E+00 -2.74697E+00 -2.71764E+00 -2.78537E+00 -2.95801E+00 -3.23112E+00 -3.58729E+00 -3.99805E+00 -4.42802E+00 -4.84062E+00
  -5.20388E+00 -5.49492E+00 -5.70228E+00 -5.82565E+00 -5.87376E+00 -5.86101E+00 -5.80408E+00 -5.71899E+00 -5.61910E+00 -5.51413E+00
  -5.41017E+00 -5.31029E+00 -5.21542E+00 -5.12520E+00 -5.03856E+00 -4.95410E+00 -4.87043E+00 -4.78632E+00 -4.70091E+00 -4.61357E+00
  -4.52391E+00 -4.43170E+00 -4.33687E+00 -4.23963E+00 -4.14048E+00 -4.04013E+00 -3.93951E+00 -3.83971E+00 -3.74213E+00 -3.64846E+00
  -3.56071E+00 -3.48107E+00 -3.41184E+00 -3.35537E+00 -3.31410E+00 -3.29040E+00 -3.28647E+00 -3.30412E+00 -3.34467E+00 -3.40884E+00
  -3.49678E+00 -3.60794E+00 -3.74101E+00 -3.89389E+00 -4.06374E+00 -4.24716E+00 -4.44034E+00 -4.63918E+00 -4.83942E+00 -5.03675E+00
  -5.22711E+00 -5.40683E+00 -5.57278E+00 -5.72244E+00 -5.85386E+00 -5.96576E+00 -6.05749E+00 -6.12908E+00 -6.18109E+00 -6.21453E+00
  -6.23069E+00 -6.23108E+00 -6.21741E+00 -6.19149E+00 -6.15513E+00 -6.11002E+00 -6.05770E+00 -5.99957E+00 -5.93691E+00 -5.87088E+00
  -5.80242E+00 -5.73230E+00 -5.66109E+00 -5.58928E+00 -5.51729E+00 -5.44547E+00 -5.37403E+00 -5.30310E+00 -5.23274E+00 -5.16300E+00
  -5.09397E+00 -5.02567E+00 -4.95810E+00 -4.89118E+00 -4.82486E+00 -4.75913E+00 -4.69397E+00 -4.62936E+00 -4.56524E+00 -4.50153E+00
  -4.43817E+00 -4.37517E+00 -4.31252E+00 -4.25016E+00 -4.18803E+00 -4.12607E+00 -4.06425E+00 -4.00258E+00 -3.94107E+00 -3.87966E+00
  -3.81828E+00 -3.75690E+00 -3.69553E+00 -3.63417E+00 -3.57279E+00 -3.51135E+00 -3.44980E+00 -3.38814E+00 -3.32637E+00 -3.26452E+00
  -3.20254E+00 -3.14038E+00 -3.07801E+00 -3.01544E+00 -2.95268E+00 -2.88972E+00 -2.82653E+00 -2.76305E+00 -2.69927E+00 -2.63522E+00
  -2.57089E+00 -2.50626E+00 -2.44129E+00 -2.37594E+00 -2.31021E+00 -2.24410E+00 -2.17762E+00 -2.11070E+00 -2.04332E+00 -1.97545E+00
  -1.90708E+00 -1.83820E+00 -1.76877E+00 -1.69874E+00 -1.62807E+00 -1.55670E+00 -1.48463E+00 -1.41178E+00
 NY background values follow
     1.353E+01    1.345E+01    1.337E+01    1.330E+01    1.322E+01    1.314E+01    1.306E+01    1.298E+01    1.290E+01    1.282E+01
     1.274E+01    1.266E+01    1.258E+01    1.250E+01    1.242E+01    1.234E+01    1.227E+01    1.219E+01    1.211E+01    1.203E+01
     1.195E+01    1.187E+01    1.179E+01    1.171E+01    1.163E+01    1.155E+01    1.148E+01    1.140E+01    1.132E+01    1.124E+01
     1.116E+01    1.108E+01    1.100E+01    1.093E+01    1.085E+01    1.077E+01    1.069E+01    1.061E+01    1.053E+01    1.046E+01
     1.038E+01    1.030E+01    1.022E+01    1.014E+01    1.006E+01    9.987E+00    9.909E+00    9.831E+00    9.754E+00    9.676E+00
     9.599E+00    9.521E+00    9.444E+00    9.366E+00    9.289E+00    9.212E+00    9.135E+00    9.058E+00    8.981E+00    8.904E+00
     8.828E+00    8.751E+00    8.674E+00    8.598E+00    8.521E+00    8.445E+00    8.369E+00    8.293E+00    8.217E+00    8.141E+00
     8.065E+00    7.990E+00    7.914E+00    7.838E+00    7.763E+00    7.688E+00    7.613E+00    7.538E+00    7.463E+00    7.388E+00
     7.313E+00    7.238E+00    7.164E+00    7.090E+00    7.015E+00    6.941E+00    6.867E+00    6.793E+00    6.720E+00    6.646E+00
     6.572E+00    6.499E+00    6.426E+00    6.353E+00    6.280E+00    6.207E+00    6.134E+00    6.062E+00    5.989E+00    5.917E+00
     5.845E+00    5.773E+00    5.701E+00    5.629E+00    5.558E+00    5.487E+00    5.415E+00    5.344E+00    5.273E+00    5.203E+00
     5.132E+00    5.061E+00    4.991E+00    4.921E+00    4.851E+00    4.781E+00    4.712E+00    4.642E+00    4.573E+00    4.504E+00
     4.435E+00    4.366E+00    4.297E+00    4.229E+00    4.161E+00    4.092E+00    4.025E+00    3.957E+00    3.889E+00    3.822E+00
     3.755E+00    3.688E+00    3.621E+00    3.554E+00    3.488E+00    3.422E+00    3.355E+00    3.290E+00    3.224E+00    3.158E+00
     3.093E+00    3.028E+00    2.963E+00    2.898E+00    2.834E+00    2.770E+00    2.706E+00    2.642E+00    2.578E+00    2.515E+00
     2.451E+00    2.388E+00    2.326E+00    2.263E+00    2.201E+00    2.138E+00    2.076E+00    2.015E+00    1.953E+00    1.892E+00
     1.831E+00    1.770E+00    1.709E+00    1.649E+00    1.589E+00    1.529E+00    1.469E+00    1.410E+00    1.350E+00    1.291E+00
     1.232E+00    1.174E+00    1.116E+00    1.057E+00    9.996E-01    9.420E-01    8.846E-01    8.275E-01    7.706E-01    7.140E-01
     6.576E-01    6.014E-01    5.455E-01    4.899E-01    4.345E-01    3.794E-01    3.245E-01    2.698E-01    2.154E-01    1.613E-01
     1.074E-01    5.383E-02    4.781E-04   -5.261E-02   -1.054E-01   -1.580E-01   -2.103E-01   -2.624E-01   -3.141E-01   -3.656E-01
    -4.169E-01   -4.678E-01   -5.185E-01   -5.690E-01   -6.191E-01   -6.690E-01   -7.186E-01   -7.679E-01   -8.170E-01   -8.657E-01
    -9.142E-01   -9.625E-01   -1.010E+00   -1.058E+00   -1.105E+00   -1.152E+00   -1.199E+00   -1.246E+00   -1.292E+00   -1.338E+00
    -1.384E+00   -1.429E+00   -1.474E+00   -1.519E+00   -1.563E+00   -1.607E+00   -1.651E+00   -1.695E+00   -1.738E+00   -1.781E+00
    -1.824E+00   -1.866E+00   -1.908E+00   -1.950E+00   -1.992E+00   -2.033E+00   -2.074E+00   -2.114E+00   -2.155E+00   -2.195E+00
    -2.234E+00   -2.274E+00   -2.313E+00   -2.351E+00   -2.390E+00   -2.428E+00   -2.466E+00   -2.503E+00   -2.540E+00   -2.577E+00
    -2.614E+00   -2.650E+00   -2.686E+00   -2.721E+00   -2.757E+00   -2.791E+00   -2.826E+00   -2.860E+00   -2.894E+00   -2.928E+00
    -2.961E+00   -2.994E+00   -3.027E+00   -3.059E+00   -3.091E+00   -3.123E+00   -3.154E+00   -3.185E+00   -3.216E+00   -3.246E+00
    -3.276E+00   -3.306E+00   -3.335E+00   -3.364E+00   -3.393E+00   -3.421E+00   -3.449E+00   -3.476E+00   -3.504E+00   -3.531E+00
    -3.557E+00   -3.584E+00   -3.609E+00   -3.635E+00   -3.660E+00   -3.685E+00   -3.710E+00   -3.734E+00   -3.758E+00   -3.781E+00
    -3.804E+00   -3.827E+00   -3.849E+00   -3.872E+00   -3.893E+00   -3.915E+00   -3.936E+00   -3.956E+00   -3.977E+00   -3.997E+00
    -4.016E+00   -4.035E+00   -4.054E+00   -4.073E+00   -4.091E+00   -4.109E+00   -4.126E+00   -4.143E+00   -4.160E+00   -4.176E+00
    -4.192E+00   -4.208E+00   -4.223E+00   -4.238E+00   -4.253E+00   -4.267E+00   -4.281E+00   -4.294E+00   -4.307E+00   -4.320E+00
    -4.332E+00   -4.344E+00   -4.356E+00   -4.367E+00   -4.378E+00   -4.388E+00   -4.398E+00   -4.408E+00   -4.418E+00   -4.427E+00
    -4.435E+00   -4.443E+00   -4.451E+00   -4.459E+00   -4.466E+00   -4.473E+00   -4.479E+00   -4.485E+00   -4.491E+00   -4.496E+00
    -4.501E+00   -4.505E+00   -4.509E+00   -4.513E+00   -4.516E+00   -4.519E+00   -4.522E+00   -4.524E+00   -4.526E+00   -4.527E+00
    -4.528E+00   -4.529E+00   -4.529E+00   -4.529E+00   -4.528E+00   -4.528E+00   -4.526E+00   -4.525E+00   -4.523E+00   -4.520E+00
    -4.517E+00   -4.514E+00   -4.511E+00   -4.507E+00   -4.502E+00   -4.497E+00   -4.492E+00   -4.487E+00   -4.481E+00   -4.475E+00
    -4.468E+00   -4.461E+00   -4.453E+00   -4.445E+00   -4.437E+00   -4.428E+00   -4.419E+00   -4.410E+00   -4.400E+00   -4.390E+00
    -4.379E+00   -4.368E+00   -4.357E+00   -4.345E+00   -4.333E+00   -4.320E+00   -4.307E+00   -4.294E+00   -4.280E+00   -4.266E+00
    -4.251E+00   -4.236E+00   -4.221E+00   -4.205E+00   -4.189E+00   -4.172E+00   -4.155E+00   -4.138E+00   -4.120E+00   -4.102E+00
    -4.084E+00   -4.065E+00   -4.045E+00   -4.026E+00   -4.005E+00   -3.985E+00   -3.964E+00   -3.943E+00   -3.921E+00   -3.899E+00
    -3.876E+00   -3.853E+00   -3.830E+00   -3.806E+00   -3.782E+00   -3.758E+00   -3.733E+00   -3.707E+00   -3.682E+00   -3.656E+00
    -3.629E+00   -3.602E+00   -3.575E+00   -3.547E+00   -3.519E+00   -3.491E+00   -3.462E+00   -3.432E+00   -3.403E+00   -3.372E+00
    -3.342E+00   -3.311E+00   -3.280E+00   -3.248E+00   -3.216E+00   -3.183E+00   -3.151E+00   -3.117E+00   -3.084E+00   -3.049E+00
    -3.015E+00   -2.980E+00   -2.945E+00   -2.909E+00   -2.873E+00   -2.836E+00   -2.800E+00   -2.762E+00   -2.725E+00   -2.686E+00
    -2.648E+00   -2.609E+00   -2.570E+00   -2.530E+00   -2.490E+00   -2.450E+00   -2.409E+00   -2.367E+00   -2.326E+00   -2.284E+00
    -2.241E+00   -2.198E+00   -2.155E+00   -2.112E+00   -2.067E+00   -2.023E+00   -1.978E+00   -1.933E+00   -1.887E+00   -1.841E+00
    -1.795E+00   -1.748E+00   -1.701E+00   -1.653E+00   -1.605E+00   -1.557E+00   -1.508E+00   -1.459E+00   -1.409E+00   -1.360E+00
    -1.309E+00   -1.258E+00   -1.207E+00   -1.156E+00   -1.104E+00   -1.052E+00   -9.989E-01   -9.458E-01   -8.923E-01   -8.385E-01
    -7.842E-01   -7.296E-01   -6.746E-01   -6.191E-01   -5.634E-01   -5.072E-01   -4.506E-01   -3.936E-01
 Asp      Conc. = 7.22E+01
