 LCModel (Version 6.3-1L) Copyright: S.W. Provencher.          Ref.: Magn. Reson. Med. 30:672-679 (1993).                
 Slice#2 Row#11 Col#11  PD_05_press_2_raw_act
 36 lines in following concentration table = NCONC+1
    Conc.  %SD /Cr+PCr  Metabolite                                         
    0.000 999%   0.000 Ala                                                 
    7.464  52% 8.5E-02 Asp                                                 
   88.147  41%   1.000 Cr                                                  
    0.000 999%   0.000 PCr                                                 
    4.482  52% 5.1E-02 GABA                                                
    4.507  52% 5.1E-02 Glc                                                 
    0.000 999%   0.000 Gln                                                 
    0.000 999%   0.000 Glu                                                 
   20.619  67%   0.234 GPC                                                 
    0.000 999%   0.000 PCh                                                 
  134.585  41%   1.527 GSH                                                 
  489.132  31%   5.549 Ins                                                 
  643.240  26%   7.297 Lac                                                 
    0.000 999%   0.000 NAA                                                 
    0.000 999%   0.000 NAAG                                                
    1.518  51% 1.7E-02 Scyllo                                              
    7.526  51% 8.5E-02 Tau                                                 
    7.452  85% 8.5E-02 -CrCH2                                              
   20.619  67%   0.234 GPC+PCh                                             
    0.000 999%   0.000 NAA+NAAG                                            
   88.147  41%   1.000 Cr+PCr                                              
    0.000 999%   0.000 Glu+Gln                                             
 1.40E+03  12%  15.912 Lip13a                                              
    0.000 999%   0.000 Lip13b                                              
  371.885  13%   4.219 Lip09                                               
    0.000 999%   0.000 MM09                                                
  208.617  13%   2.367 Lip20                                               
    0.000 999%   0.000 MM20                                                
    0.000 999%   0.000 MM12                                                
 1.93E-02 999% 2.2E-04 MM14                                                
    0.000 999%   0.000 MM17                                                
 1.40E+03  12%  15.912 Lip13a+Lip13b                                       
 1.40E+03  12%  15.912 MM14+Lip13a+Lip13b+MM12                             
  371.885  13%   4.219 MM09+Lip09                                          
  208.617  13%   2.367 MM20+Lip20                                          
   6 lines in following misc. output table
  FWHM = 0.122 ppm    S/N =   2                                            
  Data shift = 0.000 ppm                                                   
  Ph: 150 deg     -25.2 deg/ppm                                            
  alphaB,S = 2.3E+00,   2.8E+01                                            
   14 spline knots.   Ns = 8(1)                                            
  (11) 8 infls.   (13) 5 extrs.                                            
  498 points on ppm-axis = NY
      4.000000     3.992357     3.984714     3.977070     3.969427     3.961784     3.954141     3.946497     3.938854     3.931211
      3.923568     3.915925     3.908281     3.900638     3.892995     3.885352     3.877708     3.870065     3.862422     3.854779
      3.847136     3.839492     3.831849     3.824206     3.816563     3.808919     3.801276     3.793633     3.785990     3.778347
      3.770703     3.763060     3.755417     3.747774     3.740130     3.732487     3.724844     3.717201     3.709558     3.701914
      3.694271     3.686628     3.678985     3.671341     3.663698     3.656055     3.648412     3.640769     3.633125     3.625482
      3.617839     3.610196     3.602552     3.594909     3.587266     3.579623     3.571980     3.564336     3.556693     3.549050
      3.541407     3.533763     3.526120     3.518477     3.510834     3.503191     3.495547     3.487904     3.480261     3.472618
      3.464974     3.457331     3.449688     3.442045     3.434402     3.426758     3.419115     3.411472     3.403829     3.396185
      3.388542     3.380899     3.373256     3.365613     3.357969     3.350326     3.342683     3.335040     3.327396     3.319753
      3.312110     3.304467     3.296824     3.289180     3.281537     3.273894     3.266251     3.258607     3.250964     3.243321
      3.235678     3.228034     3.220391     3.212748     3.205105     3.197462     3.189818     3.182175     3.174532     3.166889
      3.159245     3.151602     3.143959     3.136316     3.128673     3.121029     3.113386     3.105743     3.098100     3.090456
      3.082813     3.075170     3.067527     3.059884     3.052240     3.044597     3.036954     3.029311     3.021667     3.014024
      3.006381     2.998738     2.991095     2.983451     2.975808     2.968165     2.960522     2.952878     2.945235     2.937592
      2.929949     2.922306     2.914662     2.907019     2.899376     2.891733     2.884089     2.876446     2.868803     2.861160
      2.853517     2.845873     2.838230     2.830587     2.822944     2.815300     2.807657     2.800014     2.792371     2.784728
      2.777084     2.769441     2.761798     2.754155     2.746511     2.738868     2.731225     2.723582     2.715939     2.708295
      2.700652     2.693009     2.685366     2.677722     2.670079     2.662436     2.654793     2.647150     2.639506     2.631863
      2.624220     2.616577     2.608933     2.601290     2.593647     2.586004     2.578361     2.570717     2.563074     2.555431
      2.547788     2.540144     2.532501     2.524858     2.517215     2.509572     2.501928     2.494285     2.486642     2.478999
      2.471355     2.463712     2.456069     2.448426     2.440783     2.433139     2.425496     2.417853     2.410210     2.402566
      2.394923     2.387280     2.379637     2.371994     2.364350     2.356707     2.349064     2.341421     2.333777     2.326134
      2.318491     2.310848     2.303205     2.295561     2.287918     2.280275     2.272632     2.264988     2.257345     2.249702
      2.242059     2.234416     2.226772     2.219129     2.211486     2.203843     2.196199     2.188556     2.180913     2.173270
      2.165627     2.157983     2.150340     2.142697     2.135054     2.127410     2.119767     2.112124     2.104481     2.096838
      2.089194     2.081551     2.073908     2.066265     2.058621     2.050978     2.043335     2.035692     2.028049     2.020405
      2.012762     2.005119     1.997476     1.989833     1.982190     1.974546     1.966903     1.959260     1.951617     1.943974
      1.936331     1.928688     1.921045     1.913402     1.905759     1.898115     1.890472     1.882829     1.875186     1.867543
      1.859900     1.852257     1.844614     1.836971     1.829327     1.821684     1.814041     1.806398     1.798755     1.791112
      1.783469     1.775826     1.768183     1.760540     1.752896     1.745253     1.737610     1.729967     1.722324     1.714681
      1.707038     1.699395     1.691752     1.684108     1.676465     1.668822     1.661179     1.653536     1.645893     1.638250
      1.630607     1.622964     1.615321     1.607677     1.600034     1.592391     1.584748     1.577105     1.569462     1.561819
      1.554176     1.546533     1.538890     1.531246     1.523603     1.515960     1.508317     1.500674     1.493031     1.485388
      1.477745     1.470102     1.462458     1.454815     1.447172     1.439529     1.431886     1.424243     1.416600     1.408957
      1.401314     1.393671     1.386027     1.378384     1.370741     1.363098     1.355455     1.347812     1.340169     1.332526
      1.324883     1.317240     1.309596     1.301953     1.294310     1.286667     1.279024     1.271381     1.263738     1.256095
      1.248452     1.240808     1.233165     1.225522     1.217879     1.210236     1.202593     1.194950     1.187307     1.179664
      1.172021     1.164377     1.156734     1.149091     1.141448     1.133805     1.126162     1.118519     1.110876     1.103233
      1.095590     1.087946     1.080303     1.072660     1.065017     1.057374     1.049731     1.042088     1.034445     1.026802
      1.019158     1.011515     1.003872     0.996229     0.988586     0.980943     0.973300     0.965657     0.958014     0.950371
      0.942727     0.935084     0.927441     0.919798     0.912155     0.904512     0.896869     0.889226     0.881583     0.873940
      0.866296     0.858653     0.851010     0.843367     0.835724     0.828081     0.820438     0.812795     0.805152     0.797508
      0.789865     0.782222     0.774579     0.766936     0.759293     0.751650     0.744007     0.736364     0.728721     0.721077
      0.713434     0.705791     0.698148     0.690505     0.682862     0.675219     0.667576     0.659933     0.652290     0.644646
      0.637003     0.629360     0.621717     0.614074     0.606431     0.598788     0.591145     0.583502     0.575858     0.568215
      0.560572     0.552929     0.545286     0.537643     0.530000     0.522357     0.514714     0.507071     0.499427     0.491784
      0.484141     0.476498     0.468855     0.461212     0.453569     0.445925     0.438282     0.430639     0.422996     0.415353
      0.407710     0.400067     0.392424     0.384780     0.377137     0.369494     0.361851     0.354208     0.346565     0.338922
      0.331278     0.323635     0.315992     0.308349     0.300706     0.293063     0.285420     0.277777     0.270133     0.262490
      0.254847     0.247204     0.239561     0.231918     0.224275     0.216631     0.208988     0.201345
 NY phased data points follow
   5.47648E+00  4.33186E+00  5.27456E+00  5.55486E+00  1.07004E+01  4.90685E+00  6.58123E+00  6.41539E+00  7.53422E+00  6.88911E+00
   4.23503E+00  2.59259E+00  7.90644E+00  4.21215E+00  9.00158E+00  4.62673E+00  5.76497E+00  3.59271E+00  3.46900E+00  7.10040E+00
   5.23611E+00  4.08413E+00  8.47693E+00  4.39433E+00  6.32781E+00  3.88606E+00  4.26150E+00  2.94165E+00  5.71182E+00  5.80226E+00
   4.03447E+00  6.51579E+00  2.38424E+00  3.49984E+00  5.05195E+00  3.92279E+00  1.66828E+00  3.88352E+00  5.94168E+00  2.30706E+00
   3.26976E+00  7.51664E+00  4.34788E+00  2.50439E-01  2.26180E+00  4.11927E+00  3.92024E+00  3.48143E+00  1.77901E+00  1.74042E+00
   4.47931E+00  5.96451E+00  3.19030E+00  2.33344E+00  6.23370E+00  4.99565E+00  6.39914E+00  2.99477E+00  3.88947E+00  1.23096E+00
   8.58729E-01  5.10895E+00  5.29920E+00  3.18108E+00  4.13834E+00  4.50174E+00  2.79694E+00  2.14355E+00  3.07682E+00  2.66946E+00
   2.56029E+00  3.52024E+00  2.24407E+00  5.80847E+00  6.15408E+00  2.60999E+00  3.61590E+00  5.07573E+00  1.25068E+00  3.33360E+00
   3.07497E+00  8.03569E-01  5.86147E+00  1.57490E+00  1.08194E+00  1.84980E+00  1.69119E+00  3.23619E+00  3.89872E+00  3.16531E+00
   5.42565E+00  1.43867E+00  3.23802E+00  4.43747E+00  1.33116E+00  2.66529E-01 -1.22503E-01  2.10618E+00  3.05625E+00  3.66494E+00
   2.62132E+00  1.20878E+00  1.54664E+00  3.43602E+00 -1.21650E+00  4.90571E+00  4.94829E+00  2.23287E+00 -4.75091E-01  6.51440E+00
   6.75677E-01  9.29767E-01  1.94805E+00  2.06675E+00  3.21969E-01  8.82305E-01  1.94583E+00  4.85436E-01  1.04540E+00  2.20612E+00
   1.41002E+00 -1.51208E+00  2.92536E-01  1.63449E+00  8.00460E-01 -2.78008E-01  2.21136E+00  1.13946E+00  5.08508E+00  2.25639E+00
   7.16079E+00  1.31391E+00  3.13462E+00  4.38873E+00  3.74836E+00  1.77190E+00  2.62047E+00  2.67082E+00  2.45718E+00  4.32155E+00
   2.66570E+00  1.26541E+00  2.95152E+00  2.49818E+00  1.69394E+00  1.88030E+00  9.21932E-01  5.29326E-01  2.25625E+00  3.88156E+00
   1.67199E+00  2.87115E+00  8.55689E+00  1.67810E+00  2.72178E+00  9.90680E-01  3.38517E+00  3.87076E+00 -4.35156E-01  1.43947E+00
   2.02882E+00  2.79692E+00  2.61182E+00  2.67149E+00 -5.21269E-01  8.01472E-01 -2.88853E-01 -6.05671E-01 -6.92815E-01 -1.90017E-01
   1.18648E+00  1.44627E+00  1.86532E+00  2.95123E+00  1.07520E+00  3.45921E+00  2.17949E+00 -2.88335E+00  1.37534E+00  3.73615E+00
   1.28952E+00  1.49513E+00  3.15495E-01 -4.95399E-01  1.68456E+00  3.59210E+00  6.23367E-01  1.85608E+00 -9.25756E-01 -1.46311E-01
   2.28486E+00  2.30091E+00 -2.45802E+00 -2.03529E-01  1.95300E+00 -9.74266E-01 -9.84935E-01  2.18620E+00  2.59170E+00  1.33903E+00
   1.51926E+00  2.74134E+00  4.87516E+00  3.93908E+00  1.56240E+00  8.44462E-01  2.04434E+00  1.54556E-01 -1.16356E-01  4.80622E+00
  -1.27663E+00 -2.54606E-01  1.39272E+00  3.90841E-01 -2.60733E-01  1.28830E+00 -1.90850E+00  1.72424E-01 -1.80907E+00  1.86061E+00
   2.57863E+00 -7.73522E-01  6.95026E-01  8.72636E-01 -2.60565E+00  8.32780E-01 -6.64300E-01 -8.58764E-01  3.83221E+00  2.41835E+00
   3.12889E+00  2.05723E+00 -1.81212E+00  1.15474E+00  2.31928E+00 -3.06874E-01 -7.19345E-01  4.74569E-01  3.17318E+00  5.22155E-01
  -2.56798E-01  7.80764E-01 -7.04383E-01 -1.61809E+00  2.60923E+00 -5.06644E-01  7.67001E-01 -4.33570E-01  3.84710E+00 -2.01622E+00
  -1.07998E+00  1.99402E+00 -3.50190E-01 -9.39890E-01 -2.82601E+00 -3.27519E+00 -2.75571E+00 -6.98504E+00 -3.88586E+00 -3.04894E+00
  -4.69218E+00 -3.34407E-01  7.36873E-01  2.08403E+00 -1.30696E+00 -7.22501E-01 -2.89734E-01  2.36131E-01  4.21055E+00  1.82214E+00
   2.07672E+00 -1.25689E+00 -1.21797E+00 -9.59983E-02 -5.00662E-01 -5.59349E-01 -1.36286E+00 -8.55037E-01  4.23944E+00  1.56883E+00
  -4.00701E+00 -8.95571E-01 -2.28919E+00 -1.03007E+00 -1.09808E+00 -1.67038E-01 -1.85892E+00  3.64021E-01 -1.87394E+00 -1.18973E+00
   4.75856E-01 -1.51330E+00 -2.46761E+00 -2.00745E+00 -1.83478E+00 -3.28525E+00 -3.51101E+00 -1.18533E+00 -2.55468E+00 -3.20351E+00
  -2.76485E+00 -8.72468E-01 -2.20208E+00 -3.94630E+00  1.10059E+00 -1.27119E+00 -3.63423E+00 -1.63592E+00 -3.69802E-01 -4.89486E+00
  -2.22772E+00 -2.24116E+00 -3.92414E-02 -1.49606E+00  2.24760E-01 -1.16424E+00 -4.26476E-01 -1.96383E+00 -1.17427E+00 -2.90247E+00
  -3.97214E+00  5.00034E-01 -1.11525E+00  2.84749E+00  1.06911E+00  3.85053E+00  1.89384E+00  4.16745E+00  3.93275E+00  5.96183E+00
   5.73388E+00  8.24666E+00  8.07191E+00  7.78251E+00  6.91639E+00  7.10525E+00  9.60445E+00  7.34220E+00  8.27254E+00  9.60219E+00
   9.67696E+00  8.57327E+00  5.08196E+00  7.29328E+00  3.31407E+00  8.15993E+00  7.39983E+00  4.34025E+00  7.21421E+00  7.45752E+00
   6.82801E+00  5.43803E+00  7.74208E+00  5.36316E+00  6.06152E+00  3.02583E+00  2.65993E+00  1.57946E+00  4.76006E+00  5.79276E+00
   5.72002E+00  3.16115E+00  1.87199E+00  3.41816E+00  2.85491E+00  3.50070E+00 -2.26931E+00  5.62809E+00  1.15565E+00  2.17402E+00
   3.27406E-01 -2.36633E-02  2.34503E+00  2.74647E+00  1.95528E+00  1.20675E+00  3.03788E+00  2.50818E-01 -1.97717E+00  6.55205E-01
   1.31467E+00  4.87455E-01  1.54065E+00  2.27658E+00  8.68208E-01 -1.33474E+00 -1.16086E+00 -5.12919E-01  3.80985E+00 -1.02404E+00
   4.62130E-01 -2.65009E+00 -1.06190E-01 -4.01779E-01  1.25236E+00 -6.86327E-01  1.82472E+00 -1.64467E+00  1.69175E+00  3.24480E+00
  -2.78144E+00  8.42296E-01 -3.29048E+00 -1.07311E+00 -8.77348E-01  8.89004E-01 -8.37345E-01 -6.45032E-01 -8.57772E-01  2.34613E+00
  -1.44418E+00 -2.36226E+00  2.41165E+00 -1.43937E+00  1.88268E-02 -3.16022E+00 -2.43526E+00 -2.17848E+00 -1.95446E+00 -3.06560E+00
   2.51404E+00 -8.04139E-01 -1.19554E+00 -3.37489E+00 -5.73885E-01  1.92545E-02 -1.61607E+00 -2.07458E+00 -4.15269E+00 -2.09966E+00
   9.94640E-02 -2.28497E+00 -2.10387E-01  8.19346E-01 -1.88547E-01  4.52229E-01 -1.67786E+00 -3.19624E+00 -2.27556E+00  2.16672E+00
  -2.56809E+00 -1.57542E+00 -1.35283E+00 -4.44022E+00 -4.58456E+00 -2.19257E+00 -1.54897E+00  2.35587E+00 -2.11091E+00 -3.26835E-01
   1.13337E+00 -2.15815E+00 -1.35500E+00 -3.25643E+00  6.34618E-01 -1.63423E+00  4.30108E-02 -3.14678E+00 -4.19698E+00 -2.64864E+00
  -1.85420E+00 -3.66607E+00 -4.86571E-01 -2.24785E+00 -3.43526E+00  3.66363E+00  6.24995E-01 -2.46650E+00 -2.54196E-01 -4.87947E+00
  -3.74184E-02 -2.11678E+00 -2.15069E+00 -2.99414E+00 -3.51581E+00  4.11654E-01 -1.21954E+00 -1.13123E+00  1.10971E+00  1.79240E-01
  -4.18541E-01 -1.40849E+00  2.68909E-01 -7.49828E-01 -1.10297E+00  1.14500E+00 -2.03113E+00 -1.74554E+00 -2.55935E+00 -9.70551E-01
   5.14349E-01 -2.29696E+00 -1.52952E+00 -1.41467E-01 -3.57836E-01 -2.60665E+00 -1.86314E+00  3.84421E-01
 NY points of the fit to the data follow
   4.87920E+00  4.45230E+00  4.15295E+00  4.26840E+00  4.50794E+00  4.48428E+00  4.39430E+00  4.36655E+00  4.37023E+00  4.42912E+00
   4.46876E+00  4.44276E+00  4.42569E+00  4.47099E+00  4.50948E+00  4.43713E+00  4.26008E+00  4.12600E+00  4.08111E+00  3.98771E+00
   3.80036E+00  3.92799E+00  4.60715E+00  5.10444E+00  5.09822E+00  4.85310E+00  4.69568E+00  4.70927E+00  4.82098E+00  4.93473E+00
   5.04115E+00  5.14239E+00  5.14388E+00  4.99357E+00  4.73282E+00  4.55069E+00  4.49480E+00  4.39249E+00  4.07855E+00  3.93131E+00
   4.43422E+00  4.92291E+00  4.87585E+00  4.50260E+00  4.23103E+00  4.16807E+00  4.14374E+00  4.06206E+00  4.03193E+00  4.13871E+00
   4.26230E+00  4.31948E+00  4.33209E+00  4.33262E+00  4.33966E+00  4.17795E+00  3.69894E+00  3.12919E+00  2.85930E+00  2.91001E+00
   3.07766E+00  3.24718E+00  3.39583E+00  3.49325E+00  3.57978E+00  3.62814E+00  3.61542E+00  3.55744E+00  3.43051E+00  3.28286E+00
   3.18984E+00  3.13743E+00  3.13718E+00  3.16801E+00  3.21837E+00  3.25083E+00  3.21596E+00  3.13209E+00  3.03180E+00  2.85561E+00
   2.58083E+00  2.25168E+00  2.04532E+00  1.98004E+00  1.97020E+00  1.95502E+00  1.94285E+00  1.94265E+00  1.94800E+00  1.93866E+00
   1.85349E+00  1.73608E+00  1.66596E+00  1.67464E+00  1.79775E+00  2.17266E+00  2.56259E+00  2.70264E+00  2.68128E+00  2.62855E+00
   2.60882E+00  2.60641E+00  2.56951E+00  2.49379E+00  2.46021E+00  2.45877E+00  2.43588E+00  2.38255E+00  2.32307E+00  2.30874E+00
   2.29057E+00  2.13296E+00  1.84738E+00  1.71607E+00  1.71384E+00  1.73024E+00  1.77369E+00  1.85249E+00  2.03974E+00  2.55241E+00
   3.08728E+00  3.23271E+00  3.09726E+00  2.98237E+00  3.03422E+00  3.24003E+00  3.40340E+00  3.33247E+00  3.16856E+00  3.07421E+00
   2.99832E+00  2.89509E+00  2.79785E+00  2.77384E+00  2.77956E+00  2.58403E+00  2.12167E+00  1.79304E+00  1.69027E+00  1.66203E+00
   1.66552E+00  1.64762E+00  1.58786E+00  1.57223E+00  1.63712E+00  1.70030E+00  1.74258E+00  1.76126E+00  1.73706E+00  1.68633E+00
   1.60273E+00  1.52146E+00  1.47409E+00  1.44039E+00  1.41687E+00  1.39872E+00  1.37860E+00  1.35244E+00  1.32696E+00  1.31495E+00
   1.30727E+00  1.29630E+00  1.28399E+00  1.27475E+00  1.26470E+00  1.24762E+00  1.22639E+00  1.19711E+00  1.16342E+00  1.13289E+00
   1.10614E+00  1.08000E+00  1.05109E+00  1.01980E+00  9.89357E-01  9.60442E-01  9.26479E-01  8.65960E-01  8.00897E-01  7.57834E-01
   7.38552E-01  7.48723E-01  8.04265E-01  8.92837E-01  9.71515E-01  9.86918E-01  9.37598E-01  8.66213E-01  7.94850E-01  6.95126E-01
   5.94947E-01  6.09555E-01  7.15781E-01  8.17903E-01  8.61914E-01  8.40702E-01  8.08765E-01  8.00933E-01  7.77898E-01  7.09785E-01
   6.45756E-01  6.45196E-01  7.02017E-01  7.54264E-01  7.88830E-01  8.47742E-01  9.40351E-01  9.88266E-01  9.54500E-01  9.16837E-01
   8.96954E-01  8.85862E-01  8.76311E-01  8.68441E-01  8.65464E-01  8.67185E-01  8.69584E-01  8.68663E-01  8.66951E-01  8.68269E-01
   8.69607E-01  8.67379E-01  8.49703E-01  7.83186E-01  6.95860E-01  6.74372E-01  7.27031E-01  8.02031E-01  8.74056E-01  9.64836E-01
   1.03560E+00  9.81807E-01  8.22474E-01  6.62363E-01  5.74342E-01  5.50467E-01  5.41715E-01  5.59394E-01  6.31056E-01  7.32549E-01
   8.11387E-01  8.03993E-01  7.32753E-01  6.81080E-01  6.43359E-01  5.70743E-01  4.74974E-01  4.61819E-01  5.58117E-01  6.55855E-01
   7.09780E-01  7.43797E-01  7.80587E-01  7.95321E-01  7.48662E-01  6.80151E-01  6.35442E-01  6.07573E-01  5.83761E-01  5.60471E-01
   5.44335E-01  5.35193E-01  5.22199E-01  5.02282E-01  4.75414E-01  4.46595E-01  4.16920E-01  3.86564E-01  3.56629E-01  3.27971E-01
   2.99198E-01  2.69595E-01  2.40430E-01  2.12657E-01  1.87078E-01  1.63713E-01  1.41960E-01  1.22483E-01  1.06533E-01  9.28238E-02
   7.93040E-02  6.65057E-02  5.50532E-02  4.48137E-02  3.54985E-02  2.69046E-02  1.97057E-02  1.46001E-02  1.09915E-02  8.39161E-03
   7.02333E-03  6.76837E-03  7.60267E-03  9.36692E-03  1.15608E-02  1.43162E-02  1.81150E-02  2.29803E-02  2.87861E-02  3.57538E-02
   4.41207E-02  5.37757E-02  6.46652E-02  7.70766E-02  9.12045E-02  1.07119E-01  1.24864E-01  1.44573E-01  1.66475E-01  1.90895E-01
   2.18125E-01  2.48405E-01  2.81976E-01  3.19239E-01  3.60762E-01  4.07199E-01  4.59127E-01  5.17136E-01  5.81995E-01  6.54730E-01
   7.36564E-01  8.28824E-01  9.32843E-01  1.05008E+00  1.18225E+00  1.33145E+00  1.50001E+00  1.69033E+00  1.90486E+00  2.14629E+00
   2.41788E+00  2.72370E+00  3.06880E+00  3.45980E+00  3.90652E+00  4.42605E+00  5.05243E+00  5.86620E+00  7.09193E+00  8.77487E+00
   9.24590E+00  8.10698E+00  6.72052E+00  5.99390E+00  5.72619E+00  5.31861E+00  4.80370E+00  5.60291E+00  7.25590E+00  8.15780E+00
   7.70047E+00  6.57092E+00  5.79209E+00  5.65870E+00  5.40764E+00  4.36746E+00  3.45637E+00  4.05290E+00  5.09199E+00  5.48711E+00
   5.47104E+00  5.57144E+00  5.86259E+00  5.52485E+00  4.14615E+00  3.00458E+00  2.31698E+00  1.82621E+00  1.44167E+00  1.12813E+00
   8.67715E-01  6.49691E-01  4.66812E-01  3.13790E-01  1.86501E-01  8.16056E-02 -3.69435E-03 -7.17371E-02 -1.24508E-01 -1.63688E-01
  -1.90727E-01 -2.06860E-01 -2.13147E-01 -2.10488E-01 -1.99707E-01 -1.81569E-01 -1.56832E-01 -1.26223E-01 -9.04783E-02 -5.03527E-02
  -6.68720E-03  3.95992E-02  8.74964E-02  1.35958E-01  1.83885E-01  2.30140E-01  2.73521E-01  3.12817E-01  3.46843E-01  3.74514E-01
   3.94848E-01  4.06994E-01  4.10225E-01  4.04007E-01  3.88022E-01  3.62212E-01  3.26732E-01  2.81948E-01  2.28397E-01  1.66811E-01
   9.80846E-02  2.32580E-02 -5.65686E-02 -1.40265E-01 -2.26722E-01 -3.14835E-01 -4.03551E-01 -4.91881E-01 -5.78971E-01 -6.64089E-01
  -7.46645E-01 -8.26139E-01 -9.02186E-01 -9.74506E-01 -1.04295E+00 -1.10748E+00 -1.16811E+00 -1.22490E+00 -1.27797E+00 -1.32746E+00
  -1.37358E+00 -1.41654E+00 -1.45658E+00 -1.49388E+00 -1.52865E+00 -1.56108E+00 -1.59141E+00 -1.61983E+00 -1.64649E+00 -1.67155E+00
  -1.69514E+00 -1.71740E+00 -1.73848E+00 -1.75848E+00 -1.77751E+00 -1.79562E+00 -1.81290E+00 -1.82944E+00 -1.84532E+00 -1.86059E+00
  -1.87529E+00 -1.88945E+00 -1.90314E+00 -1.91640E+00 -1.92927E+00 -1.94178E+00 -1.95394E+00 -1.96578E+00 -1.97733E+00 -1.98861E+00
  -1.99967E+00 -2.01049E+00 -2.02108E+00 -2.03147E+00 -2.04168E+00 -2.05173E+00 -2.06162E+00 -2.07136E+00 -2.08094E+00 -2.09039E+00
  -2.09973E+00 -2.10895E+00 -2.11808E+00 -2.12708E+00 -2.13599E+00 -2.14480E+00 -2.15354E+00 -2.16220E+00 -2.17078E+00 -2.17927E+00
  -2.18769E+00 -2.19605E+00 -2.20435E+00 -2.21260E+00 -2.22077E+00 -2.22888E+00 -2.23694E+00 -2.24495E+00 -2.25291E+00 -2.26081E+00
  -2.26866E+00 -2.27644E+00 -2.28419E+00 -2.29188E+00 -2.29952E+00 -2.30709E+00 -2.31461E+00 -2.32205E+00
 NY background values follow
     3.022E+00    3.009E+00    2.996E+00    2.982E+00    2.969E+00    2.955E+00    2.942E+00    2.929E+00    2.915E+00    2.902E+00
     2.889E+00    2.875E+00    2.862E+00    2.848E+00    2.835E+00    2.822E+00    2.808E+00    2.795E+00    2.781E+00    2.768E+00
     2.755E+00    2.741E+00    2.728E+00    2.714E+00    2.701E+00    2.688E+00    2.674E+00    2.661E+00    2.648E+00    2.634E+00
     2.621E+00    2.607E+00    2.594E+00    2.581E+00    2.567E+00    2.554E+00    2.541E+00    2.527E+00    2.514E+00    2.500E+00
     2.487E+00    2.474E+00    2.460E+00    2.447E+00    2.434E+00    2.420E+00    2.407E+00    2.394E+00    2.380E+00    2.367E+00
     2.354E+00    2.340E+00    2.327E+00    2.314E+00    2.300E+00    2.287E+00    2.274E+00    2.260E+00    2.247E+00    2.234E+00
     2.221E+00    2.207E+00    2.194E+00    2.181E+00    2.167E+00    2.154E+00    2.141E+00    2.128E+00    2.114E+00    2.101E+00
     2.088E+00    2.075E+00    2.061E+00    2.048E+00    2.035E+00    2.022E+00    2.008E+00    1.995E+00    1.982E+00    1.969E+00
     1.956E+00    1.942E+00    1.929E+00    1.916E+00    1.903E+00    1.890E+00    1.877E+00    1.863E+00    1.850E+00    1.837E+00
     1.824E+00    1.811E+00    1.798E+00    1.785E+00    1.771E+00    1.758E+00    1.745E+00    1.732E+00    1.719E+00    1.706E+00
     1.693E+00    1.680E+00    1.667E+00    1.654E+00    1.641E+00    1.628E+00    1.615E+00    1.602E+00    1.588E+00    1.575E+00
     1.562E+00    1.549E+00    1.536E+00    1.524E+00    1.511E+00    1.498E+00    1.485E+00    1.472E+00    1.459E+00    1.446E+00
     1.433E+00    1.420E+00    1.407E+00    1.394E+00    1.381E+00    1.368E+00    1.356E+00    1.343E+00    1.330E+00    1.317E+00
     1.304E+00    1.291E+00    1.279E+00    1.266E+00    1.253E+00    1.240E+00    1.227E+00    1.215E+00    1.202E+00    1.189E+00
     1.176E+00    1.164E+00    1.151E+00    1.138E+00    1.126E+00    1.113E+00    1.100E+00    1.087E+00    1.075E+00    1.062E+00
     1.050E+00    1.037E+00    1.024E+00    1.012E+00    9.992E-01    9.866E-01    9.740E-01    9.615E-01    9.489E-01    9.364E-01
     9.239E-01    9.114E-01    8.989E-01    8.864E-01    8.739E-01    8.615E-01    8.490E-01    8.366E-01    8.242E-01    8.118E-01
     7.994E-01    7.870E-01    7.746E-01    7.623E-01    7.499E-01    7.376E-01    7.253E-01    7.130E-01    7.007E-01    6.884E-01
     6.762E-01    6.639E-01    6.517E-01    6.395E-01    6.272E-01    6.150E-01    6.029E-01    5.907E-01    5.785E-01    5.664E-01
     5.543E-01    5.422E-01    5.301E-01    5.180E-01    5.059E-01    4.939E-01    4.819E-01    4.699E-01    4.579E-01    4.459E-01
     4.339E-01    4.220E-01    4.100E-01    3.981E-01    3.862E-01    3.743E-01    3.624E-01    3.506E-01    3.388E-01    3.270E-01
     3.152E-01    3.034E-01    2.916E-01    2.799E-01    2.682E-01    2.564E-01    2.448E-01    2.331E-01    2.214E-01    2.098E-01
     1.982E-01    1.866E-01    1.750E-01    1.635E-01    1.520E-01    1.404E-01    1.290E-01    1.175E-01    1.060E-01    9.460E-02
     8.319E-02    7.180E-02    6.044E-02    4.909E-02    3.776E-02    2.646E-02    1.518E-02    3.916E-03   -7.324E-03   -1.854E-02
    -2.974E-02   -4.091E-02   -5.206E-02   -6.319E-02   -7.430E-02   -8.539E-02   -9.645E-02   -1.075E-01   -1.185E-01   -1.295E-01
    -1.405E-01   -1.514E-01   -1.623E-01   -1.732E-01   -1.841E-01   -1.950E-01   -2.058E-01   -2.166E-01   -2.274E-01   -2.381E-01
    -2.489E-01   -2.596E-01   -2.703E-01   -2.809E-01   -2.916E-01   -3.022E-01   -3.128E-01   -3.233E-01   -3.339E-01   -3.444E-01
    -3.549E-01   -3.653E-01   -3.757E-01   -3.862E-01   -3.965E-01   -4.069E-01   -4.172E-01   -4.275E-01   -4.378E-01   -4.481E-01
    -4.583E-01   -4.685E-01   -4.787E-01   -4.888E-01   -4.990E-01   -5.091E-01   -5.192E-01   -5.292E-01   -5.392E-01   -5.493E-01
    -5.592E-01   -5.692E-01   -5.791E-01   -5.890E-01   -5.989E-01   -6.088E-01   -6.186E-01   -6.285E-01   -6.383E-01   -6.480E-01
    -6.578E-01   -6.675E-01   -6.772E-01   -6.869E-01   -6.965E-01   -7.062E-01   -7.158E-01   -7.254E-01   -7.349E-01   -7.445E-01
    -7.540E-01   -7.635E-01   -7.730E-01   -7.824E-01   -7.919E-01   -8.013E-01   -8.107E-01   -8.200E-01   -8.294E-01   -8.387E-01
    -8.480E-01   -8.573E-01   -8.665E-01   -8.758E-01   -8.850E-01   -8.942E-01   -9.034E-01   -9.125E-01   -9.217E-01   -9.308E-01
    -9.399E-01   -9.490E-01   -9.580E-01   -9.671E-01   -9.761E-01   -9.851E-01   -9.941E-01   -1.003E+00   -1.012E+00   -1.021E+00
    -1.030E+00   -1.039E+00   -1.048E+00   -1.056E+00   -1.065E+00   -1.074E+00   -1.083E+00   -1.092E+00   -1.100E+00   -1.109E+00
    -1.118E+00   -1.127E+00   -1.135E+00   -1.144E+00   -1.153E+00   -1.161E+00   -1.170E+00   -1.179E+00   -1.187E+00   -1.196E+00
    -1.205E+00   -1.213E+00   -1.222E+00   -1.230E+00   -1.239E+00   -1.247E+00   -1.256E+00   -1.264E+00   -1.273E+00   -1.281E+00
    -1.290E+00   -1.298E+00   -1.306E+00   -1.315E+00   -1.323E+00   -1.332E+00   -1.340E+00   -1.348E+00   -1.357E+00   -1.365E+00
    -1.373E+00   -1.382E+00   -1.390E+00   -1.398E+00   -1.406E+00   -1.415E+00   -1.423E+00   -1.431E+00   -1.439E+00   -1.448E+00
    -1.456E+00   -1.464E+00   -1.472E+00   -1.480E+00   -1.488E+00   -1.496E+00   -1.505E+00   -1.513E+00   -1.521E+00   -1.529E+00
    -1.537E+00   -1.545E+00   -1.553E+00   -1.561E+00   -1.569E+00   -1.577E+00   -1.585E+00   -1.593E+00   -1.601E+00   -1.609E+00
    -1.617E+00   -1.625E+00   -1.633E+00   -1.641E+00   -1.649E+00   -1.657E+00   -1.665E+00   -1.673E+00   -1.681E+00   -1.688E+00
    -1.696E+00   -1.704E+00   -1.712E+00   -1.720E+00   -1.728E+00   -1.736E+00   -1.743E+00   -1.751E+00   -1.759E+00   -1.767E+00
    -1.775E+00   -1.782E+00   -1.790E+00   -1.798E+00   -1.806E+00   -1.814E+00   -1.821E+00   -1.829E+00   -1.837E+00   -1.845E+00
    -1.852E+00   -1.860E+00   -1.868E+00   -1.876E+00   -1.883E+00   -1.891E+00   -1.899E+00   -1.906E+00   -1.914E+00   -1.922E+00
    -1.930E+00   -1.937E+00   -1.945E+00   -1.953E+00   -1.960E+00   -1.968E+00   -1.976E+00   -1.983E+00   -1.991E+00   -1.999E+00
    -2.006E+00   -2.014E+00   -2.022E+00   -2.029E+00   -2.037E+00   -2.045E+00   -2.052E+00   -2.060E+00   -2.068E+00   -2.075E+00
    -2.083E+00   -2.090E+00   -2.098E+00   -2.106E+00   -2.113E+00   -2.121E+00   -2.129E+00   -2.136E+00   -2.144E+00   -2.152E+00
    -2.159E+00   -2.167E+00   -2.174E+00   -2.182E+00   -2.190E+00   -2.197E+00   -2.205E+00   -2.213E+00   -2.220E+00   -2.228E+00
    -2.235E+00   -2.243E+00   -2.251E+00   -2.258E+00   -2.266E+00   -2.274E+00   -2.281E+00   -2.289E+00
 Asp      Conc. = 7.46E+00
