 LCModel (Version 6.3-1L) Copyright: S.W. Provencher.          Ref.: Magn. Reson. Med. 30:672-679 (1993).                
 Slice#1 Row#4 Col#8  PD_05_press_2_raw_act
 36 lines in following concentration table = NCONC+1
    Conc.  %SD /Cr+PCr  Metabolite                                         
  461.827  57%   0.192 Ala                                                 
  418.255 104%   0.174 Asp                                                 
 1.36E+03  37%   0.563 Cr                                                  
 1.05E+03  49%   0.437 PCr                                                 
   62.288 438% 2.6E-02 GABA                                                
  169.274 163% 7.0E-02 Glc                                                 
 1.94E+03  28%   0.805 Gln                                                 
 1.93E+03  31%   0.800 Glu                                                 
  869.224   6%   0.361 GPC                                                 
    0.000 999%   0.000 PCh                                                 
  727.182  25%   0.302 GSH                                                 
 1.54E+03  37%   0.640 Ins                                                 
    0.000 999%   0.000 Lac                                                 
 4.39E+03   6%   1.821 NAA                                                 
  208.550 141% 8.7E-02 NAAG                                                
  171.903  35% 7.1E-02 Scyllo                                              
  130.382 307% 5.4E-02 Tau                                                 
  370.239  68%   0.154 -CrCH2                                              
  869.224   6%   0.361 GPC+PCh                                             
 4.59E+03   5%   1.907 NAA+NAAG                                            
 2.41E+03   6%   1.000 Cr+PCr                                              
 3.86E+03  22%   1.604 Glu+Gln                                             
 6.73E+03  20%   2.796 Lip13a                                              
    0.000 999%   0.000 Lip13b                                              
 1.62E+03  42%   0.671 Lip09                                               
  883.811  74%   0.367 MM09                                                
 1.17E+03  44%   0.484 Lip20                                               
 1.79E+03  50%   0.745 MM20                                                
  255.458 136%   0.106 MM12                                                
 1.17E+03  73%   0.487 MM14                                                
  112.159 380% 4.7E-02 MM17                                                
 6.73E+03  20%   2.796 Lip13a+Lip13b                                       
 8.16E+03  11%   3.389 MM14+Lip13a+Lip13b+MM12                             
 2.50E+03  17%   1.038 MM09+Lip09                                          
 2.96E+03  28%   1.229 MM20+Lip20                                          
   6 lines in following misc. output table
  FWHM = 0.046 ppm    S/N =   8                                            
  Data shift = 0.023 ppm                                                   
  Ph: -50 deg      -4.4 deg/ppm                                            
  alphaB,S = 8.5E+01,   5.1E+01                                            
   14 spline knots.   Ns = 6(1)                                            
   2 inflections.     1 extrema                                            
  498 points on ppm-axis = NY
      4.000000     3.992357     3.984714     3.977070     3.969427     3.961784     3.954141     3.946497     3.938854     3.931211
      3.923568     3.915925     3.908281     3.900638     3.892995     3.885352     3.877708     3.870065     3.862422     3.854779
      3.847136     3.839492     3.831849     3.824206     3.816563     3.808919     3.801276     3.793633     3.785990     3.778347
      3.770703     3.763060     3.755417     3.747774     3.740130     3.732487     3.724844     3.717201     3.709558     3.701914
      3.694271     3.686628     3.678985     3.671341     3.663698     3.656055     3.648412     3.640769     3.633125     3.625482
      3.617839     3.610196     3.602552     3.594909     3.587266     3.579623     3.571980     3.564336     3.556693     3.549050
      3.541407     3.533763     3.526120     3.518477     3.510834     3.503191     3.495547     3.487904     3.480261     3.472618
      3.464974     3.457331     3.449688     3.442045     3.434402     3.426758     3.419115     3.411472     3.403829     3.396185
      3.388542     3.380899     3.373256     3.365613     3.357969     3.350326     3.342683     3.335040     3.327396     3.319753
      3.312110     3.304467     3.296824     3.289180     3.281537     3.273894     3.266251     3.258607     3.250964     3.243321
      3.235678     3.228034     3.220391     3.212748     3.205105     3.197462     3.189818     3.182175     3.174532     3.166889
      3.159245     3.151602     3.143959     3.136316     3.128673     3.121029     3.113386     3.105743     3.098100     3.090456
      3.082813     3.075170     3.067527     3.059884     3.052240     3.044597     3.036954     3.029311     3.021667     3.014024
      3.006381     2.998738     2.991095     2.983451     2.975808     2.968165     2.960522     2.952878     2.945235     2.937592
      2.929949     2.922306     2.914662     2.907019     2.899376     2.891733     2.884089     2.876446     2.868803     2.861160
      2.853517     2.845873     2.838230     2.830587     2.822944     2.815300     2.807657     2.800014     2.792371     2.784728
      2.777084     2.769441     2.761798     2.754155     2.746511     2.738868     2.731225     2.723582     2.715939     2.708295
      2.700652     2.693009     2.685366     2.677722     2.670079     2.662436     2.654793     2.647150     2.639506     2.631863
      2.624220     2.616577     2.608933     2.601290     2.593647     2.586004     2.578361     2.570717     2.563074     2.555431
      2.547788     2.540144     2.532501     2.524858     2.517215     2.509572     2.501928     2.494285     2.486642     2.478999
      2.471355     2.463712     2.456069     2.448426     2.440783     2.433139     2.425496     2.417853     2.410210     2.402566
      2.394923     2.387280     2.379637     2.371994     2.364350     2.356707     2.349064     2.341421     2.333777     2.326134
      2.318491     2.310848     2.303205     2.295561     2.287918     2.280275     2.272632     2.264988     2.257345     2.249702
      2.242059     2.234416     2.226772     2.219129     2.211486     2.203843     2.196199     2.188556     2.180913     2.173270
      2.165627     2.157983     2.150340     2.142697     2.135054     2.127410     2.119767     2.112124     2.104481     2.096838
      2.089194     2.081551     2.073908     2.066265     2.058621     2.050978     2.043335     2.035692     2.028049     2.020405
      2.012762     2.005119     1.997476     1.989833     1.982190     1.974546     1.966903     1.959260     1.951617     1.943974
      1.936331     1.928688     1.921045     1.913402     1.905759     1.898115     1.890472     1.882829     1.875186     1.867543
      1.859900     1.852257     1.844614     1.836971     1.829327     1.821684     1.814041     1.806398     1.798755     1.791112
      1.783469     1.775826     1.768183     1.760540     1.752896     1.745253     1.737610     1.729967     1.722324     1.714681
      1.707038     1.699395     1.691752     1.684108     1.676465     1.668822     1.661179     1.653536     1.645893     1.638250
      1.630607     1.622964     1.615321     1.607677     1.600034     1.592391     1.584748     1.577105     1.569462     1.561819
      1.554176     1.546533     1.538890     1.531246     1.523603     1.515960     1.508317     1.500674     1.493031     1.485388
      1.477745     1.470102     1.462458     1.454815     1.447172     1.439529     1.431886     1.424243     1.416600     1.408957
      1.401314     1.393671     1.386027     1.378384     1.370741     1.363098     1.355455     1.347812     1.340169     1.332526
      1.324883     1.317240     1.309596     1.301953     1.294310     1.286667     1.279024     1.271381     1.263738     1.256095
      1.248452     1.240808     1.233165     1.225522     1.217879     1.210236     1.202593     1.194950     1.187307     1.179664
      1.172021     1.164377     1.156734     1.149091     1.141448     1.133805     1.126162     1.118519     1.110876     1.103233
      1.095590     1.087946     1.080303     1.072660     1.065017     1.057374     1.049731     1.042088     1.034445     1.026802
      1.019158     1.011515     1.003872     0.996229     0.988586     0.980943     0.973300     0.965657     0.958014     0.950371
      0.942727     0.935084     0.927441     0.919798     0.912155     0.904512     0.896869     0.889226     0.881583     0.873940
      0.866296     0.858653     0.851010     0.843367     0.835724     0.828081     0.820438     0.812795     0.805152     0.797508
      0.789865     0.782222     0.774579     0.766936     0.759293     0.751650     0.744007     0.736364     0.728721     0.721077
      0.713434     0.705791     0.698148     0.690505     0.682862     0.675219     0.667576     0.659933     0.652290     0.644646
      0.637003     0.629360     0.621717     0.614074     0.606431     0.598788     0.591145     0.583502     0.575858     0.568215
      0.560572     0.552929     0.545286     0.537643     0.530000     0.522357     0.514714     0.507071     0.499427     0.491784
      0.484141     0.476498     0.468855     0.461212     0.453569     0.445925     0.438282     0.430639     0.422996     0.415353
      0.407710     0.400067     0.392424     0.384780     0.377137     0.369494     0.361851     0.354208     0.346565     0.338922
      0.331278     0.323635     0.315992     0.308349     0.300706     0.293063     0.285420     0.277777     0.270133     0.262490
      0.254847     0.247204     0.239561     0.231918     0.224275     0.216631     0.208988     0.201345
 NY phased data points follow
  -1.53717E+01 -2.07147E+01  5.73386E+00 -1.53376E+01 -8.05639E+00 -4.56943E+00  1.73806E+01  1.22989E+01  2.81298E+01  2.36380E+01
   5.39616E+01  4.29511E+01  3.53106E+01  2.25064E+01  2.74655E+01  5.10810E+00  8.29732E+00  1.94406E+00 -7.45652E+00  5.71332E+00
  -6.85163E+00  5.33643E+00  6.78441E+00 -1.04849E+00 -2.63286E+01 -5.70724E+00 -1.03336E+01 -4.04339E+00  6.68060E+00  1.37187E+01
   1.00510E+01  3.13259E+01  1.40014E+01  1.30781E+01 -6.94411E+00 -1.06821E+01 -1.21350E+01 -9.05993E+00 -1.36310E+01 -1.19480E+01
   2.74978E-01  1.26203E+01  2.89845E+00  6.22085E+00  5.23233E+00  5.34334E+00  1.44422E+01  6.33601E+00  1.21377E+01  2.43092E+00
   2.34194E+01 -7.54782E+00  1.15554E+01  1.26940E+01  3.44338E+00  8.65727E-01  6.98309E+00  2.10127E+01 -5.24907E+00  2.23035E+01
  -2.61588E+00 -1.78420E+01 -1.40528E+01 -1.05730E+01 -5.44703E+00 -1.15954E+01 -1.22663E+01 -2.43973E+01 -1.90474E+01 -2.02525E+01
  -1.87360E+01 -6.90061E+00 -2.30519E+00 -1.44437E+01  6.03426E+00 -1.89067E+00 -1.19496E+01 -1.98002E+01 -1.29536E+01  2.00734E+00
  -7.01540E+00 -1.39701E+01  1.72674E+00 -6.87602E+00  2.07165E+00  2.57527E+00  6.80950E+00  6.57550E+00 -4.97167E+00 -1.97422E+01
   7.43584E+00 -5.69724E+00 -3.46991E-01 -1.85159E+01 -7.64553E-01 -3.21609E+00  3.12647E+00  2.43583E+01  1.94686E+01  3.09006E+01
   4.27219E+01  6.74499E+01  7.71490E+01  7.56691E+01  8.16525E+01  5.71932E+01  4.39421E+01 -7.07002E-01  3.80478E+00 -1.72616E+01
   3.01450E+00  3.23871E+00  1.16227E+01 -1.40023E+01  3.61528E+00 -1.03790E+01 -8.15257E+00 -1.08331E+01 -1.92349E+01 -1.03295E+00
   1.02681E+01  2.50413E+00  2.70482E+01  1.82701E+01  3.63207E+01  4.82104E+01  7.77108E+01  8.31114E+01  8.32689E+01  5.78991E+01
   6.06960E+01  2.19482E+01  8.34068E+00 -3.07245E+00  5.44399E+00  4.33291E+00 -3.71404E+00 -6.17495E-01  3.47362E+00 -7.65929E+00
  -8.80122E+00 -1.68227E+00  7.73958E+00 -1.78553E+01 -1.47862E+01 -1.39575E+01  1.46549E+01 -3.51161E-01 -9.54196E+00 -1.78079E+01
  -2.26389E+01  6.20424E+00 -7.36355E+00 -1.34126E+01 -7.87569E+00 -1.04819E+01 -1.22270E-02 -2.13005E+01  3.19186E+00  6.62348E+00
  -8.48645E+00 -3.69126E+00 -1.90890E+01 -1.47688E+01 -8.14499E+00 -9.96009E+00 -1.32368E+01  3.82435E+00  1.42726E+01 -2.53860E+01
   3.96579E+00 -1.64015E+01 -1.91486E+01 -3.58514E+01 -1.48442E+01 -1.78131E+01 -1.91397E+01 -9.67798E+00 -1.20197E+01 -1.76884E+01
  -3.67649E+00 -2.15976E+01 -2.58750E+01 -6.91636E+00 -1.52747E+01 -7.25928E+00 -1.79502E+01 -7.67947E+00  5.25132E+00 -1.34004E+01
  -1.24293E+00 -2.37043E+01 -3.63062E+00 -2.58002E+01 -1.18064E+01 -3.62722E+00 -2.31753E+01 -1.02608E+01 -2.28202E+01 -1.55885E+01
  -8.79899E+00 -7.48038E+00  3.09685E+00 -1.19892E+01  4.26085E-01 -4.55479E+00  6.26980E+00 -2.39522E+01  2.37814E-01 -1.34424E+01
  -2.07372E+01 -8.11058E+00  3.47504E+00 -5.86439E-01  1.11143E+01  4.60495E-01  1.40755E+01  1.24123E+01  1.07181E+01  7.20504E+00
  -1.46498E+01 -1.74207E+01 -6.59568E+00 -1.03579E+01 -6.26911E+00 -3.17790E-01  2.83156E+00  4.27900E+00  1.67154E+01 -5.38576E+00
   6.85505E+00  6.91981E+00  6.98204E+00  8.73794E-01  3.93526E+00 -6.72564E+00 -6.39310E+00  1.73466E+01  4.14881E+00  6.68976E+00
   6.48059E+00  4.01365E+00 -1.08603E+01 -1.23871E+01  4.15833E+00 -3.87283E+00  6.84212E+00 -1.31422E+00  6.99094E+00 -2.06187E+00
   1.69661E+01  1.97716E+01  1.15268E+01  3.13074E+01  3.28358E+01  5.07790E+01  6.18734E+01  9.26697E+01  1.23497E+02  1.36461E+02
   1.66561E+02  1.66689E+02  1.35672E+02  1.18034E+02  7.74703E+01  3.45031E+01  1.70082E+01  1.81608E+01 -1.14624E+01 -1.52079E+00
   2.55781E-01  2.41067E+01  8.39833E+00 -1.52734E+00 -7.54135E+00 -1.02537E+01  4.95070E+00 -8.74266E-02  9.18575E-01  5.15451E+00
  -8.36679E+00 -5.67477E+00 -1.63893E+01 -1.22029E+01 -9.82592E+00 -1.17438E+01 -8.59566E+00 -1.58435E+01 -1.14276E+01 -1.17149E+01
  -1.43137E+01 -8.33453E+00 -1.23279E+01 -2.41661E+00 -2.19037E+01 -2.29437E+01 -7.46453E+00 -1.08010E+01 -3.28883E+01 -9.57999E-01
  -1.03838E+00 -1.73236E+01 -3.30198E+00 -4.18862E+00 -8.40770E+00  4.96889E+00  7.83549E+00 -1.20610E+01 -5.29977E-01 -3.84953E+00
   2.96225E+00  2.07101E+01  1.45866E+01  4.41659E+00  8.64035E+00  1.55291E+01  1.81350E+01  7.74395E+00  2.09979E+01  1.20693E+01
   2.13189E+01  4.41180E+00  1.29030E+01  4.41825E+00  9.47243E-01  3.22946E+00  1.62459E+00 -4.09180E+00 -9.01011E+00 -2.06072E+01
   2.18663E+01 -1.52545E+00  4.83280E+00  7.02153E+00  1.17728E+01  1.54563E+01 -7.87163E+00  1.99880E+01  3.20526E+01  1.51822E+01
   1.77762E+01  2.35963E+01  2.03825E+01  2.61543E+01  3.89739E+01  3.21220E+01  1.63402E+01  1.56210E+01  2.85656E+01  2.63742E+01
   3.14114E+01  3.34459E+01  3.65300E+01  2.61832E+01  3.35760E+01  3.99801E+01  2.95502E+01  1.83614E+01  1.58648E+01  2.02846E+01
  -1.33390E+00  1.45213E+01  1.10695E+01  1.20007E+01  2.94600E+01  1.61764E+01  3.80152E+01  3.28848E+01  4.12741E+00  2.01641E+01
   1.54855E+01  1.21304E+01  2.52252E+01  1.58659E+01  2.41562E+01  4.91956E+00  7.26415E-01 -3.87252E+00  3.44171E+00  7.45519E+00
  -5.66920E+00 -7.69186E+00  1.51863E+01 -7.67192E-01 -7.91666E-01  6.61050E-01  1.64660E+00  2.81408E-01  3.06559E+00  7.05072E+00
   2.55384E+00 -4.50780E-01  2.46249E+01  1.32034E+01  5.27115E+00  4.76254E+00  2.04039E+01  1.36710E+01  2.85381E+01  1.58658E+01
   3.64850E+00  5.57805E+00  1.09326E+01  9.34599E+00  8.23486E-01  1.29505E+01  1.21527E+01  1.96798E+01  4.84591E+00  1.40081E+01
   2.05446E+01  9.15378E+00 -4.34293E+00  6.32362E+00  1.68081E+01  1.39076E+01  1.55224E+01  1.86792E+01  6.34926E+00  3.56314E+00
   1.06758E+01  4.98464E+00  3.93539E+00 -1.24888E+00 -1.49254E+01  1.30157E+01 -1.18726E+00 -4.08239E+00 -5.28125E+00  1.53144E+01
  -1.84469E+00 -1.68683E-01 -3.85402E+00  1.83823E+01  9.97198E+00 -8.35359E+00 -8.10188E+00 -6.86545E+00 -7.87624E+00  2.69081E+00
   3.70011E+00  9.55165E+00 -7.24734E+00 -1.09010E+01 -1.01327E+01 -9.08843E+00 -8.17057E-01  4.88672E+00  7.00337E+00  8.02326E+00
  -1.10346E+01 -7.91658E+00  1.59308E+01 -1.11253E+01 -1.21055E+00  7.35156E+00 -1.26261E+01 -5.85709E+00 -7.36258E+00 -6.87190E+00
  -4.22016E+00  2.20481E+00 -1.52931E+01  3.03174E-01 -1.02347E+01 -5.92239E-01  1.29772E+01 -3.81867E+00 -1.31982E+00 -5.18409E+00
  -4.35873E+00 -1.47255E+00  3.39287E+00 -5.96811E+00 -5.99308E+00  5.04913E+00  2.76280E+00 -7.64473E+00 -6.89447E+00 -1.23506E+01
  -2.26794E+00 -8.05158E+00 -4.92309E+00 -2.20580E+00  1.57814E+01  9.27178E+00 -5.92762E+00 -6.83057E+00 -9.54929E+00 -1.12368E+01
   7.39525E+00 -6.55327E+00  1.97930E+01  5.68636E+00 -7.29612E+00 -1.02085E+01  8.52197E+00 -4.29275E+00
 NY points of the fit to the data follow
  -8.29503E+00 -8.32042E+00 -7.69839E+00 -5.84944E+00 -2.57208E+00  2.63740E+00  9.69598E+00  1.72973E+01  2.54059E+01  3.34422E+01
   3.95660E+01  4.17009E+01  3.86543E+01  3.11940E+01  2.15216E+01  1.19277E+01  4.43563E+00  8.72158E-02 -1.92095E+00 -2.74253E+00
  -3.20135E+00 -3.53969E+00 -4.03071E+00 -4.60917E+00 -4.56850E+00 -4.29248E+00 -3.46958E+00 -1.16588E+00  3.13990E+00  8.80979E+00
   1.41306E+01  1.73565E+01  1.75155E+01  1.43297E+01  8.46133E+00  1.93775E+00 -3.15326E+00 -5.96336E+00 -6.87337E+00 -6.42577E+00
  -4.95646E+00 -2.97272E+00 -9.75762E-01  7.96461E-01  2.60305E+00  4.58479E+00  6.35392E+00  7.29441E+00  7.02820E+00  5.36362E+00
   2.46441E+00 -9.79983E-01 -4.08077E+00 -6.06262E+00 -6.78004E+00 -6.62764E+00 -6.00668E+00 -5.22338E+00 -4.43157E+00 -3.82373E+00
  -3.62703E+00 -3.93496E+00 -4.77187E+00 -5.97718E+00 -7.21804E+00 -8.07049E+00 -8.23062E+00 -7.82211E+00 -7.11768E+00 -6.30129E+00
  -5.51612E+00 -4.92576E+00 -4.60727E+00 -4.54567E+00 -4.68135E+00 -4.99333E+00 -5.45579E+00 -5.94311E+00 -6.34388E+00 -6.51798E+00
  -5.96881E+00 -4.89687E+00 -3.79664E+00 -2.51545E+00 -1.01711E+00  2.16131E-01  4.88415E-01 -5.52331E-01 -2.56374E+00 -4.96353E+00
  -7.13919E+00 -8.39995E+00 -8.51543E+00 -7.94617E+00 -7.16548E+00 -5.89873E+00 -1.44838E+00  8.55763E+00  1.98596E+01  3.26375E+01
   4.86500E+01  6.58847E+01  7.90452E+01  8.24607E+01  7.45812E+01  5.80821E+01  3.67144E+01  1.61924E+01  2.65848E+00 -3.64910E+00
  -6.15706E+00 -7.02183E+00 -7.32854E+00 -7.44078E+00 -7.48391E+00 -7.48224E+00 -7.42729E+00 -7.31029E+00 -7.04854E+00 -6.36991E+00
  -4.00296E+00  3.70810E+00  1.47222E+01  2.65304E+01  4.08366E+01  5.74655E+01  7.26065E+01  8.07558E+01  7.84258E+01  6.64812E+01
   4.81550E+01  2.78136E+01  1.15426E+01  2.21830E+00 -2.57671E+00 -5.45809E+00 -7.33367E+00 -8.43327E+00 -8.49700E+00 -7.45200E+00
  -5.79101E+00 -4.24648E+00 -3.28877E+00 -3.02700E+00 -3.33310E+00 -3.95212E+00 -4.64835E+00 -5.26185E+00 -5.78636E+00 -6.27701E+00
  -6.69656E+00 -7.00155E+00 -7.19581E+00 -7.31000E+00 -7.40458E+00 -7.66179E+00 -8.06661E+00 -8.51630E+00 -9.09897E+00 -9.74009E+00
  -1.04446E+01 -1.09788E+01 -1.09102E+01 -1.02471E+01 -9.35089E+00 -8.68334E+00 -8.67021E+00 -9.38747E+00 -1.05506E+01 -1.18250E+01
  -1.29802E+01 -1.39149E+01 -1.45018E+01 -1.50179E+01 -1.56482E+01 -1.63509E+01 -1.67511E+01 -1.64817E+01 -1.57844E+01 -1.51596E+01
  -1.48458E+01 -1.49388E+01 -1.51634E+01 -1.49598E+01 -1.42527E+01 -1.31017E+01 -1.15485E+01 -9.69126E+00 -7.49090E+00 -5.08231E+00
  -3.11358E+00 -2.09287E+00 -2.60233E+00 -4.36098E+00 -6.42315E+00 -7.96346E+00 -8.54998E+00 -7.94254E+00 -5.87565E+00 -2.65164E+00
   9.62924E-01  4.19178E+00  6.45146E+00  6.79283E+00  4.52074E+00  5.30241E-01 -4.66601E+00 -1.06906E+01 -1.61113E+01 -1.90249E+01
  -1.81448E+01 -1.43121E+01 -8.78334E+00 -2.38204E+00  3.50064E+00  7.00140E+00  7.27486E+00  4.93281E+00  9.84203E-01 -3.80044E+00
  -8.41185E+00 -1.12398E+01 -1.14032E+01 -9.10197E+00 -5.18403E+00 -8.96713E-01  2.73838E+00  5.04421E+00  5.55690E+00  4.41563E+00
   2.47479E+00  9.63274E-01  3.12016E-01  3.56975E-01  1.15610E+00  2.91767E+00  4.94896E+00  6.42788E+00  7.13190E+00  6.88485E+00
   5.38809E+00  2.66573E+00 -2.39325E-01 -2.13513E+00 -2.52941E+00 -1.49569E+00  6.54300E-01  3.32845E+00  5.79743E+00  7.99832E+00
   1.03771E+01  1.29395E+01  1.57409E+01  2.00341E+01  3.08669E+01  5.02196E+01  7.01589E+01  9.16382E+01  1.17467E+02  1.43666E+02
   1.61156E+02  1.61553E+02  1.43614E+02  1.12200E+02  7.38494E+01  3.87756E+01  1.66155E+01  6.43693E+00  2.21219E+00  5.25033E-01
  -2.86261E-01 -7.31654E-01 -9.13422E-01 -9.11592E-01 -8.68669E-01 -9.03525E-01 -1.06777E+00 -1.37448E+00 -1.78146E+00 -2.19833E+00
  -2.54609E+00 -2.79263E+00 -2.94487E+00 -3.02364E+00 -3.05173E+00 -3.05937E+00 -3.06952E+00 -3.08831E+00 -3.10772E+00 -3.11588E+00
  -3.10563E+00 -3.07183E+00 -3.01634E+00 -2.95088E+00 -2.88074E+00 -2.80785E+00 -2.73552E+00 -2.65906E+00 -2.57054E+00 -2.46516E+00
  -2.34130E+00 -2.20030E+00 -2.04458E+00 -1.87763E+00 -1.70488E+00 -1.52883E+00 -1.34846E+00 -1.16150E+00 -9.64615E-01 -7.54083E-01
  -5.26993E-01 -2.80334E-01 -1.09517E-02  2.85432E-01  6.14452E-01  9.83477E-01  1.40201E+00  1.88411E+00  2.45330E+00  3.15782E+00
   4.11415E+00  5.34377E+00  6.35663E+00  7.14222E+00  7.79712E+00  8.04333E+00  7.50131E+00  6.00823E+00  3.93646E+00  2.31594E+00
   1.56744E+00  1.85931E+00  3.56479E+00  6.51670E+00  1.01023E+01  1.36549E+01  1.65776E+01  1.86016E+01  1.96652E+01  1.98877E+01
   1.98173E+01  1.99877E+01  2.04828E+01  2.11990E+01  2.20349E+01  2.29178E+01  2.38047E+01  2.46641E+01  2.54695E+01  2.61969E+01
   2.68241E+01  2.73310E+01  2.77004E+01  2.79181E+01  2.79736E+01  2.78602E+01  2.75754E+01  2.71213E+01  2.65044E+01  2.57352E+01
   2.48280E+01  2.38002E+01  2.26711E+01  2.14621E+01  2.01952E+01  1.88927E+01  1.75761E+01  1.62654E+01  1.49790E+01  1.37333E+01
   1.25422E+01  1.14176E+01  1.03683E+01  9.40144E+00  8.52160E+00  7.73200E+00  7.03422E+00  6.42874E+00  5.91491E+00  5.49164E+00
   5.15737E+00  4.91061E+00  4.74966E+00  4.67295E+00  4.67870E+00  4.76533E+00  4.93107E+00  5.17404E+00  5.49167E+00  5.88070E+00
   6.33668E+00  6.85411E+00  7.42590E+00  8.04343E+00  8.69610E+00  9.37159E+00  1.00558E+01  1.07334E+01  1.13878E+01  1.20022E+01
   1.25592E+01  1.30426E+01  1.34370E+01  1.37296E+01  1.39097E+01  1.39701E+01  1.39065E+01  1.37187E+01  1.34098E+01  1.29867E+01
   1.24590E+01  1.18393E+01  1.11416E+01  1.03818E+01  9.57610E+00  8.74079E+00  7.89147E+00  7.04261E+00  6.20700E+00  5.39577E+00
   4.61799E+00  3.88084E+00  3.18932E+00  2.54674E+00  1.95458E+00  1.41318E+00  9.21531E-01  4.77889E-01  7.96065E-02 -2.76273E-01
  -5.93098E-01 -8.74118E-01 -1.12272E+00 -1.34209E+00 -1.53544E+00 -1.70559E+00 -1.85526E+00 -1.98669E+00 -2.10209E+00 -2.20329E+00
  -2.29208E+00 -2.36990E+00 -2.43808E+00 -2.49763E+00 -2.54961E+00 -2.59483E+00 -2.63416E+00 -2.66818E+00 -2.69749E+00 -2.72248E+00
  -2.74367E+00 -2.76140E+00 -2.77610E+00 -2.78797E+00 -2.79731E+00 -2.80424E+00 -2.80908E+00 -2.81198E+00 -2.81319E+00 -2.81275E+00
  -2.81082E+00 -2.80744E+00 -2.80282E+00 -2.79702E+00 -2.79018E+00 -2.78227E+00 -2.77342E+00 -2.76362E+00 -2.75307E+00 -2.74175E+00
  -2.72975E+00 -2.71699E+00 -2.70359E+00 -2.68952E+00 -2.67494E+00 -2.65980E+00 -2.64415E+00 -2.62792E+00 -2.61123E+00 -2.59404E+00
  -2.57648E+00 -2.55845E+00 -2.54001E+00 -2.52107E+00 -2.50174E+00 -2.48198E+00 -2.46189E+00 -2.44134E+00 -2.42038E+00 -2.39892E+00
  -2.37708E+00 -2.35478E+00 -2.33208E+00 -2.30884E+00 -2.28507E+00 -2.26068E+00 -2.23577E+00 -2.21020E+00
 NY background values follow
    -1.258E+01   -1.256E+01   -1.253E+01   -1.251E+01   -1.249E+01   -1.247E+01   -1.245E+01   -1.243E+01   -1.240E+01   -1.238E+01
    -1.236E+01   -1.234E+01   -1.232E+01   -1.229E+01   -1.227E+01   -1.225E+01   -1.223E+01   -1.221E+01   -1.219E+01   -1.216E+01
    -1.214E+01   -1.212E+01   -1.210E+01   -1.208E+01   -1.205E+01   -1.203E+01   -1.201E+01   -1.199E+01   -1.197E+01   -1.194E+01
    -1.192E+01   -1.190E+01   -1.188E+01   -1.186E+01   -1.184E+01   -1.181E+01   -1.179E+01   -1.177E+01   -1.175E+01   -1.173E+01
    -1.170E+01   -1.168E+01   -1.166E+01   -1.164E+01   -1.162E+01   -1.159E+01   -1.157E+01   -1.155E+01   -1.153E+01   -1.151E+01
    -1.148E+01   -1.146E+01   -1.144E+01   -1.142E+01   -1.140E+01   -1.137E+01   -1.135E+01   -1.133E+01   -1.131E+01   -1.129E+01
    -1.126E+01   -1.124E+01   -1.122E+01   -1.120E+01   -1.118E+01   -1.116E+01   -1.113E+01   -1.111E+01   -1.109E+01   -1.107E+01
    -1.105E+01   -1.102E+01   -1.100E+01   -1.098E+01   -1.096E+01   -1.094E+01   -1.091E+01   -1.089E+01   -1.087E+01   -1.085E+01
    -1.082E+01   -1.080E+01   -1.078E+01   -1.076E+01   -1.074E+01   -1.071E+01   -1.069E+01   -1.067E+01   -1.065E+01   -1.063E+01
    -1.060E+01   -1.058E+01   -1.056E+01   -1.054E+01   -1.052E+01   -1.049E+01   -1.047E+01   -1.045E+01   -1.043E+01   -1.041E+01
    -1.038E+01   -1.036E+01   -1.034E+01   -1.032E+01   -1.030E+01   -1.027E+01   -1.025E+01   -1.023E+01   -1.021E+01   -1.019E+01
    -1.016E+01   -1.014E+01   -1.012E+01   -1.010E+01   -1.008E+01   -1.005E+01   -1.003E+01   -1.001E+01   -9.987E+00   -9.965E+00
    -9.943E+00   -9.920E+00   -9.898E+00   -9.876E+00   -9.854E+00   -9.832E+00   -9.810E+00   -9.788E+00   -9.766E+00   -9.744E+00
    -9.721E+00   -9.699E+00   -9.677E+00   -9.655E+00   -9.633E+00   -9.611E+00   -9.589E+00   -9.567E+00   -9.544E+00   -9.522E+00
    -9.500E+00   -9.478E+00   -9.456E+00   -9.434E+00   -9.412E+00   -9.389E+00   -9.367E+00   -9.345E+00   -9.323E+00   -9.301E+00
    -9.279E+00   -9.257E+00   -9.234E+00   -9.212E+00   -9.190E+00   -9.168E+00   -9.146E+00   -9.124E+00   -9.102E+00   -9.079E+00
    -9.057E+00   -9.035E+00   -9.013E+00   -8.991E+00   -8.969E+00   -8.946E+00   -8.924E+00   -8.902E+00   -8.880E+00   -8.858E+00
    -8.836E+00   -8.813E+00   -8.791E+00   -8.769E+00   -8.747E+00   -8.725E+00   -8.702E+00   -8.680E+00   -8.658E+00   -8.636E+00
    -8.614E+00   -8.591E+00   -8.569E+00   -8.547E+00   -8.525E+00   -8.503E+00   -8.481E+00   -8.458E+00   -8.436E+00   -8.414E+00
    -8.392E+00   -8.370E+00   -8.347E+00   -8.325E+00   -8.303E+00   -8.281E+00   -8.259E+00   -8.236E+00   -8.214E+00   -8.192E+00
    -8.170E+00   -8.147E+00   -8.125E+00   -8.103E+00   -8.081E+00   -8.059E+00   -8.036E+00   -8.014E+00   -7.992E+00   -7.970E+00
    -7.948E+00   -7.925E+00   -7.903E+00   -7.881E+00   -7.859E+00   -7.836E+00   -7.814E+00   -7.792E+00   -7.770E+00   -7.748E+00
    -7.725E+00   -7.703E+00   -7.681E+00   -7.659E+00   -7.636E+00   -7.614E+00   -7.592E+00   -7.570E+00   -7.547E+00   -7.525E+00
    -7.503E+00   -7.481E+00   -7.458E+00   -7.436E+00   -7.414E+00   -7.392E+00   -7.370E+00   -7.347E+00   -7.325E+00   -7.303E+00
    -7.281E+00   -7.258E+00   -7.236E+00   -7.214E+00   -7.192E+00   -7.169E+00   -7.147E+00   -7.125E+00   -7.103E+00   -7.080E+00
    -7.058E+00   -7.036E+00   -7.014E+00   -6.991E+00   -6.969E+00   -6.947E+00   -6.925E+00   -6.902E+00   -6.880E+00   -6.858E+00
    -6.836E+00   -6.813E+00   -6.791E+00   -6.769E+00   -6.747E+00   -6.724E+00   -6.702E+00   -6.680E+00   -6.658E+00   -6.635E+00
    -6.613E+00   -6.591E+00   -6.569E+00   -6.546E+00   -6.524E+00   -6.502E+00   -6.480E+00   -6.457E+00   -6.435E+00   -6.413E+00
    -6.391E+00   -6.368E+00   -6.346E+00   -6.324E+00   -6.302E+00   -6.279E+00   -6.257E+00   -6.235E+00   -6.213E+00   -6.190E+00
    -6.168E+00   -6.146E+00   -6.124E+00   -6.101E+00   -6.079E+00   -6.057E+00   -6.035E+00   -6.012E+00   -5.990E+00   -5.968E+00
    -5.946E+00   -5.923E+00   -5.901E+00   -5.879E+00   -5.857E+00   -5.834E+00   -5.812E+00   -5.790E+00   -5.768E+00   -5.745E+00
    -5.723E+00   -5.701E+00   -5.679E+00   -5.656E+00   -5.634E+00   -5.612E+00   -5.590E+00   -5.567E+00   -5.545E+00   -5.523E+00
    -5.501E+00   -5.478E+00   -5.456E+00   -5.434E+00   -5.412E+00   -5.389E+00   -5.367E+00   -5.345E+00   -5.323E+00   -5.300E+00
    -5.278E+00   -5.256E+00   -5.234E+00   -5.211E+00   -5.189E+00   -5.167E+00   -5.145E+00   -5.122E+00   -5.100E+00   -5.078E+00
    -5.056E+00   -5.033E+00   -5.011E+00   -4.989E+00   -4.967E+00   -4.945E+00   -4.922E+00   -4.900E+00   -4.878E+00   -4.856E+00
    -4.833E+00   -4.811E+00   -4.789E+00   -4.767E+00   -4.744E+00   -4.722E+00   -4.700E+00   -4.678E+00   -4.656E+00   -4.633E+00
    -4.611E+00   -4.589E+00   -4.567E+00   -4.544E+00   -4.522E+00   -4.500E+00   -4.478E+00   -4.456E+00   -4.433E+00   -4.411E+00
    -4.389E+00   -4.367E+00   -4.345E+00   -4.322E+00   -4.300E+00   -4.278E+00   -4.256E+00   -4.234E+00   -4.211E+00   -4.189E+00
    -4.167E+00   -4.145E+00   -4.123E+00   -4.100E+00   -4.078E+00   -4.056E+00   -4.034E+00   -4.012E+00   -3.989E+00   -3.967E+00
    -3.945E+00   -3.923E+00   -3.901E+00   -3.878E+00   -3.856E+00   -3.834E+00   -3.812E+00   -3.790E+00   -3.768E+00   -3.745E+00
    -3.723E+00   -3.701E+00   -3.679E+00   -3.657E+00   -3.635E+00   -3.612E+00   -3.590E+00   -3.568E+00   -3.546E+00   -3.524E+00
    -3.502E+00   -3.479E+00   -3.457E+00   -3.435E+00   -3.413E+00   -3.391E+00   -3.369E+00   -3.346E+00   -3.324E+00   -3.302E+00
    -3.280E+00   -3.258E+00   -3.236E+00   -3.214E+00   -3.191E+00   -3.169E+00   -3.147E+00   -3.125E+00   -3.103E+00   -3.081E+00
    -3.059E+00   -3.037E+00   -3.014E+00   -2.992E+00   -2.970E+00   -2.948E+00   -2.926E+00   -2.904E+00   -2.882E+00   -2.860E+00
    -2.838E+00   -2.815E+00   -2.793E+00   -2.771E+00   -2.749E+00   -2.727E+00   -2.705E+00   -2.683E+00   -2.661E+00   -2.639E+00
    -2.617E+00   -2.594E+00   -2.572E+00   -2.550E+00   -2.528E+00   -2.506E+00   -2.484E+00   -2.462E+00   -2.440E+00   -2.418E+00
    -2.396E+00   -2.374E+00   -2.352E+00   -2.330E+00   -2.308E+00   -2.285E+00   -2.263E+00   -2.241E+00   -2.219E+00   -2.197E+00
    -2.175E+00   -2.153E+00   -2.131E+00   -2.109E+00   -2.087E+00   -2.065E+00   -2.043E+00   -2.021E+00   -1.999E+00   -1.977E+00
    -1.955E+00   -1.933E+00   -1.911E+00   -1.889E+00   -1.867E+00   -1.845E+00   -1.823E+00   -1.801E+00   -1.779E+00   -1.757E+00
    -1.735E+00   -1.713E+00   -1.691E+00   -1.669E+00   -1.647E+00   -1.625E+00   -1.603E+00   -1.581E+00
 Ala      Conc. = 4.62E+02
