 LCModel (Version 6.3-1L) Copyright: S.W. Provencher.          Ref.: Magn. Reson. Med. 30:672-679 (1993).                
 Slice#1 Row#4 Col#3  PD_05_press_2_raw_act
 36 lines in following concentration table = NCONC+1
    Conc.  %SD /Cr+PCr  Metabolite                                         
    0.000 999%   0.000 Ala                                                 
  217.915 164%   0.150 Asp                                                 
 1.45E+03   9%   1.000 Cr                                                  
    0.000 999%   0.000 PCr                                                 
   42.574 515% 2.9E-02 GABA                                                
   84.855 262% 5.8E-02 Glc                                                 
  155.228 302%   0.107 Gln                                                 
 1.79E+03  30%   1.234 Glu                                                 
  601.322   8%   0.414 GPC                                                 
    0.000 999%   0.000 PCh                                                 
  290.435  56%   0.200 GSH                                                 
 1.56E+03  35%   1.070 Ins                                                 
  591.275  44%   0.407 Lac                                                 
 2.04E+03  15%   1.403 NAA                                                 
 1.15E+03  26%   0.794 NAAG                                                
    0.000 999%   0.000 Scyllo                                              
   46.964 743% 3.2E-02 Tau                                                 
  590.986  38%   0.407 -CrCH2                                              
  601.322   8%   0.414 GPC+PCh                                             
 3.19E+03   6%   2.197 NAA+NAAG                                            
 1.45E+03   9%   1.000 Cr+PCr                                              
 1.95E+03  37%   1.341 Glu+Gln                                             
 1.68E+04  16%  11.576 Lip13a                                              
    0.000 999%   0.000 Lip13b                                              
 8.79E+03  14%   6.048 Lip09                                               
    0.000 999%   0.000 MM09                                                
 4.12E+03  28%   2.833 Lip20                                               
 1.30E+04  12%   8.955 MM20                                                
  731.597 168%   0.503 MM12                                                
    0.000 999%   0.000 MM14                                                
 1.86E+03  23%   1.281 MM17                                                
 1.68E+04  16%  11.576 Lip13a+Lip13b                                       
 1.76E+04  13%  12.079 MM14+Lip13a+Lip13b+MM12                             
 8.79E+03  14%   6.048 MM09+Lip09                                          
 1.71E+04   9%  11.788 MM20+Lip20                                          
   6 lines in following misc. output table
  FWHM = 0.046 ppm    S/N =   8                                            
  Data shift = 0.000 ppm                                                   
  Ph:  69 deg      36.8 deg/ppm                                            
  alphaB,S = 2.7E-01,   8.0E+01                                            
   14 spline knots.   Ns = 6(1)                                            
  ( 8) 2 infls.   ( 8) 1 extrs.                                            
  498 points on ppm-axis = NY
      4.000000     3.992357     3.984714     3.977070     3.969427     3.961784     3.954141     3.946497     3.938854     3.931211
      3.923568     3.915925     3.908281     3.900638     3.892995     3.885352     3.877708     3.870065     3.862422     3.854779
      3.847136     3.839492     3.831849     3.824206     3.816563     3.808919     3.801276     3.793633     3.785990     3.778347
      3.770703     3.763060     3.755417     3.747774     3.740130     3.732487     3.724844     3.717201     3.709558     3.701914
      3.694271     3.686628     3.678985     3.671341     3.663698     3.656055     3.648412     3.640769     3.633125     3.625482
      3.617839     3.610196     3.602552     3.594909     3.587266     3.579623     3.571980     3.564336     3.556693     3.549050
      3.541407     3.533763     3.526120     3.518477     3.510834     3.503191     3.495547     3.487904     3.480261     3.472618
      3.464974     3.457331     3.449688     3.442045     3.434402     3.426758     3.419115     3.411472     3.403829     3.396185
      3.388542     3.380899     3.373256     3.365613     3.357969     3.350326     3.342683     3.335040     3.327396     3.319753
      3.312110     3.304467     3.296824     3.289180     3.281537     3.273894     3.266251     3.258607     3.250964     3.243321
      3.235678     3.228034     3.220391     3.212748     3.205105     3.197462     3.189818     3.182175     3.174532     3.166889
      3.159245     3.151602     3.143959     3.136316     3.128673     3.121029     3.113386     3.105743     3.098100     3.090456
      3.082813     3.075170     3.067527     3.059884     3.052240     3.044597     3.036954     3.029311     3.021667     3.014024
      3.006381     2.998738     2.991095     2.983451     2.975808     2.968165     2.960522     2.952878     2.945235     2.937592
      2.929949     2.922306     2.914662     2.907019     2.899376     2.891733     2.884089     2.876446     2.868803     2.861160
      2.853517     2.845873     2.838230     2.830587     2.822944     2.815300     2.807657     2.800014     2.792371     2.784728
      2.777084     2.769441     2.761798     2.754155     2.746511     2.738868     2.731225     2.723582     2.715939     2.708295
      2.700652     2.693009     2.685366     2.677722     2.670079     2.662436     2.654793     2.647150     2.639506     2.631863
      2.624220     2.616577     2.608933     2.601290     2.593647     2.586004     2.578361     2.570717     2.563074     2.555431
      2.547788     2.540144     2.532501     2.524858     2.517215     2.509572     2.501928     2.494285     2.486642     2.478999
      2.471355     2.463712     2.456069     2.448426     2.440783     2.433139     2.425496     2.417853     2.410210     2.402566
      2.394923     2.387280     2.379637     2.371994     2.364350     2.356707     2.349064     2.341421     2.333777     2.326134
      2.318491     2.310848     2.303205     2.295561     2.287918     2.280275     2.272632     2.264988     2.257345     2.249702
      2.242059     2.234416     2.226772     2.219129     2.211486     2.203843     2.196199     2.188556     2.180913     2.173270
      2.165627     2.157983     2.150340     2.142697     2.135054     2.127410     2.119767     2.112124     2.104481     2.096838
      2.089194     2.081551     2.073908     2.066265     2.058621     2.050978     2.043335     2.035692     2.028049     2.020405
      2.012762     2.005119     1.997476     1.989833     1.982190     1.974546     1.966903     1.959260     1.951617     1.943974
      1.936331     1.928688     1.921045     1.913402     1.905759     1.898115     1.890472     1.882829     1.875186     1.867543
      1.859900     1.852257     1.844614     1.836971     1.829327     1.821684     1.814041     1.806398     1.798755     1.791112
      1.783469     1.775826     1.768183     1.760540     1.752896     1.745253     1.737610     1.729967     1.722324     1.714681
      1.707038     1.699395     1.691752     1.684108     1.676465     1.668822     1.661179     1.653536     1.645893     1.638250
      1.630607     1.622964     1.615321     1.607677     1.600034     1.592391     1.584748     1.577105     1.569462     1.561819
      1.554176     1.546533     1.538890     1.531246     1.523603     1.515960     1.508317     1.500674     1.493031     1.485388
      1.477745     1.470102     1.462458     1.454815     1.447172     1.439529     1.431886     1.424243     1.416600     1.408957
      1.401314     1.393671     1.386027     1.378384     1.370741     1.363098     1.355455     1.347812     1.340169     1.332526
      1.324883     1.317240     1.309596     1.301953     1.294310     1.286667     1.279024     1.271381     1.263738     1.256095
      1.248452     1.240808     1.233165     1.225522     1.217879     1.210236     1.202593     1.194950     1.187307     1.179664
      1.172021     1.164377     1.156734     1.149091     1.141448     1.133805     1.126162     1.118519     1.110876     1.103233
      1.095590     1.087946     1.080303     1.072660     1.065017     1.057374     1.049731     1.042088     1.034445     1.026802
      1.019158     1.011515     1.003872     0.996229     0.988586     0.980943     0.973300     0.965657     0.958014     0.950371
      0.942727     0.935084     0.927441     0.919798     0.912155     0.904512     0.896869     0.889226     0.881583     0.873940
      0.866296     0.858653     0.851010     0.843367     0.835724     0.828081     0.820438     0.812795     0.805152     0.797508
      0.789865     0.782222     0.774579     0.766936     0.759293     0.751650     0.744007     0.736364     0.728721     0.721077
      0.713434     0.705791     0.698148     0.690505     0.682862     0.675219     0.667576     0.659933     0.652290     0.644646
      0.637003     0.629360     0.621717     0.614074     0.606431     0.598788     0.591145     0.583502     0.575858     0.568215
      0.560572     0.552929     0.545286     0.537643     0.530000     0.522357     0.514714     0.507071     0.499427     0.491784
      0.484141     0.476498     0.468855     0.461212     0.453569     0.445925     0.438282     0.430639     0.422996     0.415353
      0.407710     0.400067     0.392424     0.384780     0.377137     0.369494     0.361851     0.354208     0.346565     0.338922
      0.331278     0.323635     0.315992     0.308349     0.300706     0.293063     0.285420     0.277777     0.270133     0.262490
      0.254847     0.247204     0.239561     0.231918     0.224275     0.216631     0.208988     0.201345
 NY phased data points follow
   8.79522E+01  8.52000E+01  7.16165E+01  6.85647E+01  6.16558E+01  7.60547E+01  7.50511E+01  7.05299E+01  6.59426E+01  7.96408E+01
   9.39154E+01  8.54131E+01  7.75539E+01  9.67043E+01  1.04640E+02  1.04718E+02  9.90553E+01  9.81329E+01  8.96841E+01  9.09130E+01
   9.13150E+01  6.37607E+01  7.74283E+01  7.97421E+01  6.29888E+01  8.32127E+01  7.68110E+01  6.34271E+01  5.90412E+01  7.64921E+01
   7.28861E+01  5.90313E+01  8.20436E+01  6.54546E+01  7.74245E+01  8.04738E+01  6.91714E+01  7.68544E+01  6.77686E+01  6.07906E+01
   5.88682E+01  6.47071E+01  5.54423E+01  6.47077E+01  6.62169E+01  6.64203E+01  5.43199E+01  6.41737E+01  6.63035E+01  8.46479E+01
   7.13970E+01  7.85519E+01  6.26020E+01  6.72114E+01  5.74734E+01  6.18067E+01  5.79563E+01  6.75603E+01  7.10629E+01  6.06802E+01
   6.40701E+01  5.54445E+01  4.67815E+01  6.06696E+01  4.88737E+01  5.05947E+01  5.23352E+01  5.14399E+01  5.41226E+01  5.03103E+01
   4.19739E+01  4.87508E+01  3.84815E+01  5.80099E+01  5.43105E+01  4.18217E+01  3.22931E+01  5.07969E+01  3.89926E+01  4.31259E+01
   3.37122E+01  4.33333E+01  3.68965E+01  3.52635E+01  4.68395E+01  2.59758E+01  3.34977E+01  3.44366E+01  3.66942E+01  3.25051E+01
   3.53025E+01  2.95796E+01  3.11435E+01  3.70752E+01  2.76924E+01  2.28949E+01  3.02032E+01  2.34978E+01  2.48941E+01  3.36073E+01
   3.82344E+01  6.16501E+01  6.39555E+01  8.71966E+01  1.01976E+02  9.30989E+01  9.83724E+01  6.51224E+01  5.71749E+01  6.76202E+01
   4.89717E+01  4.49036E+01  4.04405E+01  4.58392E+01  4.43695E+01  4.81429E+01  3.62641E+01  3.26128E+01  2.79108E+01  2.06302E+01
   3.46669E+01  1.91463E+01  2.65001E+01  3.59916E+01  3.76990E+01  5.00631E+01  6.49938E+01  7.23785E+01  8.30958E+01  8.34988E+01
   8.59042E+01  7.49192E+01  6.94720E+01  6.03927E+01  5.54577E+01  5.37423E+01  4.95968E+01  3.79708E+01  3.42123E+01  2.52102E+01
   2.83130E+01  3.38436E+01  2.96395E+01  3.47384E+01  2.72337E+01  2.44997E+01  2.78438E+01  3.28216E+01  2.23592E+01  3.33300E+01
   1.90257E+01  2.78571E+01  1.39525E+01  1.11030E+01  2.32270E+01  3.15559E+01  1.94235E+01  2.81060E+01  1.26546E+01  3.05190E+01
   1.88064E+01  1.65242E+01  1.50009E+01  2.24524E+01 -1.80633E+00  1.59813E+01  1.92981E+01  2.20609E+01  1.86665E+01  2.41514E+01
   8.83506E+00  3.46180E-01  1.14519E+01  7.19650E+00  3.27934E+00 -9.37113E-01 -3.61927E+00  2.84439E+00 -5.36127E-01 -8.35512E+00
  -1.17064E+01  1.94496E-01  4.34762E+00 -5.37747E+00 -6.26458E+00  1.87214E-01 -7.14467E+00  7.33010E+00  1.31221E+01 -6.52755E+00
   9.92159E+00  6.30710E+00  1.65811E+01  8.19148E+00  6.82571E+00  8.46858E+00  9.37732E+00  1.81856E+01  7.12729E+00  1.04060E+00
  -7.78648E+00  1.75839E+00  3.57608E+00  9.32833E+00  9.97691E+00  7.92295E-01  5.21810E+00  1.35317E+01 -1.12819E+01  8.11686E+00
  -7.56163E-01  1.92001E+00  2.87313E+00  9.32891E+00  9.29955E+00  2.75161E+01  1.35108E+01  2.17528E+01  2.29261E+01  6.81927E+00
   1.57790E+01 -5.26461E+00 -1.16971E+01 -7.43838E+00  7.57228E+00  9.90393E+00  6.57113E+00  2.24033E+01  9.06043E+00  8.54316E+00
   1.21492E+01  1.17381E+01  2.68502E-01  1.23196E+01  1.04783E+01  9.92486E+00  1.39378E+01  6.03061E+00  1.29036E+00  9.50662E+00
   1.68524E+01  3.48770E+00  1.48421E+01  8.07718E+00  7.03456E+00  1.65368E+01  7.90108E+00  1.21928E+01  2.80319E+01  2.12313E+01
   2.05675E+01  2.13798E+01  2.99402E+01  3.17540E+01  3.59342E+01  4.40670E+01  6.66915E+01  8.43046E+01  8.84412E+01  1.06482E+02
   9.84063E+01  1.06503E+02  1.02641E+02  7.76081E+01  3.90139E+01  7.93014E+00  7.02907E+00 -5.67043E-01 -6.55794E+00 -1.23917E+01
  -3.91616E+00 -1.80941E+01 -1.56683E+01 -5.32253E+00 -1.99367E+01 -2.88365E+01 -1.42423E+01 -3.42548E+01 -3.29968E+01 -2.64186E+01
  -3.56717E+01 -3.75572E+01 -4.57747E+01 -3.19207E+01 -3.84674E+01 -2.97482E+01 -4.47871E+01 -4.31673E+01 -3.34517E+01 -3.80823E+01
  -4.33855E+01 -2.71687E+01 -5.26236E+01 -3.18964E+01 -3.83501E+01 -4.89908E+01 -4.16859E+01 -4.66625E+01 -4.77225E+01 -5.41480E+01
  -5.88216E+01 -5.52485E+01 -6.08647E+01 -6.08404E+01 -6.33477E+01 -7.42183E+01 -7.21716E+01 -7.41094E+01 -5.93825E+01 -6.99142E+01
  -8.19804E+01 -6.24489E+01 -6.48555E+01 -6.39799E+01 -8.31472E+01 -8.04372E+01 -7.97159E+01 -8.33881E+01 -8.95608E+01 -7.46078E+01
  -8.44746E+01 -9.15288E+01 -8.76551E+01 -7.95592E+01 -8.68042E+01 -9.38693E+01 -7.94789E+01 -7.33271E+01 -8.00909E+01 -8.23955E+01
  -7.09928E+01 -6.21966E+01 -6.70053E+01 -7.04254E+01 -5.64181E+01 -5.73659E+01 -6.16544E+01 -5.06378E+01 -4.41997E+01 -4.12825E+01
  -3.55964E+01 -3.04723E+01 -2.47611E+01 -2.93037E+01 -1.36895E+01 -6.84694E+00 -1.61011E+01 -8.47062E+00 -1.26922E+01 -6.80580E+00
  -1.28449E+01 -9.36863E+00 -7.52007E+00 -9.96552E+00  9.14517E-02 -2.06802E+01 -1.43654E+01 -5.69181E+00 -1.59572E+00  2.77614E+00
   2.09840E+00 -1.70660E+00 -1.15780E+01 -1.16533E+01 -5.45835E+00 -8.82638E+00 -1.60220E+01 -7.76270E+00 -5.39975E+00 -4.82601E+00
  -8.11325E+00 -7.25683E+00 -1.15517E+01 -1.06894E+01 -8.25454E+00 -4.69913E+00 -1.40818E+01 -1.71850E+01 -1.69588E+01 -8.36180E+00
  -1.38573E+01 -7.28150E+00 -2.61340E+01 -1.71830E+01 -2.09117E+01 -1.88011E+01 -1.36706E+01 -7.52766E-01  2.14905E+00 -3.34864E+00
  -1.93906E+00  2.40195E+00 -8.29088E-01 -8.24693E+00 -1.36244E+01  1.48002E+00 -1.34775E+01 -3.60053E+00 -5.35339E+00 -5.03057E+00
  -1.15158E+01  9.32862E-01 -4.34648E+00 -7.02993E+00 -1.21430E+01 -1.69702E+01 -3.91264E+00 -2.51978E+00 -3.64989E+00 -2.15441E+01
  -1.80006E+01 -1.22636E+01 -1.24882E+01 -2.56222E+01 -1.09725E+01 -1.36108E+01 -2.11299E+01 -6.71186E+00 -1.80287E+01 -1.84606E+01
  -1.21764E+01 -1.96909E+01 -1.30252E+01 -2.23593E+01 -5.62990E+00 -2.16218E+01 -1.02442E+01 -1.74296E+01 -8.76379E+00 -1.99134E+01
  -2.42541E+01 -1.73519E+01 -9.60022E+00 -1.11019E+01 -1.15799E+01 -1.35333E+01 -1.73694E+01 -3.22494E+01 -1.68195E+01 -1.48914E+01
  -2.28577E+01 -2.44907E+01 -1.85313E+01 -3.19487E+01 -1.05040E+01 -1.90460E+01 -1.25418E+01 -1.07024E+01 -9.43401E+00 -2.45954E+01
  -1.05239E+01 -1.28300E+01 -1.27318E+01 -1.61470E+01 -1.61606E+01 -1.99228E+01 -2.17109E+01 -2.87351E+00 -2.65582E+01 -1.15105E+01
  -1.77400E+01 -1.37431E+01 -7.50578E+00 -1.14981E+01 -2.26816E+01 -8.35516E+00 -4.73805E+00 -9.10911E+00 -1.16221E+01 -8.40999E+00
  -1.92318E+01 -1.83834E+01 -8.92594E+00 -4.12450E+00 -1.00433E+01 -1.01335E+01 -1.77212E+01 -3.96801E+00 -1.14439E+01 -1.73144E+01
  -5.50960E-02 -1.64626E+01 -4.94154E+00 -1.40349E+01 -2.76095E+01 -1.32798E+01 -1.33246E+01 -1.45505E+01 -1.15271E+01 -1.15685E+01
  -6.43689E+00 -1.77201E+01 -7.45158E+00 -2.06554E+01 -1.39076E+01 -1.90324E+01 -1.14726E+01 -5.38041E+00
 NY points of the fit to the data follow
   8.13824E+01  7.98913E+01  7.89374E+01  7.83132E+01  7.75320E+01  7.60225E+01  7.37356E+01  7.19028E+01  7.23235E+01  7.54080E+01
   8.06922E+01  8.75992E+01  9.52140E+01  1.01593E+02  1.04468E+02  1.02851E+02  9.77964E+01  9.11499E+01  8.46542E+01  7.91240E+01
   7.54843E+01  7.39064E+01  7.30550E+01  7.22686E+01  7.12607E+01  7.01720E+01  6.93950E+01  6.91328E+01  6.94768E+01  7.05884E+01
   7.24363E+01  7.45400E+01  7.60657E+01  7.63533E+01  7.52901E+01  7.31873E+01  7.04112E+01  6.74720E+01  6.50553E+01  6.35907E+01
   6.28619E+01  6.25588E+01  6.26758E+01  6.34529E+01  6.49914E+01  6.70171E+01  6.90587E+01  7.07080E+01  7.16776E+01  7.13848E+01
   6.94176E+01  6.61918E+01  6.26444E+01  5.93600E+01  5.66536E+01  5.49707E+01  5.44699E+01  5.47685E+01  5.53580E+01  5.59528E+01
   5.63127E+01  5.62249E+01  5.55145E+01  5.41943E+01  5.25293E+01  5.08598E+01  4.94152E+01  4.84630E+01  4.81419E+01  4.82824E+01
   4.86435E+01  4.89695E+01  4.91175E+01  4.90108E+01  4.85996E+01  4.79113E+01  4.70427E+01  4.61220E+01  4.52165E+01  4.43345E+01
   4.35686E+01  4.29126E+01  4.22381E+01  4.14109E+01  4.03252E+01  3.89652E+01  3.74085E+01  3.58097E+01  3.43623E+01  3.32979E+01
   3.28020E+01  3.29060E+01  3.34819E+01  3.42701E+01  3.49975E+01  3.54151E+01  3.54256E+01  3.49667E+01  3.50870E+01  3.88744E+01
   4.73286E+01  5.90452E+01  7.19422E+01  8.41022E+01  9.31364E+01  9.62351E+01  9.16402E+01  8.06569E+01  6.73025E+01  5.50326E+01
   4.48727E+01  3.79355E+01  3.53602E+01  3.45097E+01  3.41007E+01  3.38536E+01  3.36762E+01  3.35295E+01  3.34041E+01  3.33043E+01
   3.32527E+01  3.32643E+01  3.34028E+01  3.51819E+01  4.05385E+01  4.92963E+01  5.98779E+01  7.06197E+01  7.99146E+01  8.57630E+01
   8.61551E+01  8.04647E+01  7.05956E+01  5.97835E+01  4.99749E+01  4.17613E+01  3.64936E+01  3.40162E+01  3.25731E+01  3.17177E+01
   3.13013E+01  3.11859E+01  3.12278E+01  3.12013E+01  3.09520E+01  3.04859E+01  2.98522E+01  2.91159E+01  2.83606E+01  2.75889E+01
   2.67893E+01  2.59427E+01  2.50759E+01  2.42473E+01  2.35621E+01  2.30137E+01  2.24606E+01  2.18380E+01  2.11252E+01  2.03123E+01
   1.94434E+01  1.85505E+01  1.76976E+01  1.69879E+01  1.64562E+01  1.58841E+01  1.50671E+01  1.40617E+01  1.29447E+01  1.18321E+01
   1.08626E+01  9.92128E+00  9.01006E+00  8.20954E+00  7.42712E+00  6.62456E+00  5.79474E+00  5.03967E+00  4.39701E+00  3.88541E+00
   3.46186E+00  3.01139E+00  2.54076E+00  2.19209E+00  2.03666E+00  2.21711E+00  2.71320E+00  3.47059E+00  4.45272E+00  5.51479E+00
   6.48251E+00  7.10778E+00  7.34774E+00  7.09035E+00  6.19572E+00  4.83891E+00  3.47146E+00  2.31685E+00  1.51138E+00  1.21838E+00
   1.55538E+00  2.43432E+00  3.46472E+00  4.30541E+00  4.72935E+00  4.44361E+00  3.20057E+00  1.17467E+00 -1.24952E+00 -3.62861E+00
  -5.38841E+00 -5.67140E+00 -4.21563E+00 -1.41751E+00  2.03063E+00  5.31525E+00  7.63432E+00  7.93306E+00  5.60540E+00  1.35121E+00
  -3.42145E+00 -7.50649E+00 -1.00273E+01 -1.04286E+01 -8.35073E+00 -4.53282E+00 -1.53868E-01  3.64313E+00  6.26980E+00  7.65364E+00
   7.89552E+00  7.47323E+00  7.13765E+00  7.34086E+00  8.18222E+00  9.52794E+00  1.09757E+01  1.21282E+01  1.26713E+01  1.25144E+01
   1.19399E+01  1.14142E+01  1.13249E+01  1.20071E+01  1.35292E+01  1.56196E+01  1.77650E+01  1.94306E+01  2.02948E+01  2.03928E+01
   1.99451E+01  2.06214E+01  2.42290E+01  3.04789E+01  3.82867E+01  4.93780E+01  6.44491E+01  8.06527E+01  9.39732E+01  1.02144E+02
   1.04705E+02  1.01086E+02  8.98036E+01  7.14072E+01  5.09527E+01  3.23398E+01  1.60337E+01  2.72513E+00 -5.30463E+00 -1.01162E+01
  -1.38691E+01 -1.69794E+01 -1.95689E+01 -2.18388E+01 -2.39132E+01 -2.58640E+01 -2.78025E+01 -2.97598E+01 -3.16631E+01 -3.33771E+01
  -3.47970E+01 -3.58801E+01 -3.66416E+01 -3.71374E+01 -3.74598E+01 -3.77433E+01 -3.80864E+01 -3.85197E+01 -3.90426E+01 -3.96530E+01
  -4.03500E+01 -4.11259E+01 -4.19772E+01 -4.29414E+01 -4.40605E+01 -4.53807E+01 -4.69131E+01 -4.86219E+01 -5.04581E+01 -5.23738E+01
  -5.42901E+01 -5.61437E+01 -5.78989E+01 -5.95404E+01 -6.10670E+01 -6.24765E+01 -6.37668E+01 -6.49455E+01 -6.60081E+01 -6.69468E+01
  -6.77642E+01 -6.84642E+01 -6.90539E+01 -6.95409E+01 -6.99328E+01 -7.02362E+01 -7.04562E+01 -7.05959E+01 -7.06579E+01 -7.06430E+01
  -7.05512E+01 -7.03808E+01 -7.01294E+01 -6.97932E+01 -6.93672E+01 -6.88446E+01 -6.82182E+01 -6.74794E+01 -6.66190E+01 -6.56270E+01
  -6.44927E+01 -6.32047E+01 -6.17519E+01 -6.01231E+01 -5.83079E+01 -5.62963E+01 -5.40796E+01 -5.16501E+01 -4.90010E+01 -4.61250E+01
  -4.30123E+01 -3.96418E+01 -3.58677E+01 -3.14345E+01 -2.66073E+01 -2.19412E+01 -1.78872E+01 -1.47280E+01 -1.27333E+01 -1.21657E+01
  -1.28394E+01 -1.36764E+01 -1.35339E+01 -1.19870E+01 -9.24459E+00 -5.50565E+00 -1.15592E+00  2.68923E+00  5.24341E+00  6.20349E+00
   5.80709E+00  4.50820E+00  2.55383E+00  3.07102E-01 -1.73818E+00 -3.65893E+00 -5.53686E+00 -7.37823E+00 -9.16469E+00 -1.08697E+01
  -1.24652E+01 -1.39248E+01 -1.52251E+01 -1.63464E+01 -1.72738E+01 -1.79962E+01 -1.85075E+01 -1.88055E+01 -1.88926E+01 -1.87743E+01
  -1.84603E+01 -1.79630E+01 -1.72984E+01 -1.64850E+01 -1.55439E+01 -1.44981E+01 -1.33724E+01 -1.21928E+01 -1.09864E+01 -9.78034E+00
  -8.60150E+00 -7.47566E+00 -6.42724E+00 -5.47832E+00 -4.64856E+00 -3.95413E+00 -3.40782E+00 -3.01826E+00 -2.79038E+00 -2.72488E+00
  -2.81891E+00 -3.06570E+00 -3.45549E+00 -3.97556E+00 -4.61130E+00 -5.34632E+00 -6.16349E+00 -7.04499E+00 -7.97333E+00 -8.93133E+00
  -9.90315E+00 -1.08741E+01 -1.18312E+01 -1.27630E+01 -1.36599E+01 -1.45142E+01 -1.53198E+01 -1.60721E+01 -1.67684E+01 -1.74067E+01
  -1.79865E+01 -1.85081E+01 -1.89726E+01 -1.93818E+01 -1.97378E+01 -2.00430E+01 -2.03002E+01 -2.05122E+01 -2.06820E+01 -2.08125E+01
  -2.09065E+01 -2.09666E+01 -2.09956E+01 -2.09959E+01 -2.09700E+01 -2.09200E+01 -2.08482E+01 -2.07563E+01 -2.06462E+01 -2.05196E+01
  -2.03782E+01 -2.02233E+01 -2.00563E+01 -1.98784E+01 -1.96908E+01 -1.94946E+01 -1.92910E+01 -1.90806E+01 -1.88644E+01 -1.86432E+01
  -1.84179E+01 -1.81892E+01 -1.79576E+01 -1.77238E+01 -1.74881E+01 -1.72507E+01 -1.70121E+01 -1.67723E+01 -1.65317E+01 -1.62904E+01
  -1.60485E+01 -1.58062E+01 -1.55637E+01 -1.53210E+01 -1.50783E+01 -1.48355E+01 -1.45928E+01 -1.43502E+01 -1.41078E+01 -1.38656E+01
  -1.36236E+01 -1.33817E+01 -1.31401E+01 -1.28987E+01 -1.26575E+01 -1.24164E+01 -1.21755E+01 -1.19346E+01 -1.16938E+01 -1.14530E+01
  -1.12123E+01 -1.09713E+01 -1.07303E+01 -1.04889E+01 -1.02474E+01 -1.00055E+01 -9.76323E+00 -9.52037E+00 -9.27697E+00 -9.03289E+00
  -8.78816E+00 -8.54258E+00 -8.29613E+00 -8.04863E+00 -7.80012E+00 -7.55044E+00 -7.29960E+00 -7.04738E+00
 NY background values follow
     7.693E+01    7.649E+01    7.605E+01    7.562E+01    7.518E+01    7.474E+01    7.430E+01    7.386E+01    7.342E+01    7.298E+01
     7.254E+01    7.210E+01    7.165E+01    7.121E+01    7.077E+01    7.033E+01    6.989E+01    6.944E+01    6.900E+01    6.855E+01
     6.811E+01    6.766E+01    6.722E+01    6.677E+01    6.632E+01    6.588E+01    6.543E+01    6.498E+01    6.453E+01    6.408E+01
     6.363E+01    6.317E+01    6.272E+01    6.227E+01    6.181E+01    6.136E+01    6.090E+01    6.044E+01    5.998E+01    5.952E+01
     5.906E+01    5.860E+01    5.814E+01    5.767E+01    5.721E+01    5.674E+01    5.627E+01    5.581E+01    5.534E+01    5.487E+01
     5.440E+01    5.392E+01    5.345E+01    5.298E+01    5.251E+01    5.203E+01    5.156E+01    5.109E+01    5.061E+01    5.014E+01
     4.967E+01    4.919E+01    4.872E+01    4.825E+01    4.778E+01    4.731E+01    4.684E+01    4.637E+01    4.591E+01    4.544E+01
     4.498E+01    4.451E+01    4.405E+01    4.359E+01    4.314E+01    4.268E+01    4.223E+01    4.177E+01    4.132E+01    4.088E+01
     4.043E+01    3.999E+01    3.955E+01    3.911E+01    3.868E+01    3.825E+01    3.782E+01    3.739E+01    3.697E+01    3.655E+01
     3.614E+01    3.572E+01    3.532E+01    3.491E+01    3.451E+01    3.411E+01    3.372E+01    3.333E+01    3.294E+01    3.255E+01
     3.217E+01    3.179E+01    3.142E+01    3.104E+01    3.067E+01    3.031E+01    2.994E+01    2.958E+01    2.922E+01    2.886E+01
     2.851E+01    2.815E+01    2.780E+01    2.746E+01    2.711E+01    2.677E+01    2.643E+01    2.609E+01    2.575E+01    2.541E+01
     2.508E+01    2.475E+01    2.442E+01    2.409E+01    2.376E+01    2.343E+01    2.311E+01    2.279E+01    2.246E+01    2.214E+01
     2.183E+01    2.151E+01    2.119E+01    2.087E+01    2.056E+01    2.024E+01    1.993E+01    1.962E+01    1.931E+01    1.900E+01
     1.868E+01    1.837E+01    1.806E+01    1.775E+01    1.744E+01    1.713E+01    1.682E+01    1.651E+01    1.620E+01    1.589E+01
     1.557E+01    1.526E+01    1.495E+01    1.463E+01    1.432E+01    1.400E+01    1.368E+01    1.336E+01    1.304E+01    1.272E+01
     1.239E+01    1.206E+01    1.174E+01    1.141E+01    1.107E+01    1.074E+01    1.040E+01    1.006E+01    9.721E+00    9.377E+00
     9.030E+00    8.680E+00    8.327E+00    7.971E+00    7.612E+00    7.250E+00    6.884E+00    6.515E+00    6.143E+00    5.766E+00
     5.386E+00    5.003E+00    4.615E+00    4.223E+00    3.826E+00    3.426E+00    3.021E+00    2.611E+00    2.196E+00    1.777E+00
     1.353E+00    9.230E-01    4.880E-01    4.766E-02   -3.983E-01   -8.499E-01   -1.307E+00   -1.771E+00   -2.240E+00   -2.716E+00
    -3.198E+00   -3.687E+00   -4.182E+00   -4.684E+00   -5.192E+00   -5.708E+00   -6.231E+00   -6.761E+00   -7.299E+00   -7.844E+00
    -8.397E+00   -8.958E+00   -9.526E+00   -1.010E+01   -1.069E+01   -1.128E+01   -1.188E+01   -1.249E+01   -1.311E+01   -1.374E+01
    -1.438E+01   -1.502E+01   -1.568E+01   -1.634E+01   -1.702E+01   -1.770E+01   -1.839E+01   -1.910E+01   -1.981E+01   -2.053E+01
    -2.126E+01   -2.200E+01   -2.275E+01   -2.350E+01   -2.427E+01   -2.504E+01   -2.581E+01   -2.660E+01   -2.738E+01   -2.818E+01
    -2.898E+01   -2.979E+01   -3.060E+01   -3.141E+01   -3.223E+01   -3.306E+01   -3.388E+01   -3.471E+01   -3.554E+01   -3.638E+01
    -3.722E+01   -3.806E+01   -3.890E+01   -3.974E+01   -4.058E+01   -4.142E+01   -4.227E+01   -4.311E+01   -4.395E+01   -4.480E+01
    -4.564E+01   -4.647E+01   -4.731E+01   -4.815E+01   -4.898E+01   -4.981E+01   -5.064E+01   -5.146E+01   -5.228E+01   -5.309E+01
    -5.390E+01   -5.471E+01   -5.551E+01   -5.630E+01   -5.709E+01   -5.787E+01   -5.865E+01   -5.942E+01   -6.018E+01   -6.094E+01
    -6.168E+01   -6.242E+01   -6.316E+01   -6.388E+01   -6.459E+01   -6.529E+01   -6.599E+01   -6.667E+01   -6.735E+01   -6.801E+01
    -6.867E+01   -6.931E+01   -6.994E+01   -7.056E+01   -7.116E+01   -7.176E+01   -7.234E+01   -7.291E+01   -7.346E+01   -7.400E+01
    -7.453E+01   -7.504E+01   -7.554E+01   -7.603E+01   -7.649E+01   -7.695E+01   -7.738E+01   -7.781E+01   -7.821E+01   -7.860E+01
    -7.897E+01   -7.932E+01   -7.966E+01   -7.997E+01   -8.027E+01   -8.055E+01   -8.082E+01   -8.106E+01   -8.128E+01   -8.148E+01
    -8.167E+01   -8.184E+01   -8.199E+01   -8.212E+01   -8.223E+01   -8.232E+01   -8.240E+01   -8.246E+01   -8.251E+01   -8.253E+01
    -8.254E+01   -8.254E+01   -8.252E+01   -8.248E+01   -8.243E+01   -8.236E+01   -8.227E+01   -8.218E+01   -8.206E+01   -8.194E+01
    -8.179E+01   -8.164E+01   -8.147E+01   -8.129E+01   -8.109E+01   -8.088E+01   -8.066E+01   -8.043E+01   -8.018E+01   -7.992E+01
    -7.965E+01   -7.937E+01   -7.907E+01   -7.877E+01   -7.845E+01   -7.813E+01   -7.779E+01   -7.744E+01   -7.708E+01   -7.671E+01
    -7.634E+01   -7.595E+01   -7.555E+01   -7.515E+01   -7.474E+01   -7.431E+01   -7.388E+01   -7.344E+01   -7.300E+01   -7.254E+01
    -7.208E+01   -7.161E+01   -7.114E+01   -7.066E+01   -7.017E+01   -6.967E+01   -6.917E+01   -6.866E+01   -6.815E+01   -6.763E+01
    -6.711E+01   -6.658E+01   -6.604E+01   -6.550E+01   -6.496E+01   -6.441E+01   -6.386E+01   -6.331E+01   -6.275E+01   -6.219E+01
    -6.162E+01   -6.105E+01   -6.048E+01   -5.991E+01   -5.934E+01   -5.876E+01   -5.818E+01   -5.760E+01   -5.702E+01   -5.643E+01
    -5.585E+01   -5.526E+01   -5.468E+01   -5.409E+01   -5.350E+01   -5.292E+01   -5.233E+01   -5.175E+01   -5.116E+01   -5.058E+01
    -5.000E+01   -4.942E+01   -4.884E+01   -4.826E+01   -4.768E+01   -4.710E+01   -4.653E+01   -4.596E+01   -4.538E+01   -4.482E+01
    -4.425E+01   -4.368E+01   -4.312E+01   -4.256E+01   -4.201E+01   -4.145E+01   -4.090E+01   -4.035E+01   -3.981E+01   -3.926E+01
    -3.873E+01   -3.819E+01   -3.766E+01   -3.713E+01   -3.661E+01   -3.609E+01   -3.557E+01   -3.506E+01   -3.455E+01   -3.405E+01
    -3.355E+01   -3.305E+01   -3.256E+01   -3.208E+01   -3.160E+01   -3.112E+01   -3.065E+01   -3.019E+01   -2.973E+01   -2.928E+01
    -2.883E+01   -2.839E+01   -2.795E+01   -2.752E+01   -2.710E+01   -2.668E+01   -2.626E+01   -2.586E+01   -2.545E+01   -2.506E+01
    -2.466E+01   -2.428E+01   -2.389E+01   -2.352E+01   -2.314E+01   -2.277E+01   -2.241E+01   -2.205E+01   -2.169E+01   -2.133E+01
    -2.098E+01   -2.064E+01   -2.029E+01   -1.995E+01   -1.961E+01   -1.928E+01   -1.894E+01   -1.861E+01   -1.829E+01   -1.796E+01
    -1.764E+01   -1.732E+01   -1.700E+01   -1.668E+01   -1.636E+01   -1.605E+01   -1.573E+01   -1.542E+01   -1.511E+01   -1.480E+01
    -1.449E+01   -1.418E+01   -1.387E+01   -1.356E+01   -1.325E+01   -1.294E+01   -1.263E+01   -1.232E+01
 Asp      Conc. = 2.18E+02
