 LCModel (Version 6.3-1L) Copyright: S.W. Provencher.          Ref.: Magn. Reson. Med. 30:672-679 (1993).                
 Slice#1 Row#12 Col#8  PD_05_press_2_raw_act
 36 lines in following concentration table = NCONC+1
    Conc.  %SD /Cr+PCr  Metabolite                                         
  137.732  69%   3.729 Ala                                                 
   14.859  79%   0.402 Asp                                                 
   36.934  72%   1.000 Cr                                                  
    0.000 999%   0.000 PCr                                                 
    8.730  81%   0.236 GABA                                                
    8.533  83%   0.231 Glc                                                 
    0.000 999%   0.000 Gln                                                 
    0.000 999%   0.000 Glu                                                 
    0.000 999%   0.000 GPC                                                 
   24.421  41%   0.661 PCh                                                 
    0.000 999%   0.000 GSH                                                 
  163.924  69%   4.438 Ins                                                 
    0.000 999%   0.000 Lac                                                 
  178.577  40%   4.835 NAA                                                 
    0.000 999%   0.000 NAAG                                                
    3.208  73% 8.7E-02 Scyllo                                              
   16.540  70%   0.448 Tau                                                 
    4.206 286%   0.114 -CrCH2                                              
   24.421  41%   0.661 GPC+PCh                                             
  178.577  18%   4.835 NAA+NAAG                                            
   36.934  72%   1.000 Cr+PCr                                              
    0.000 999%   0.000 Glu+Gln                                             
    0.000 999%   0.000 Lip13a                                              
    0.000 999%   0.000 Lip13b                                              
    0.000 999%   0.000 Lip09                                               
    0.000 999%   0.000 MM09                                                
 5.61E-06 999% 1.5E-07 Lip20                                               
    0.000 999%   0.000 MM20                                                
    0.000 999%   0.000 MM12                                                
    0.000 999%   0.000 MM14                                                
   23.147 133%   0.627 MM17                                                
    0.000 999%   0.000 Lip13a+Lip13b                                       
    0.000 999%   0.000 MM14+Lip13a+Lip13b+MM12                             
    0.000 999%   0.000 MM09+Lip09                                          
 5.61E-06 999% 1.5E-07 MM20+Lip20                                          
   6 lines in following misc. output table
  FWHM = 0.099 ppm    S/N =   1                                            
  Data shift = 0.023 ppm                                                   
  Ph:  25 deg     -29.6 deg/ppm                                            
  alphaB,S = 8.5E+01,   2.0E+02                                            
   14 spline knots.   Ns =10(1)                                            
   2 inflections.     1 extrema                                            
  498 points on ppm-axis = NY
      4.000000     3.992357     3.984714     3.977070     3.969427     3.961784     3.954141     3.946497     3.938854     3.931211
      3.923568     3.915925     3.908281     3.900638     3.892995     3.885352     3.877708     3.870065     3.862422     3.854779
      3.847136     3.839492     3.831849     3.824206     3.816563     3.808919     3.801276     3.793633     3.785990     3.778347
      3.770703     3.763060     3.755417     3.747774     3.740130     3.732487     3.724844     3.717201     3.709558     3.701914
      3.694271     3.686628     3.678985     3.671341     3.663698     3.656055     3.648412     3.640769     3.633125     3.625482
      3.617839     3.610196     3.602552     3.594909     3.587266     3.579623     3.571980     3.564336     3.556693     3.549050
      3.541407     3.533763     3.526120     3.518477     3.510834     3.503191     3.495547     3.487904     3.480261     3.472618
      3.464974     3.457331     3.449688     3.442045     3.434402     3.426758     3.419115     3.411472     3.403829     3.396185
      3.388542     3.380899     3.373256     3.365613     3.357969     3.350326     3.342683     3.335040     3.327396     3.319753
      3.312110     3.304467     3.296824     3.289180     3.281537     3.273894     3.266251     3.258607     3.250964     3.243321
      3.235678     3.228034     3.220391     3.212748     3.205105     3.197462     3.189818     3.182175     3.174532     3.166889
      3.159245     3.151602     3.143959     3.136316     3.128673     3.121029     3.113386     3.105743     3.098100     3.090456
      3.082813     3.075170     3.067527     3.059884     3.052240     3.044597     3.036954     3.029311     3.021667     3.014024
      3.006381     2.998738     2.991095     2.983451     2.975808     2.968165     2.960522     2.952878     2.945235     2.937592
      2.929949     2.922306     2.914662     2.907019     2.899376     2.891733     2.884089     2.876446     2.868803     2.861160
      2.853517     2.845873     2.838230     2.830587     2.822944     2.815300     2.807657     2.800014     2.792371     2.784728
      2.777084     2.769441     2.761798     2.754155     2.746511     2.738868     2.731225     2.723582     2.715939     2.708295
      2.700652     2.693009     2.685366     2.677722     2.670079     2.662436     2.654793     2.647150     2.639506     2.631863
      2.624220     2.616577     2.608933     2.601290     2.593647     2.586004     2.578361     2.570717     2.563074     2.555431
      2.547788     2.540144     2.532501     2.524858     2.517215     2.509572     2.501928     2.494285     2.486642     2.478999
      2.471355     2.463712     2.456069     2.448426     2.440783     2.433139     2.425496     2.417853     2.410210     2.402566
      2.394923     2.387280     2.379637     2.371994     2.364350     2.356707     2.349064     2.341421     2.333777     2.326134
      2.318491     2.310848     2.303205     2.295561     2.287918     2.280275     2.272632     2.264988     2.257345     2.249702
      2.242059     2.234416     2.226772     2.219129     2.211486     2.203843     2.196199     2.188556     2.180913     2.173270
      2.165627     2.157983     2.150340     2.142697     2.135054     2.127410     2.119767     2.112124     2.104481     2.096838
      2.089194     2.081551     2.073908     2.066265     2.058621     2.050978     2.043335     2.035692     2.028049     2.020405
      2.012762     2.005119     1.997476     1.989833     1.982190     1.974546     1.966903     1.959260     1.951617     1.943974
      1.936331     1.928688     1.921045     1.913402     1.905759     1.898115     1.890472     1.882829     1.875186     1.867543
      1.859900     1.852257     1.844614     1.836971     1.829327     1.821684     1.814041     1.806398     1.798755     1.791112
      1.783469     1.775826     1.768183     1.760540     1.752896     1.745253     1.737610     1.729967     1.722324     1.714681
      1.707038     1.699395     1.691752     1.684108     1.676465     1.668822     1.661179     1.653536     1.645893     1.638250
      1.630607     1.622964     1.615321     1.607677     1.600034     1.592391     1.584748     1.577105     1.569462     1.561819
      1.554176     1.546533     1.538890     1.531246     1.523603     1.515960     1.508317     1.500674     1.493031     1.485388
      1.477745     1.470102     1.462458     1.454815     1.447172     1.439529     1.431886     1.424243     1.416600     1.408957
      1.401314     1.393671     1.386027     1.378384     1.370741     1.363098     1.355455     1.347812     1.340169     1.332526
      1.324883     1.317240     1.309596     1.301953     1.294310     1.286667     1.279024     1.271381     1.263738     1.256095
      1.248452     1.240808     1.233165     1.225522     1.217879     1.210236     1.202593     1.194950     1.187307     1.179664
      1.172021     1.164377     1.156734     1.149091     1.141448     1.133805     1.126162     1.118519     1.110876     1.103233
      1.095590     1.087946     1.080303     1.072660     1.065017     1.057374     1.049731     1.042088     1.034445     1.026802
      1.019158     1.011515     1.003872     0.996229     0.988586     0.980943     0.973300     0.965657     0.958014     0.950371
      0.942727     0.935084     0.927441     0.919798     0.912155     0.904512     0.896869     0.889226     0.881583     0.873940
      0.866296     0.858653     0.851010     0.843367     0.835724     0.828081     0.820438     0.812795     0.805152     0.797508
      0.789865     0.782222     0.774579     0.766936     0.759293     0.751650     0.744007     0.736364     0.728721     0.721077
      0.713434     0.705791     0.698148     0.690505     0.682862     0.675219     0.667576     0.659933     0.652290     0.644646
      0.637003     0.629360     0.621717     0.614074     0.606431     0.598788     0.591145     0.583502     0.575858     0.568215
      0.560572     0.552929     0.545286     0.537643     0.530000     0.522357     0.514714     0.507071     0.499427     0.491784
      0.484141     0.476498     0.468855     0.461212     0.453569     0.445925     0.438282     0.430639     0.422996     0.415353
      0.407710     0.400067     0.392424     0.384780     0.377137     0.369494     0.361851     0.354208     0.346565     0.338922
      0.331278     0.323635     0.315992     0.308349     0.300706     0.293063     0.285420     0.277777     0.270133     0.262490
      0.254847     0.247204     0.239561     0.231918     0.224275     0.216631     0.208988     0.201345
 NY phased data points follow
   2.32226E+00  1.87942E+00  6.95901E-01  3.91509E+00  9.58851E-01  8.80523E-01  7.62727E-01  1.60877E+00  1.41087E-01 -2.74956E-01
   4.84510E-01  1.68047E+00  2.67383E+00  2.08102E-01  3.60869E+00  1.02302E+00  1.35346E+00  1.55907E-01  1.27858E+00  1.62934E+00
   3.17696E+00  2.20617E+00  1.48773E+00  5.46899E-01 -1.19865E+00 -1.93348E+00 -1.11716E+00 -4.12267E-01  9.64349E-01  1.07302E+00
   3.80249E+00  1.42702E+00  5.21934E+00 -7.82531E-01  3.13156E-01  9.34285E-01 -1.15935E-01  1.96367E+00  1.10550E+00 -3.32906E-01
   7.16937E-01  1.07128E+00  9.20902E-01  1.89983E+00  1.28296E+00  1.74309E+00 -1.69915E-01  1.08231E+00  1.71750E+00  1.63668E-01
   4.27397E+00  1.22652E+00  7.54929E-01 -5.05734E-01  3.91736E+00 -2.59288E+00  2.18929E+00 -2.78564E-01  8.74602E-01  1.15860E+00
   1.63801E+00  2.82190E+00  5.21645E-02  2.05839E+00  2.47052E+00  2.52214E+00  1.23657E+00  1.75129E+00  1.40519E+00  6.27248E-01
   3.01924E+00  3.09346E+00  3.04389E+00  1.77470E+00 -1.61527E+00  1.53325E-02  3.11826E+00  1.76517E+00  2.36473E-03  9.71551E-01
   2.50952E+00  1.11347E+00 -5.00850E-01 -4.08344E-01 -2.52137E-01  4.73152E-02  1.88234E+00  6.92459E-01  1.16435E+00  6.74026E-02
   1.11901E+00  2.01691E+00  3.95686E+00  2.94387E+00  2.73870E+00  2.49025E+00  3.62275E+00  1.47932E+00  1.97154E+00  2.63531E+00
   1.72331E+00 -3.79149E-01 -4.58986E-01  3.85066E+00  1.31817E+00  1.95485E+00  3.89108E+00  4.05069E+00 -2.21209E+00  1.12177E+00
   1.70108E+00  2.67974E+00  1.93076E+00  1.49460E-01  1.55374E+00  3.25530E-01  1.76004E+00  3.16507E+00  7.48931E-01  2.22887E+00
   3.39704E+00  4.68399E+00 -1.43283E+00 -1.92232E+00  2.06430E+00 -1.71829E+00  1.68926E+00  2.43429E+00  4.49430E+00 -1.23850E+00
   1.85223E+00  4.92397E-01  1.45629E+00  1.92155E-01  2.65703E+00  1.88831E-02  3.03265E+00 -1.66822E+00  3.20372E+00  9.23789E-02
  -3.14355E+00  4.09662E-01 -1.75448E+00  8.04208E-01  1.28160E+00  1.48217E-01  3.26897E+00  5.73949E-01 -4.55094E-02 -1.55440E+00
  -8.60656E-01 -2.55973E-01  3.97774E-01  8.14424E-01 -1.70513E+00  1.94141E+00  2.03530E+00  1.17751E+00 -9.97357E-01  3.47273E+00
   2.26861E+00  1.26428E-02  2.28795E-01 -3.61671E-01  4.05105E-01 -8.86973E-01 -2.28729E-01  1.30929E+00  1.27455E+00  1.69351E+00
  -1.15125E+00  1.53760E+00  2.32790E+00  1.73357E+00  1.61765E+00  4.81683E-01  3.71565E+00  4.82750E-01  2.24031E+00 -1.16325E+00
   1.83962E+00  2.07507E+00  3.01851E-01 -1.86219E+00  1.92658E+00 -9.61572E-01  1.55022E+00  1.56462E+00  1.39548E+00  9.73764E-01
   3.71596E+00  2.43540E-01  2.02922E+00  1.37273E+00  1.02228E+00  6.13164E-01  1.64897E+00  1.62180E+00 -7.36496E-01 -1.74017E-01
  -1.80000E+00 -7.04222E-01 -1.22161E+00 -8.40875E-01  2.36702E+00 -2.36305E+00  1.33008E-02  1.14541E+00  3.32365E+00  1.81836E+00
  -1.10365E-01  1.35519E-01  2.10287E+00 -6.03425E-01  2.81214E-01  7.64557E-02 -7.85873E-01  5.71908E-01  7.61870E-01  3.18096E-01
   1.35661E-01  2.49720E-01  1.78325E+00  4.76301E-01  6.86709E-01  9.09033E-01 -6.31577E-01  9.68767E-02  1.55456E+00  6.13694E-01
   1.25552E+00 -1.29319E+00 -1.00710E+00 -1.34502E+00  9.29219E-01 -2.25384E+00 -7.47116E-02 -1.98466E-01 -5.24299E-01  8.59343E-01
  -1.46728E-01  1.17618E+00  2.53596E+00 -1.18570E-02 -9.14954E-01  1.19050E+00 -1.77022E+00 -2.89678E-01  8.47662E-01  3.28772E+00
  -2.04643E+00 -1.52326E+00  3.07513E+00  8.56426E-01 -6.48758E-01  2.22375E-01  1.93034E+00  5.70775E+00  2.80552E+00  3.62666E+00
   4.32947E+00  3.83381E+00  5.29068E+00  1.98538E+00  5.92146E+00  4.77083E+00  1.17087E+00  2.56643E+00  2.63882E+00  1.33140E+00
   3.23207E+00  2.58159E+00  3.65199E-01  1.05975E+00  1.43622E+00  6.13403E-01  6.41460E-01  1.34237E+00  7.48717E-01  1.49676E+00
   2.96754E+00  2.03739E+00  2.28648E+00  2.83390E+00  1.52111E+00  1.35237E+00  1.91291E+00  6.91233E-01  4.92595E-01  2.79676E-01
  -1.74568E+00 -1.54930E+00  8.53430E-01  1.25527E+00  2.34992E+00  9.15406E-01 -2.15442E+00 -5.34345E-01  2.49009E-01  3.61962E-02
   1.97627E+00  3.74962E+00  6.54990E-01  1.88562E+00  3.03041E+00  3.75928E-01  9.31601E-03  2.49116E+00  2.49136E+00  3.25898E-01
   7.03320E-01 -2.23457E+00 -1.05520E+00 -4.81819E-01  7.09300E-01 -5.03311E-01  1.19274E+00 -3.48866E-01  3.57794E+00  1.61865E+00
   1.88708E+00  3.13311E+00 -2.31751E+00  3.13523E+00  4.29950E+00  1.13207E+00  1.17403E+00  4.84569E+00  7.88777E-01  1.43621E+00
  -9.23495E-01  3.77820E+00  3.10464E+00 -2.28020E+00  7.15082E-01 -6.69761E-01  1.46966E+00 -1.07074E+00 -2.85862E+00  7.01514E-01
   3.09526E-01 -3.18887E+00  3.22278E+00  7.92184E-01  6.90772E-01  1.04785E+00  2.51427E+00  4.91510E-01 -3.92933E-01  1.82368E-02
  -1.94144E+00 -2.79260E+00 -1.36522E+00 -4.05273E-01 -8.02586E-01 -1.45179E+00 -3.27254E+00  1.00891E+00 -2.75677E+00 -3.37034E+00
  -2.02930E+00 -3.57319E+00 -2.61327E+00 -2.47651E+00 -5.71675E-01 -1.40595E+00  5.68145E-01 -9.41713E-01  1.42858E+00  1.31971E+00
  -6.74449E-01  2.52313E+00  4.62019E-02  1.87635E+00 -3.63117E-01  1.82709E-01  2.47695E+00 -1.12667E+00 -5.22351E-02  2.63138E-01
  -4.24582E-01 -2.08630E-03 -7.38587E-01 -3.11472E-01  1.49168E+00 -3.28145E+00  1.29785E-01 -1.29593E+00 -8.77154E-01 -2.61106E+00
  -3.29396E+00 -1.83498E-01 -2.46675E+00 -6.49696E-01 -2.33922E-01 -1.11446E+00  1.07605E+00 -5.85862E-01  1.05579E+00 -1.65333E+00
  -2.67834E-01  1.55521E+00  1.69022E+00 -2.70144E-01  1.09349E+00  2.22667E+00 -3.35533E+00  1.62824E+00 -4.67711E-01  1.07861E+00
   1.91128E+00 -1.04544E-01 -9.63942E-02 -1.59689E+00 -2.73674E+00  3.46133E-01  7.69904E-01  2.90490E-01  1.18523E+00  5.71944E-01
  -6.30945E-01 -3.01747E+00 -1.22208E-01  2.22936E+00  1.87492E+00 -4.17774E-01 -1.30984E+00  9.34363E-01 -1.52914E+00  1.74062E+00
   1.19252E+00  3.57959E-02 -2.00481E+00 -3.34047E+00  5.07604E-01  2.81567E+00  1.61654E+00  2.39520E-01 -7.44332E-01 -8.39648E-01
  -1.63971E+00  1.98448E+00  1.36843E+00 -4.49456E-01  6.12699E-01 -5.57478E-01  3.79582E+00 -2.88520E+00  4.57083E-01  3.42927E-01
   1.69995E+00 -7.56154E-01  5.53050E-01  2.45028E+00  2.04980E+00  8.88344E-01 -6.66007E-01  1.47477E+00  1.74306E-01  1.26679E+00
   4.04818E-01  3.87126E-01  4.73962E-01 -2.28254E+00 -1.06789E+00 -1.11762E+00  1.56545E-01  1.83106E+00  1.20246E+00  7.92504E-01
  -9.29682E-01 -2.49680E-01  1.10582E-01  1.35450E+00 -1.60072E-01 -3.75025E-01  1.06858E+00  2.02202E+00  1.31433E+00  8.00632E-01
   2.20839E-01 -1.13954E+00  1.10500E+00 -9.61531E-01 -2.29873E+00 -4.48438E-01  3.34878E-01  1.08825E+00 -2.98827E+00  8.59428E-01
  -3.73796E-01  1.21208E+00  1.49079E+00 -4.04006E-01  2.98774E+00 -8.38766E-01 -4.19226E-02  1.33345E+00
 NY points of the fit to the data follow
   1.47628E+00  1.39766E+00  1.33243E+00  1.28112E+00  1.24846E+00  1.23775E+00  1.24169E+00  1.25764E+00  1.28293E+00  1.30952E+00
   1.33311E+00  1.35147E+00  1.36250E+00  1.36492E+00  1.35903E+00  1.34660E+00  1.32701E+00  1.29683E+00  1.25513E+00  1.20281E+00
   1.14257E+00  1.08051E+00  1.02751E+00  9.96076E-01  9.84380E-01  9.79398E-01  9.76659E-01  9.75572E-01  9.76942E-01  9.78194E-01
   9.75212E-01  9.69447E-01  9.66538E-01  9.70152E-01  9.82302E-01  1.00395E+00  1.03737E+00  1.08663E+00  1.14686E+00  1.20616E+00
   1.25774E+00  1.29678E+00  1.32195E+00  1.33467E+00  1.33908E+00  1.34531E+00  1.36264E+00  1.38682E+00  1.41222E+00  1.43633E+00
   1.45576E+00  1.46098E+00  1.44451E+00  1.40523E+00  1.34876E+00  1.28092E+00  1.20923E+00  1.14503E+00  1.10444E+00  1.10253E+00
   1.13404E+00  1.17520E+00  1.20905E+00  1.23102E+00  1.24173E+00  1.24314E+00  1.23769E+00  1.22794E+00  1.21636E+00  1.20464E+00
   1.19599E+00  1.19655E+00  1.20774E+00  1.22459E+00  1.24087E+00  1.24980E+00  1.24911E+00  1.23726E+00  1.21351E+00  1.17934E+00
   1.13709E+00  1.09022E+00  1.04098E+00  9.92588E-01  9.49164E-01  9.09743E-01  8.74208E-01  8.44104E-01  8.19212E-01  7.97988E-01
   7.79658E-01  7.65337E-01  7.60014E-01  7.82693E-01  8.50525E-01  9.55928E-01  1.08700E+00  1.23580E+00  1.39585E+00  1.55426E+00
   1.69898E+00  1.82530E+00  1.93321E+00  2.01945E+00  2.07767E+00  2.10217E+00  2.08920E+00  2.03493E+00  1.93786E+00  1.79995E+00
   1.62610E+00  1.42479E+00  1.20939E+00  1.00292E+00  8.37814E-01  7.46367E-01  7.19012E-01  7.23929E-01  7.54407E-01  8.02477E-01
   8.62365E-01  9.30636E-01  1.00523E+00  1.08288E+00  1.15911E+00  1.23033E+00  1.29356E+00  1.34428E+00  1.37749E+00  1.38975E+00
   1.37866E+00  1.34205E+00  1.27944E+00  1.19389E+00  1.08995E+00  9.73156E-01  8.52764E-01  7.42518E-01  6.60054E-01  6.19258E-01
   6.05480E-01  5.99124E-01  5.95821E-01  5.94257E-01  5.93381E-01  5.92501E-01  5.91256E-01  5.89654E-01  5.87978E-01  5.86009E-01
   5.83332E-01  5.78632E-01  5.70949E-01  5.60696E-01  5.48806E-01  5.37385E-01  5.27189E-01  5.17664E-01  5.08600E-01  4.99468E-01
   4.89862E-01  4.79921E-01  4.69869E-01  4.59956E-01  4.50264E-01  4.40494E-01  4.29418E-01  4.16138E-01  4.02329E-01  3.89147E-01
   3.76100E-01  3.60667E-01  3.40339E-01  3.15138E-01  2.89548E-01  2.68594E-01  2.54631E-01  2.47445E-01  2.44162E-01  2.44723E-01
   2.50418E-01  2.61514E-01  2.77538E-01  2.97801E-01  3.21941E-01  3.49247E-01  3.78713E-01  4.09678E-01  4.40552E-01  4.72132E-01
   5.07155E-01  5.43006E-01  5.75303E-01  6.00832E-01  6.22019E-01  6.41420E-01  6.57751E-01  6.68506E-01  6.71327E-01  6.66287E-01
   6.57986E-01  6.49918E-01  6.40905E-01  6.28567E-01  6.11682E-01  5.91267E-01  5.69460E-01  5.47881E-01  5.27497E-01  5.08241E-01
   4.87127E-01  4.62877E-01  4.36720E-01  4.11091E-01  3.89506E-01  3.76130E-01  3.73333E-01  3.78400E-01  3.89065E-01  4.03850E-01
   4.21208E-01  4.39514E-01  4.57155E-01  4.72169E-01  4.81884E-01  4.84365E-01  4.82372E-01  4.78996E-01  4.74632E-01  4.69352E-01
   4.63467E-01  4.57563E-01  4.52169E-01  4.47867E-01  4.45390E-01  4.45437E-01  4.48003E-01  4.52224E-01  4.56958E-01  4.61394E-01
   4.64887E-01  4.66859E-01  4.67020E-01  4.65982E-01  4.65193E-01  4.65725E-01  4.68040E-01  4.72965E-01  4.82674E-01  5.05849E-01
   5.82953E-01  7.59660E-01  1.02060E+00  1.33611E+00  1.68783E+00  2.06631E+00  2.45876E+00  2.84479E+00  3.20570E+00  3.52781E+00
   3.79314E+00  3.97916E+00  4.06812E+00  4.04913E+00  3.91329E+00  3.65665E+00  3.28965E+00  2.83241E+00  2.30845E+00  1.75322E+00
   1.22248E+00  7.93882E-01  5.48479E-01  4.67835E-01  4.38153E-01  4.21831E-01  4.11635E-01  4.04968E-01  4.00433E-01  3.97199E-01
   3.94693E-01  3.92355E-01  3.89951E-01  3.87779E-01  3.86106E-01  3.85177E-01  3.85287E-01  3.86658E-01  3.89488E-01  3.93678E-01
   3.98807E-01  4.04562E-01  4.10756E-01  4.17118E-01  4.23441E-01  4.29609E-01  4.35571E-01  4.41418E-01  4.47204E-01  4.52832E-01
   4.58188E-01  4.63220E-01  4.67848E-01  4.71967E-01  4.75533E-01  4.78565E-01  4.81086E-01  4.83240E-01  4.85250E-01  4.87426E-01
   4.90174E-01  4.94032E-01  4.99710E-01  5.08197E-01  5.20977E-01  5.40546E-01  5.71996E-01  6.26078E-01  7.02271E-01  7.78599E-01
   8.39790E-01  8.79600E-01  8.93832E-01  8.74993E-01  8.12879E-01  7.10599E-01  5.92755E-01  4.70191E-01  3.42677E-01  2.12010E-01
   8.52232E-02 -2.93847E-02 -1.24323E-01 -1.90275E-01 -2.16654E-01 -1.95150E-01 -1.19702E-01  1.46640E-02  2.09080E-01  4.48010E-01
   6.76468E-01  8.40155E-01  9.35781E-01  9.64749E-01  9.27366E-01  8.29930E-01  6.93397E-01  5.63584E-01  4.79953E-01  4.26527E-01
   3.88270E-01  3.59030E-01  3.35751E-01  3.16665E-01  3.00654E-01  2.86974E-01  2.75103E-01  2.64667E-01  2.55387E-01  2.47050E-01
   2.39494E-01  2.32591E-01  2.26238E-01  2.20353E-01  2.14868E-01  2.09728E-01  2.04888E-01  2.00311E-01  1.95963E-01  1.91816E-01
   1.87848E-01  1.84037E-01  1.80370E-01  1.76830E-01  1.73404E-01  1.70079E-01  1.66846E-01  1.63698E-01  1.60627E-01  1.57626E-01
   1.54688E-01  1.51806E-01  1.48977E-01  1.46198E-01  1.43465E-01  1.40774E-01  1.38120E-01  1.35500E-01  1.32913E-01  1.30358E-01
   1.27831E-01  1.25331E-01  1.22854E-01  1.20399E-01  1.17967E-01  1.15555E-01  1.13163E-01  1.10787E-01  1.08427E-01  1.06082E-01
   1.03753E-01  1.01438E-01  9.91363E-02  9.68456E-02  9.45654E-02  9.22967E-02  9.00393E-02  8.77922E-02  8.55535E-02  8.33227E-02
   8.10997E-02  7.88858E-02  7.66802E-02  7.44820E-02  7.22895E-02  7.01029E-02  6.79226E-02  6.57495E-02  6.35826E-02  6.14207E-02
   5.92628E-02  5.71095E-02  5.49614E-02  5.28190E-02  5.06808E-02  4.85459E-02  4.64137E-02  4.42854E-02  4.21613E-02  4.00416E-02
   3.79246E-02  3.58100E-02  3.36976E-02  3.15889E-02  2.94838E-02  2.73819E-02  2.52816E-02  2.31831E-02  2.10868E-02  1.89941E-02
   1.69043E-02  1.48168E-02  1.27303E-02  1.06455E-02  8.56296E-03  6.48348E-03  4.40611E-03  2.33011E-03  2.54690E-04 -1.81910E-03
  -3.89070E-03 -5.95969E-03 -8.02736E-03 -1.00942E-02 -1.21606E-02 -1.42251E-02 -1.62876E-02 -1.83480E-02 -2.04077E-02 -2.24669E-02
  -2.45254E-02 -2.65819E-02 -2.86365E-02 -3.06896E-02 -3.27425E-02 -3.47949E-02 -3.68462E-02 -3.88955E-02 -4.09432E-02 -4.29900E-02
  -4.50367E-02 -4.70828E-02 -4.91275E-02 -5.11700E-02 -5.32114E-02 -5.52521E-02 -5.72929E-02 -5.93324E-02 -6.13703E-02 -6.34061E-02
  -6.54411E-02 -6.74756E-02 -6.95097E-02 -7.15419E-02 -7.35722E-02 -7.56003E-02 -7.76277E-02 -7.96542E-02 -8.16794E-02 -8.37019E-02
  -8.57217E-02 -8.77391E-02 -8.97550E-02 -9.17686E-02 -9.37792E-02 -9.57853E-02 -9.77871E-02 -9.97843E-02
 NY background values follow
     8.830E-01    8.810E-01    8.790E-01    8.771E-01    8.751E-01    8.731E-01    8.711E-01    8.691E-01    8.671E-01    8.651E-01
     8.632E-01    8.612E-01    8.592E-01    8.572E-01    8.552E-01    8.532E-01    8.512E-01    8.492E-01    8.473E-01    8.453E-01
     8.433E-01    8.413E-01    8.393E-01    8.373E-01    8.353E-01    8.333E-01    8.314E-01    8.294E-01    8.274E-01    8.254E-01
     8.234E-01    8.214E-01    8.194E-01    8.175E-01    8.155E-01    8.135E-01    8.115E-01    8.095E-01    8.075E-01    8.055E-01
     8.035E-01    8.016E-01    7.996E-01    7.976E-01    7.956E-01    7.936E-01    7.916E-01    7.896E-01    7.877E-01    7.857E-01
     7.837E-01    7.817E-01    7.797E-01    7.777E-01    7.757E-01    7.737E-01    7.718E-01    7.698E-01    7.678E-01    7.658E-01
     7.638E-01    7.618E-01    7.598E-01    7.579E-01    7.559E-01    7.539E-01    7.519E-01    7.499E-01    7.479E-01    7.459E-01
     7.439E-01    7.420E-01    7.400E-01    7.380E-01    7.360E-01    7.340E-01    7.320E-01    7.300E-01    7.281E-01    7.261E-01
     7.241E-01    7.221E-01    7.201E-01    7.181E-01    7.161E-01    7.141E-01    7.122E-01    7.102E-01    7.082E-01    7.062E-01
     7.042E-01    7.022E-01    7.002E-01    6.983E-01    6.963E-01    6.943E-01    6.923E-01    6.903E-01    6.883E-01    6.863E-01
     6.843E-01    6.824E-01    6.804E-01    6.784E-01    6.764E-01    6.744E-01    6.724E-01    6.704E-01    6.685E-01    6.665E-01
     6.645E-01    6.625E-01    6.605E-01    6.585E-01    6.565E-01    6.545E-01    6.526E-01    6.506E-01    6.486E-01    6.466E-01
     6.446E-01    6.426E-01    6.406E-01    6.387E-01    6.367E-01    6.347E-01    6.327E-01    6.307E-01    6.287E-01    6.267E-01
     6.247E-01    6.228E-01    6.208E-01    6.188E-01    6.168E-01    6.148E-01    6.128E-01    6.108E-01    6.088E-01    6.069E-01
     6.049E-01    6.029E-01    6.009E-01    5.989E-01    5.969E-01    5.949E-01    5.930E-01    5.910E-01    5.890E-01    5.870E-01
     5.850E-01    5.830E-01    5.810E-01    5.790E-01    5.771E-01    5.751E-01    5.731E-01    5.711E-01    5.691E-01    5.671E-01
     5.651E-01    5.632E-01    5.612E-01    5.592E-01    5.572E-01    5.552E-01    5.532E-01    5.512E-01    5.492E-01    5.473E-01
     5.453E-01    5.433E-01    5.413E-01    5.393E-01    5.373E-01    5.353E-01    5.334E-01    5.314E-01    5.294E-01    5.274E-01
     5.254E-01    5.234E-01    5.214E-01    5.194E-01    5.175E-01    5.155E-01    5.135E-01    5.115E-01    5.095E-01    5.075E-01
     5.055E-01    5.036E-01    5.016E-01    4.996E-01    4.976E-01    4.956E-01    4.936E-01    4.916E-01    4.896E-01    4.877E-01
     4.857E-01    4.837E-01    4.817E-01    4.797E-01    4.777E-01    4.757E-01    4.737E-01    4.718E-01    4.698E-01    4.678E-01
     4.658E-01    4.638E-01    4.618E-01    4.598E-01    4.579E-01    4.559E-01    4.539E-01    4.519E-01    4.499E-01    4.479E-01
     4.459E-01    4.439E-01    4.420E-01    4.400E-01    4.380E-01    4.360E-01    4.340E-01    4.320E-01    4.300E-01    4.281E-01
     4.261E-01    4.241E-01    4.221E-01    4.201E-01    4.181E-01    4.161E-01    4.141E-01    4.122E-01    4.102E-01    4.082E-01
     4.062E-01    4.042E-01    4.022E-01    4.002E-01    3.982E-01    3.963E-01    3.943E-01    3.923E-01    3.903E-01    3.883E-01
     3.863E-01    3.843E-01    3.824E-01    3.804E-01    3.784E-01    3.764E-01    3.744E-01    3.724E-01    3.704E-01    3.684E-01
     3.665E-01    3.645E-01    3.625E-01    3.605E-01    3.585E-01    3.565E-01    3.545E-01    3.526E-01    3.506E-01    3.486E-01
     3.466E-01    3.446E-01    3.426E-01    3.406E-01    3.386E-01    3.367E-01    3.347E-01    3.327E-01    3.307E-01    3.287E-01
     3.267E-01    3.247E-01    3.227E-01    3.208E-01    3.188E-01    3.168E-01    3.148E-01    3.128E-01    3.108E-01    3.088E-01
     3.069E-01    3.049E-01    3.029E-01    3.009E-01    2.989E-01    2.969E-01    2.949E-01    2.929E-01    2.910E-01    2.890E-01
     2.870E-01    2.850E-01    2.830E-01    2.810E-01    2.790E-01    2.771E-01    2.751E-01    2.731E-01    2.711E-01    2.691E-01
     2.671E-01    2.651E-01    2.631E-01    2.612E-01    2.592E-01    2.572E-01    2.552E-01    2.532E-01    2.512E-01    2.492E-01
     2.473E-01    2.453E-01    2.433E-01    2.413E-01    2.393E-01    2.373E-01    2.353E-01    2.333E-01    2.314E-01    2.294E-01
     2.274E-01    2.254E-01    2.234E-01    2.214E-01    2.194E-01    2.174E-01    2.155E-01    2.135E-01    2.115E-01    2.095E-01
     2.075E-01    2.055E-01    2.035E-01    2.016E-01    1.996E-01    1.976E-01    1.956E-01    1.936E-01    1.916E-01    1.896E-01
     1.876E-01    1.857E-01    1.837E-01    1.817E-01    1.797E-01    1.777E-01    1.757E-01    1.737E-01    1.718E-01    1.698E-01
     1.678E-01    1.658E-01    1.638E-01    1.618E-01    1.598E-01    1.578E-01    1.559E-01    1.539E-01    1.519E-01    1.499E-01
     1.479E-01    1.459E-01    1.439E-01    1.420E-01    1.400E-01    1.380E-01    1.360E-01    1.340E-01    1.320E-01    1.300E-01
     1.280E-01    1.261E-01    1.241E-01    1.221E-01    1.201E-01    1.181E-01    1.161E-01    1.141E-01    1.122E-01    1.102E-01
     1.082E-01    1.062E-01    1.042E-01    1.022E-01    1.002E-01    9.824E-02    9.626E-02    9.427E-02    9.228E-02    9.030E-02
     8.831E-02    8.632E-02    8.434E-02    8.235E-02    8.036E-02    7.838E-02    7.639E-02    7.440E-02    7.242E-02    7.043E-02
     6.844E-02    6.646E-02    6.447E-02    6.248E-02    6.050E-02    5.851E-02    5.652E-02    5.454E-02    5.255E-02    5.056E-02
     4.858E-02    4.659E-02    4.460E-02    4.262E-02    4.063E-02    3.864E-02    3.666E-02    3.467E-02    3.268E-02    3.070E-02
     2.871E-02    2.672E-02    2.474E-02    2.275E-02    2.076E-02    1.878E-02    1.679E-02    1.480E-02    1.282E-02    1.083E-02
     8.844E-03    6.857E-03    4.870E-03    2.884E-03    8.969E-04   -1.090E-03   -3.076E-03   -5.063E-03   -7.050E-03   -9.036E-03
    -1.102E-02   -1.301E-02   -1.500E-02   -1.698E-02   -1.897E-02   -2.096E-02   -2.294E-02   -2.493E-02   -2.692E-02   -2.890E-02
    -3.089E-02   -3.288E-02   -3.486E-02   -3.685E-02   -3.884E-02   -4.082E-02   -4.281E-02   -4.480E-02   -4.678E-02   -4.877E-02
    -5.076E-02   -5.274E-02   -5.473E-02   -5.672E-02   -5.870E-02   -6.069E-02   -6.268E-02   -6.466E-02   -6.665E-02   -6.864E-02
    -7.062E-02   -7.261E-02   -7.460E-02   -7.658E-02   -7.857E-02   -8.056E-02   -8.254E-02   -8.453E-02   -8.652E-02   -8.850E-02
    -9.049E-02   -9.248E-02   -9.446E-02   -9.645E-02   -9.844E-02   -1.004E-01   -1.024E-01   -1.044E-01
 Ala      Conc. = 1.38E+02
