 LCModel (Version 6.3-1L) Copyright: S.W. Provencher.          Ref.: Magn. Reson. Med. 30:672-679 (1993).                
 Slice#1 Row#5 Col#8  PD_05_press_2_raw_act
 36 lines in following concentration table = NCONC+1
    Conc.  %SD /Cr+PCr  Metabolite                                         
 1.45E+03  19%   0.793 Ala                                                 
  205.834 160%   0.113 Asp                                                 
 1.24E+03  37%   0.680 Cr                                                  
  585.171  83%   0.320 PCr                                                 
  129.178 157% 7.1E-02 GABA                                                
  118.998 172% 6.5E-02 Glc                                                 
 1.43E+03  37%   0.783 Gln                                                 
 1.95E+03  31%   1.065 Glu                                                 
  513.813  73%   0.281 GPC                                                 
  153.835 247% 8.4E-02 PCh                                                 
  441.230  42%   0.241 GSH                                                 
  816.817  72%   0.446 Ins                                                 
  443.092  65%   0.242 Lac                                                 
 2.76E+03   6%   1.507 NAA                                                 
    0.000 999%   0.000 NAAG                                                
   99.479  52% 5.4E-02 Scyllo                                              
  299.101 106%   0.163 Tau                                                 
  347.969  75%   0.190 -CrCH2                                              
  667.648   8%   0.365 GPC+PCh                                             
 2.76E+03   6%   1.507 NAA+NAAG                                            
 1.83E+03   8%   1.000 Cr+PCr                                              
 3.38E+03  24%   1.847 Glu+Gln                                             
 3.61E+03  29%   1.975 Lip13a                                              
    0.000 999%   0.000 Lip13b                                              
  777.539  58%   0.425 Lip09                                               
 1.66E+03  31%   0.906 MM09                                                
  636.666  48%   0.348 Lip20                                               
 3.12E+03  25%   1.706 MM20                                                
  534.481  55%   0.292 MM12                                                
 2.68E+03  27%   1.466 MM14                                                
    0.000 999%   0.000 MM17                                                
 3.61E+03  29%   1.975 Lip13a+Lip13b                                       
 6.83E+03  12%   3.734 MM14+Lip13a+Lip13b+MM12                             
 2.44E+03  15%   1.331 MM09+Lip09                                          
 3.76E+03  19%   2.054 MM20+Lip20                                          
   6 lines in following misc. output table
  FWHM = 0.046 ppm    S/N =   5                                            
  Data shift = 0.000 ppm                                                   
  Ph: -59 deg      -8.3 deg/ppm                                            
  alphaB,S = 8.5E+01,   2.6E+01                                            
   14 spline knots.   Ns = 6(1)                                            
   2 inflections.     1 extrema                                            
  498 points on ppm-axis = NY
      4.000000     3.992357     3.984714     3.977070     3.969427     3.961784     3.954141     3.946497     3.938854     3.931211
      3.923568     3.915925     3.908281     3.900638     3.892995     3.885352     3.877708     3.870065     3.862422     3.854779
      3.847136     3.839492     3.831849     3.824206     3.816563     3.808919     3.801276     3.793633     3.785990     3.778347
      3.770703     3.763060     3.755417     3.747774     3.740130     3.732487     3.724844     3.717201     3.709558     3.701914
      3.694271     3.686628     3.678985     3.671341     3.663698     3.656055     3.648412     3.640769     3.633125     3.625482
      3.617839     3.610196     3.602552     3.594909     3.587266     3.579623     3.571980     3.564336     3.556693     3.549050
      3.541407     3.533763     3.526120     3.518477     3.510834     3.503191     3.495547     3.487904     3.480261     3.472618
      3.464974     3.457331     3.449688     3.442045     3.434402     3.426758     3.419115     3.411472     3.403829     3.396185
      3.388542     3.380899     3.373256     3.365613     3.357969     3.350326     3.342683     3.335040     3.327396     3.319753
      3.312110     3.304467     3.296824     3.289180     3.281537     3.273894     3.266251     3.258607     3.250964     3.243321
      3.235678     3.228034     3.220391     3.212748     3.205105     3.197462     3.189818     3.182175     3.174532     3.166889
      3.159245     3.151602     3.143959     3.136316     3.128673     3.121029     3.113386     3.105743     3.098100     3.090456
      3.082813     3.075170     3.067527     3.059884     3.052240     3.044597     3.036954     3.029311     3.021667     3.014024
      3.006381     2.998738     2.991095     2.983451     2.975808     2.968165     2.960522     2.952878     2.945235     2.937592
      2.929949     2.922306     2.914662     2.907019     2.899376     2.891733     2.884089     2.876446     2.868803     2.861160
      2.853517     2.845873     2.838230     2.830587     2.822944     2.815300     2.807657     2.800014     2.792371     2.784728
      2.777084     2.769441     2.761798     2.754155     2.746511     2.738868     2.731225     2.723582     2.715939     2.708295
      2.700652     2.693009     2.685366     2.677722     2.670079     2.662436     2.654793     2.647150     2.639506     2.631863
      2.624220     2.616577     2.608933     2.601290     2.593647     2.586004     2.578361     2.570717     2.563074     2.555431
      2.547788     2.540144     2.532501     2.524858     2.517215     2.509572     2.501928     2.494285     2.486642     2.478999
      2.471355     2.463712     2.456069     2.448426     2.440783     2.433139     2.425496     2.417853     2.410210     2.402566
      2.394923     2.387280     2.379637     2.371994     2.364350     2.356707     2.349064     2.341421     2.333777     2.326134
      2.318491     2.310848     2.303205     2.295561     2.287918     2.280275     2.272632     2.264988     2.257345     2.249702
      2.242059     2.234416     2.226772     2.219129     2.211486     2.203843     2.196199     2.188556     2.180913     2.173270
      2.165627     2.157983     2.150340     2.142697     2.135054     2.127410     2.119767     2.112124     2.104481     2.096838
      2.089194     2.081551     2.073908     2.066265     2.058621     2.050978     2.043335     2.035692     2.028049     2.020405
      2.012762     2.005119     1.997476     1.989833     1.982190     1.974546     1.966903     1.959260     1.951617     1.943974
      1.936331     1.928688     1.921045     1.913402     1.905759     1.898115     1.890472     1.882829     1.875186     1.867543
      1.859900     1.852257     1.844614     1.836971     1.829327     1.821684     1.814041     1.806398     1.798755     1.791112
      1.783469     1.775826     1.768183     1.760540     1.752896     1.745253     1.737610     1.729967     1.722324     1.714681
      1.707038     1.699395     1.691752     1.684108     1.676465     1.668822     1.661179     1.653536     1.645893     1.638250
      1.630607     1.622964     1.615321     1.607677     1.600034     1.592391     1.584748     1.577105     1.569462     1.561819
      1.554176     1.546533     1.538890     1.531246     1.523603     1.515960     1.508317     1.500674     1.493031     1.485388
      1.477745     1.470102     1.462458     1.454815     1.447172     1.439529     1.431886     1.424243     1.416600     1.408957
      1.401314     1.393671     1.386027     1.378384     1.370741     1.363098     1.355455     1.347812     1.340169     1.332526
      1.324883     1.317240     1.309596     1.301953     1.294310     1.286667     1.279024     1.271381     1.263738     1.256095
      1.248452     1.240808     1.233165     1.225522     1.217879     1.210236     1.202593     1.194950     1.187307     1.179664
      1.172021     1.164377     1.156734     1.149091     1.141448     1.133805     1.126162     1.118519     1.110876     1.103233
      1.095590     1.087946     1.080303     1.072660     1.065017     1.057374     1.049731     1.042088     1.034445     1.026802
      1.019158     1.011515     1.003872     0.996229     0.988586     0.980943     0.973300     0.965657     0.958014     0.950371
      0.942727     0.935084     0.927441     0.919798     0.912155     0.904512     0.896869     0.889226     0.881583     0.873940
      0.866296     0.858653     0.851010     0.843367     0.835724     0.828081     0.820438     0.812795     0.805152     0.797508
      0.789865     0.782222     0.774579     0.766936     0.759293     0.751650     0.744007     0.736364     0.728721     0.721077
      0.713434     0.705791     0.698148     0.690505     0.682862     0.675219     0.667576     0.659933     0.652290     0.644646
      0.637003     0.629360     0.621717     0.614074     0.606431     0.598788     0.591145     0.583502     0.575858     0.568215
      0.560572     0.552929     0.545286     0.537643     0.530000     0.522357     0.514714     0.507071     0.499427     0.491784
      0.484141     0.476498     0.468855     0.461212     0.453569     0.445925     0.438282     0.430639     0.422996     0.415353
      0.407710     0.400067     0.392424     0.384780     0.377137     0.369494     0.361851     0.354208     0.346565     0.338922
      0.331278     0.323635     0.315992     0.308349     0.300706     0.293063     0.285420     0.277777     0.270133     0.262490
      0.254847     0.247204     0.239561     0.231918     0.224275     0.216631     0.208988     0.201345
 NY phased data points follow
  -2.60676E+01 -1.87418E+01 -1.32796E+01 -2.08444E+01 -1.19398E+01 -1.72779E+01  3.37578E+00 -8.26981E-01  8.09524E+00  1.52460E+01
   2.81633E+01  2.35352E+01  2.26765E+01  1.87200E+01  1.12235E+01  3.25310E+00 -1.61940E+01  2.86487E+00  1.93792E+00 -1.04804E+01
  -6.61006E+00 -1.25067E+01 -7.85395E-01 -1.58342E+00 -7.63267E+00 -1.26966E+01  5.43452E+00 -2.44738E+01 -1.38869E+00 -4.36878E+00
  -8.09131E+00  1.30644E+01 -2.11264E-01  1.48656E+01  5.84974E+00 -3.38642E-01 -9.06279E+00 -2.52097E+01 -7.56457E+00 -1.04836E+01
  -1.35450E+01 -1.01260E+01 -1.07427E+01  1.14405E+01  2.35956E+00  2.34441E+00  3.67845E+00  9.79323E+00 -2.73374E+00  3.32239E+00
   1.23526E+00 -1.69633E+01 -6.19699E+00  2.08762E-01 -1.20988E+01 -1.11465E+01 -9.72425E+00  7.99864E-01 -6.77713E+00 -7.18652E-01
  -1.43768E-01 -3.13942E+01 -1.58875E+01 -1.66705E+01 -2.52659E+01 -1.30769E+01 -1.32258E+01 -6.13883E+00 -2.13995E+01 -2.24199E+01
  -6.92277E+00 -1.48947E+01 -1.17566E+01 -1.86911E+01  1.32542E+01 -7.35692E+00 -5.96911E+00 -1.47006E+01 -5.46496E+00 -1.80682E+01
  -9.33543E+00 -1.39340E+01  1.26627E+00 -1.24908E+01 -1.50477E+01 -8.61284E+00 -7.20391E-01  6.31244E-02 -3.57779E+00 -3.21951E+00
  -5.95119E+00 -6.21254E+00 -1.07572E+01  1.10815E+01  4.45113E-01 -7.49521E+00  9.94205E+00  1.20084E+01 -2.78240E+00  2.40460E+01
   3.55481E+01  5.74741E+01  4.43268E+01  6.00485E+01  5.92137E+01  5.26706E+01  2.47206E+01  1.75242E+01  3.69365E+00  2.31684E+00
  -6.07200E+00 -1.16468E+01 -2.18117E+00 -8.26665E-01 -2.32047E+00 -8.57228E+00 -2.56078E+01 -1.53470E+01 -1.45348E+01 -7.09135E+00
  -1.17300E+01 -3.87471E+00  8.62862E+00  1.58916E+01  2.42331E+01  3.48842E+01  5.44533E+01  6.22731E+01  7.36964E+01  4.98023E+01
   3.90355E+01  1.51108E+01  6.57863E-01 -4.85685E+00  3.70332E+00 -3.88978E+00  7.53659E+00 -5.45182E+00  1.15593E+01 -4.05866E+00
  -4.49765E+00 -3.23165E+00 -1.28812E+01 -9.83073E+00 -5.79094E+00  4.59960E+00 -1.93580E+01 -1.35518E+01 -1.04419E+01 -9.14179E-01
  -5.25753E+00 -1.57845E+01 -2.13081E+01 -6.39881E+00 -6.52193E+00 -4.08061E+00 -4.79646E+00 -2.35459E+01 -8.96117E-01  9.43273E-01
  -3.91606E+00 -3.17639E-01 -2.35703E+00 -9.81543E+00  2.54366E+00 -8.71935E+00 -5.52364E+00  3.15206E+00 -7.92716E+00 -3.19792E+00
  -2.57629E+00 -2.95323E+00 -3.97571E+01 -2.92257E+00 -2.47052E+01 -2.39971E+01 -3.18926E+01 -1.04280E+01  9.67400E-01 -2.36627E+01
   6.77068E-01 -2.22019E+01 -1.42595E+01  7.00715E+00 -1.46368E+01 -1.61946E+01 -1.06784E+01 -9.62489E+00 -1.31275E+01 -8.94079E+00
   4.87679E+00  5.62485E+00 -9.42877E+00 -5.82176E+00 -1.67168E+01 -1.42455E+01 -1.79286E+01  5.27066E+00 -6.70613E+00 -2.28534E+01
  -2.07637E+01 -1.99178E+01 -9.23188E+00  1.54228E-01  1.39506E+01  1.35435E+00  1.10104E+00 -8.09065E+00 -1.73013E+01 -5.45117E-01
  -1.39091E+01 -1.27448E+01 -5.44797E+00  9.35684E+00  1.61080E+01  1.83471E+01  1.55948E+01  4.31582E+00  7.62821E+00  3.36115E+00
  -4.54673E+00 -5.29933E+00 -8.18212E+00 -5.35003E+00 -7.55339E+00  2.15039E-01  7.93685E+00  1.85882E+01  3.16692E+00 -1.86042E+00
  -9.35550E+00  5.47573E+00  5.43145E+00 -2.19160E+00  7.88312E+00  2.82636E+00 -5.10513E+00  6.11777E+00  1.32710E+01  3.54487E+00
   1.23682E+01 -3.62448E+00 -3.40500E+00 -5.49880E+00 -1.45229E+01  6.12204E+00  6.34662E+00  1.39180E+01  3.34863E+00  4.16333E+00
   1.88799E+00  1.28491E+01  1.70421E+01  3.12429E+01  2.44160E+01  1.52436E+01  4.30369E+01  5.48552E+01  7.91480E+01  9.65246E+01
   1.07876E+02  1.09773E+02  9.57659E+01  8.36438E+01  2.82201E+01  9.30870E+00  3.06681E+01  6.95063E+00  1.88384E+01  1.49061E+01
   2.19919E+01 -3.12452E-01  1.43942E+00  1.13570E+01  3.41416E+00  4.56935E+00  5.26127E+00 -1.73906E+00  2.12424E+00  1.17825E+01
   1.78151E+01  8.34126E+00  1.06360E+01  7.02271E+00 -4.66856E+00  4.12335E+00 -1.27827E+01  1.07402E+00 -1.89327E+00 -1.08215E+01
  -1.44878E+00 -2.14078E+01 -3.11371E+01 -9.66272E+00 -2.06871E+01 -1.27853E+01 -1.31273E+01 -2.25558E+01 -2.00544E+01 -1.49878E+01
  -2.59672E+01 -1.53711E+01 -1.64976E+01 -1.48926E+01 -9.44788E+00  1.19117E-01  2.83503E+00  3.37209E+00  2.90576E+00  2.57805E+01
  -1.01034E+01  2.43201E+01  3.90651E+00  3.41483E+00  2.64809E+01  1.32628E+01  3.34137E+01  3.98592E+01  3.69740E+01  5.41428E+01
   2.88368E+01  1.60793E+01  9.04352E+00  1.94736E+01  1.48893E+01  9.79086E+00  1.20271E+01 -1.88753E+01 -7.57379E+00 -8.18927E+00
  -8.45453E+00  1.44353E+01 -1.24061E+01  1.43179E+01  2.08054E+01  1.71116E+01  2.30017E+01  1.18780E+01  2.86936E+01  1.57898E+01
   1.98419E+01  4.70003E+01  1.47924E+01  3.77541E+01  3.53418E+01  2.91369E+01  3.06486E+01  2.64371E+01  5.47114E+00  6.13546E+00
   1.71137E+00  2.70561E+01  1.78713E+01  1.73683E+01  8.08083E+00  1.50527E+01  9.27961E+00  1.63643E+01  2.53658E+00  1.27783E+01
   1.10900E+01  2.18321E+01  9.79583E+00  5.90562E+00  2.36889E+01  1.38744E+01  2.24312E+01  2.05356E+01  4.66513E+00  2.60639E+01
   2.74267E+01  9.95653E+00  2.48198E+01  1.10438E+01  1.71191E+01  1.39711E+01 -1.28307E+00 -3.23692E+00 -7.67143E+00 -4.08534E+00
   1.80002E+00  2.96556E+00  3.27874E+00 -7.56030E-01  4.81465E+00  1.38561E+01  8.17350E+00  7.15800E+00  8.29943E+00 -2.64052E+00
   8.75585E+00 -3.82978E+00  1.81868E+00  1.54560E+01  1.03390E+01  1.54127E+01  1.33842E+01  2.49616E+00  2.20582E+00  1.77460E+01
   1.00335E+01  3.20196E+01 -1.28270E+01  1.70873E+01  1.84173E+01  6.61706E+00  2.27003E+01  7.79802E+00  6.26491E+00  3.76442E-01
   1.95402E+01  1.95043E+01  1.01103E+01  2.72804E+01  1.48133E+01  9.81546E+00  1.03089E+01  2.01297E+01  3.59335E+00  8.88705E+00
   8.36123E+00 -3.69900E+00 -9.74610E-02  1.33641E+00 -4.82331E+00  9.09769E+00 -1.28427E+01 -2.05439E+01  1.04640E+01  5.31017E+00
   9.86704E+00  1.51008E+01  1.27070E+01  8.38142E+00  6.77126E-01  6.53272E+00  2.84987E+00  1.26247E+00  2.61956E+00 -7.83170E+00
  -5.16983E+00  5.48739E+00 -4.69633E+00 -3.65026E+00 -7.96958E+00 -8.99836E+00 -3.04791E+00 -8.96165E+00 -4.15745E+00 -8.63112E+00
   3.88703E-01 -7.80221E-01 -1.15238E+01  4.07192E+00  7.17299E-01  1.24832E+01 -2.15010E+00 -7.61902E+00  3.34828E-01 -1.95609E+00
  -5.28891E+00  1.07022E+01 -9.56548E+00 -1.62111E+01  1.13242E+01 -1.48366E+00 -6.53840E+00  5.25994E+00 -1.20720E+00  7.87277E+00
  -3.34034E-01  1.62551E+00 -1.22950E+01 -8.77358E+00 -1.17000E+01 -3.59903E+00 -8.05076E-01 -1.06765E+01 -1.14944E+01  3.43582E-01
  -8.16181E+00  1.58649E+00 -1.21320E+01  2.43464E+00  2.65718E+00 -5.76854E-02 -1.31547E+00  1.22525E+01 -1.40243E+00 -9.10682E+00
   5.39912E+00  6.39046E+00  1.31373E+00  4.91419E+00 -5.05482E+00  1.80167E+00 -7.42669E+00 -6.20017E+00
 NY points of the fit to the data follow
  -1.31372E+01 -1.29325E+01 -1.25257E+01 -1.18952E+01 -1.05720E+01 -7.85795E+00 -3.12654E+00  2.34565E+00  8.72822E+00  1.56367E+01
   2.18437E+01  2.56779E+01  2.56448E+01  2.07419E+01  1.20875E+01  3.12540E+00 -2.09268E+00 -3.24565E+00 -3.63848E+00 -4.45942E+00
  -4.15723E+00 -3.66706E+00 -3.99672E+00 -5.25144E+00 -7.01912E+00 -9.47876E+00 -1.15386E+01 -1.17498E+01 -9.52556E+00 -4.86244E+00
   9.10087E-01  6.10352E+00  8.95853E+00  8.25863E+00  4.78401E+00 -1.62157E-02 -5.24373E+00 -9.23080E+00 -1.07252E+01 -1.06398E+01
  -9.64431E+00 -7.93638E+00 -6.17373E+00 -4.72298E+00 -3.60342E+00 -2.58355E+00 -1.70541E+00 -1.19760E+00 -1.33518E+00 -2.58620E+00
  -4.72152E+00 -6.68681E+00 -7.85031E+00 -8.38663E+00 -8.63303E+00 -8.63193E+00 -8.40148E+00 -8.10281E+00 -7.78673E+00 -7.54503E+00
  -7.43537E+00 -7.56682E+00 -8.10569E+00 -8.84127E+00 -9.43459E+00 -9.66930E+00 -9.56290E+00 -9.28654E+00 -9.01705E+00 -8.73828E+00
  -8.40639E+00 -8.07954E+00 -7.74253E+00 -7.45307E+00 -7.33169E+00 -7.47568E+00 -7.84392E+00 -8.31128E+00 -8.95406E+00 -9.58619E+00
  -9.50648E+00 -8.67344E+00 -7.68500E+00 -6.63309E+00 -5.60079E+00 -4.90291E+00 -4.70003E+00 -5.11409E+00 -6.32561E+00 -8.15067E+00
  -9.70182E+00 -1.01912E+01 -9.99947E+00 -1.00117E+01 -1.01817E+01 -9.81638E+00 -7.57551E+00 -9.34147E-01  8.25694E+00  1.92955E+01
   3.24985E+01  4.62517E+01  5.75873E+01  6.33464E+01  6.01186E+01  4.63769E+01  2.62225E+01  9.99493E+00  3.57588E+00  1.24754E+00
  -2.68361E+00 -5.56919E+00 -6.60989E+00 -7.03398E+00 -7.28061E+00 -7.47659E+00 -7.60479E+00 -7.69136E+00 -7.70324E+00 -7.49895E+00
  -6.40844E+00 -1.68159E+00  6.55793E+00  1.64014E+01  2.86238E+01  4.21492E+01  5.43276E+01  6.21310E+01  6.22619E+01  5.22775E+01
   3.41448E+01  1.63628E+01  7.51583E+00  4.99828E+00  1.04378E+00 -3.51857E+00 -5.70650E+00 -6.72068E+00 -6.67234E+00 -5.79208E+00
  -4.74689E+00 -3.99316E+00 -3.63443E+00 -3.75823E+00 -4.18900E+00 -4.66377E+00 -5.08255E+00 -5.44048E+00 -5.80980E+00 -6.22229E+00
  -6.52774E+00 -6.73211E+00 -6.89489E+00 -7.02733E+00 -7.11077E+00 -7.28957E+00 -7.60455E+00 -7.98477E+00 -8.46634E+00 -8.94861E+00
  -9.40181E+00 -9.69536E+00 -9.58728E+00 -9.04731E+00 -8.27716E+00 -7.76968E+00 -8.01923E+00 -8.90729E+00 -9.87957E+00 -1.05791E+01
  -1.10040E+01 -1.14519E+01 -1.19969E+01 -1.25172E+01 -1.29189E+01 -1.32775E+01 -1.34602E+01 -1.32894E+01 -1.27933E+01 -1.22115E+01
  -1.19640E+01 -1.23884E+01 -1.29719E+01 -1.28361E+01 -1.20898E+01 -1.12962E+01 -1.05650E+01 -9.61539E+00 -8.08409E+00 -6.14435E+00
  -4.55433E+00 -3.96819E+00 -4.70471E+00 -6.15205E+00 -7.53880E+00 -8.55174E+00 -8.93651E+00 -8.43186E+00 -7.06969E+00 -4.91229E+00
  -2.10098E+00  8.27964E-01  3.08016E+00  3.89451E+00  2.49953E+00 -5.43573E-01 -4.62229E+00 -9.45081E+00 -1.39418E+01 -1.66288E+01
  -1.63137E+01 -1.32121E+01 -7.98240E+00 -1.54446E+00  3.96326E+00  6.58669E+00  6.50035E+00  4.32595E+00 -3.54627E-01 -6.34667E+00
  -1.10060E+01 -1.28336E+01 -1.24038E+01 -1.04115E+01 -6.48771E+00 -1.43337E+00  2.66875E+00  4.39972E+00  4.11466E+00  3.36548E+00
   2.54404E+00  1.59011E+00  9.83891E-01  1.15108E+00  2.02570E+00  3.37441E+00  4.66247E+00  5.47292E+00  6.42072E+00  7.17606E+00
   6.72376E+00  4.97212E+00  3.27596E+00  2.41745E+00  2.11586E+00  2.61603E+00  4.21364E+00  5.97368E+00  6.96947E+00  7.75890E+00
   9.04380E+00  1.03754E+01  1.17477E+01  1.38753E+01  1.97844E+01  3.11499E+01  4.40000E+01  5.98126E+01  7.81612E+01  9.56387E+01
   1.07528E+02  1.09226E+02  9.62994E+01  6.96293E+01  3.97602E+01  2.20746E+01  1.73693E+01  1.30261E+01  6.49751E+00  3.73991E+00
   2.68124E+00  2.01328E+00  1.73985E+00  1.78326E+00  1.85626E+00  1.83471E+00  1.61849E+00  1.16818E+00  5.98266E-01  6.39147E-02
  -4.17944E-01 -8.34255E-01 -1.13239E+00 -1.31148E+00 -1.40020E+00 -1.44560E+00 -1.48799E+00 -1.52221E+00 -1.55249E+00 -1.59844E+00
  -1.63964E+00 -1.65809E+00 -1.66418E+00 -1.66383E+00 -1.64395E+00 -1.59516E+00 -1.52511E+00 -1.43508E+00 -1.32006E+00 -1.18423E+00
  -1.03017E+00 -8.53084E-01 -6.52596E-01 -4.26597E-01 -1.73513E-01  1.08071E-01  4.19733E-01  7.66246E-01  1.15428E+00  1.58970E+00
   2.07655E+00  2.62179E+00  3.23395E+00  3.92415E+00  4.70808E+00  5.60866E+00  6.66110E+00  7.92860E+00  9.54215E+00  1.18291E+01
   1.50341E+01  1.77834E+01  1.98289E+01  2.10365E+01  2.04983E+01  1.74049E+01  1.14636E+01  3.03917E+00 -5.08929E+00 -9.95473E+00
  -9.21895E+00 -3.25704E+00  4.25631E+00  1.17625E+01  2.02524E+01  2.78221E+01  3.16197E+01  3.04795E+01  2.65987E+01  2.41431E+01
   2.38814E+01  2.36074E+01  2.29962E+01  2.27236E+01  2.25467E+01  2.20341E+01  2.08377E+01  1.87924E+01  1.60008E+01  1.32752E+01
   1.13668E+01  1.11846E+01  1.28204E+01  1.50551E+01  1.71016E+01  1.92237E+01  2.09275E+01  2.13130E+01  2.01887E+01  1.84669E+01
   1.73088E+01  1.65951E+01  1.56358E+01  1.46490E+01  1.37995E+01  1.30051E+01  1.22354E+01  1.14836E+01  1.07499E+01  1.00384E+01
   9.35373E+00  8.70141E+00  8.08622E+00  7.51327E+00  6.98697E+00  6.51176E+00  6.09086E+00  5.72726E+00  5.42305E+00  5.18062E+00
   5.00187E+00  4.88897E+00  4.84327E+00  4.86632E+00  4.95908E+00  5.12300E+00  5.35884E+00  5.66726E+00  6.04749E+00  6.49814E+00
   7.01617E+00  7.59770E+00  8.23657E+00  8.92495E+00  9.65213E+00  1.04056E+01  1.11705E+01  1.19306E+01  1.26678E+01  1.33633E+01
   1.39973E+01  1.45512E+01  1.50074E+01  1.53508E+01  1.55690E+01  1.56530E+01  1.55976E+01  1.54024E+01  1.50708E+01  1.46111E+01
   1.40345E+01  1.33556E+01  1.25912E+01  1.17599E+01  1.08807E+01  9.97310E+00  9.05479E+00  8.14247E+00  7.25038E+00  6.39112E+00
   5.57440E+00  4.80778E+00  4.09585E+00  3.44142E+00  2.84511E+00  2.30654E+00  1.82360E+00  1.39358E+00  1.01251E+00  6.76568E-01
   3.81459E-01  1.23451E-01 -1.01594E-01 -2.97280E-01 -4.67466E-01 -6.15124E-01 -7.43213E-01 -8.53866E-01 -9.49514E-01 -1.03197E+00
  -1.10326E+00 -1.16456E+00 -1.21724E+00 -1.26201E+00 -1.30009E+00 -1.33219E+00 -1.35930E+00 -1.38170E+00 -1.39999E+00 -1.41434E+00
  -1.42548E+00 -1.43363E+00 -1.43932E+00 -1.44246E+00 -1.44339E+00 -1.44210E+00 -1.43914E+00 -1.43452E+00 -1.42857E+00 -1.42105E+00
  -1.41224E+00 -1.40207E+00 -1.39100E+00 -1.37891E+00 -1.36601E+00 -1.35201E+00 -1.33720E+00 -1.32151E+00 -1.30536E+00 -1.28852E+00
  -1.27112E+00 -1.25288E+00 -1.23411E+00 -1.21476E+00 -1.19514E+00 -1.17496E+00 -1.15435E+00 -1.13305E+00 -1.11143E+00 -1.08940E+00
  -1.06719E+00 -1.04447E+00 -1.02136E+00 -9.97667E-01 -9.73763E-01 -9.49508E-01 -9.25074E-01 -9.00084E-01 -8.74705E-01 -8.48786E-01
  -8.22692E-01 -7.96209E-01 -7.69440E-01 -7.41996E-01 -7.14083E-01 -6.85572E-01 -6.56775E-01 -6.27380E-01
 NY background values follow
    -1.324E+01   -1.321E+01   -1.319E+01   -1.316E+01   -1.313E+01   -1.311E+01   -1.308E+01   -1.306E+01   -1.303E+01   -1.301E+01
    -1.298E+01   -1.296E+01   -1.293E+01   -1.290E+01   -1.288E+01   -1.285E+01   -1.283E+01   -1.280E+01   -1.278E+01   -1.275E+01
    -1.272E+01   -1.270E+01   -1.267E+01   -1.265E+01   -1.262E+01   -1.260E+01   -1.257E+01   -1.254E+01   -1.252E+01   -1.249E+01
    -1.247E+01   -1.244E+01   -1.242E+01   -1.239E+01   -1.236E+01   -1.234E+01   -1.231E+01   -1.229E+01   -1.226E+01   -1.223E+01
    -1.221E+01   -1.218E+01   -1.216E+01   -1.213E+01   -1.210E+01   -1.208E+01   -1.205E+01   -1.203E+01   -1.200E+01   -1.198E+01
    -1.195E+01   -1.192E+01   -1.190E+01   -1.187E+01   -1.185E+01   -1.182E+01   -1.179E+01   -1.177E+01   -1.174E+01   -1.172E+01
    -1.169E+01   -1.166E+01   -1.164E+01   -1.161E+01   -1.158E+01   -1.156E+01   -1.153E+01   -1.151E+01   -1.148E+01   -1.145E+01
    -1.143E+01   -1.140E+01   -1.138E+01   -1.135E+01   -1.132E+01   -1.130E+01   -1.127E+01   -1.125E+01   -1.122E+01   -1.119E+01
    -1.117E+01   -1.114E+01   -1.111E+01   -1.109E+01   -1.106E+01   -1.104E+01   -1.101E+01   -1.098E+01   -1.096E+01   -1.093E+01
    -1.090E+01   -1.088E+01   -1.085E+01   -1.083E+01   -1.080E+01   -1.077E+01   -1.075E+01   -1.072E+01   -1.069E+01   -1.067E+01
    -1.064E+01   -1.061E+01   -1.059E+01   -1.056E+01   -1.054E+01   -1.051E+01   -1.048E+01   -1.046E+01   -1.043E+01   -1.040E+01
    -1.038E+01   -1.035E+01   -1.032E+01   -1.030E+01   -1.027E+01   -1.025E+01   -1.022E+01   -1.019E+01   -1.017E+01   -1.014E+01
    -1.011E+01   -1.009E+01   -1.006E+01   -1.003E+01   -1.001E+01   -9.981E+00   -9.955E+00   -9.928E+00   -9.902E+00   -9.875E+00
    -9.849E+00   -9.822E+00   -9.796E+00   -9.769E+00   -9.742E+00   -9.716E+00   -9.689E+00   -9.663E+00   -9.636E+00   -9.610E+00
    -9.583E+00   -9.557E+00   -9.530E+00   -9.504E+00   -9.477E+00   -9.450E+00   -9.424E+00   -9.397E+00   -9.371E+00   -9.344E+00
    -9.317E+00   -9.291E+00   -9.264E+00   -9.237E+00   -9.211E+00   -9.184E+00   -9.158E+00   -9.131E+00   -9.104E+00   -9.078E+00
    -9.051E+00   -9.024E+00   -8.998E+00   -8.971E+00   -8.944E+00   -8.918E+00   -8.891E+00   -8.864E+00   -8.838E+00   -8.811E+00
    -8.784E+00   -8.757E+00   -8.731E+00   -8.704E+00   -8.677E+00   -8.651E+00   -8.624E+00   -8.597E+00   -8.570E+00   -8.544E+00
    -8.517E+00   -8.490E+00   -8.463E+00   -8.437E+00   -8.410E+00   -8.383E+00   -8.356E+00   -8.330E+00   -8.303E+00   -8.276E+00
    -8.249E+00   -8.222E+00   -8.196E+00   -8.169E+00   -8.142E+00   -8.115E+00   -8.088E+00   -8.062E+00   -8.035E+00   -8.008E+00
    -7.981E+00   -7.954E+00   -7.928E+00   -7.901E+00   -7.874E+00   -7.847E+00   -7.820E+00   -7.793E+00   -7.766E+00   -7.740E+00
    -7.713E+00   -7.686E+00   -7.659E+00   -7.632E+00   -7.605E+00   -7.578E+00   -7.552E+00   -7.525E+00   -7.498E+00   -7.471E+00
    -7.444E+00   -7.417E+00   -7.390E+00   -7.363E+00   -7.337E+00   -7.310E+00   -7.283E+00   -7.256E+00   -7.229E+00   -7.202E+00
    -7.175E+00   -7.148E+00   -7.121E+00   -7.094E+00   -7.068E+00   -7.041E+00   -7.014E+00   -6.987E+00   -6.960E+00   -6.933E+00
    -6.906E+00   -6.879E+00   -6.852E+00   -6.825E+00   -6.798E+00   -6.771E+00   -6.744E+00   -6.717E+00   -6.690E+00   -6.664E+00
    -6.637E+00   -6.610E+00   -6.583E+00   -6.556E+00   -6.529E+00   -6.502E+00   -6.475E+00   -6.448E+00   -6.421E+00   -6.394E+00
    -6.367E+00   -6.340E+00   -6.313E+00   -6.286E+00   -6.259E+00   -6.232E+00   -6.205E+00   -6.178E+00   -6.151E+00   -6.124E+00
    -6.097E+00   -6.070E+00   -6.043E+00   -6.016E+00   -5.989E+00   -5.962E+00   -5.935E+00   -5.908E+00   -5.881E+00   -5.854E+00
    -5.827E+00   -5.800E+00   -5.773E+00   -5.746E+00   -5.719E+00   -5.692E+00   -5.665E+00   -5.638E+00   -5.611E+00   -5.584E+00
    -5.557E+00   -5.530E+00   -5.503E+00   -5.476E+00   -5.449E+00   -5.422E+00   -5.395E+00   -5.368E+00   -5.341E+00   -5.314E+00
    -5.287E+00   -5.260E+00   -5.233E+00   -5.206E+00   -5.179E+00   -5.152E+00   -5.125E+00   -5.098E+00   -5.071E+00   -5.044E+00
    -5.017E+00   -4.990E+00   -4.963E+00   -4.936E+00   -4.909E+00   -4.882E+00   -4.855E+00   -4.828E+00   -4.801E+00   -4.774E+00
    -4.747E+00   -4.720E+00   -4.693E+00   -4.666E+00   -4.639E+00   -4.612E+00   -4.585E+00   -4.558E+00   -4.531E+00   -4.504E+00
    -4.477E+00   -4.450E+00   -4.423E+00   -4.396E+00   -4.369E+00   -4.342E+00   -4.315E+00   -4.288E+00   -4.261E+00   -4.234E+00
    -4.207E+00   -4.180E+00   -4.153E+00   -4.126E+00   -4.099E+00   -4.072E+00   -4.045E+00   -4.018E+00   -3.991E+00   -3.964E+00
    -3.937E+00   -3.910E+00   -3.883E+00   -3.856E+00   -3.830E+00   -3.803E+00   -3.776E+00   -3.749E+00   -3.722E+00   -3.695E+00
    -3.668E+00   -3.641E+00   -3.614E+00   -3.587E+00   -3.560E+00   -3.533E+00   -3.506E+00   -3.479E+00   -3.452E+00   -3.425E+00
    -3.398E+00   -3.371E+00   -3.344E+00   -3.317E+00   -3.290E+00   -3.263E+00   -3.236E+00   -3.209E+00   -3.182E+00   -3.156E+00
    -3.129E+00   -3.102E+00   -3.075E+00   -3.048E+00   -3.021E+00   -2.994E+00   -2.967E+00   -2.940E+00   -2.913E+00   -2.886E+00
    -2.859E+00   -2.832E+00   -2.806E+00   -2.779E+00   -2.752E+00   -2.725E+00   -2.698E+00   -2.671E+00   -2.644E+00   -2.617E+00
    -2.590E+00   -2.564E+00   -2.537E+00   -2.510E+00   -2.483E+00   -2.456E+00   -2.429E+00   -2.402E+00   -2.375E+00   -2.349E+00
    -2.322E+00   -2.295E+00   -2.268E+00   -2.241E+00   -2.214E+00   -2.187E+00   -2.161E+00   -2.134E+00   -2.107E+00   -2.080E+00
    -2.053E+00   -2.026E+00   -2.000E+00   -1.973E+00   -1.946E+00   -1.919E+00   -1.892E+00   -1.866E+00   -1.839E+00   -1.812E+00
    -1.785E+00   -1.758E+00   -1.732E+00   -1.705E+00   -1.678E+00   -1.651E+00   -1.624E+00   -1.598E+00   -1.571E+00   -1.544E+00
    -1.517E+00   -1.491E+00   -1.464E+00   -1.437E+00   -1.410E+00   -1.384E+00   -1.357E+00   -1.330E+00   -1.303E+00   -1.277E+00
    -1.250E+00   -1.223E+00   -1.197E+00   -1.170E+00   -1.143E+00   -1.117E+00   -1.090E+00   -1.063E+00   -1.036E+00   -1.010E+00
    -9.831E-01   -9.565E-01   -9.298E-01   -9.031E-01   -8.765E-01   -8.498E-01   -8.232E-01   -7.965E-01   -7.699E-01   -7.433E-01
    -7.166E-01   -6.900E-01   -6.634E-01   -6.368E-01   -6.102E-01   -5.836E-01   -5.570E-01   -5.304E-01   -5.038E-01   -4.772E-01
    -4.506E-01   -4.240E-01   -3.975E-01   -3.709E-01   -3.443E-01   -3.178E-01   -2.912E-01   -2.647E-01   -2.382E-01   -2.116E-01
    -1.851E-01   -1.586E-01   -1.321E-01   -1.056E-01   -7.905E-02   -5.255E-02   -2.606E-02    4.313E-04
 Ala      Conc. = 1.45E+03
