 LCModel (Version 6.3-1L) Copyright: S.W. Provencher.          Ref.: Magn. Reson. Med. 30:672-679 (1993).                
 Slice#2 Row#3 Col#9  PD_05_press_2_raw_act
 36 lines in following concentration table = NCONC+1
    Conc.  %SD /Cr+PCr  Metabolite                                         
 1.95E+03  30%   1.010 Ala                                                 
    0.000 999%   0.000 Asp                                                 
    0.000 999%   0.000 Cr                                                  
 1.93E+03   9%   1.000 PCr                                                 
  167.705 174% 8.7E-02 GABA                                                
  118.393 240% 6.1E-02 Glc                                                 
 5.06E+03  29%   2.618 Gln                                                 
 3.93E+03  41%   2.033 Glu                                                 
  782.826   8%   0.405 GPC                                                 
    0.000 999%   0.000 PCh                                                 
  533.272  54%   0.276 GSH                                                 
  916.519  85%   0.474 Ins                                                 
    0.000 999%   0.000 Lac                                                 
 2.86E+03  14%   1.477 NAA                                                 
  519.787  87%   0.269 NAAG                                                
  189.878  38% 9.8E-02 Scyllo                                              
  524.930  81%   0.271 Tau                                                 
  727.132  45%   0.376 -CrCH2                                              
  782.826   8%   0.405 GPC+PCh                                             
 3.38E+03   6%   1.746 NAA+NAAG                                            
 1.93E+03   9%   1.000 Cr+PCr                                              
 8.99E+03  30%   4.650 Glu+Gln                                             
    0.000 999%   0.000 Lip13a                                              
    0.000 999%   0.000 Lip13b                                              
    0.000 999%   0.000 Lip09                                               
 1.42E+03  23%   0.736 MM09                                                
 6.97E-03 999% 3.6E-06 Lip20                                               
 2.40E+03  28%   1.242 MM20                                                
  289.990  69%   0.150 MM12                                                
 2.43E+03  20%   1.255 MM14                                                
 1.46E+03  27%   0.755 MM17                                                
    0.000 999%   0.000 Lip13a+Lip13b                                       
 2.72E+03  20%   1.405 MM14+Lip13a+Lip13b+MM12                             
 1.42E+03  23%   0.736 MM09+Lip09                                          
 2.40E+03  28%   1.242 MM20+Lip20                                          
   6 lines in following misc. output table
  FWHM = 0.092 ppm    S/N =   4                                            
  Data shift = 0.046 ppm                                                   
  Ph: -61 deg     -20.0 deg/ppm                                            
  alphaB,S = 8.5E+01,   8.2E+02                                            
   14 spline knots.   Ns =10(1)                                            
   2 inflections.     1 extrema                                            
  498 points on ppm-axis = NY
      4.000000     3.992357     3.984714     3.977070     3.969427     3.961784     3.954141     3.946497     3.938854     3.931211
      3.923568     3.915925     3.908281     3.900638     3.892995     3.885352     3.877708     3.870065     3.862422     3.854779
      3.847136     3.839492     3.831849     3.824206     3.816563     3.808919     3.801276     3.793633     3.785990     3.778347
      3.770703     3.763060     3.755417     3.747774     3.740130     3.732487     3.724844     3.717201     3.709558     3.701914
      3.694271     3.686628     3.678985     3.671341     3.663698     3.656055     3.648412     3.640769     3.633125     3.625482
      3.617839     3.610196     3.602552     3.594909     3.587266     3.579623     3.571980     3.564336     3.556693     3.549050
      3.541407     3.533763     3.526120     3.518477     3.510834     3.503191     3.495547     3.487904     3.480261     3.472618
      3.464974     3.457331     3.449688     3.442045     3.434402     3.426758     3.419115     3.411472     3.403829     3.396185
      3.388542     3.380899     3.373256     3.365613     3.357969     3.350326     3.342683     3.335040     3.327396     3.319753
      3.312110     3.304467     3.296824     3.289180     3.281537     3.273894     3.266251     3.258607     3.250964     3.243321
      3.235678     3.228034     3.220391     3.212748     3.205105     3.197462     3.189818     3.182175     3.174532     3.166889
      3.159245     3.151602     3.143959     3.136316     3.128673     3.121029     3.113386     3.105743     3.098100     3.090456
      3.082813     3.075170     3.067527     3.059884     3.052240     3.044597     3.036954     3.029311     3.021667     3.014024
      3.006381     2.998738     2.991095     2.983451     2.975808     2.968165     2.960522     2.952878     2.945235     2.937592
      2.929949     2.922306     2.914662     2.907019     2.899376     2.891733     2.884089     2.876446     2.868803     2.861160
      2.853517     2.845873     2.838230     2.830587     2.822944     2.815300     2.807657     2.800014     2.792371     2.784728
      2.777084     2.769441     2.761798     2.754155     2.746511     2.738868     2.731225     2.723582     2.715939     2.708295
      2.700652     2.693009     2.685366     2.677722     2.670079     2.662436     2.654793     2.647150     2.639506     2.631863
      2.624220     2.616577     2.608933     2.601290     2.593647     2.586004     2.578361     2.570717     2.563074     2.555431
      2.547788     2.540144     2.532501     2.524858     2.517215     2.509572     2.501928     2.494285     2.486642     2.478999
      2.471355     2.463712     2.456069     2.448426     2.440783     2.433139     2.425496     2.417853     2.410210     2.402566
      2.394923     2.387280     2.379637     2.371994     2.364350     2.356707     2.349064     2.341421     2.333777     2.326134
      2.318491     2.310848     2.303205     2.295561     2.287918     2.280275     2.272632     2.264988     2.257345     2.249702
      2.242059     2.234416     2.226772     2.219129     2.211486     2.203843     2.196199     2.188556     2.180913     2.173270
      2.165627     2.157983     2.150340     2.142697     2.135054     2.127410     2.119767     2.112124     2.104481     2.096838
      2.089194     2.081551     2.073908     2.066265     2.058621     2.050978     2.043335     2.035692     2.028049     2.020405
      2.012762     2.005119     1.997476     1.989833     1.982190     1.974546     1.966903     1.959260     1.951617     1.943974
      1.936331     1.928688     1.921045     1.913402     1.905759     1.898115     1.890472     1.882829     1.875186     1.867543
      1.859900     1.852257     1.844614     1.836971     1.829327     1.821684     1.814041     1.806398     1.798755     1.791112
      1.783469     1.775826     1.768183     1.760540     1.752896     1.745253     1.737610     1.729967     1.722324     1.714681
      1.707038     1.699395     1.691752     1.684108     1.676465     1.668822     1.661179     1.653536     1.645893     1.638250
      1.630607     1.622964     1.615321     1.607677     1.600034     1.592391     1.584748     1.577105     1.569462     1.561819
      1.554176     1.546533     1.538890     1.531246     1.523603     1.515960     1.508317     1.500674     1.493031     1.485388
      1.477745     1.470102     1.462458     1.454815     1.447172     1.439529     1.431886     1.424243     1.416600     1.408957
      1.401314     1.393671     1.386027     1.378384     1.370741     1.363098     1.355455     1.347812     1.340169     1.332526
      1.324883     1.317240     1.309596     1.301953     1.294310     1.286667     1.279024     1.271381     1.263738     1.256095
      1.248452     1.240808     1.233165     1.225522     1.217879     1.210236     1.202593     1.194950     1.187307     1.179664
      1.172021     1.164377     1.156734     1.149091     1.141448     1.133805     1.126162     1.118519     1.110876     1.103233
      1.095590     1.087946     1.080303     1.072660     1.065017     1.057374     1.049731     1.042088     1.034445     1.026802
      1.019158     1.011515     1.003872     0.996229     0.988586     0.980943     0.973300     0.965657     0.958014     0.950371
      0.942727     0.935084     0.927441     0.919798     0.912155     0.904512     0.896869     0.889226     0.881583     0.873940
      0.866296     0.858653     0.851010     0.843367     0.835724     0.828081     0.820438     0.812795     0.805152     0.797508
      0.789865     0.782222     0.774579     0.766936     0.759293     0.751650     0.744007     0.736364     0.728721     0.721077
      0.713434     0.705791     0.698148     0.690505     0.682862     0.675219     0.667576     0.659933     0.652290     0.644646
      0.637003     0.629360     0.621717     0.614074     0.606431     0.598788     0.591145     0.583502     0.575858     0.568215
      0.560572     0.552929     0.545286     0.537643     0.530000     0.522357     0.514714     0.507071     0.499427     0.491784
      0.484141     0.476498     0.468855     0.461212     0.453569     0.445925     0.438282     0.430639     0.422996     0.415353
      0.407710     0.400067     0.392424     0.384780     0.377137     0.369494     0.361851     0.354208     0.346565     0.338922
      0.331278     0.323635     0.315992     0.308349     0.300706     0.293063     0.285420     0.277777     0.270133     0.262490
      0.254847     0.247204     0.239561     0.231918     0.224275     0.216631     0.208988     0.201345
 NY phased data points follow
   3.19706E+00  5.64404E+00  7.05884E+00 -2.61493E+00  3.00486E+01  3.24280E+01  1.30698E+01  2.16913E+01  1.26923E+01  2.02494E+01
   2.59103E+01  1.97765E+01  4.03707E+01  3.29083E+01  1.36898E+01  1.71397E+01  2.26376E+01 -2.04551E+00  1.65918E+00  1.77119E+01
   2.70910E+00  2.04954E+01  2.44266E+01  1.06182E+01  1.10502E+01  2.98640E+01  1.06003E+01  4.22931E+00  1.14931E+01  1.48934E+01
   1.18531E+01  2.10511E+01  1.24064E+01  2.31726E+01  1.42514E+01  1.36346E+01  1.30460E+01  6.86463E+00  1.40736E+01  1.37798E+01
   1.25168E+01  2.27475E+01  2.91922E+01  1.22124E+01  2.67975E+01  1.07239E+01  2.60145E+01  1.70602E+01  1.92327E+01  9.04520E+00
   2.32905E+00  2.65366E+01  1.64691E+01  1.63132E+01  1.55167E+01  2.12263E+01  2.64510E+01  8.27051E+00  1.94207E+01  2.15010E+01
   3.11433E+00  9.37486E+00  8.86122E+00 -1.07816E+00 -5.61322E+00  2.98228E+00  4.22595E+00 -1.18270E+01  8.59232E+00  1.03524E+01
  -3.40113E+00  9.30804E+00  1.51625E+00 -3.75224E-01  3.49514E+00  1.00576E+01  9.14656E+00  7.91710E+00  2.77529E+00  1.60687E+01
   5.03281E+00  8.91008E+00  6.30285E+00  8.81158E+00  3.40007E+00  1.77870E+01  1.28235E+01  2.26073E+00  6.58338E+00  9.78429E+00
   2.16723E+01  1.66185E+01  2.60050E+01  2.33973E+01  2.86065E+01  3.09690E+01  3.28713E+01  3.13698E+01  2.95257E+01  3.30813E+01
   5.26906E+01  4.51994E+01  5.43652E+01  5.95558E+01  4.59659E+01  5.82020E+01  3.89265E+01  5.41422E+01  2.07309E+01  1.92255E+01
   2.74948E+01  2.11122E+01  1.62482E+01  1.28622E+01  2.29481E+01  2.19604E+01  1.26865E+01  1.75817E+01  3.23091E+01  3.68737E+01
   1.71090E+01  2.15492E+01  3.24684E+01  2.81161E+01  4.31230E+01  4.56516E+01  4.91018E+01  5.73443E+01  6.06066E+01  5.64168E+01
   3.07275E+01  3.25252E+01  2.13479E+01  1.93542E+01  1.88874E+01  1.42541E+01  2.43186E+01  3.76030E+00  3.31612E+01  5.40212E+00
   4.09075E+00  1.90938E+01  1.39903E+01  2.10266E+01  1.67446E+01  1.42787E+01  1.53511E+01  2.15718E+01  8.81400E+00  4.19068E+00
   2.01131E+01  1.57271E+01  9.23483E+00  1.80747E+01  1.08479E+01  1.10738E+01  9.54377E+00  1.68925E+01  1.53781E+01  3.94407E+00
   1.38782E+00  2.16861E+01  5.91010E+00 -8.03210E+00 -4.77588E+00  4.53204E+00 -1.84288E+01  3.06077E+00 -2.26040E+00 -8.25030E+00
  -2.67402E+00 -1.22451E+01 -1.23770E+01 -1.91753E+01  1.78092E+00 -1.86047E+01  5.10297E+00 -6.39148E+00 -1.35959E+01 -8.97508E+00
  -1.83958E+01 -7.30632E+00 -5.86479E+00  8.04229E+00 -7.05492E+00 -7.53271E-01 -4.61936E+00 -1.17848E+01 -9.13074E+00 -5.94396E+00
  -1.24359E+00  1.40469E+01  4.13130E+00  1.00198E+01 -3.56687E+00 -1.04981E+00  5.64473E+00 -8.57606E+00  4.74688E-01  6.32385E+00
   1.18589E-01  7.18096E+00 -3.88717E+00  2.81478E+00  6.64041E+00  8.44879E+00  3.57255E+00 -8.04088E+00  6.20559E+00 -9.20642E+00
   9.11618E+00 -5.65620E+00  1.11185E+01  5.14418E+00  9.23585E+00  8.30780E+00  2.45801E+01  9.59554E+00  1.82040E+01  2.41755E+01
   6.18102E+00  4.72293E+00  3.59387E+00 -1.57460E+00  1.21580E+01  6.96286E+00  6.43313E-01  3.59497E+01  2.22687E+01  2.92345E+01
   2.22535E+01  2.19249E+01  4.99689E+00  1.90413E+01  2.20719E+01  2.58202E+01  6.70179E+00  2.24170E+01  6.58545E+00  1.31481E+01
   1.58075E+01  9.60252E+00 -4.79058E+00  7.42226E+00  4.16491E+00  2.19416E+01  1.44832E+01  4.64999E+00  1.28810E+01  3.68219E+01
   1.52297E+01  3.45618E+01  1.88685E+01  4.66946E+01  5.74526E+01  6.06640E+01  5.78122E+01  7.90338E+01  8.89604E+01  9.37494E+01
   8.35928E+01  9.67050E+01  7.27450E+01  8.10319E+01  5.70661E+01  4.06516E+01  4.91612E+01  3.61875E+01  3.56038E+01  2.66447E+01
   8.09215E+00  2.04132E+01  2.15199E+01  1.24295E+01  2.27157E+00  2.59882E+01  1.82468E+01  1.50526E+01  8.27295E+00  1.09648E+01
   1.90588E+01  1.00504E+01  1.38897E+01  4.50810E+00  5.74545E+00  1.00706E+01  5.64651E+00 -6.16133E+00 -5.39279E+00  2.61382E+01
   5.75344E+00  2.08971E+01  1.23322E+01  2.07074E+01  1.75885E+01 -8.32071E-01  1.81828E+01  1.41815E+01 -5.70756E+00  2.45850E+01
   1.65620E+01  3.01395E+01  2.30926E+01  2.45803E+01  2.14197E+01  1.57676E+01  1.31761E+01  2.19345E+01  1.94171E+01  1.57367E+01
   2.01049E+01  2.78866E+01  3.33637E+01  2.26565E+01  3.05888E+01  3.00861E+01  3.14515E+01  3.54371E+01  3.55610E+01  3.38284E+01
   2.86884E+01  1.77468E+01  2.78060E+01  2.31358E+01  2.71998E+01  1.28385E+01  1.68871E+01  2.59625E+01  1.81222E+01  3.23646E+01
   1.67107E+01  2.30191E+01  8.32475E+00  2.31302E+01  2.01910E+01 -1.54855E+00  3.71979E+01  3.54350E+01  2.33934E+01  2.83983E+01
   3.42125E+01  2.64831E+01  3.01010E+01  2.51078E+01  2.32184E+01  2.15012E+01  1.77440E+01  1.54939E+01  2.66591E+01  8.58871E+00
   4.81430E+00  1.03830E+01  1.31565E+01  5.93114E+00  7.54598E+00  1.05712E+01  9.80863E+00  9.32232E+00 -3.23640E+00  6.00741E+00
  -4.23005E+00 -7.20417E+00  1.14592E+01  1.61004E+01  1.64139E+01  1.32732E+01  4.41132E+00 -7.81555E+00  1.12838E+01  1.93223E+01
   7.03673E+00  1.01784E+01  4.06905E+00  8.61077E+00  8.11369E+00  8.97749E+00  1.11240E+01 -6.39658E+00  8.20598E+00  1.03949E+00
   1.37261E+01  1.42981E+00  9.51298E+00  1.94394E+01 -3.60584E-01  8.45196E+00 -4.34903E+00  9.08413E+00  1.09266E+01  7.76783E+00
   7.66076E+00  7.53970E+00  1.27305E+00  1.73053E+01 -4.96200E+00  1.34361E+01  2.59296E+01  9.91400E+00  4.35393E+00  2.27006E+01
   8.98922E+00  3.14518E+01  1.89020E+01  1.29926E+01  1.73920E+01  9.90147E+00  1.71351E+01  2.66041E+01  1.77623E+01  7.67435E+00
   5.90158E+00  1.46165E+01  1.03470E+01  1.05523E+01  2.20138E+01  3.92810E+00  2.43165E+01  1.66423E+01  1.92048E+01  2.56560E+01
   1.86892E+01  4.27300E+00  3.17366E+01  1.87667E+01  2.15537E+01  2.16457E+01  4.07427E+00  5.98703E+00  7.01786E+00  1.88287E+01
  -5.44576E+00  1.79496E+01  1.46219E+01 -5.95640E-01  1.04472E+01  1.99558E+01  2.89732E+01  1.47082E+01  1.58121E+01  7.88423E+00
   9.86420E+00  6.23997E+00  2.42034E+00  1.60747E+01  1.43881E+01  1.26697E+01  6.88071E+00  1.02253E+01  3.48641E+00  7.84433E+00
   2.14591E+01  1.71378E+01  7.34844E+00  9.74353E+00  1.11100E+01  2.28180E+01 -2.72018E+00  1.66093E+01  1.70906E+00  1.41042E+01
   1.16760E+01  4.47844E+00  1.05659E+00  7.06027E-01 -4.83808E+00  7.41513E+00  5.59065E+00 -2.47211E-01  3.90910E+00  1.44043E+01
   1.34005E+01  1.91539E+01  4.96497E+00 -3.85867E+00  3.84238E+00  2.21522E+00  3.37222E+00  9.47919E+00  1.30746E+01  1.03352E+00
  -3.79060E+00  1.75654E+00  1.44871E+01  1.87484E+01  5.53597E+00  8.57768E+00  3.57307E+00  1.78571E+01  6.41386E+00  9.65100E+00
  -2.32277E+00  2.03581E+01  7.79499E+00  9.76842E+00  1.44282E+01  1.18463E+01  1.44051E+01  7.61032E+00
 NY points of the fit to the data follow
   8.01344E+00  9.95390E+00  1.21337E+01  1.44408E+01  1.67882E+01  1.90809E+01  2.11781E+01  2.29267E+01  2.41640E+01  2.47852E+01
   2.47644E+01  2.41474E+01  2.30485E+01  2.16403E+01  2.01441E+01  1.88182E+01  1.76481E+01  1.64597E+01  1.51273E+01  1.37442E+01
   1.26234E+01  1.18215E+01  1.13909E+01  1.15232E+01  1.22130E+01  1.32754E+01  1.44765E+01  1.56227E+01  1.65825E+01  1.74173E+01
   1.81972E+01  1.88842E+01  1.94058E+01  1.96735E+01  1.95900E+01  1.91461E+01  1.84297E+01  1.75286E+01  1.64422E+01  1.52659E+01
   1.41802E+01  1.33928E+01  1.30550E+01  1.31684E+01  1.37157E+01  1.44804E+01  1.51581E+01  1.55074E+01  1.54089E+01  1.48924E+01
   1.40989E+01  1.32266E+01  1.23599E+01  1.15103E+01  1.07153E+01  9.98568E+00  9.32253E+00  8.76940E+00  8.35115E+00  8.06969E+00
   7.89297E+00  7.76437E+00  7.65041E+00  7.53358E+00  7.40510E+00  7.29296E+00  7.24732E+00  7.26567E+00  7.31893E+00  7.37796E+00
   7.41762E+00  7.43577E+00  7.44377E+00  7.43836E+00  7.40427E+00  7.34039E+00  7.35714E+00  7.58813E+00  7.98642E+00  8.46882E+00
   8.97788E+00  9.49596E+00  1.00108E+01  1.04964E+01  1.09054E+01  1.11727E+01  1.12558E+01  1.11454E+01  1.08445E+01  1.03770E+01
   9.78712E+00  9.27009E+00  9.68908E+00  1.19111E+01  1.56705E+01  2.04516E+01  2.58302E+01  3.15053E+01  3.72543E+01  4.27429E+01
   4.75164E+01  5.11997E+01  5.34977E+01  5.41998E+01  5.32115E+01  5.05830E+01  4.65263E+01  4.13925E+01  3.56050E+01  2.95818E+01
   2.36959E+01  1.82873E+01  1.36825E+01  1.02465E+01  8.30826E+00  7.69240E+00  8.35216E+00  1.06921E+01  1.43584E+01  1.88496E+01
   2.37728E+01  2.88400E+01  3.38284E+01  3.85232E+01  4.26638E+01  4.59199E+01  4.79854E+01  4.86394E+01  4.77767E+01  4.54615E+01
   4.19105E+01  3.74416E+01  3.24297E+01  2.72285E+01  2.21513E+01  1.74900E+01  1.35502E+01  1.06518E+01  9.03976E+00  8.41151E+00
   8.13215E+00  7.98694E+00  7.90824E+00  7.85684E+00  7.79960E+00  7.70944E+00  7.56150E+00  7.33146E+00  7.03344E+00  6.70112E+00
   6.35509E+00  5.98751E+00  5.60241E+00  5.22606E+00  4.89074E+00  4.62569E+00  4.41644E+00  4.22301E+00  4.02179E+00  3.80330E+00
   3.56328E+00  3.30760E+00  3.04716E+00  2.78667E+00  2.52003E+00  2.22192E+00  1.84749E+00  1.39249E+00  9.24060E-01  4.90624E-01
   1.04768E-01 -2.68239E-01 -6.57047E-01 -1.04724E+00 -1.37522E+00 -1.60054E+00 -1.72534E+00 -1.78503E+00 -1.79739E+00 -1.72443E+00
  -1.51861E+00 -1.14784E+00 -5.97953E-01  1.00536E-01  8.42666E-01  1.55213E+00  2.11506E+00  2.44740E+00  2.51039E+00  2.35397E+00
   2.07843E+00  1.83987E+00  1.81993E+00  2.12695E+00  2.82581E+00  4.01764E+00  5.68042E+00  7.60618E+00  9.54730E+00  1.11063E+01
   1.17161E+01  1.13493E+01  1.02963E+01  8.72057E+00  6.77740E+00  4.70713E+00  2.89772E+00  1.50987E+00  5.86722E-01  2.28427E-01
   5.20891E-01  1.44390E+00  2.77510E+00  4.32311E+00  6.02525E+00  7.76514E+00  9.33405E+00  1.05799E+01  1.13308E+01  1.14965E+01
   1.11250E+01  1.02741E+01  9.17040E+00  8.39684E+00  8.27352E+00  8.70495E+00  9.43523E+00  1.04130E+01  1.16164E+01  1.28148E+01
   1.39067E+01  1.49405E+01  1.57897E+01  1.61528E+01  1.60388E+01  1.56966E+01  1.53342E+01  1.49887E+01  1.46352E+01  1.42098E+01
   1.36333E+01  1.29149E+01  1.21182E+01  1.13580E+01  1.08047E+01  1.06850E+01  1.12636E+01  1.25336E+01  1.43668E+01  1.69830E+01
   2.13897E+01  2.83040E+01  3.69731E+01  4.64067E+01  5.57055E+01  6.42321E+01  7.16941E+01  7.78012E+01  8.22253E+01  8.46985E+01
   8.50330E+01  8.31209E+01  7.90410E+01  7.30893E+01  6.57121E+01  5.74510E+01  4.88740E+01  4.05196E+01  3.28070E+01  2.59609E+01
   2.02718E+01  1.61690E+01  1.39896E+01  1.31934E+01  1.28134E+01  1.25717E+01  1.23942E+01  1.22232E+01  1.20422E+01  1.18558E+01
   1.16587E+01  1.14523E+01  1.12492E+01  1.10686E+01  1.09313E+01  1.08601E+01  1.08631E+01  1.09327E+01  1.10590E+01  1.12332E+01
   1.14509E+01  1.17104E+01  1.20108E+01  1.23555E+01  1.27503E+01  1.31978E+01  1.36967E+01  1.42431E+01  1.48323E+01  1.54555E+01
   1.61021E+01  1.67616E+01  1.74220E+01  1.80709E+01  1.86970E+01  1.92888E+01  1.98352E+01  2.03292E+01  2.07679E+01  2.11532E+01
   2.14922E+01  2.17987E+01  2.20954E+01  2.24145E+01  2.28026E+01  2.33376E+01  2.41779E+01  2.55052E+01  2.69934E+01  2.82175E+01
   2.89654E+01  2.91420E+01  2.86882E+01  2.75183E+01  2.55716E+01  2.32337E+01  2.09570E+01  1.89036E+01  1.71461E+01  1.57665E+01
   1.48808E+01  1.46100E+01  1.50263E+01  1.61136E+01  1.77648E+01  1.98089E+01  2.20432E+01  2.42558E+01  2.62261E+01  2.76678E+01
   2.82124E+01  2.78503E+01  2.67753E+01  2.51626E+01  2.31823E+01  2.10320E+01  1.89782E+01  1.73414E+01  1.61209E+01  1.51384E+01
   1.43133E+01  1.36087E+01  1.30036E+01  1.24836E+01  1.20380E+01  1.16576E+01  1.13344E+01  1.10611E+01  1.08307E+01  1.06370E+01
   1.04743E+01  1.03372E+01  1.02212E+01  1.01221E+01  1.00364E+01  9.96138E+00  9.89468E+00  9.83471E+00  9.78030E+00  9.73082E+00
   9.68601E+00  9.64608E+00  9.61151E+00  9.58313E+00  9.56189E+00  9.54896E+00  9.54563E+00  9.55335E+00  9.57366E+00  9.60819E+00
   9.65862E+00  9.72672E+00  9.81435E+00  9.92349E+00  1.00561E+01  1.02144E+01  1.04002E+01  1.06156E+01  1.08622E+01  1.11417E+01
   1.14551E+01  1.18028E+01  1.21843E+01  1.25983E+01  1.30422E+01  1.35121E+01  1.40026E+01  1.45070E+01  1.50167E+01  1.55221E+01
   1.60125E+01  1.64762E+01  1.69013E+01  1.72759E+01  1.75888E+01  1.78300E+01  1.79914E+01  1.80667E+01  1.80525E+01  1.79478E+01
   1.77547E+01  1.74780E+01  1.71247E+01  1.67043E+01  1.62277E+01  1.57068E+01  1.51544E+01  1.45829E+01  1.40043E+01  1.34297E+01
   1.28686E+01  1.23293E+01  1.18181E+01  1.13399E+01  1.08978E+01  1.04935E+01  1.01275E+01  9.79900E+00  9.50658E+00  9.24815E+00
   9.02114E+00  8.82282E+00  8.65029E+00  8.50081E+00  8.37165E+00  8.26034E+00  8.16454E+00  8.08220E+00  8.01147E+00  7.95079E+00
   7.89873E+00  7.85413E+00  7.81590E+00  7.78321E+00  7.75527E+00  7.73150E+00  7.71132E+00  7.69431E+00  7.68003E+00  7.66819E+00
   7.65847E+00  7.65068E+00  7.64456E+00  7.63996E+00  7.63669E+00  7.63465E+00  7.63371E+00  7.63379E+00  7.63477E+00  7.63660E+00
   7.63916E+00  7.64244E+00  7.64636E+00  7.65090E+00  7.65598E+00  7.66159E+00  7.66766E+00  7.67421E+00  7.68118E+00  7.68859E+00
   7.69636E+00  7.70450E+00  7.71299E+00  7.72184E+00  7.73102E+00  7.74054E+00  7.75036E+00  7.76051E+00  7.77096E+00  7.78175E+00
   7.79285E+00  7.80429E+00  7.81602E+00  7.82811E+00  7.84054E+00  7.85335E+00  7.86652E+00  7.88011E+00  7.89410E+00  7.90857E+00
   7.92350E+00  7.93899E+00  7.95504E+00  7.97173E+00  7.98909E+00  8.00723E+00  8.02623E+00  8.04622E+00
 NY background values follow
     2.797E+00    2.809E+00    2.822E+00    2.834E+00    2.846E+00    2.859E+00    2.871E+00    2.883E+00    2.895E+00    2.908E+00
     2.920E+00    2.932E+00    2.945E+00    2.957E+00    2.969E+00    2.982E+00    2.994E+00    3.006E+00    3.018E+00    3.031E+00
     3.043E+00    3.055E+00    3.068E+00    3.080E+00    3.092E+00    3.105E+00    3.117E+00    3.129E+00    3.142E+00    3.154E+00
     3.166E+00    3.179E+00    3.191E+00    3.203E+00    3.216E+00    3.228E+00    3.240E+00    3.253E+00    3.265E+00    3.277E+00
     3.290E+00    3.302E+00    3.314E+00    3.326E+00    3.339E+00    3.351E+00    3.363E+00    3.376E+00    3.388E+00    3.400E+00
     3.413E+00    3.425E+00    3.437E+00    3.450E+00    3.462E+00    3.474E+00    3.487E+00    3.499E+00    3.512E+00    3.524E+00
     3.536E+00    3.549E+00    3.561E+00    3.573E+00    3.586E+00    3.598E+00    3.610E+00    3.623E+00    3.635E+00    3.647E+00
     3.660E+00    3.672E+00    3.684E+00    3.697E+00    3.709E+00    3.721E+00    3.734E+00    3.746E+00    3.758E+00    3.771E+00
     3.783E+00    3.795E+00    3.808E+00    3.820E+00    3.832E+00    3.845E+00    3.857E+00    3.869E+00    3.882E+00    3.894E+00
     3.906E+00    3.919E+00    3.931E+00    3.943E+00    3.956E+00    3.968E+00    3.980E+00    3.993E+00    4.005E+00    4.017E+00
     4.030E+00    4.042E+00    4.054E+00    4.067E+00    4.079E+00    4.091E+00    4.104E+00    4.116E+00    4.128E+00    4.141E+00
     4.153E+00    4.165E+00    4.178E+00    4.190E+00    4.202E+00    4.215E+00    4.227E+00    4.239E+00    4.251E+00    4.264E+00
     4.276E+00    4.288E+00    4.301E+00    4.313E+00    4.325E+00    4.338E+00    4.350E+00    4.362E+00    4.375E+00    4.387E+00
     4.399E+00    4.411E+00    4.424E+00    4.436E+00    4.448E+00    4.461E+00    4.473E+00    4.485E+00    4.498E+00    4.510E+00
     4.522E+00    4.534E+00    4.547E+00    4.559E+00    4.571E+00    4.584E+00    4.596E+00    4.608E+00    4.620E+00    4.633E+00
     4.645E+00    4.657E+00    4.670E+00    4.682E+00    4.694E+00    4.706E+00    4.719E+00    4.731E+00    4.743E+00    4.755E+00
     4.768E+00    4.780E+00    4.792E+00    4.804E+00    4.817E+00    4.829E+00    4.841E+00    4.853E+00    4.866E+00    4.878E+00
     4.890E+00    4.902E+00    4.915E+00    4.927E+00    4.939E+00    4.951E+00    4.963E+00    4.976E+00    4.988E+00    5.000E+00
     5.012E+00    5.024E+00    5.037E+00    5.049E+00    5.061E+00    5.073E+00    5.086E+00    5.098E+00    5.110E+00    5.122E+00
     5.134E+00    5.146E+00    5.159E+00    5.171E+00    5.183E+00    5.195E+00    5.207E+00    5.220E+00    5.232E+00    5.244E+00
     5.256E+00    5.268E+00    5.280E+00    5.293E+00    5.305E+00    5.317E+00    5.329E+00    5.341E+00    5.353E+00    5.365E+00
     5.378E+00    5.390E+00    5.402E+00    5.414E+00    5.426E+00    5.438E+00    5.450E+00    5.462E+00    5.475E+00    5.487E+00
     5.499E+00    5.511E+00    5.523E+00    5.535E+00    5.547E+00    5.559E+00    5.571E+00    5.583E+00    5.595E+00    5.608E+00
     5.620E+00    5.632E+00    5.644E+00    5.656E+00    5.668E+00    5.680E+00    5.692E+00    5.704E+00    5.716E+00    5.728E+00
     5.740E+00    5.752E+00    5.764E+00    5.776E+00    5.788E+00    5.800E+00    5.812E+00    5.824E+00    5.836E+00    5.848E+00
     5.860E+00    5.872E+00    5.884E+00    5.896E+00    5.908E+00    5.920E+00    5.932E+00    5.944E+00    5.956E+00    5.968E+00
     5.980E+00    5.992E+00    6.004E+00    6.016E+00    6.028E+00    6.040E+00    6.052E+00    6.064E+00    6.076E+00    6.088E+00
     6.099E+00    6.111E+00    6.123E+00    6.135E+00    6.147E+00    6.159E+00    6.171E+00    6.183E+00    6.195E+00    6.207E+00
     6.218E+00    6.230E+00    6.242E+00    6.254E+00    6.266E+00    6.278E+00    6.290E+00    6.301E+00    6.313E+00    6.325E+00
     6.337E+00    6.349E+00    6.361E+00    6.372E+00    6.384E+00    6.396E+00    6.408E+00    6.420E+00    6.431E+00    6.443E+00
     6.455E+00    6.467E+00    6.479E+00    6.490E+00    6.502E+00    6.514E+00    6.526E+00    6.537E+00    6.549E+00    6.561E+00
     6.573E+00    6.584E+00    6.596E+00    6.608E+00    6.619E+00    6.631E+00    6.643E+00    6.655E+00    6.666E+00    6.678E+00
     6.690E+00    6.701E+00    6.713E+00    6.725E+00    6.736E+00    6.748E+00    6.760E+00    6.771E+00    6.783E+00    6.794E+00
     6.806E+00    6.818E+00    6.829E+00    6.841E+00    6.853E+00    6.864E+00    6.876E+00    6.887E+00    6.899E+00    6.910E+00
     6.922E+00    6.934E+00    6.945E+00    6.957E+00    6.968E+00    6.980E+00    6.991E+00    7.003E+00    7.014E+00    7.026E+00
     7.037E+00    7.049E+00    7.060E+00    7.072E+00    7.083E+00    7.095E+00    7.106E+00    7.118E+00    7.129E+00    7.141E+00
     7.152E+00    7.164E+00    7.175E+00    7.187E+00    7.198E+00    7.209E+00    7.221E+00    7.232E+00    7.244E+00    7.255E+00
     7.266E+00    7.278E+00    7.289E+00    7.301E+00    7.312E+00    7.323E+00    7.335E+00    7.346E+00    7.357E+00    7.369E+00
     7.380E+00    7.391E+00    7.403E+00    7.414E+00    7.425E+00    7.436E+00    7.448E+00    7.459E+00    7.470E+00    7.482E+00
     7.493E+00    7.504E+00    7.515E+00    7.527E+00    7.538E+00    7.549E+00    7.560E+00    7.571E+00    7.583E+00    7.594E+00
     7.605E+00    7.616E+00    7.627E+00    7.639E+00    7.650E+00    7.661E+00    7.672E+00    7.683E+00    7.694E+00    7.705E+00
     7.716E+00    7.728E+00    7.739E+00    7.750E+00    7.761E+00    7.772E+00    7.783E+00    7.794E+00    7.805E+00    7.816E+00
     7.827E+00    7.838E+00    7.849E+00    7.860E+00    7.871E+00    7.882E+00    7.893E+00    7.904E+00    7.915E+00    7.926E+00
     7.937E+00    7.948E+00    7.959E+00    7.970E+00    7.981E+00    7.992E+00    8.003E+00    8.014E+00    8.025E+00    8.036E+00
     8.047E+00    8.057E+00    8.068E+00    8.079E+00    8.090E+00    8.101E+00    8.112E+00    8.123E+00    8.133E+00    8.144E+00
     8.155E+00    8.166E+00    8.177E+00    8.187E+00    8.198E+00    8.209E+00    8.220E+00    8.230E+00    8.241E+00    8.252E+00
     8.263E+00    8.273E+00    8.284E+00    8.295E+00    8.305E+00    8.316E+00    8.327E+00    8.338E+00    8.348E+00    8.359E+00
     8.369E+00    8.380E+00    8.391E+00    8.401E+00    8.412E+00    8.423E+00    8.433E+00    8.444E+00    8.454E+00    8.465E+00
     8.475E+00    8.486E+00    8.497E+00    8.507E+00    8.518E+00    8.528E+00    8.539E+00    8.549E+00    8.560E+00    8.570E+00
     8.581E+00    8.591E+00    8.601E+00    8.612E+00    8.622E+00    8.633E+00    8.643E+00    8.654E+00
 Ala      Conc. = 1.95E+03
