 LCModel (Version 6.3-1L) Copyright: S.W. Provencher.          Ref.: Magn. Reson. Med. 30:672-679 (1993).                
 Slice#3 Row#7 Col#11  PD_05_press_2_raw_act
 36 lines in following concentration table = NCONC+1
    Conc.  %SD /Cr+PCr  Metabolite                                         
   66.690 236% 8.3E-02 Ala                                                 
    0.000 999%   0.000 Asp                                                 
    0.000 999%   0.000 Cr                                                  
  805.446  10%   1.000 PCr                                                 
   37.611 418% 4.7E-02 GABA                                                
   84.173 186%   0.105 Glc                                                 
  694.887  46%   0.863 Gln                                                 
 2.19E+03  17%   2.719 Glu                                                 
  244.391  12%   0.303 GPC                                                 
    0.000 999%   0.000 PCh                                                 
  192.888  55%   0.239 GSH                                                 
  266.864 126%   0.331 Ins                                                 
   12.554 999% 1.6E-02 Lac                                                 
 3.74E+03   4%   4.646 NAA                                                 
  205.158  80%   0.255 NAAG                                                
   68.216  51% 8.5E-02 Scyllo                                              
  495.493  46%   0.615 Tau                                                 
  589.775  21%   0.732 -CrCH2                                              
  244.391  12%   0.303 GPC+PCh                                             
 3.95E+03   3%   4.901 NAA+NAAG                                            
  805.446  10%   1.000 Cr+PCr                                              
 2.89E+03  17%   3.582 Glu+Gln                                             
 2.61E+03  24%   3.243 Lip13a                                              
    0.000 999%   0.000 Lip13b                                              
    0.000 999%   0.000 Lip09                                               
 2.00E+03  13%   2.487 MM09                                                
  715.561  42%   0.888 Lip20                                               
 4.63E+03  11%   5.753 MM20                                                
  585.702  30%   0.727 MM12                                                
  814.162  56%   1.011 MM14                                                
  812.679  31%   1.009 MM17                                                
 2.61E+03  24%   3.243 Lip13a+Lip13b                                       
 4.01E+03  12%   4.981 MM14+Lip13a+Lip13b+MM12                             
 2.00E+03  13%   2.487 MM09+Lip09                                          
 5.35E+03   9%   6.642 MM20+Lip20                                          
   6 lines in following misc. output table
  FWHM = 0.046 ppm    S/N =  13                                            
  Data shift = 0.031 ppm                                                   
  Ph: -36 deg     -11.8 deg/ppm                                            
  alphaB,S = 8.5E+01,   1.0E+02                                            
   14 spline knots.   Ns = 6(1)                                            
   2 inflections.     1 extrema                                            
  498 points on ppm-axis = NY
      4.000000     3.992357     3.984714     3.977070     3.969427     3.961784     3.954141     3.946497     3.938854     3.931211
      3.923568     3.915925     3.908281     3.900638     3.892995     3.885352     3.877708     3.870065     3.862422     3.854779
      3.847136     3.839492     3.831849     3.824206     3.816563     3.808919     3.801276     3.793633     3.785990     3.778347
      3.770703     3.763060     3.755417     3.747774     3.740130     3.732487     3.724844     3.717201     3.709558     3.701914
      3.694271     3.686628     3.678985     3.671341     3.663698     3.656055     3.648412     3.640769     3.633125     3.625482
      3.617839     3.610196     3.602552     3.594909     3.587266     3.579623     3.571980     3.564336     3.556693     3.549050
      3.541407     3.533763     3.526120     3.518477     3.510834     3.503191     3.495547     3.487904     3.480261     3.472618
      3.464974     3.457331     3.449688     3.442045     3.434402     3.426758     3.419115     3.411472     3.403829     3.396185
      3.388542     3.380899     3.373256     3.365613     3.357969     3.350326     3.342683     3.335040     3.327396     3.319753
      3.312110     3.304467     3.296824     3.289180     3.281537     3.273894     3.266251     3.258607     3.250964     3.243321
      3.235678     3.228034     3.220391     3.212748     3.205105     3.197462     3.189818     3.182175     3.174532     3.166889
      3.159245     3.151602     3.143959     3.136316     3.128673     3.121029     3.113386     3.105743     3.098100     3.090456
      3.082813     3.075170     3.067527     3.059884     3.052240     3.044597     3.036954     3.029311     3.021667     3.014024
      3.006381     2.998738     2.991095     2.983451     2.975808     2.968165     2.960522     2.952878     2.945235     2.937592
      2.929949     2.922306     2.914662     2.907019     2.899376     2.891733     2.884089     2.876446     2.868803     2.861160
      2.853517     2.845873     2.838230     2.830587     2.822944     2.815300     2.807657     2.800014     2.792371     2.784728
      2.777084     2.769441     2.761798     2.754155     2.746511     2.738868     2.731225     2.723582     2.715939     2.708295
      2.700652     2.693009     2.685366     2.677722     2.670079     2.662436     2.654793     2.647150     2.639506     2.631863
      2.624220     2.616577     2.608933     2.601290     2.593647     2.586004     2.578361     2.570717     2.563074     2.555431
      2.547788     2.540144     2.532501     2.524858     2.517215     2.509572     2.501928     2.494285     2.486642     2.478999
      2.471355     2.463712     2.456069     2.448426     2.440783     2.433139     2.425496     2.417853     2.410210     2.402566
      2.394923     2.387280     2.379637     2.371994     2.364350     2.356707     2.349064     2.341421     2.333777     2.326134
      2.318491     2.310848     2.303205     2.295561     2.287918     2.280275     2.272632     2.264988     2.257345     2.249702
      2.242059     2.234416     2.226772     2.219129     2.211486     2.203843     2.196199     2.188556     2.180913     2.173270
      2.165627     2.157983     2.150340     2.142697     2.135054     2.127410     2.119767     2.112124     2.104481     2.096838
      2.089194     2.081551     2.073908     2.066265     2.058621     2.050978     2.043335     2.035692     2.028049     2.020405
      2.012762     2.005119     1.997476     1.989833     1.982190     1.974546     1.966903     1.959260     1.951617     1.943974
      1.936331     1.928688     1.921045     1.913402     1.905759     1.898115     1.890472     1.882829     1.875186     1.867543
      1.859900     1.852257     1.844614     1.836971     1.829327     1.821684     1.814041     1.806398     1.798755     1.791112
      1.783469     1.775826     1.768183     1.760540     1.752896     1.745253     1.737610     1.729967     1.722324     1.714681
      1.707038     1.699395     1.691752     1.684108     1.676465     1.668822     1.661179     1.653536     1.645893     1.638250
      1.630607     1.622964     1.615321     1.607677     1.600034     1.592391     1.584748     1.577105     1.569462     1.561819
      1.554176     1.546533     1.538890     1.531246     1.523603     1.515960     1.508317     1.500674     1.493031     1.485388
      1.477745     1.470102     1.462458     1.454815     1.447172     1.439529     1.431886     1.424243     1.416600     1.408957
      1.401314     1.393671     1.386027     1.378384     1.370741     1.363098     1.355455     1.347812     1.340169     1.332526
      1.324883     1.317240     1.309596     1.301953     1.294310     1.286667     1.279024     1.271381     1.263738     1.256095
      1.248452     1.240808     1.233165     1.225522     1.217879     1.210236     1.202593     1.194950     1.187307     1.179664
      1.172021     1.164377     1.156734     1.149091     1.141448     1.133805     1.126162     1.118519     1.110876     1.103233
      1.095590     1.087946     1.080303     1.072660     1.065017     1.057374     1.049731     1.042088     1.034445     1.026802
      1.019158     1.011515     1.003872     0.996229     0.988586     0.980943     0.973300     0.965657     0.958014     0.950371
      0.942727     0.935084     0.927441     0.919798     0.912155     0.904512     0.896869     0.889226     0.881583     0.873940
      0.866296     0.858653     0.851010     0.843367     0.835724     0.828081     0.820438     0.812795     0.805152     0.797508
      0.789865     0.782222     0.774579     0.766936     0.759293     0.751650     0.744007     0.736364     0.728721     0.721077
      0.713434     0.705791     0.698148     0.690505     0.682862     0.675219     0.667576     0.659933     0.652290     0.644646
      0.637003     0.629360     0.621717     0.614074     0.606431     0.598788     0.591145     0.583502     0.575858     0.568215
      0.560572     0.552929     0.545286     0.537643     0.530000     0.522357     0.514714     0.507071     0.499427     0.491784
      0.484141     0.476498     0.468855     0.461212     0.453569     0.445925     0.438282     0.430639     0.422996     0.415353
      0.407710     0.400067     0.392424     0.384780     0.377137     0.369494     0.361851     0.354208     0.346565     0.338922
      0.331278     0.323635     0.315992     0.308349     0.300706     0.293063     0.285420     0.277777     0.270133     0.262490
      0.254847     0.247204     0.239561     0.231918     0.224275     0.216631     0.208988     0.201345
 NY phased data points follow
  -2.12840E+00  4.42740E+00  7.58586E+00  4.35353E+00 -4.92612E+00  4.08556E+00  1.07508E+00  8.31293E+00  1.00083E+01  6.67156E+00
   4.61485E+00  5.97442E+00  3.20698E-01  2.77768E+00  8.95883E+00  1.83977E+00  8.81243E+00  6.66501E+00  9.78449E+00  8.20478E+00
   4.50816E+00  6.94546E+00  9.52139E+00  2.13024E+00  5.06251E+00  1.24118E+01  5.25253E+00  1.14872E+00  9.14113E+00  4.73333E+00
   7.29865E+00  1.10896E+00  1.66829E+00  1.44491E+01  4.84216E+00  3.59054E+00  3.45792E+00  5.36839E+00  2.68400E+00  8.31488E+00
   1.25851E+01  5.15823E+00  2.13394E+00  7.28531E+00 -1.10061E+00  1.54133E+01  9.40861E+00  8.44939E+00  1.09547E+01  9.43700E+00
   7.65821E+00  4.28637E+00  4.10021E+00 -9.52111E-02  1.35080E+01  5.02212E+00  1.29897E+00  4.60549E+00  7.12062E+00  3.81272E+00
   8.51699E+00 -5.81636E+00 -7.14583E+00  1.83067E+00  6.92748E+00 -1.60064E+00 -3.06923E+00  8.63592E+00  8.14137E-01  4.67393E+00
   8.34957E+00  6.39688E+00 -1.42070E+00  5.81764E+00  4.43092E+00  8.15069E+00  7.11809E-02  1.02899E+01 -1.52822E+00 -4.40105E-01
   7.67189E+00  4.64073E+00  4.92121E+00  4.78563E+00  1.23267E+01 -2.88840E+00  4.52815E+00 -1.99528E+00  8.39617E+00  1.91021E+01
   7.62914E+00  1.27332E+01  1.02279E+01  8.96932E+00  1.00684E+01 -5.76186E+00  1.69227E+01  8.92522E+00  1.65552E+01  6.80860E+00
   2.52297E+01  3.01289E+01  3.27900E+01  2.13553E+01  2.31572E+01  2.35228E+01  1.87713E+01  1.21700E+01  1.05063E+01  9.53137E+00
   3.50865E+00  1.42730E+01  9.72645E+00  7.90611E+00  1.17847E+01  1.15267E+01  5.37492E+00  1.06191E+01  7.12325E+00  9.76827E+00
   1.00434E+01  3.06359E+00  4.26963E+00  2.09656E+01  2.76570E+01  2.48409E+01  3.10300E+01  3.87394E+01  3.71734E+01  3.47535E+01
   1.97553E+01  2.37368E+01  9.29682E+00  1.73586E+01  1.52916E+01  1.15217E+01  1.22197E+01  8.19204E+00  8.08415E+00  1.07839E+01
   4.74464E+00  3.16982E+00  7.01323E+00  4.76882E+00  2.86769E+00  1.05351E+01  1.10036E+01  8.03513E+00  8.51522E+00  9.00453E+00
   9.04584E-01  1.31984E+01  9.15362E+00  4.22299E+00  1.08798E+01  1.65722E+00  7.72421E+00  8.80012E+00  9.25443E+00  9.70082E+00
   1.17345E+00 -1.54276E+00  2.27697E-01  2.34381E+00  7.88550E+00  5.51638E+00  4.30949E+00 -4.54588E+00 -4.18329E+00  2.21692E-01
  -1.15928E+01 -8.43995E+00 -1.12138E+01 -1.34500E+01 -2.31625E+01 -1.31597E+01 -1.55048E+01 -1.23793E+01  4.73193E-01 -6.94579E+00
  -1.55004E+01 -7.86556E+00 -9.15461E+00 -3.71879E+00 -8.32270E+00 -6.63500E+00 -6.62713E+00 -3.93601E+00 -3.69597E+00 -1.80209E+00
   2.41194E+00 -6.00865E-01  8.38647E+00  6.84760E+00 -2.01848E+00 -1.18535E+01 -2.95681E+00 -8.35962E+00 -6.92631E+00 -3.79510E+00
  -2.65713E+00  8.93147E+00  4.09572E+00  1.16174E+01  8.10818E+00  7.04967E+00  1.60922E+01  5.45578E+00  5.12384E-01 -2.21720E+00
   3.05080E+00  5.95071E+00  1.40258E+01  1.25812E+01  2.13090E+01  2.80972E+01  2.28860E+01  2.82579E+01  9.90468E+00  9.43212E+00
   2.82721E+00  2.05500E+00 -4.47719E+00  6.04602E+00  1.02527E+01  1.80289E+00  1.46734E+01  1.75941E+01  1.65162E+01  1.21005E+01
   1.23664E+01  1.79529E+01  1.92117E+01  1.79019E+01  1.98412E+01  1.24293E+01  1.69810E+01  2.11318E+01  1.89729E+01  1.16077E+01
   1.54120E+01  1.35461E+01  8.70632E+00  2.10434E+01  9.29103E+00  1.74173E+01  2.52312E+01  3.13322E+01  2.67909E+01  2.66109E+01
   2.07082E+01  2.54332E+01  3.15309E+01  3.96608E+01  3.64898E+01  5.25775E+01  5.71390E+01  8.68305E+01  1.26124E+02  1.57257E+02
   1.54494E+02  1.46370E+02  1.29891E+02  1.04094E+02  8.16936E+01  5.07425E+01  4.65561E+01  3.82523E+01  2.82064E+01  2.29446E+01
   2.40997E+01  1.19772E+01  1.63100E+01  1.26347E+01  7.61769E+00  1.47457E+01  9.54239E+00  5.80253E+00  8.60365E-01  9.67974E-02
   8.17461E+00  8.05017E+00  3.65543E+00  1.27070E+01  7.81022E+00  1.00502E+01  6.44959E+00  1.18730E+01  1.10016E+00  3.46986E+00
  -4.61964E+00  5.06930E+00  3.46065E+00  1.19735E+01  2.99851E-01  5.90600E+00  5.53723E+00  2.69495E+00  9.12906E+00  8.27655E+00
   5.23448E+00  1.24509E+00  8.44876E+00  1.36278E+01  1.60000E+01  7.29824E+00  1.02025E+01  6.11803E+00  1.05016E+01  1.49999E+01
   5.21538E+00  3.25018E+00  1.76089E+01  1.63282E+01  8.14699E+00  1.65593E+01  7.38083E+00  8.90295E+00 -2.22971E+00  2.87524E+00
   6.03627E+00  6.82734E+00 -1.82492E+00  6.41635E+00  2.06900E+00  6.94965E+00  7.27933E+00  2.39995E+00  5.47320E+00  3.86182E+00
  -1.00869E+00  6.71453E+00  1.16907E+01  3.74056E+00  1.49295E+01  5.98499E+00  1.29991E+01  1.45485E+01  7.87198E+00  1.50527E+01
   2.32692E+00  1.22349E+01  1.71913E+01  1.63126E+01  1.88236E+01  2.36948E+01  3.23073E+01  1.53251E+01  2.32844E+01  1.68001E+01
   2.51893E+01  1.64117E+01  2.28397E+01  2.30217E+01  1.52173E+01  1.15678E+01  2.14926E+01  1.44042E+01  2.82559E+01  1.48264E+01
   9.04979E+00  1.77956E+01  1.57229E+01  8.57087E+00  1.75578E+01  4.23901E+00  7.47528E+00  1.36963E+01  1.75118E+01  7.82186E+00
   1.03777E+01  1.87659E+01  9.90804E+00  1.11107E+01  9.99510E+00  1.63367E+01  6.21034E+00  3.71595E+00  7.86398E+00  3.39700E+00
   1.84565E+00  8.50551E+00  5.06188E+00  1.20928E+01  8.66456E+00  9.56723E+00  1.09706E+01  1.39854E+01  6.80513E+00  8.69928E+00
   6.22648E+00  2.00097E+01  8.60676E+00  1.63673E+01  9.91075E+00  1.84186E+01  1.14388E+01  1.44753E+01  2.82016E+00  1.05190E+01
   1.01061E+01  5.60493E+00  5.86557E+00  9.56686E+00  8.43385E+00  1.08146E+01  1.30049E+01  1.56212E+01  9.62878E+00  9.61735E+00
   1.20349E+01  1.39833E+01  9.18391E+00  6.10816E+00  9.72112E+00  1.41695E+01  8.03773E+00  1.08056E+00  6.73392E+00  1.29481E+01
   9.96334E+00  4.64729E+00  1.81975E+00 -5.51942E+00  1.03506E+01 -2.61520E+00  1.41557E+01 -2.38276E+00 -1.30570E+00  1.27932E+00
   7.50875E-01  6.22768E+00  2.31933E+00 -1.82063E-02  8.49260E+00  5.12101E+00  3.09528E+00  6.22196E+00  4.89282E+00  8.08675E+00
   3.17768E+00 -6.64519E+00 -2.22318E+00  6.62070E+00 -6.91923E-01  3.09260E+00 -2.33436E+00  8.01531E+00  1.79179E-01 -2.22603E+00
   3.39343E+00 -3.80506E-02 -4.38886E+00 -4.58373E+00 -6.99516E+00  4.70496E+00  1.43364E+00  3.32932E-01  1.81229E-01 -7.93775E+00
  -2.32183E+00  1.22738E+00 -1.58069E+00 -1.10357E+00 -3.47155E+00 -3.67151E+00  4.34395E+00  7.07091E-01  3.19688E+00  3.83825E+00
  -2.46713E+00  3.47292E+00  2.10936E+00  2.93051E+00  3.92203E+00  3.12565E+00 -8.45013E-02 -3.76945E+00  2.00483E+00  2.86668E+00
   2.20863E+00  2.91557E+00 -6.32615E-01  9.38736E-02 -1.09911E+00 -2.83656E-01  8.13296E+00  5.30462E+00 -4.48724E+00  1.87715E+00
  -1.80469E+00 -2.30706E+00  2.46024E+00 -1.05174E+00 -4.14026E+00 -1.47204E+00 -1.57546E+00 -2.64970E+00
 NY points of the fit to the data follow
   2.53160E+00  2.54000E+00  2.65269E+00  2.85914E+00  3.31900E+00  4.10956E+00  5.30666E+00  6.76598E+00  8.05095E+00  8.75847E+00
   8.81940E+00  8.39906E+00  7.70913E+00  6.94049E+00  6.27453E+00  5.78095E+00  5.34232E+00  4.92469E+00  4.85296E+00  4.98052E+00
   5.22344E+00  5.54897E+00  5.78839E+00  5.74549E+00  5.32560E+00  4.59781E+00  3.96227E+00  3.99036E+00  4.98247E+00  6.88616E+00
   9.28445E+00  1.14805E+01  1.26589E+01  1.23183E+01  1.05736E+01  8.16235E+00  5.70548E+00  3.82681E+00  3.05701E+00  3.16410E+00
   3.75215E+00  4.50441E+00  5.23692E+00  5.97897E+00  6.61683E+00  7.10206E+00  7.35462E+00  7.27358E+00  6.90077E+00  6.35628E+00
   5.73370E+00  5.16411E+00  4.66548E+00  4.23616E+00  3.91202E+00  3.71779E+00  3.66296E+00  3.72422E+00  3.84554E+00  3.94573E+00
   3.98926E+00  3.99076E+00  3.98277E+00  4.01891E+00  4.09688E+00  4.15761E+00  4.14012E+00  4.03494E+00  3.86666E+00  3.73546E+00
   3.78534E+00  4.08688E+00  4.63616E+00  5.26843E+00  5.68331E+00  5.64235E+00  5.10738E+00  4.33488E+00  3.59719E+00  3.10585E+00
   3.07343E+00  3.55855E+00  4.39885E+00  5.48280E+00  6.60378E+00  7.32571E+00  7.46580E+00  7.16450E+00  6.58503E+00  5.81845E+00
   4.95427E+00  4.05516E+00  3.16520E+00  2.42021E+00  2.12483E+00  2.50997E+00  3.69053E+00  6.12284E+00  1.01385E+01  1.58089E+01
   2.21385E+01  2.71026E+01  2.91761E+01  2.83275E+01  2.54315E+01  2.14442E+01  1.73119E+01  1.38764E+01  1.12184E+01  8.78372E+00
   6.73203E+00  5.81169E+00  5.40903E+00  5.17115E+00  5.03059E+00  4.91944E+00  4.86079E+00  4.84641E+00  4.87964E+00  5.00307E+00
   5.39794E+00  6.77318E+00  9.95213E+00  1.54024E+01  2.26002E+01  2.95272E+01  3.38741E+01  3.47178E+01  3.26355E+01  2.87526E+01
   2.41735E+01  1.98164E+01  1.61665E+01  1.29356E+01  9.82158E+00  7.76722E+00  6.92789E+00  6.63107E+00  6.65414E+00  6.82747E+00
   6.98245E+00  7.04787E+00  7.01844E+00  6.87999E+00  6.66815E+00  6.42765E+00  6.17267E+00  5.92531E+00  5.68441E+00  5.44927E+00
   5.23564E+00  5.03771E+00  4.87729E+00  4.79280E+00  4.79370E+00  4.78797E+00  4.60137E+00  4.08011E+00  3.18925E+00  2.21366E+00
   1.61660E+00  1.65899E+00  2.21150E+00  2.82133E+00  3.04445E+00  2.71143E+00  1.93478E+00  9.90159E-01  1.55282E-01 -5.53011E-01
  -1.27883E+00 -2.15001E+00 -3.22903E+00 -4.26822E+00 -4.91814E+00 -5.03504E+00 -4.68407E+00 -4.20350E+00 -3.92243E+00 -3.85266E+00
  -3.80554E+00 -3.71443E+00 -3.64324E+00 -3.56333E+00 -3.43124E+00 -3.07552E+00 -2.06126E+00 -3.42115E-01  1.74058E+00  3.66044E+00
   4.98358E+00  5.70597E+00  5.96140E+00  5.96900E+00  5.91452E+00  5.71185E+00  5.33609E+00  5.11949E+00  5.30602E+00  6.03237E+00
   7.33184E+00  9.02368E+00  1.06043E+01  1.14504E+01  1.09934E+01  9.20785E+00  6.36361E+00  2.95983E+00 -1.75529E-01 -2.22145E+00
  -2.65381E+00 -1.15666E+00  2.36621E+00  7.26872E+00  1.20220E+01  1.50320E+01  1.54705E+01  1.33625E+01  8.97733E+00  3.47164E+00
  -1.45998E+00 -4.39580E+00 -4.69910E+00 -2.68138E+00  9.86001E-01  5.41990E+00  9.37255E+00  1.21881E+01  1.37789E+01  1.45324E+01
   1.47471E+01  1.44963E+01  1.41273E+01  1.41480E+01  1.46773E+01  1.56007E+01  1.66530E+01  1.74674E+01  1.78429E+01  1.76860E+01
   1.71424E+01  1.67120E+01  1.68919E+01  1.77414E+01  1.89453E+01  2.02887E+01  2.15255E+01  2.24331E+01  2.30215E+01  2.36337E+01
   2.47917E+01  2.66456E+01  2.92514E+01  3.25967E+01  3.77515E+01  4.80770E+01  6.65200E+01  9.39603E+01  1.24825E+02  1.48209E+02
   1.56079E+02  1.48334E+02  1.29608E+02  1.05419E+02  8.12463E+01  6.11123E+01  4.56381E+01  3.20552E+01  2.08812E+01  1.59525E+01
   1.40042E+01  1.28874E+01  1.22189E+01  1.18053E+01  1.13965E+01  1.09350E+01  1.04043E+01  9.80039E+00  9.16061E+00  8.55363E+00
   8.00593E+00  7.52546E+00  7.13421E+00  6.83652E+00  6.60704E+00  6.41691E+00  6.25464E+00  6.13107E+00  6.05831E+00  6.02997E+00
   6.04805E+00  6.11510E+00  6.22438E+00  6.36579E+00  6.53396E+00  6.72443E+00  6.93295E+00  7.15754E+00  7.39587E+00  7.64210E+00
   7.89061E+00  8.13274E+00  8.35580E+00  8.54820E+00  8.70096E+00  8.80987E+00  8.87205E+00  8.88497E+00  8.85018E+00  8.77172E+00
   8.65383E+00  8.50353E+00  8.32901E+00  8.13884E+00  7.94176E+00  7.74741E+00  7.56520E+00  7.40494E+00  7.27569E+00  7.18752E+00
   7.15394E+00  7.19581E+00  7.31349E+00  7.47730E+00  7.62324E+00  7.67302E+00  7.59919E+00  7.45128E+00  7.30563E+00  7.23574E+00
   7.31119E+00  7.59261E+00  8.10818E+00  8.80408E+00  9.57976E+00  1.03674E+01  1.10954E+01  1.17282E+01  1.22890E+01  1.28174E+01
   1.33561E+01  1.39208E+01  1.44881E+01  1.50699E+01  1.56795E+01  1.62764E+01  1.68324E+01  1.73394E+01  1.77981E+01  1.82110E+01
   1.85794E+01  1.89033E+01  1.91749E+01  1.93714E+01  1.94652E+01  1.94427E+01  1.92947E+01  1.90181E+01  1.86237E+01  1.81285E+01
   1.75509E+01  1.69051E+01  1.62019E+01  1.54634E+01  1.47070E+01  1.39443E+01  1.31871E+01  1.24473E+01  1.17353E+01  1.10601E+01
   1.04286E+01  9.84689E+00  9.31919E+00  8.84882E+00  8.43752E+00  8.08648E+00  7.79587E+00  7.56586E+00  7.39594E+00  7.28572E+00
   7.23415E+00  7.24044E+00  7.30335E+00  7.42196E+00  7.59470E+00  7.81992E+00  8.09496E+00  8.41695E+00  8.78187E+00  9.18520E+00
   9.62092E+00  1.00821E+01  1.05603E+01  1.10464E+01  1.15298E+01  1.19998E+01  1.24444E+01  1.28520E+01  1.32108E+01  1.35100E+01
   1.37398E+01  1.38921E+01  1.39605E+01  1.39410E+01  1.38317E+01  1.36336E+01  1.33500E+01  1.29866E+01  1.25508E+01  1.20522E+01
   1.15009E+01  1.09086E+01  1.02869E+01  9.64727E+00  9.00049E+00  8.35674E+00  7.72476E+00  7.11240E+00  6.52561E+00  5.96926E+00
   5.44643E+00  4.95935E+00  4.50883E+00  4.09509E+00  3.71708E+00  3.37348E+00  3.06217E+00  2.78116E+00  2.52800E+00  2.30048E+00
   2.09599E+00  1.91235E+00  1.74716E+00  1.59865E+00  1.46483E+00  1.34421E+00  1.23505E+00  1.13615E+00  1.04615E+00  9.64278E-01
   8.89463E-01  8.21073E-01  7.58150E-01  7.00251E-01  6.46692E-01  5.97252E-01  5.51338E-01  5.08728E-01  4.68861E-01  4.31657E-01
   3.96737E-01  3.64118E-01  3.33401E-01  3.04544E-01  2.77177E-01  2.51384E-01  2.26909E-01  2.03846E-01  1.81860E-01  1.60997E-01
   1.40987E-01  1.21999E-01  1.03830E-01  8.65956E-02  6.99962E-02  5.41321E-02  3.87946E-02  2.41853E-02  1.01051E-02 -3.32645E-03
  -1.63798E-02 -2.89070E-02 -4.10709E-02 -5.26576E-02 -6.38765E-02 -7.46147E-02 -8.51177E-02 -9.52023E-02 -1.05013E-01 -1.14347E-01
  -1.23424E-01 -1.32124E-01 -1.40659E-01 -1.48813E-01 -1.56719E-01 -1.64191E-01 -1.71459E-01 -1.78388E-01 -1.85153E-01 -1.91517E-01
  -1.97616E-01 -2.03277E-01 -2.08728E-01 -2.13801E-01 -2.18631E-01 -2.22958E-01 -2.26920E-01 -2.30345E-01
 NY background values follow
     2.977E+00    2.972E+00    2.967E+00    2.962E+00    2.957E+00    2.952E+00    2.948E+00    2.943E+00    2.938E+00    2.933E+00
     2.928E+00    2.923E+00    2.918E+00    2.913E+00    2.908E+00    2.903E+00    2.898E+00    2.893E+00    2.888E+00    2.883E+00
     2.879E+00    2.874E+00    2.869E+00    2.864E+00    2.859E+00    2.854E+00    2.849E+00    2.844E+00    2.839E+00    2.834E+00
     2.829E+00    2.824E+00    2.819E+00    2.814E+00    2.809E+00    2.804E+00    2.799E+00    2.794E+00    2.789E+00    2.784E+00
     2.779E+00    2.774E+00    2.769E+00    2.764E+00    2.759E+00    2.754E+00    2.749E+00    2.744E+00    2.739E+00    2.734E+00
     2.729E+00    2.724E+00    2.719E+00    2.714E+00    2.709E+00    2.704E+00    2.699E+00    2.694E+00    2.689E+00    2.684E+00
     2.678E+00    2.673E+00    2.668E+00    2.663E+00    2.658E+00    2.653E+00    2.648E+00    2.643E+00    2.638E+00    2.633E+00
     2.628E+00    2.623E+00    2.618E+00    2.613E+00    2.608E+00    2.602E+00    2.597E+00    2.592E+00    2.587E+00    2.582E+00
     2.577E+00    2.572E+00    2.567E+00    2.562E+00    2.557E+00    2.551E+00    2.546E+00    2.541E+00    2.536E+00    2.531E+00
     2.526E+00    2.521E+00    2.516E+00    2.511E+00    2.505E+00    2.500E+00    2.495E+00    2.490E+00    2.485E+00    2.480E+00
     2.475E+00    2.469E+00    2.464E+00    2.459E+00    2.454E+00    2.449E+00    2.444E+00    2.439E+00    2.433E+00    2.428E+00
     2.423E+00    2.418E+00    2.413E+00    2.408E+00    2.402E+00    2.397E+00    2.392E+00    2.387E+00    2.382E+00    2.377E+00
     2.371E+00    2.366E+00    2.361E+00    2.356E+00    2.351E+00    2.345E+00    2.340E+00    2.335E+00    2.330E+00    2.325E+00
     2.320E+00    2.314E+00    2.309E+00    2.304E+00    2.299E+00    2.293E+00    2.288E+00    2.283E+00    2.278E+00    2.273E+00
     2.267E+00    2.262E+00    2.257E+00    2.252E+00    2.247E+00    2.241E+00    2.236E+00    2.231E+00    2.226E+00    2.220E+00
     2.215E+00    2.210E+00    2.205E+00    2.199E+00    2.194E+00    2.189E+00    2.184E+00    2.178E+00    2.173E+00    2.168E+00
     2.163E+00    2.157E+00    2.152E+00    2.147E+00    2.142E+00    2.136E+00    2.131E+00    2.126E+00    2.121E+00    2.115E+00
     2.110E+00    2.105E+00    2.100E+00    2.094E+00    2.089E+00    2.084E+00    2.079E+00    2.073E+00    2.068E+00    2.063E+00
     2.057E+00    2.052E+00    2.047E+00    2.042E+00    2.036E+00    2.031E+00    2.026E+00    2.020E+00    2.015E+00    2.010E+00
     2.005E+00    1.999E+00    1.994E+00    1.989E+00    1.983E+00    1.978E+00    1.973E+00    1.967E+00    1.962E+00    1.957E+00
     1.952E+00    1.946E+00    1.941E+00    1.936E+00    1.930E+00    1.925E+00    1.920E+00    1.914E+00    1.909E+00    1.904E+00
     1.898E+00    1.893E+00    1.888E+00    1.882E+00    1.877E+00    1.872E+00    1.867E+00    1.861E+00    1.856E+00    1.851E+00
     1.845E+00    1.840E+00    1.835E+00    1.829E+00    1.824E+00    1.819E+00    1.813E+00    1.808E+00    1.803E+00    1.797E+00
     1.792E+00    1.787E+00    1.781E+00    1.776E+00    1.771E+00    1.765E+00    1.760E+00    1.754E+00    1.749E+00    1.744E+00
     1.738E+00    1.733E+00    1.728E+00    1.722E+00    1.717E+00    1.712E+00    1.706E+00    1.701E+00    1.696E+00    1.690E+00
     1.685E+00    1.680E+00    1.674E+00    1.669E+00    1.663E+00    1.658E+00    1.653E+00    1.647E+00    1.642E+00    1.637E+00
     1.631E+00    1.626E+00    1.621E+00    1.615E+00    1.610E+00    1.604E+00    1.599E+00    1.594E+00    1.588E+00    1.583E+00
     1.578E+00    1.572E+00    1.567E+00    1.561E+00    1.556E+00    1.551E+00    1.545E+00    1.540E+00    1.535E+00    1.529E+00
     1.524E+00    1.518E+00    1.513E+00    1.508E+00    1.502E+00    1.497E+00    1.492E+00    1.486E+00    1.481E+00    1.475E+00
     1.470E+00    1.465E+00    1.459E+00    1.454E+00    1.448E+00    1.443E+00    1.438E+00    1.432E+00    1.427E+00    1.422E+00
     1.416E+00    1.411E+00    1.405E+00    1.400E+00    1.395E+00    1.389E+00    1.384E+00    1.378E+00    1.373E+00    1.368E+00
     1.362E+00    1.357E+00    1.351E+00    1.346E+00    1.341E+00    1.335E+00    1.330E+00    1.324E+00    1.319E+00    1.314E+00
     1.308E+00    1.303E+00    1.297E+00    1.292E+00    1.287E+00    1.281E+00    1.276E+00    1.270E+00    1.265E+00    1.260E+00
     1.254E+00    1.249E+00    1.243E+00    1.238E+00    1.233E+00    1.227E+00    1.222E+00    1.216E+00    1.211E+00    1.206E+00
     1.200E+00    1.195E+00    1.189E+00    1.184E+00    1.179E+00    1.173E+00    1.168E+00    1.162E+00    1.157E+00    1.152E+00
     1.146E+00    1.141E+00    1.135E+00    1.130E+00    1.125E+00    1.119E+00    1.114E+00    1.108E+00    1.103E+00    1.098E+00
     1.092E+00    1.087E+00    1.082E+00    1.076E+00    1.071E+00    1.065E+00    1.060E+00    1.055E+00    1.049E+00    1.044E+00
     1.038E+00    1.033E+00    1.028E+00    1.022E+00    1.017E+00    1.011E+00    1.006E+00    1.001E+00    9.951E-01    9.897E-01
     9.843E-01    9.789E-01    9.735E-01    9.681E-01    9.628E-01    9.574E-01    9.520E-01    9.466E-01    9.412E-01    9.358E-01
     9.304E-01    9.250E-01    9.196E-01    9.142E-01    9.088E-01    9.034E-01    8.980E-01    8.926E-01    8.873E-01    8.819E-01
     8.765E-01    8.711E-01    8.657E-01    8.603E-01    8.549E-01    8.495E-01    8.441E-01    8.388E-01    8.334E-01    8.280E-01
     8.226E-01    8.172E-01    8.118E-01    8.064E-01    8.011E-01    7.957E-01    7.903E-01    7.849E-01    7.795E-01    7.741E-01
     7.688E-01    7.634E-01    7.580E-01    7.526E-01    7.472E-01    7.419E-01    7.365E-01    7.311E-01    7.257E-01    7.204E-01
     7.150E-01    7.096E-01    7.042E-01    6.989E-01    6.935E-01    6.881E-01    6.828E-01    6.774E-01    6.720E-01    6.666E-01
     6.613E-01    6.559E-01    6.505E-01    6.452E-01    6.398E-01    6.345E-01    6.291E-01    6.237E-01    6.184E-01    6.130E-01
     6.076E-01    6.023E-01    5.969E-01    5.916E-01    5.862E-01    5.809E-01    5.755E-01    5.701E-01    5.648E-01    5.594E-01
     5.541E-01    5.487E-01    5.434E-01    5.380E-01    5.327E-01    5.273E-01    5.220E-01    5.166E-01    5.113E-01    5.060E-01
     5.006E-01    4.953E-01    4.899E-01    4.846E-01    4.793E-01    4.739E-01    4.686E-01    4.632E-01    4.579E-01    4.526E-01
     4.472E-01    4.419E-01    4.366E-01    4.312E-01    4.259E-01    4.206E-01    4.153E-01    4.099E-01    4.046E-01    3.993E-01
     3.940E-01    3.886E-01    3.833E-01    3.780E-01    3.727E-01    3.674E-01    3.621E-01    3.567E-01
 Ala      Conc. = 6.67E+01
