 LCModel (Version 6.3-1L) Copyright: S.W. Provencher.          Ref.: Magn. Reson. Med. 30:672-679 (1993).                
 Slice#2 Row#7 Col#2  PD_05_press_2_raw_act
 36 lines in following concentration table = NCONC+1
    Conc.  %SD /Cr+PCr  Metabolite                                         
  713.403  46%   0.195 Ala                                                 
    0.000 999%   0.000 Asp                                                 
 1.73E+03  35%   0.472 Cr                                                  
 1.93E+03  32%   0.528 PCr                                                 
  225.788 177% 6.2E-02 GABA                                                
    0.000 999%   0.000 Glc                                                 
 2.20E+03  30%   0.602 Gln                                                 
 4.51E+03  17%   1.232 Glu                                                 
 1.08E+03   5%   0.296 GPC                                                 
    0.000 999%   0.000 PCh                                                 
 1.37E+03  13%   0.374 GSH                                                 
 2.28E+03  27%   0.624 Ins                                                 
  320.280 122% 8.8E-02 Lac                                                 
 6.20E+03   6%   1.694 NAA                                                 
  368.786 105%   0.101 NAAG                                                
  104.936  60% 2.9E-02 Scyllo                                              
    0.000 999%   0.000 Tau                                                 
    0.000 999%   0.000 -CrCH2                                              
 1.08E+03   5%   0.296 GPC+PCh                                             
 6.57E+03   3%   1.794 NAA+NAAG                                            
 3.66E+03   4%   1.000 Cr+PCr                                              
 6.71E+03  17%   1.834 Glu+Gln                                             
    0.000 999%   0.000 Lip13a                                              
  977.775  44%   0.267 Lip13b                                              
    0.000 999%   0.000 Lip09                                               
 3.17E+03  13%   0.866 MM09                                                
  234.158  87% 6.4E-02 Lip20                                               
 6.15E+03  12%   1.679 MM20                                                
  954.853  21%   0.261 MM12                                                
 4.54E+03  13%   1.240 MM14                                                
 2.04E+03  20%   0.559 MM17                                                
  977.775  44%   0.267 Lip13a+Lip13b                                       
 6.47E+03  11%   1.768 MM14+Lip13a+Lip13b+MM12                             
 3.17E+03  13%   0.866 MM09+Lip09                                          
 6.38E+03  12%   1.743 MM20+Lip20                                          
   6 lines in following misc. output table
  FWHM = 0.061 ppm    S/N =  13                                            
  Data shift = 0.008 ppm                                                   
  Ph: -25 deg     -10.5 deg/ppm                                            
  alphaB,S = 1.4E+00,   1.1E+02                                            
   14 spline knots.   Ns = 8(1)                                            
  (14) 3 infls.   (15) 1 extrs.                                            
  498 points on ppm-axis = NY
      4.000000     3.992357     3.984714     3.977070     3.969427     3.961784     3.954141     3.946497     3.938854     3.931211
      3.923568     3.915925     3.908281     3.900638     3.892995     3.885352     3.877708     3.870065     3.862422     3.854779
      3.847136     3.839492     3.831849     3.824206     3.816563     3.808919     3.801276     3.793633     3.785990     3.778347
      3.770703     3.763060     3.755417     3.747774     3.740130     3.732487     3.724844     3.717201     3.709558     3.701914
      3.694271     3.686628     3.678985     3.671341     3.663698     3.656055     3.648412     3.640769     3.633125     3.625482
      3.617839     3.610196     3.602552     3.594909     3.587266     3.579623     3.571980     3.564336     3.556693     3.549050
      3.541407     3.533763     3.526120     3.518477     3.510834     3.503191     3.495547     3.487904     3.480261     3.472618
      3.464974     3.457331     3.449688     3.442045     3.434402     3.426758     3.419115     3.411472     3.403829     3.396185
      3.388542     3.380899     3.373256     3.365613     3.357969     3.350326     3.342683     3.335040     3.327396     3.319753
      3.312110     3.304467     3.296824     3.289180     3.281537     3.273894     3.266251     3.258607     3.250964     3.243321
      3.235678     3.228034     3.220391     3.212748     3.205105     3.197462     3.189818     3.182175     3.174532     3.166889
      3.159245     3.151602     3.143959     3.136316     3.128673     3.121029     3.113386     3.105743     3.098100     3.090456
      3.082813     3.075170     3.067527     3.059884     3.052240     3.044597     3.036954     3.029311     3.021667     3.014024
      3.006381     2.998738     2.991095     2.983451     2.975808     2.968165     2.960522     2.952878     2.945235     2.937592
      2.929949     2.922306     2.914662     2.907019     2.899376     2.891733     2.884089     2.876446     2.868803     2.861160
      2.853517     2.845873     2.838230     2.830587     2.822944     2.815300     2.807657     2.800014     2.792371     2.784728
      2.777084     2.769441     2.761798     2.754155     2.746511     2.738868     2.731225     2.723582     2.715939     2.708295
      2.700652     2.693009     2.685366     2.677722     2.670079     2.662436     2.654793     2.647150     2.639506     2.631863
      2.624220     2.616577     2.608933     2.601290     2.593647     2.586004     2.578361     2.570717     2.563074     2.555431
      2.547788     2.540144     2.532501     2.524858     2.517215     2.509572     2.501928     2.494285     2.486642     2.478999
      2.471355     2.463712     2.456069     2.448426     2.440783     2.433139     2.425496     2.417853     2.410210     2.402566
      2.394923     2.387280     2.379637     2.371994     2.364350     2.356707     2.349064     2.341421     2.333777     2.326134
      2.318491     2.310848     2.303205     2.295561     2.287918     2.280275     2.272632     2.264988     2.257345     2.249702
      2.242059     2.234416     2.226772     2.219129     2.211486     2.203843     2.196199     2.188556     2.180913     2.173270
      2.165627     2.157983     2.150340     2.142697     2.135054     2.127410     2.119767     2.112124     2.104481     2.096838
      2.089194     2.081551     2.073908     2.066265     2.058621     2.050978     2.043335     2.035692     2.028049     2.020405
      2.012762     2.005119     1.997476     1.989833     1.982190     1.974546     1.966903     1.959260     1.951617     1.943974
      1.936331     1.928688     1.921045     1.913402     1.905759     1.898115     1.890472     1.882829     1.875186     1.867543
      1.859900     1.852257     1.844614     1.836971     1.829327     1.821684     1.814041     1.806398     1.798755     1.791112
      1.783469     1.775826     1.768183     1.760540     1.752896     1.745253     1.737610     1.729967     1.722324     1.714681
      1.707038     1.699395     1.691752     1.684108     1.676465     1.668822     1.661179     1.653536     1.645893     1.638250
      1.630607     1.622964     1.615321     1.607677     1.600034     1.592391     1.584748     1.577105     1.569462     1.561819
      1.554176     1.546533     1.538890     1.531246     1.523603     1.515960     1.508317     1.500674     1.493031     1.485388
      1.477745     1.470102     1.462458     1.454815     1.447172     1.439529     1.431886     1.424243     1.416600     1.408957
      1.401314     1.393671     1.386027     1.378384     1.370741     1.363098     1.355455     1.347812     1.340169     1.332526
      1.324883     1.317240     1.309596     1.301953     1.294310     1.286667     1.279024     1.271381     1.263738     1.256095
      1.248452     1.240808     1.233165     1.225522     1.217879     1.210236     1.202593     1.194950     1.187307     1.179664
      1.172021     1.164377     1.156734     1.149091     1.141448     1.133805     1.126162     1.118519     1.110876     1.103233
      1.095590     1.087946     1.080303     1.072660     1.065017     1.057374     1.049731     1.042088     1.034445     1.026802
      1.019158     1.011515     1.003872     0.996229     0.988586     0.980943     0.973300     0.965657     0.958014     0.950371
      0.942727     0.935084     0.927441     0.919798     0.912155     0.904512     0.896869     0.889226     0.881583     0.873940
      0.866296     0.858653     0.851010     0.843367     0.835724     0.828081     0.820438     0.812795     0.805152     0.797508
      0.789865     0.782222     0.774579     0.766936     0.759293     0.751650     0.744007     0.736364     0.728721     0.721077
      0.713434     0.705791     0.698148     0.690505     0.682862     0.675219     0.667576     0.659933     0.652290     0.644646
      0.637003     0.629360     0.621717     0.614074     0.606431     0.598788     0.591145     0.583502     0.575858     0.568215
      0.560572     0.552929     0.545286     0.537643     0.530000     0.522357     0.514714     0.507071     0.499427     0.491784
      0.484141     0.476498     0.468855     0.461212     0.453569     0.445925     0.438282     0.430639     0.422996     0.415353
      0.407710     0.400067     0.392424     0.384780     0.377137     0.369494     0.361851     0.354208     0.346565     0.338922
      0.331278     0.323635     0.315992     0.308349     0.300706     0.293063     0.285420     0.277777     0.270133     0.262490
      0.254847     0.247204     0.239561     0.231918     0.224275     0.216631     0.208988     0.201345
 NY phased data points follow
   1.94111E+01  1.99936E+01  2.39815E+01  4.01748E+01  3.03062E+01  5.61641E+01  5.69536E+01  7.71890E+01  7.14192E+01  7.91801E+01
   8.59815E+01  8.96349E+01  6.67735E+01  7.18215E+01  5.35330E+01  4.03224E+01  3.34531E+01  3.88803E+01  3.36192E+01  1.89451E+01
   1.84903E+01  2.84498E+01  2.06252E+01  3.07774E+01  2.46083E+01  2.69133E+01  2.77681E+01  2.87492E+01  2.80699E+01  4.12477E+01
   2.81616E+01  3.51256E+01  2.89040E+01  3.65227E+01  1.78154E+01  2.46415E+01  1.97475E+01  2.32832E+01  1.48195E+01  2.01274E+01
   1.63564E+01  2.70171E+01  1.34073E+01  2.67215E+01  2.59562E+01  3.43237E+01  3.21686E+01  3.08083E+01  2.55307E+01  2.39392E+01
   1.67609E+01  2.59267E+01  1.76113E+01  1.60966E+01  1.27301E+01  1.07540E+01  1.77790E+01  1.94752E+01  1.26312E+01  7.40470E+00
  -3.38870E+00  2.18048E+00 -8.31280E-01  1.58094E+00 -1.08768E+01 -3.51368E+00 -1.02100E+01  7.88814E+00 -4.83135E+00  1.25200E+00
   7.47482E-01  2.25211E+00 -1.33189E+00  2.05261E+00  2.75367E+00  1.68353E+00  3.22057E-01  1.98461E+00  2.90035E+00  7.11784E+00
   5.25411E+00 -2.70607E+00 -8.00800E+00  1.11429E+01  3.33148E+00  8.16961E+00  4.78768E+00  3.82288E+00  1.27858E+01  1.56586E+00
   4.54427E+00  8.33475E+00  6.93161E+00  1.52416E+01  2.05828E+01  1.86418E+01  2.63958E+01  2.62055E+01  3.16142E+01  5.00291E+01
   6.60889E+01  7.56050E+01  8.00710E+01  9.57760E+01  8.18675E+01  7.34271E+01  5.75241E+01  4.94320E+01  2.66020E+01  2.35828E+01
   2.41256E+01  1.05916E+01  9.75104E+00  1.83233E+01  7.35255E+00  1.20024E+01  9.31954E+00  1.49769E+01 -2.22881E+00  2.37339E+01
   2.03797E+01  2.37438E+01  3.57000E+01  5.32017E+01  8.28972E+01  9.52017E+01  1.03229E+02  1.10901E+02  1.01143E+02  9.03275E+01
   7.20307E+01  5.90119E+01  3.83085E+01  3.37097E+01  1.32647E+01  1.54313E+01  7.25917E+00  1.24695E+01  3.26897E+00  7.85011E+00
   2.85892E-01  5.57039E+00  6.61804E+00  1.66846E+00 -1.10449E+00  1.36509E+01 -1.14573E+00 -2.63194E-01 -4.81720E-01 -1.08202E+00
   1.24971E+00  7.42866E+00 -6.98760E-01 -8.58378E-01 -4.30072E+00 -1.17650E+01 -9.61491E+00  2.01312E+00 -4.44583E+00 -6.15388E+00
  -3.44738E+00 -1.40754E+01 -2.71795E+00 -7.11662E+00 -5.09097E-01 -1.81822E+00 -2.87424E+00 -6.46748E+00 -1.80712E+00 -1.02874E+01
  -7.02847E+00 -1.39553E+01 -2.85502E+01 -1.78386E+01 -3.44031E+01 -2.86535E+01 -2.20218E+01 -3.24459E+01 -2.65768E+01 -2.91481E+01
  -2.68366E+01 -3.30028E+01 -3.19819E+01 -3.09697E+01 -2.32964E+01 -1.98967E+01 -1.78236E+01 -1.95133E+01 -5.94578E-01 -1.86123E+00
   3.09522E+00  1.53042E+01  1.27724E+01  2.19189E+01  7.66368E+00  6.59299E+00  6.92473E+00 -3.29234E+00  6.03191E+00 -6.03106E+00
   9.35217E+00  1.18281E+01  2.04925E+00  7.45406E-03  5.90654E+00  1.02703E+01 -1.32298E+00 -8.41393E-01  1.64725E-01  1.63016E+00
  -2.41772E+00  1.06641E+01  1.03861E+01  2.51136E+01  1.88909E+01  2.63617E+01  1.48302E+01  2.04376E+01  1.19960E+01  1.83028E+01
   6.89765E+00  1.91833E+00  3.16961E-01 -1.78707E+00  4.78583E+00  1.52117E+01  1.90431E+01  2.45928E+01  2.31929E+01  1.08250E+01
   2.19350E+01  2.43264E+01  1.23916E+01  2.26123E+01  2.33930E+01  2.10178E+01  1.45986E+01  2.22097E+01  1.63455E+01  2.50005E+01
   1.89231E+01  1.51569E+01  1.28331E+01  2.00247E+01  2.04209E+01  1.26458E+01  2.56394E+01  3.96128E+01  3.25874E+01  3.57025E+01
   4.13297E+01  4.31023E+01  4.15316E+01  5.65123E+01  7.07206E+01  9.96552E+01  1.14898E+02  1.41763E+02  1.69079E+02  1.87546E+02
   2.04954E+02  1.96446E+02  1.75415E+02  1.49595E+02  1.24280E+02  1.00918E+02  7.32108E+01  5.90297E+01  3.46168E+01  3.96941E+01
   2.90525E+01  3.31406E+01  3.07228E+01  2.16346E+01  2.46029E+01  2.42543E+01  9.84509E+00  1.95019E+01  1.81949E+01  1.27164E+01
   1.13295E+01  9.77808E+00  8.36248E+00  8.42644E+00  1.40125E+01  1.05016E+01  3.19649E+00  9.25925E+00  7.54175E+00  1.07185E+01
   1.40678E+00  8.18472E+00  1.87828E+01  9.62749E+00  1.11245E+01  1.25794E+01  7.11008E+00  7.36706E+00  5.51859E+00  8.33479E+00
   9.50991E+00  1.33299E+01  1.35749E+01  1.71866E+01  1.16636E+01  2.22919E+01  1.88302E+01  2.15745E+01  3.16535E+01  1.97489E+01
   1.64928E+01  2.81019E+01  2.05215E+01  2.30655E+01  3.57152E+01  2.65773E+01  3.21932E+01  2.78550E+01  3.39877E+01  3.84134E+01
   4.09870E+01  3.52057E+01  3.91454E+01  4.03306E+01  4.52454E+01  3.89915E+01  4.63210E+01  3.84080E+01  3.85519E+01  4.18762E+01
   4.29440E+01  3.24106E+01  3.10648E+01  3.10058E+01  2.33027E+01  2.65819E+01  2.61557E+01  2.46900E+01  3.37481E+01  2.64046E+01
   3.59646E+01  2.01434E+01  1.43658E+01  1.66775E+01  2.35103E+01  1.42868E+01  2.13344E+01  1.38536E+01  1.36257E+01  1.45030E+01
   1.72928E+01  1.68290E+01  1.52019E+01  1.07118E+01  1.83353E+01  1.97979E+01  1.51992E+01  2.54483E+01  1.51925E+01  2.19803E+01
   2.35324E+01  2.17733E+01  2.17281E+01  1.06186E+01  1.48776E+01  4.18162E+00  7.74403E+00  1.37543E+01  9.45558E+00  1.96314E+01
   1.13493E+01  1.61652E+01  1.37372E+01  7.09513E+00  8.30693E+00  8.17628E+00  5.67198E+00  2.23750E+01  1.19445E+01  1.12105E+01
   6.93718E+00  7.40608E+00  1.30426E+01  1.19839E+01  1.45527E+01  1.17802E+01  1.41294E+01  1.64400E+01  5.18003E+00  1.78321E+01
   1.56748E+01  1.55437E+01  1.33337E+01  1.99230E+01  2.35563E+01  1.20449E+01  1.18279E+01  1.23554E+01  1.01291E+01  1.76571E+01
   1.09093E+01  4.05368E+00  1.26504E+01  1.17583E+01  1.48653E+01  8.14183E+00  7.13001E+00  2.23181E+01  5.80884E+00  1.42186E+01
   6.81236E+00  1.76558E+01  1.89146E-01  1.14303E+01  9.61616E+00  6.37610E+00  2.53405E+00  7.98180E+00  1.29530E+01  1.00740E+01
   2.30782E+00  1.26989E+01 -6.58325E-01  3.54355E+00  2.30402E+00  1.29546E+01  4.68940E-01  7.44189E+00  9.17646E-01  1.40129E+00
   1.00139E+00  9.83849E+00  7.79399E+00  7.58654E+00 -8.91647E-01  4.53177E+00 -3.28246E+00  6.83644E+00  7.94349E+00  2.97259E+00
  -6.36355E+00  6.34745E+00  3.40347E+00  2.62195E+00  6.02717E+00 -3.64720E+00  7.30089E-01  8.57526E+00  8.25692E+00  7.34973E+00
   8.11568E-02  6.62978E+00 -1.10292E-02 -1.88801E+00  4.68138E+00  1.60711E+00  1.14871E+01  8.61595E+00 -1.29092E+00  8.46083E+00
   2.34066E+00 -1.78428E+00  7.72321E+00  5.92116E+00  1.72352E+00  8.84620E-01 -1.50856E+00  5.00802E+00  2.50428E+00  2.01157E+00
   7.01315E-01 -1.81446E-01  4.20260E+00  9.21632E+00  1.43883E+01  1.74644E+00 -1.77983E+00  1.06241E+01  1.35660E+00 -2.54814E+00
   6.49938E+00  8.69410E-01 -1.09509E+00  1.26955E+00  2.48286E+00 -7.83966E+00  5.85305E+00  5.62854E+00 -3.84168E+00  1.45051E+01
   1.18602E+01  8.02985E+00 -6.03308E+00  1.45355E+01 -2.51332E+00  4.46234E+00  9.76929E+00  2.15683E+00
 NY points of the fit to the data follow
   1.83920E+01  2.03312E+01  2.40847E+01  2.95954E+01  3.68942E+01  4.55965E+01  5.55127E+01  6.57973E+01  7.49038E+01  8.08245E+01
   8.20849E+01  7.85543E+01  7.12031E+01  6.16836E+01  5.18304E+01  4.29970E+01  3.57055E+01  2.98383E+01  2.48615E+01  2.11473E+01
   1.83542E+01  1.69331E+01  1.75824E+01  1.86164E+01  1.98622E+01  2.19290E+01  2.53347E+01  2.97181E+01  3.42760E+01  3.81891E+01
   4.03872E+01  4.01965E+01  3.78358E+01  3.36271E+01  2.82541E+01  2.30221E+01  1.88701E+01  1.59496E+01  1.39269E+01  1.33118E+01
   1.44601E+01  1.60612E+01  1.79307E+01  2.00811E+01  2.23974E+01  2.43406E+01  2.52734E+01  2.48938E+01  2.31347E+01  2.03106E+01
   1.72656E+01  1.44797E+01  1.22511E+01  1.08514E+01  1.01521E+01  9.70559E+00  9.43995E+00  9.59813E+00  1.00205E+01  1.02185E+01
   9.94708E+00  9.25112E+00  8.27550E+00  7.29616E+00  6.56375E+00  6.19346E+00  6.21652E+00  6.50616E+00  6.89072E+00  7.30575E+00
   7.65507E+00  7.86996E+00  7.90276E+00  7.72797E+00  7.41295E+00  7.02907E+00  6.63122E+00  6.32475E+00  6.20428E+00  6.22399E+00
   6.14636E+00  6.04957E+00  6.09625E+00  6.18705E+00  6.14391E+00  5.88168E+00  5.42398E+00  4.85083E+00  4.38882E+00  4.20149E+00
   4.33877E+00  4.79761E+00  5.56095E+00  6.63166E+00  8.59834E+00  1.36244E+01  2.09578E+01  2.89327E+01  3.85693E+01  5.11197E+01
   6.54623E+01  7.85703E+01  8.74646E+01  8.96839E+01  8.44073E+01  7.34460E+01  5.99266E+01  4.63543E+01  3.44600E+01  2.53268E+01
   1.86248E+01  1.28216E+01  7.02306E+00  3.92103E+00  3.63851E+00  4.03514E+00  4.70550E+00  5.77743E+00  8.11314E+00  1.43707E+01
   2.35977E+01  3.35941E+01  4.55953E+01  6.10321E+01  7.85875E+01  9.48043E+01  1.06120E+02  1.09478E+02  1.03955E+02  9.16648E+01
   7.59612E+01  5.96630E+01  4.46781E+01  3.23288E+01  2.24862E+01  1.38182E+01  5.70720E+00  1.52167E+00  1.45195E+00  2.57959E+00
   3.85486E+00  4.73796E+00  4.99695E+00  4.86097E+00  4.54226E+00  4.00414E+00  3.33862E+00  2.60550E+00  1.78851E+00  9.92754E-01
   2.13764E-01 -4.12901E-01 -8.48095E-01 -1.28595E+00 -1.73102E+00 -2.07931E+00 -2.39405E+00 -2.75824E+00 -3.29563E+00 -3.98550E+00
  -4.58392E+00 -4.86291E+00 -4.80879E+00 -4.62561E+00 -4.59319E+00 -4.93632E+00 -5.69612E+00 -6.79006E+00 -8.07355E+00 -9.31124E+00
  -1.01821E+01 -1.09052E+01 -1.17788E+01 -1.28391E+01 -1.38262E+01 -1.42391E+01 -1.40832E+01 -1.37281E+01 -1.33833E+01 -1.32220E+01
  -1.31653E+01 -1.29022E+01 -1.23341E+01 -1.14398E+01 -1.00898E+01 -8.18782E+00 -5.81023E+00 -3.13495E+00 -2.86318E-01  2.32473E+00
   4.15176E+00  4.86879E+00  4.46835E+00  3.44588E+00  2.37153E+00  1.74903E+00  2.15340E+00  3.55591E+00  5.63896E+00  8.15355E+00
   1.07138E+01  1.27178E+01  1.35271E+01  1.31487E+01  1.13316E+01  7.88238E+00  3.38322E+00 -8.27999E-01 -3.47589E+00 -4.29686E+00
  -3.15793E+00  1.68157E-01  5.09994E+00  1.02343E+01  1.41274E+01  1.58218E+01  1.50715E+01  1.20253E+01  7.20720E+00  1.69782E+00
  -3.35226E+00 -6.18126E+00 -6.00890E+00 -3.47447E+00  4.27753E-01  4.77985E+00  9.18819E+00  1.26196E+01  1.45244E+01  1.55647E+01
   1.63704E+01  1.72918E+01  1.82692E+01  1.92255E+01  2.02050E+01  2.11572E+01  2.18770E+01  2.21456E+01  2.16232E+01  2.03571E+01
   1.89494E+01  1.77432E+01  1.70991E+01  1.75394E+01  1.91049E+01  2.12567E+01  2.33845E+01  2.56075E+01  2.80812E+01  3.06023E+01
   3.32963E+01  3.74165E+01  4.62647E+01  6.14134E+01  7.80287E+01  9.58144E+01  1.17606E+02  1.43517E+02  1.69455E+02  1.90052E+02
   2.00294E+02  1.96514E+02  1.79566E+02  1.54439E+02  1.26352E+02  9.93353E+01  7.67709E+01  5.96298E+01  4.55768E+01  3.18575E+01
   2.05291E+01  1.60110E+01  1.44447E+01  1.36364E+01  1.31624E+01  1.27596E+01  1.22062E+01  1.15503E+01  1.08365E+01  1.01182E+01
   9.44742E+00  8.87341E+00  8.38065E+00  7.96917E+00  7.67240E+00  7.48371E+00  7.37498E+00  7.32625E+00  7.33465E+00  7.41221E+00
   7.55892E+00  7.75337E+00  8.00431E+00  8.31857E+00  8.69222E+00  9.12354E+00  9.62114E+00  1.01871E+01  1.08172E+01  1.15100E+01
   1.22627E+01  1.30628E+01  1.39028E+01  1.47764E+01  1.56726E+01  1.65840E+01  1.75081E+01  1.84464E+01  1.94025E+01  2.03793E+01
   2.13844E+01  2.24278E+01  2.35190E+01  2.46692E+01  2.58893E+01  2.71884E+01  2.85765E+01  3.00683E+01  3.17006E+01  3.35691E+01
   3.55809E+01  3.73604E+01  3.89422E+01  4.03784E+01  4.14394E+01  4.17220E+01  4.09387E+01  3.91413E+01  3.68149E+01  3.42380E+01
   3.17322E+01  2.97250E+01  2.85622E+01  2.82933E+01  2.86448E+01  2.91518E+01  2.93349E+01  2.90751E+01  2.84734E+01  2.73727E+01
   2.58598E+01  2.41041E+01  2.24447E+01  2.10154E+01  1.95865E+01  1.79265E+01  1.63715E+01  1.50797E+01  1.40865E+01  1.34420E+01
   1.32943E+01  1.37694E+01  1.48542E+01  1.63691E+01  1.80141E+01  1.94253E+01  2.03219E+01  2.06942E+01  2.05602E+01  1.98783E+01
   1.88077E+01  1.75549E+01  1.62807E+01  1.50396E+01  1.38029E+01  1.27168E+01  1.18920E+01  1.12734E+01  1.08196E+01  1.04995E+01
   1.02863E+01  1.01579E+01  1.00975E+01  1.00932E+01  1.01380E+01  1.02281E+01  1.03622E+01  1.05407E+01  1.07644E+01  1.10346E+01
   1.13519E+01  1.17165E+01  1.21270E+01  1.25814E+01  1.30759E+01  1.36056E+01  1.41640E+01  1.47432E+01  1.53342E+01  1.59265E+01
   1.65089E+01  1.70698E+01  1.75969E+01  1.80782E+01  1.85022E+01  1.88581E+01  1.91366E+01  1.93299E+01  1.94324E+01  1.94401E+01
   1.93519E+01  1.91687E+01  1.88937E+01  1.85322E+01  1.80916E+01  1.75805E+01  1.70088E+01  1.63872E+01  1.57268E+01  1.50388E+01
   1.43337E+01  1.36217E+01  1.29120E+01  1.22127E+01  1.15307E+01  1.08719E+01  1.02407E+01  9.64034E+00  9.07324E+00  8.54067E+00
   8.04310E+00  7.58030E+00  7.15145E+00  6.75533E+00  6.39040E+00  6.05493E+00  5.74704E+00  5.46474E+00  5.20610E+00  4.96922E+00
   4.75231E+00  4.55367E+00  4.37169E+00  4.20485E+00  4.05179E+00  3.91126E+00  3.78215E+00  3.66344E+00  3.55417E+00  3.45350E+00
   3.36067E+00  3.27502E+00  3.19596E+00  3.12292E+00  3.05538E+00  2.99288E+00  2.93502E+00  2.88146E+00  2.83186E+00  2.78591E+00
   2.74333E+00  2.70386E+00  2.66730E+00  2.63346E+00  2.60216E+00  2.57319E+00  2.54640E+00  2.52165E+00  2.49882E+00  2.47779E+00
   2.45845E+00  2.44066E+00  2.42433E+00  2.40940E+00  2.39579E+00  2.38342E+00  2.37220E+00  2.36205E+00  2.35291E+00  2.34475E+00
   2.33752E+00  2.33118E+00  2.32564E+00  2.32086E+00  2.31682E+00  2.31349E+00  2.31084E+00  2.30881E+00  2.30734E+00  2.30642E+00
   2.30603E+00  2.30615E+00  2.30675E+00  2.30778E+00  2.30921E+00  2.31103E+00  2.31323E+00  2.31581E+00  2.31872E+00  2.32192E+00
   2.32539E+00  2.32914E+00  2.33317E+00  2.33745E+00  2.34195E+00  2.34663E+00  2.35151E+00  2.35660E+00
 NY background values follow
     3.710E+00    3.650E+00    3.590E+00    3.530E+00    3.470E+00    3.410E+00    3.350E+00    3.290E+00    3.230E+00    3.170E+00
     3.110E+00    3.050E+00    2.989E+00    2.929E+00    2.869E+00    2.809E+00    2.749E+00    2.689E+00    2.629E+00    2.569E+00
     2.509E+00    2.449E+00    2.390E+00    2.330E+00    2.270E+00    2.211E+00    2.152E+00    2.092E+00    2.033E+00    1.974E+00
     1.915E+00    1.856E+00    1.798E+00    1.739E+00    1.681E+00    1.623E+00    1.564E+00    1.507E+00    1.449E+00    1.391E+00
     1.334E+00    1.277E+00    1.220E+00    1.163E+00    1.107E+00    1.050E+00    9.941E-01    9.382E-01    8.826E-01    8.272E-01
     7.720E-01    7.172E-01    6.626E-01    6.082E-01    5.542E-01    5.004E-01    4.469E-01    3.937E-01    3.408E-01    2.882E-01
     2.360E-01    1.840E-01    1.324E-01    8.117E-02    3.025E-02   -2.033E-02   -7.054E-02   -1.204E-01   -1.699E-01   -2.190E-01
    -2.677E-01   -3.160E-01   -3.640E-01   -4.115E-01   -4.586E-01   -5.053E-01   -5.516E-01   -5.974E-01   -6.428E-01   -6.878E-01
    -7.323E-01   -7.764E-01   -8.200E-01   -8.631E-01   -9.058E-01   -9.479E-01   -9.896E-01   -1.031E+00   -1.071E+00   -1.112E+00
    -1.151E+00   -1.190E+00   -1.229E+00   -1.267E+00   -1.305E+00   -1.342E+00   -1.378E+00   -1.414E+00   -1.450E+00   -1.484E+00
    -1.519E+00   -1.553E+00   -1.586E+00   -1.619E+00   -1.651E+00   -1.682E+00   -1.713E+00   -1.744E+00   -1.774E+00   -1.803E+00
    -1.832E+00   -1.860E+00   -1.888E+00   -1.915E+00   -1.942E+00   -1.968E+00   -1.993E+00   -2.018E+00   -2.043E+00   -2.066E+00
    -2.090E+00   -2.112E+00   -2.134E+00   -2.156E+00   -2.177E+00   -2.197E+00   -2.217E+00   -2.236E+00   -2.254E+00   -2.272E+00
    -2.290E+00   -2.306E+00   -2.322E+00   -2.338E+00   -2.353E+00   -2.367E+00   -2.381E+00   -2.394E+00   -2.407E+00   -2.419E+00
    -2.430E+00   -2.441E+00   -2.451E+00   -2.461E+00   -2.470E+00   -2.478E+00   -2.486E+00   -2.493E+00   -2.499E+00   -2.505E+00
    -2.511E+00   -2.515E+00   -2.519E+00   -2.523E+00   -2.525E+00   -2.528E+00   -2.529E+00   -2.530E+00   -2.531E+00   -2.530E+00
    -2.529E+00   -2.528E+00   -2.526E+00   -2.523E+00   -2.520E+00   -2.515E+00   -2.511E+00   -2.506E+00   -2.500E+00   -2.493E+00
    -2.486E+00   -2.478E+00   -2.470E+00   -2.461E+00   -2.451E+00   -2.441E+00   -2.430E+00   -2.418E+00   -2.406E+00   -2.393E+00
    -2.379E+00   -2.365E+00   -2.350E+00   -2.335E+00   -2.319E+00   -2.302E+00   -2.285E+00   -2.267E+00   -2.249E+00   -2.230E+00
    -2.211E+00   -2.191E+00   -2.171E+00   -2.150E+00   -2.129E+00   -2.107E+00   -2.085E+00   -2.063E+00   -2.040E+00   -2.017E+00
    -1.994E+00   -1.970E+00   -1.946E+00   -1.921E+00   -1.897E+00   -1.872E+00   -1.847E+00   -1.821E+00   -1.796E+00   -1.770E+00
    -1.744E+00   -1.718E+00   -1.691E+00   -1.665E+00   -1.639E+00   -1.612E+00   -1.585E+00   -1.558E+00   -1.532E+00   -1.505E+00
    -1.478E+00   -1.451E+00   -1.424E+00   -1.398E+00   -1.371E+00   -1.344E+00   -1.318E+00   -1.291E+00   -1.265E+00   -1.239E+00
    -1.212E+00   -1.186E+00   -1.161E+00   -1.135E+00   -1.109E+00   -1.084E+00   -1.059E+00   -1.033E+00   -1.008E+00   -9.835E-01
    -9.589E-01   -9.344E-01   -9.101E-01   -8.860E-01   -8.621E-01   -8.384E-01   -8.148E-01   -7.915E-01   -7.684E-01   -7.456E-01
    -7.229E-01   -7.005E-01   -6.783E-01   -6.563E-01   -6.346E-01   -6.132E-01   -5.920E-01   -5.711E-01   -5.504E-01   -5.300E-01
    -5.099E-01   -4.900E-01   -4.705E-01   -4.513E-01   -4.323E-01   -4.136E-01   -3.953E-01   -3.773E-01   -3.596E-01   -3.422E-01
    -3.252E-01   -3.084E-01   -2.921E-01   -2.760E-01   -2.603E-01   -2.450E-01   -2.300E-01   -2.153E-01   -2.010E-01   -1.869E-01
    -1.733E-01   -1.599E-01   -1.469E-01   -1.342E-01   -1.218E-01   -1.098E-01   -9.809E-02   -8.670E-02   -7.563E-02   -6.488E-02
    -5.445E-02   -4.434E-02   -3.454E-02   -2.506E-02   -1.590E-02   -7.043E-03    1.498E-03    9.729E-03    1.765E-02    2.527E-02
     3.257E-02    3.958E-02    4.627E-02    5.267E-02    5.876E-02    6.456E-02    7.005E-02    7.525E-02    8.015E-02    8.476E-02
     8.908E-02    9.310E-02    9.683E-02    1.003E-01    1.034E-01    1.063E-01    1.089E-01    1.112E-01    1.132E-01    1.149E-01
     1.164E-01    1.176E-01    1.186E-01    1.193E-01    1.198E-01    1.200E-01    1.200E-01    1.198E-01    1.194E-01    1.188E-01
     1.180E-01    1.170E-01    1.158E-01    1.144E-01    1.129E-01    1.112E-01    1.093E-01    1.073E-01    1.051E-01    1.028E-01
     1.004E-01    9.785E-02    9.518E-02    9.239E-02    8.950E-02    8.652E-02    8.344E-02    8.028E-02    7.704E-02    7.373E-02
     7.035E-02    6.692E-02    6.344E-02    5.992E-02    5.635E-02    5.276E-02    4.914E-02    4.551E-02    4.187E-02    3.822E-02
     3.458E-02    3.094E-02    2.733E-02    2.374E-02    2.017E-02    1.665E-02    1.317E-02    9.738E-03    6.366E-03    3.059E-03
    -1.768E-04   -3.334E-03   -6.406E-03   -9.385E-03   -1.227E-02   -1.504E-02   -1.770E-02   -2.025E-02   -2.266E-02   -2.495E-02
    -2.709E-02   -2.908E-02   -3.093E-02   -3.261E-02   -3.412E-02   -3.546E-02   -3.662E-02   -3.759E-02   -3.837E-02   -3.894E-02
    -3.931E-02   -3.946E-02   -3.938E-02   -3.908E-02   -3.855E-02   -3.777E-02   -3.674E-02   -3.545E-02   -3.390E-02   -3.208E-02
    -2.998E-02   -2.760E-02   -2.493E-02   -2.196E-02   -1.869E-02   -1.511E-02   -1.120E-02   -6.977E-03   -2.423E-03    2.454E-03
     7.649E-03    1.316E-02    1.897E-02    2.509E-02    3.151E-02    3.823E-02    4.523E-02    5.252E-02    6.009E-02    6.793E-02
     7.605E-02    8.443E-02    9.307E-02    1.020E-01    1.111E-01    1.205E-01    1.302E-01    1.400E-01    1.501E-01    1.605E-01
     1.710E-01    1.818E-01    1.928E-01    2.040E-01    2.154E-01    2.270E-01    2.388E-01    2.508E-01    2.630E-01    2.753E-01
     2.879E-01    3.006E-01    3.134E-01    3.265E-01    3.397E-01    3.530E-01    3.665E-01    3.801E-01    3.939E-01    4.078E-01
     4.218E-01    4.360E-01    4.502E-01    4.646E-01    4.791E-01    4.937E-01    5.085E-01    5.233E-01    5.382E-01    5.532E-01
     5.683E-01    5.835E-01    5.988E-01    6.141E-01    6.296E-01    6.451E-01    6.607E-01    6.764E-01    6.921E-01    7.080E-01
     7.238E-01    7.398E-01    7.558E-01    7.718E-01    7.879E-01    8.041E-01    8.203E-01    8.365E-01    8.528E-01    8.691E-01
     8.855E-01    9.019E-01    9.183E-01    9.347E-01    9.512E-01    9.677E-01    9.842E-01    1.001E+00    1.017E+00    1.034E+00
     1.050E+00    1.067E+00    1.083E+00    1.100E+00    1.116E+00    1.133E+00    1.149E+00    1.166E+00
 Ala      Conc. = 7.13E+02
