 LCModel (Version 6.3-1L) Copyright: S.W. Provencher.          Ref.: Magn. Reson. Med. 30:672-679 (1993).                
 Slice#3 Row#6 Col#11  PD_05_press_2_raw_act
 36 lines in following concentration table = NCONC+1
    Conc.  %SD /Cr+PCr  Metabolite                                         
    0.000 999%   0.000 Ala                                                 
    0.000 999%   0.000 Asp                                                 
    0.000 999%   0.000 Cr                                                  
  901.174   9%   1.000 PCr                                                 
   84.327 194% 9.4E-02 GABA                                                
  133.238 121%   0.148 Glc                                                 
  594.600  61%   0.660 Gln                                                 
 1.57E+03  26%   1.742 Glu                                                 
    0.000 999%   0.000 GPC                                                 
  252.108  12%   0.280 PCh                                                 
   74.374 150% 8.3E-02 GSH                                                 
  450.260  83%   0.500 Ins                                                 
  253.158  76%   0.281 Lac                                                 
 3.54E+03   6%   3.928 NAA                                                 
   80.940 282% 9.0E-02 NAAG                                                
  128.472  28%   0.143 Scyllo                                              
  515.420  46%   0.572 Tau                                                 
  803.341  17%   0.891 -CrCH2                                              
  252.108  12%   0.280 GPC+PCh                                             
 3.62E+03   4%   4.018 NAA+NAAG                                            
  901.174   9%   1.000 Cr+PCr                                              
 2.16E+03  27%   2.402 Glu+Gln                                             
 1.46E+03  46%   1.617 Lip13a                                              
    0.000 999%   0.000 Lip13b                                              
   53.371 541% 5.9E-02 Lip09                                               
 2.02E+03  18%   2.239 MM09                                                
  322.655  62%   0.358 Lip20                                               
 4.07E+03  13%   4.520 MM20                                                
  651.050  31%   0.722 MM12                                                
 2.31E+03  21%   2.561 MM14                                                
  424.917  64%   0.472 MM17                                                
 1.46E+03  46%   1.617 Lip13a+Lip13b                                       
 4.42E+03  11%   4.900 MM14+Lip13a+Lip13b+MM12                             
 2.07E+03  12%   2.298 MM09+Lip09                                          
 4.40E+03  11%   4.878 MM20+Lip20                                          
   6 lines in following misc. output table
  FWHM = 0.054 ppm    S/N =  11                                            
  Data shift = 0.023 ppm                                                   
  Ph: -78 deg     -23.8 deg/ppm                                            
  alphaB,S = 8.5E+01,   1.0E+02                                            
   14 spline knots.   Ns = 7(1)                                            
   2 inflections.     1 extrema                                            
  498 points on ppm-axis = NY
      4.000000     3.992357     3.984714     3.977070     3.969427     3.961784     3.954141     3.946497     3.938854     3.931211
      3.923568     3.915925     3.908281     3.900638     3.892995     3.885352     3.877708     3.870065     3.862422     3.854779
      3.847136     3.839492     3.831849     3.824206     3.816563     3.808919     3.801276     3.793633     3.785990     3.778347
      3.770703     3.763060     3.755417     3.747774     3.740130     3.732487     3.724844     3.717201     3.709558     3.701914
      3.694271     3.686628     3.678985     3.671341     3.663698     3.656055     3.648412     3.640769     3.633125     3.625482
      3.617839     3.610196     3.602552     3.594909     3.587266     3.579623     3.571980     3.564336     3.556693     3.549050
      3.541407     3.533763     3.526120     3.518477     3.510834     3.503191     3.495547     3.487904     3.480261     3.472618
      3.464974     3.457331     3.449688     3.442045     3.434402     3.426758     3.419115     3.411472     3.403829     3.396185
      3.388542     3.380899     3.373256     3.365613     3.357969     3.350326     3.342683     3.335040     3.327396     3.319753
      3.312110     3.304467     3.296824     3.289180     3.281537     3.273894     3.266251     3.258607     3.250964     3.243321
      3.235678     3.228034     3.220391     3.212748     3.205105     3.197462     3.189818     3.182175     3.174532     3.166889
      3.159245     3.151602     3.143959     3.136316     3.128673     3.121029     3.113386     3.105743     3.098100     3.090456
      3.082813     3.075170     3.067527     3.059884     3.052240     3.044597     3.036954     3.029311     3.021667     3.014024
      3.006381     2.998738     2.991095     2.983451     2.975808     2.968165     2.960522     2.952878     2.945235     2.937592
      2.929949     2.922306     2.914662     2.907019     2.899376     2.891733     2.884089     2.876446     2.868803     2.861160
      2.853517     2.845873     2.838230     2.830587     2.822944     2.815300     2.807657     2.800014     2.792371     2.784728
      2.777084     2.769441     2.761798     2.754155     2.746511     2.738868     2.731225     2.723582     2.715939     2.708295
      2.700652     2.693009     2.685366     2.677722     2.670079     2.662436     2.654793     2.647150     2.639506     2.631863
      2.624220     2.616577     2.608933     2.601290     2.593647     2.586004     2.578361     2.570717     2.563074     2.555431
      2.547788     2.540144     2.532501     2.524858     2.517215     2.509572     2.501928     2.494285     2.486642     2.478999
      2.471355     2.463712     2.456069     2.448426     2.440783     2.433139     2.425496     2.417853     2.410210     2.402566
      2.394923     2.387280     2.379637     2.371994     2.364350     2.356707     2.349064     2.341421     2.333777     2.326134
      2.318491     2.310848     2.303205     2.295561     2.287918     2.280275     2.272632     2.264988     2.257345     2.249702
      2.242059     2.234416     2.226772     2.219129     2.211486     2.203843     2.196199     2.188556     2.180913     2.173270
      2.165627     2.157983     2.150340     2.142697     2.135054     2.127410     2.119767     2.112124     2.104481     2.096838
      2.089194     2.081551     2.073908     2.066265     2.058621     2.050978     2.043335     2.035692     2.028049     2.020405
      2.012762     2.005119     1.997476     1.989833     1.982190     1.974546     1.966903     1.959260     1.951617     1.943974
      1.936331     1.928688     1.921045     1.913402     1.905759     1.898115     1.890472     1.882829     1.875186     1.867543
      1.859900     1.852257     1.844614     1.836971     1.829327     1.821684     1.814041     1.806398     1.798755     1.791112
      1.783469     1.775826     1.768183     1.760540     1.752896     1.745253     1.737610     1.729967     1.722324     1.714681
      1.707038     1.699395     1.691752     1.684108     1.676465     1.668822     1.661179     1.653536     1.645893     1.638250
      1.630607     1.622964     1.615321     1.607677     1.600034     1.592391     1.584748     1.577105     1.569462     1.561819
      1.554176     1.546533     1.538890     1.531246     1.523603     1.515960     1.508317     1.500674     1.493031     1.485388
      1.477745     1.470102     1.462458     1.454815     1.447172     1.439529     1.431886     1.424243     1.416600     1.408957
      1.401314     1.393671     1.386027     1.378384     1.370741     1.363098     1.355455     1.347812     1.340169     1.332526
      1.324883     1.317240     1.309596     1.301953     1.294310     1.286667     1.279024     1.271381     1.263738     1.256095
      1.248452     1.240808     1.233165     1.225522     1.217879     1.210236     1.202593     1.194950     1.187307     1.179664
      1.172021     1.164377     1.156734     1.149091     1.141448     1.133805     1.126162     1.118519     1.110876     1.103233
      1.095590     1.087946     1.080303     1.072660     1.065017     1.057374     1.049731     1.042088     1.034445     1.026802
      1.019158     1.011515     1.003872     0.996229     0.988586     0.980943     0.973300     0.965657     0.958014     0.950371
      0.942727     0.935084     0.927441     0.919798     0.912155     0.904512     0.896869     0.889226     0.881583     0.873940
      0.866296     0.858653     0.851010     0.843367     0.835724     0.828081     0.820438     0.812795     0.805152     0.797508
      0.789865     0.782222     0.774579     0.766936     0.759293     0.751650     0.744007     0.736364     0.728721     0.721077
      0.713434     0.705791     0.698148     0.690505     0.682862     0.675219     0.667576     0.659933     0.652290     0.644646
      0.637003     0.629360     0.621717     0.614074     0.606431     0.598788     0.591145     0.583502     0.575858     0.568215
      0.560572     0.552929     0.545286     0.537643     0.530000     0.522357     0.514714     0.507071     0.499427     0.491784
      0.484141     0.476498     0.468855     0.461212     0.453569     0.445925     0.438282     0.430639     0.422996     0.415353
      0.407710     0.400067     0.392424     0.384780     0.377137     0.369494     0.361851     0.354208     0.346565     0.338922
      0.331278     0.323635     0.315992     0.308349     0.300706     0.293063     0.285420     0.277777     0.270133     0.262490
      0.254847     0.247204     0.239561     0.231918     0.224275     0.216631     0.208988     0.201345
 NY phased data points follow
  -9.54381E+00 -7.21887E+00 -5.50246E+00  9.76410E-01 -1.35160E+01 -1.48594E+00  9.23149E-01 -9.00408E+00  7.18066E+00 -2.38388E+00
  -5.89533E+00  4.75928E+00 -9.51638E+00  1.65992E-01 -5.32883E+00 -5.40123E+00 -5.51311E+00 -3.12310E+00 -4.55362E+00 -3.32837E+00
  -5.36378E+00 -3.44388E+00 -6.04590E-01  6.69861E+00  4.56906E+00  2.88072E+00 -8.32122E-01 -4.87720E+00  5.41127E-01 -2.57417E+00
  -5.06374E+00 -4.92817E+00 -1.41947E+00  2.03654E+00 -1.22147E+00  5.40584E+00  1.10834E+00 -1.54401E+00 -1.87449E+00 -4.61382E+00
   2.48828E+00  1.07276E+01 -5.39635E+00  1.12986E+00  1.10536E+01  5.91811E+00  9.07278E+00  4.49817E+00 -4.50500E+00  1.04267E+00
  -4.04550E+00  3.96045E+00 -1.64955E+00  6.08025E+00  3.81412E-01  7.10048E+00 -1.98572E+00  5.33805E+00 -2.15050E+00  4.73241E+00
   4.63144E-01  1.14562E+00 -6.72181E+00  1.56432E+00  5.17903E+00  6.29852E+00 -6.98290E-01 -1.01185E+00  1.04840E+01  3.87060E+00
  -1.53667E+00 -4.53424E+00 -1.05329E+01  1.80407E+00  7.13474E+00  3.17412E+00 -1.32062E+00  4.16503E+00 -2.09607E+00 -1.78548E+00
   6.49641E+00  1.07028E+00  8.61051E+00  9.40481E+00  1.39926E+01  8.63138E+00  2.19092E+00  5.35269E+00  8.93963E+00  6.59691E+00
   4.49064E+00 -1.13411E+00  1.14488E+01  8.47116E+00  5.02441E+00 -2.03632E+00  1.04340E+01  1.23207E+01  9.13090E+00  1.12806E+01
   1.87194E+01  1.82181E+01  2.45918E+01  3.25045E+01  1.82803E+01  2.07264E+01  1.49036E+01  1.42918E+01  6.05405E+00 -1.43039E+00
   6.28579E+00  2.20891E+00  1.12309E+01  6.55782E+00  4.61542E-01  1.54651E+00  7.73431E+00  4.25254E+00  5.99124E+00 -3.89250E-01
   1.01634E+01  7.59287E-01  5.11102E+00  1.54919E+01  2.01381E+01  3.67853E+01  3.10443E+01  3.10767E+01  3.14293E+01  3.26763E+01
   1.93612E+01  1.56081E+01  1.59798E+01  1.39249E+01  7.20845E+00  7.31695E+00  2.66521E+00  4.49253E+00  5.39234E+00 -7.07970E-01
   8.63053E+00  6.34693E+00  8.77313E+00  5.51612E+00  1.12217E+01  2.82606E+00  7.54864E+00  1.53344E+01  3.08556E+00  4.14946E-01
  -1.75121E+00 -1.28112E+00  8.62785E+00  4.97196E+00  6.15509E+00  5.15669E+00  5.57427E+00  2.13898E+00  7.06749E+00  1.82492E+00
   3.13886E+00 -2.81079E+00  6.13690E+00 -4.00751E+00  4.39730E+00  5.38829E+00  2.10943E+00 -7.02162E+00 -4.53768E+00 -8.69966E+00
  -1.20001E+01 -1.54443E+01 -7.84216E+00 -7.83961E+00 -1.74112E+01 -1.41540E+01 -2.16433E+01 -1.65430E+01 -1.13444E+01 -6.65166E+00
  -8.79247E+00 -2.16048E+00 -4.02364E+00 -9.43797E+00 -4.60300E+00 -1.19045E+01 -7.65327E+00 -1.28759E+01 -1.12700E+01 -1.02543E+01
  -2.00800E+00  4.35927E+00  1.89932E+00  8.40484E+00  2.99999E-01  4.07692E-02 -2.33038E+00 -4.16368E+00 -7.84695E+00  3.44178E-01
  -2.31677E+00 -4.76661E-01  2.51250E+00  2.78448E+00  1.29215E+01  6.81785E+00  2.60638E+00  2.60822E+00  6.39906E+00  3.26198E+00
  -3.71964E+00  3.80517E+00  9.25809E+00  1.09113E+01  6.36506E+00  2.43226E+01  1.81512E+01  2.15412E+01  1.05259E+01  8.89218E-02
   1.06405E+01  7.72297E+00  1.48425E+00 -1.44168E+00  1.29086E+01  1.36990E+01  1.59083E+01  1.68172E+01  1.64382E+01  1.00378E+01
   1.26962E+01  1.70367E+01  1.13790E+01  1.84883E+01  1.75793E+01  1.65036E+01  1.60828E+01  1.15173E+01  1.55852E+01  8.31295E+00
   1.44991E+01  5.28772E+00  7.02542E+00  5.07304E+00  1.67381E+01  1.60352E+01  1.58889E+01  2.09949E+01  2.25284E+01  2.04245E+01
   1.47617E+01  2.04475E+01  2.53228E+01  3.32439E+01  3.04724E+01  4.09480E+01  6.25270E+01  7.66962E+01  1.04663E+02  1.21065E+02
   1.35926E+02  1.28444E+02  1.18663E+02  9.57094E+01  8.53831E+01  5.79126E+01  4.04599E+01  3.29353E+01  2.71763E+01  2.31845E+01
   2.04916E+01  1.55007E+01  9.45061E+00  7.78980E+00  6.69494E+00  9.09689E+00  1.29509E+01  7.24862E+00  8.47061E+00  2.97066E+00
   1.35165E+01  1.07919E+01  8.05433E+00  3.79087E+00  1.11901E+01  1.38506E+01  2.20270E+00 -3.21319E+00  2.02307E+00  1.20028E+01
  -1.58845E+00  4.85519E+00  1.51884E+01  7.03783E+00  7.90979E+00  4.29639E+00  1.11051E+01  6.50546E-01  1.41801E+01  3.98748E+00
   1.45772E+00  9.01835E+00  9.39946E+00  3.60028E+00  1.25528E+01  6.03644E+00  7.70201E+00  6.87988E+00  6.38667E-01  3.75835E+00
   8.61908E+00  9.55620E+00 -3.10252E-01  1.68294E+01  1.03999E+01  5.86966E+00  1.73317E+01  3.69689E+00  5.49628E+00  1.00464E+01
   1.09894E+01  1.08057E+01  1.58449E+01  1.03842E+01  1.97262E+01  1.18630E+01  1.13338E+01  1.32984E+01  1.41721E+01  1.36860E+01
   1.50588E+01  2.11763E+01  2.47934E+01  1.34246E+01  1.60121E+01  2.01843E+01  1.61137E+01  2.17215E+01  1.08110E+01  1.95444E+01
   2.20630E+01  1.41420E+01  1.81344E+01  1.70267E+01  2.68981E+01  2.87459E+01  2.79652E+01  2.48750E+01  1.45914E+01  1.32803E+01
   1.47667E+01  1.61765E+01  1.61232E+01  1.95590E+01  1.41581E+01  1.60129E+01  1.36389E+01  1.16547E+01  1.10391E+01  2.01660E+01
   6.83623E+00  2.01291E+01  1.55936E+01  1.75518E+01  8.92743E+00  2.04592E+01  1.05411E+01  1.08387E+01  5.96203E+00  1.92226E+01
   8.18282E+00  2.23632E+01  1.22888E+01  1.33760E+01  1.41914E+01  3.46629E+00  2.03330E+01  8.89710E+00  1.07543E+01  1.60834E+01
   1.44521E+01  1.30741E+01  1.09655E+01  5.39978E+00  2.77411E+01  1.35542E+01  1.53445E+01  1.53166E+01  1.45147E+01  6.49233E+00
   7.02633E+00  1.56667E+01  1.17929E+01  8.99669E+00  1.01879E+01  1.17350E+01  1.49115E+01  3.29882E+00  1.49970E+01  2.73002E+00
   3.09477E+01  1.58362E+01  1.38594E+01  1.18859E+01  2.22308E+01  9.67453E+00  1.46620E+01  1.50574E+01  1.92031E+01  1.62328E+01
   1.37111E+01  1.46094E+01  1.67026E+01  1.56365E+01  9.47618E+00  8.60118E+00  2.26661E+01  1.75815E+01  1.10351E+01  1.04892E+01
   9.03627E+00  1.46506E+01  1.43208E+01 -4.60203E-01  8.77963E+00  9.32621E+00  8.58318E+00  1.67597E+01  7.68694E+00  8.83966E+00
   1.13703E+00  1.70054E+00  1.01866E+00  6.29065E+00  2.78335E+00  1.14023E+01  5.91341E+00  7.93284E+00  5.49618E+00  5.21224E+00
   1.28285E+01  9.34964E+00 -1.95188E+00  2.16208E+00  3.74194E+00  7.95630E+00  3.51015E+00  6.72944E+00  6.73683E+00  1.05644E+01
   1.11987E+01  7.93479E+00  4.87940E+00  4.89829E+00  6.24740E+00  8.76591E+00  1.17114E+01  1.00522E+01  7.67976E+00  6.76008E+00
  -6.86335E-01  2.19664E+00  4.84054E+00  1.13674E+00  2.28966E+00  2.09924E+00  4.46950E+00  2.15909E+00 -8.43268E-01  5.64816E+00
   6.16294E+00  2.39676E-01  5.79425E+00  4.34012E+00  1.58727E+01  9.52071E+00  4.62780E+00  8.51753E+00 -1.16620E+00  1.03545E+01
   7.10004E+00  9.03886E+00  8.77958E-02  1.56577E+00  6.04237E+00 -3.66544E+00  3.03974E+00  7.50268E+00  1.82196E+00 -1.56883E+00
  -2.24260E-01  8.73253E+00 -1.37099E+00  5.39392E+00  8.48799E+00  5.49964E+00  6.23217E+00  3.30982E+00
 NY points of the fit to the data follow
  -1.94041E+00 -2.13319E+00 -2.19152E+00 -2.12401E+00 -1.94333E+00 -1.61681E+00 -1.17946E+00 -7.19944E-01 -3.46681E-01 -1.56615E-01
  -1.91256E-01 -4.09195E-01 -7.30604E-01 -1.07649E+00 -1.38525E+00 -1.59087E+00 -1.68090E+00 -1.67455E+00 -1.54219E+00 -1.23545E+00
  -8.36005E-01 -4.48052E-01 -1.67527E-01 -9.77555E-02 -3.03733E-01 -7.25652E-01 -1.14182E+00 -1.25443E+00 -7.91450E-01  2.85235E-01
   1.76010E+00  3.19261E+00  4.10172E+00  4.16328E+00  3.35759E+00  1.98255E+00  5.16724E-01 -7.06207E-01 -1.45000E+00 -1.64640E+00
  -1.45077E+00 -1.00293E+00 -3.73055E-01  3.67824E-01  1.15943E+00  1.85445E+00  2.32972E+00  2.44376E+00  2.13098E+00  1.54671E+00
   8.90788E-01  2.73763E-01 -2.09940E-01 -5.05681E-01 -6.28152E-01 -6.08223E-01 -4.44398E-01 -1.56335E-01  1.80622E-01  4.63842E-01
   6.35501E-01  7.01499E-01  7.14760E-01  7.06791E-01  7.04898E-01  7.27108E-01  7.51165E-01  7.41838E-01  7.43739E-01  8.29756E-01
   1.05019E+00  1.43475E+00  1.93838E+00  2.42778E+00  2.73041E+00  2.72334E+00  2.37762E+00  1.78710E+00  1.22613E+00  9.82102E-01
   1.23522E+00  2.10303E+00  3.50773E+00  5.13160E+00  6.62901E+00  7.65743E+00  7.90908E+00  7.38354E+00  6.33067E+00  5.00787E+00
   3.59650E+00  2.30300E+00  1.29160E+00  5.61340E-01  1.64650E-01  4.60560E-01  1.78379E+00  4.14348E+00  7.63692E+00  1.21410E+01
   1.71146E+01  2.16177E+01  2.45310E+01  2.51237E+01  2.35034E+01  2.03884E+01  1.65766E+01  1.27576E+01  9.55296E+00  7.11615E+00
   5.13476E+00  3.52489E+00  2.72269E+00  2.39657E+00  2.22049E+00  2.11766E+00  2.04988E+00  2.04238E+00  2.11846E+00  2.45447E+00
   3.59534E+00  5.92547E+00  9.79534E+00  1.52193E+01  2.15538E+01  2.75028E+01  3.15557E+01  3.27038E+01  3.09576E+01  2.71656E+01
   2.24034E+01  1.75464E+01  1.33221E+01  1.00479E+01  7.40241E+00  5.22347E+00  4.09924E+00  3.69410E+00  3.52908E+00  3.47905E+00
   3.47463E+00  3.45919E+00  3.40875E+00  3.32037E+00  3.19382E+00  3.04729E+00  2.89499E+00  2.74017E+00  2.59268E+00  2.45742E+00
   2.33577E+00  2.23737E+00  2.16759E+00  2.12680E+00  2.07312E+00  1.94289E+00  1.67636E+00  1.22760E+00  6.51034E-01  7.73760E-02
  -3.18990E-01 -3.87504E-01 -1.42170E-01  2.21345E-01  4.40371E-01  3.42553E-01 -9.59305E-02 -7.81353E-01 -1.54997E+00 -2.28693E+00
  -3.03491E+00 -3.80752E+00 -4.58193E+00 -5.29763E+00 -5.77752E+00 -5.92212E+00 -5.77515E+00 -5.44159E+00 -5.08210E+00 -4.81359E+00
  -4.65517E+00 -4.55576E+00 -4.46084E+00 -4.32608E+00 -4.03878E+00 -3.51725E+00 -2.71839E+00 -1.55228E+00 -1.10480E-01  1.38389E+00
   2.67489E+00  3.60285E+00  4.20134E+00  4.52454E+00  4.66210E+00  4.67969E+00  4.54769E+00  4.36738E+00  4.40480E+00  4.80842E+00
   5.60088E+00  6.65086E+00  7.68355E+00  8.27066E+00  8.07252E+00  6.94533E+00  5.04258E+00  2.71387E+00  4.42070E-01 -1.16196E+00
  -1.62188E+00 -7.75953E-01  1.23104E+00  3.99906E+00  6.82435E+00  8.83034E+00  9.35032E+00  8.30247E+00  6.08882E+00  3.20756E+00
   5.16457E-01 -1.10967E+00 -1.28187E+00 -9.83183E-02  2.02514E+00  4.63117E+00  7.17470E+00  9.15849E+00  1.04198E+01  1.10475E+01
   1.13139E+01  1.13716E+01  1.13006E+01  1.13164E+01  1.16178E+01  1.21888E+01  1.29173E+01  1.36663E+01  1.42792E+01  1.46774E+01
   1.48525E+01  1.49030E+01  1.50143E+01  1.53411E+01  1.58953E+01  1.65407E+01  1.72028E+01  1.78545E+01  1.84930E+01  1.91983E+01
   2.01301E+01  2.14276E+01  2.31651E+01  2.63487E+01  3.28966E+01  4.38675E+01  6.02554E+01  8.13558E+01  1.03973E+02  1.22771E+02
   1.32462E+02  1.30511E+02  1.18418E+02  1.00131E+02  7.97192E+01  6.04576E+01  4.48216E+01  3.30649E+01  2.35158E+01  1.64233E+01
   1.33985E+01  1.21573E+01  1.14405E+01  1.09866E+01  1.06510E+01  1.03035E+01  9.91555E+00  9.47765E+00  8.99971E+00  8.51403E+00
   8.06187E+00  7.65978E+00  7.32084E+00  7.05715E+00  6.86169E+00  6.71838E+00  6.61257E+00  6.53276E+00  6.47715E+00  6.44498E+00
   6.43010E+00  6.43375E+00  6.45721E+00  6.49749E+00  6.55224E+00  6.62128E+00  6.70348E+00  6.79562E+00  6.89600E+00  7.00321E+00
   7.11432E+00  7.22641E+00  7.33761E+00  7.44440E+00  7.54498E+00  7.63865E+00  7.72683E+00  7.81140E+00  7.89502E+00  7.98114E+00
   8.07413E+00  8.17797E+00  8.29776E+00  8.43833E+00  8.60446E+00  8.80027E+00  9.02991E+00  9.29648E+00  9.60279E+00  9.95018E+00
   1.03393E+01  1.07690E+01  1.12376E+01  1.17416E+01  1.22767E+01  1.28370E+01  1.34157E+01  1.40051E+01  1.45969E+01  1.51824E+01
   1.57532E+01  1.63006E+01  1.68171E+01  1.72960E+01  1.77324E+01  1.81231E+01  1.84681E+01  1.87704E+01  1.90390E+01  1.92945E+01
   1.95809E+01  1.99172E+01  2.02700E+01  2.05771E+01  2.07055E+01  2.04954E+01  1.98265E+01  1.86997E+01  1.73099E+01  1.59531E+01
   1.49002E+01  1.43477E+01  1.43782E+01  1.49227E+01  1.57284E+01  1.64976E+01  1.70785E+01  1.73779E+01  1.73243E+01  1.69965E+01
   1.65105E+01  1.59834E+01  1.54529E+01  1.48855E+01  1.43490E+01  1.38987E+01  1.34919E+01  1.31075E+01  1.27394E+01  1.23856E+01
   1.20471E+01  1.17256E+01  1.14238E+01  1.11444E+01  1.08906E+01  1.06652E+01  1.04713E+01  1.03114E+01  1.01883E+01  1.01040E+01
   1.00611E+01  1.00611E+01  1.01058E+01  1.01963E+01  1.03338E+01  1.05187E+01  1.07512E+01  1.10307E+01  1.13559E+01  1.17247E+01
   1.21341E+01  1.25798E+01  1.30565E+01  1.35575E+01  1.40749E+01  1.45997E+01  1.51218E+01  1.56301E+01  1.61133E+01  1.65593E+01
   1.69569E+01  1.72950E+01  1.75639E+01  1.77552E+01  1.78627E+01  1.78818E+01  1.78109E+01  1.76505E+01  1.74039E+01  1.70762E+01
   1.66749E+01  1.62089E+01  1.56888E+01  1.51255E+01  1.45308E+01  1.39158E+01  1.32916E+01  1.26680E+01  1.20543E+01  1.14580E+01
   1.08855E+01  1.03415E+01  9.82986E+00  9.35260E+00  8.91110E+00  8.50536E+00  8.13495E+00  7.79839E+00  7.49419E+00  7.22012E+00
   6.97419E+00  6.75387E+00  6.55706E+00  6.38128E+00  6.22463E+00  6.08493E+00  5.96054E+00  5.84960E+00  5.75077E+00  5.66253E+00
   5.58389E+00  5.51360E+00  5.45094E+00  5.39487E+00  5.34486E+00  5.30008E+00  5.26020E+00  5.22452E+00  5.19281E+00  5.16448E+00
   5.13939E+00  5.11706E+00  5.09744E+00  5.08011E+00  5.06504E+00  5.05184E+00  5.04054E+00  5.03082E+00  5.02273E+00  5.01597E+00
   5.01060E+00  5.00633E+00  5.00328E+00  5.00118E+00  5.00016E+00  4.99995E+00  5.00066E+00  5.00205E+00  5.00428E+00  5.00711E+00
   5.01070E+00  5.01480E+00  5.01956E+00  5.02477E+00  5.03060E+00  5.03684E+00  5.04364E+00  5.05078E+00  5.05843E+00  5.06638E+00
   5.07483E+00  5.08356E+00  5.09274E+00  5.10216E+00  5.11200E+00  5.12208E+00  5.13259E+00  5.14333E+00  5.15446E+00  5.16579E+00
   5.17752E+00  5.18947E+00  5.20184E+00  5.21443E+00  5.22744E+00  5.24067E+00  5.25436E+00  5.26834E+00
 NY background values follow
    -2.337E+00   -2.322E+00   -2.306E+00   -2.291E+00   -2.275E+00   -2.259E+00   -2.244E+00   -2.228E+00   -2.212E+00   -2.197E+00
    -2.181E+00   -2.165E+00   -2.150E+00   -2.134E+00   -2.119E+00   -2.103E+00   -2.087E+00   -2.072E+00   -2.056E+00   -2.040E+00
    -2.025E+00   -2.009E+00   -1.993E+00   -1.978E+00   -1.962E+00   -1.946E+00   -1.931E+00   -1.915E+00   -1.899E+00   -1.884E+00
    -1.868E+00   -1.852E+00   -1.837E+00   -1.821E+00   -1.805E+00   -1.789E+00   -1.774E+00   -1.758E+00   -1.742E+00   -1.727E+00
    -1.711E+00   -1.695E+00   -1.680E+00   -1.664E+00   -1.648E+00   -1.632E+00   -1.617E+00   -1.601E+00   -1.585E+00   -1.570E+00
    -1.554E+00   -1.538E+00   -1.522E+00   -1.507E+00   -1.491E+00   -1.475E+00   -1.460E+00   -1.444E+00   -1.428E+00   -1.412E+00
    -1.397E+00   -1.381E+00   -1.365E+00   -1.349E+00   -1.334E+00   -1.318E+00   -1.302E+00   -1.286E+00   -1.271E+00   -1.255E+00
    -1.239E+00   -1.223E+00   -1.208E+00   -1.192E+00   -1.176E+00   -1.160E+00   -1.145E+00   -1.129E+00   -1.113E+00   -1.097E+00
    -1.081E+00   -1.066E+00   -1.050E+00   -1.034E+00   -1.018E+00   -1.003E+00   -9.869E-01   -9.711E-01   -9.553E-01   -9.395E-01
    -9.237E-01   -9.079E-01   -8.922E-01   -8.764E-01   -8.606E-01   -8.448E-01   -8.290E-01   -8.132E-01   -7.974E-01   -7.816E-01
    -7.658E-01   -7.500E-01   -7.342E-01   -7.184E-01   -7.026E-01   -6.868E-01   -6.710E-01   -6.552E-01   -6.394E-01   -6.236E-01
    -6.078E-01   -5.920E-01   -5.762E-01   -5.604E-01   -5.445E-01   -5.287E-01   -5.129E-01   -4.971E-01   -4.813E-01   -4.655E-01
    -4.496E-01   -4.338E-01   -4.180E-01   -4.022E-01   -3.864E-01   -3.705E-01   -3.547E-01   -3.389E-01   -3.230E-01   -3.072E-01
    -2.914E-01   -2.756E-01   -2.597E-01   -2.439E-01   -2.281E-01   -2.122E-01   -1.964E-01   -1.806E-01   -1.647E-01   -1.489E-01
    -1.330E-01   -1.172E-01   -1.014E-01   -8.552E-02   -6.968E-02   -5.384E-02   -3.800E-02   -2.215E-02   -6.309E-03    9.536E-03
     2.538E-02    4.123E-02    5.708E-02    7.292E-02    8.877E-02    1.046E-01    1.205E-01    1.363E-01    1.522E-01    1.680E-01
     1.839E-01    1.997E-01    2.156E-01    2.314E-01    2.473E-01    2.632E-01    2.790E-01    2.949E-01    3.107E-01    3.266E-01
     3.424E-01    3.583E-01    3.742E-01    3.900E-01    4.059E-01    4.217E-01    4.376E-01    4.535E-01    4.693E-01    4.852E-01
     5.010E-01    5.169E-01    5.328E-01    5.486E-01    5.645E-01    5.804E-01    5.962E-01    6.121E-01    6.280E-01    6.438E-01
     6.597E-01    6.756E-01    6.914E-01    7.073E-01    7.232E-01    7.390E-01    7.549E-01    7.708E-01    7.866E-01    8.025E-01
     8.184E-01    8.343E-01    8.501E-01    8.660E-01    8.819E-01    8.977E-01    9.136E-01    9.295E-01    9.453E-01    9.612E-01
     9.771E-01    9.929E-01    1.009E+00    1.025E+00    1.041E+00    1.056E+00    1.072E+00    1.088E+00    1.104E+00    1.120E+00
     1.136E+00    1.152E+00    1.168E+00    1.183E+00    1.199E+00    1.215E+00    1.231E+00    1.247E+00    1.263E+00    1.279E+00
     1.294E+00    1.310E+00    1.326E+00    1.342E+00    1.358E+00    1.374E+00    1.390E+00    1.406E+00    1.421E+00    1.437E+00
     1.453E+00    1.469E+00    1.485E+00    1.501E+00    1.517E+00    1.532E+00    1.548E+00    1.564E+00    1.580E+00    1.596E+00
     1.612E+00    1.628E+00    1.644E+00    1.659E+00    1.675E+00    1.691E+00    1.707E+00    1.723E+00    1.739E+00    1.755E+00
     1.770E+00    1.786E+00    1.802E+00    1.818E+00    1.834E+00    1.850E+00    1.866E+00    1.881E+00    1.897E+00    1.913E+00
     1.929E+00    1.945E+00    1.961E+00    1.977E+00    1.992E+00    2.008E+00    2.024E+00    2.040E+00    2.056E+00    2.072E+00
     2.087E+00    2.103E+00    2.119E+00    2.135E+00    2.151E+00    2.167E+00    2.183E+00    2.198E+00    2.214E+00    2.230E+00
     2.246E+00    2.262E+00    2.278E+00    2.293E+00    2.309E+00    2.325E+00    2.341E+00    2.357E+00    2.373E+00    2.388E+00
     2.404E+00    2.420E+00    2.436E+00    2.452E+00    2.468E+00    2.483E+00    2.499E+00    2.515E+00    2.531E+00    2.547E+00
     2.562E+00    2.578E+00    2.594E+00    2.610E+00    2.626E+00    2.642E+00    2.657E+00    2.673E+00    2.689E+00    2.705E+00
     2.721E+00    2.736E+00    2.752E+00    2.768E+00    2.784E+00    2.800E+00    2.815E+00    2.831E+00    2.847E+00    2.863E+00
     2.879E+00    2.894E+00    2.910E+00    2.926E+00    2.942E+00    2.958E+00    2.973E+00    2.989E+00    3.005E+00    3.021E+00
     3.037E+00    3.052E+00    3.068E+00    3.084E+00    3.100E+00    3.115E+00    3.131E+00    3.147E+00    3.163E+00    3.179E+00
     3.194E+00    3.210E+00    3.226E+00    3.242E+00    3.257E+00    3.273E+00    3.289E+00    3.305E+00    3.320E+00    3.336E+00
     3.352E+00    3.368E+00    3.383E+00    3.399E+00    3.415E+00    3.431E+00    3.446E+00    3.462E+00    3.478E+00    3.494E+00
     3.509E+00    3.525E+00    3.541E+00    3.557E+00    3.572E+00    3.588E+00    3.604E+00    3.619E+00    3.635E+00    3.651E+00
     3.667E+00    3.682E+00    3.698E+00    3.714E+00    3.730E+00    3.745E+00    3.761E+00    3.777E+00    3.792E+00    3.808E+00
     3.824E+00    3.839E+00    3.855E+00    3.871E+00    3.887E+00    3.902E+00    3.918E+00    3.934E+00    3.949E+00    3.965E+00
     3.981E+00    3.996E+00    4.012E+00    4.028E+00    4.043E+00    4.059E+00    4.075E+00    4.090E+00    4.106E+00    4.122E+00
     4.137E+00    4.153E+00    4.169E+00    4.184E+00    4.200E+00    4.216E+00    4.231E+00    4.247E+00    4.263E+00    4.278E+00
     4.294E+00    4.309E+00    4.325E+00    4.341E+00    4.356E+00    4.372E+00    4.388E+00    4.403E+00    4.419E+00    4.434E+00
     4.450E+00    4.466E+00    4.481E+00    4.497E+00    4.513E+00    4.528E+00    4.544E+00    4.559E+00    4.575E+00    4.591E+00
     4.606E+00    4.622E+00    4.637E+00    4.653E+00    4.668E+00    4.684E+00    4.700E+00    4.715E+00    4.731E+00    4.746E+00
     4.762E+00    4.777E+00    4.793E+00    4.809E+00    4.824E+00    4.840E+00    4.855E+00    4.871E+00    4.886E+00    4.902E+00
     4.917E+00    4.933E+00    4.948E+00    4.964E+00    4.980E+00    4.995E+00    5.011E+00    5.026E+00    5.042E+00    5.057E+00
     5.073E+00    5.088E+00    5.104E+00    5.119E+00    5.135E+00    5.150E+00    5.166E+00    5.181E+00    5.197E+00    5.212E+00
     5.228E+00    5.243E+00    5.259E+00    5.274E+00    5.290E+00    5.305E+00    5.320E+00    5.336E+00    5.351E+00    5.367E+00
     5.382E+00    5.398E+00    5.413E+00    5.429E+00    5.444E+00    5.460E+00    5.475E+00    5.490E+00
 PCr      Conc. = 9.01E+02
