 LCModel (Version 6.3-1L) Copyright: S.W. Provencher.          Ref.: Magn. Reson. Med. 30:672-679 (1993).                
 Slice#3 Row#7 Col#3  PD_05_press_2_raw_act
 36 lines in following concentration table = NCONC+1
    Conc.  %SD /Cr+PCr  Metabolite                                         
    0.000 999%   0.000 Ala                                                 
    0.000 999%   0.000 Asp                                                 
 2.28E+03  25%   0.629 Cr                                                  
 1.34E+03  43%   0.371 PCr                                                 
  387.498  98%   0.107 GABA                                                
    0.000 999%   0.000 Glc                                                 
 2.36E+03  27%   0.652 Gln                                                 
 5.18E+03  15%   1.432 Glu                                                 
 1.17E+03   4%   0.323 GPC                                                 
    0.000 999%   0.000 PCh                                                 
 1.35E+03  13%   0.373 GSH                                                 
 2.82E+03  20%   0.780 Ins                                                 
    0.000 999%   0.000 Lac                                                 
 5.66E+03   3%   1.562 NAA                                                 
    0.000 999%   0.000 NAAG                                                
    0.000 999%   0.000 Scyllo                                              
    0.000 999%   0.000 Tau                                                 
    0.000 999%   0.000 -CrCH2                                              
 1.17E+03   4%   0.323 GPC+PCh                                             
 5.66E+03   3%   1.562 NAA+NAAG                                            
 3.62E+03   3%   1.000 Cr+PCr                                              
 7.54E+03  15%   2.084 Glu+Gln                                             
 2.31E+03  44%   0.637 Lip13a                                              
  254.065 141% 7.0E-02 Lip13b                                              
    0.000 999%   0.000 Lip09                                               
 2.71E+03  15%   0.749 MM09                                                
  484.898  60%   0.134 Lip20                                               
 6.63E+03  11%   1.831 MM20                                                
  941.485  31%   0.260 MM12                                                
 4.43E+03  16%   1.225 MM14                                                
 1.59E+03  29%   0.440 MM17                                                
 2.56E+03  33%   0.707 Lip13a+Lip13b                                       
 7.94E+03  10%   2.192 MM14+Lip13a+Lip13b+MM12                             
 2.71E+03  15%   0.749 MM09+Lip09                                          
 7.12E+03  11%   1.965 MM20+Lip20                                          
   6 lines in following misc. output table
  FWHM = 0.061 ppm    S/N =  13                                            
  Data shift = 0.000 ppm                                                   
  Ph:  -8 deg      -5.4 deg/ppm                                            
  alphaB,S = 1.2E+00,   1.7E+02                                            
   14 spline knots.   Ns = 8(1)                                            
  (13) 4 infls.   (13) 1 extrs.                                            
  498 points on ppm-axis = NY
      4.000000     3.992357     3.984714     3.977070     3.969427     3.961784     3.954141     3.946497     3.938854     3.931211
      3.923568     3.915925     3.908281     3.900638     3.892995     3.885352     3.877708     3.870065     3.862422     3.854779
      3.847136     3.839492     3.831849     3.824206     3.816563     3.808919     3.801276     3.793633     3.785990     3.778347
      3.770703     3.763060     3.755417     3.747774     3.740130     3.732487     3.724844     3.717201     3.709558     3.701914
      3.694271     3.686628     3.678985     3.671341     3.663698     3.656055     3.648412     3.640769     3.633125     3.625482
      3.617839     3.610196     3.602552     3.594909     3.587266     3.579623     3.571980     3.564336     3.556693     3.549050
      3.541407     3.533763     3.526120     3.518477     3.510834     3.503191     3.495547     3.487904     3.480261     3.472618
      3.464974     3.457331     3.449688     3.442045     3.434402     3.426758     3.419115     3.411472     3.403829     3.396185
      3.388542     3.380899     3.373256     3.365613     3.357969     3.350326     3.342683     3.335040     3.327396     3.319753
      3.312110     3.304467     3.296824     3.289180     3.281537     3.273894     3.266251     3.258607     3.250964     3.243321
      3.235678     3.228034     3.220391     3.212748     3.205105     3.197462     3.189818     3.182175     3.174532     3.166889
      3.159245     3.151602     3.143959     3.136316     3.128673     3.121029     3.113386     3.105743     3.098100     3.090456
      3.082813     3.075170     3.067527     3.059884     3.052240     3.044597     3.036954     3.029311     3.021667     3.014024
      3.006381     2.998738     2.991095     2.983451     2.975808     2.968165     2.960522     2.952878     2.945235     2.937592
      2.929949     2.922306     2.914662     2.907019     2.899376     2.891733     2.884089     2.876446     2.868803     2.861160
      2.853517     2.845873     2.838230     2.830587     2.822944     2.815300     2.807657     2.800014     2.792371     2.784728
      2.777084     2.769441     2.761798     2.754155     2.746511     2.738868     2.731225     2.723582     2.715939     2.708295
      2.700652     2.693009     2.685366     2.677722     2.670079     2.662436     2.654793     2.647150     2.639506     2.631863
      2.624220     2.616577     2.608933     2.601290     2.593647     2.586004     2.578361     2.570717     2.563074     2.555431
      2.547788     2.540144     2.532501     2.524858     2.517215     2.509572     2.501928     2.494285     2.486642     2.478999
      2.471355     2.463712     2.456069     2.448426     2.440783     2.433139     2.425496     2.417853     2.410210     2.402566
      2.394923     2.387280     2.379637     2.371994     2.364350     2.356707     2.349064     2.341421     2.333777     2.326134
      2.318491     2.310848     2.303205     2.295561     2.287918     2.280275     2.272632     2.264988     2.257345     2.249702
      2.242059     2.234416     2.226772     2.219129     2.211486     2.203843     2.196199     2.188556     2.180913     2.173270
      2.165627     2.157983     2.150340     2.142697     2.135054     2.127410     2.119767     2.112124     2.104481     2.096838
      2.089194     2.081551     2.073908     2.066265     2.058621     2.050978     2.043335     2.035692     2.028049     2.020405
      2.012762     2.005119     1.997476     1.989833     1.982190     1.974546     1.966903     1.959260     1.951617     1.943974
      1.936331     1.928688     1.921045     1.913402     1.905759     1.898115     1.890472     1.882829     1.875186     1.867543
      1.859900     1.852257     1.844614     1.836971     1.829327     1.821684     1.814041     1.806398     1.798755     1.791112
      1.783469     1.775826     1.768183     1.760540     1.752896     1.745253     1.737610     1.729967     1.722324     1.714681
      1.707038     1.699395     1.691752     1.684108     1.676465     1.668822     1.661179     1.653536     1.645893     1.638250
      1.630607     1.622964     1.615321     1.607677     1.600034     1.592391     1.584748     1.577105     1.569462     1.561819
      1.554176     1.546533     1.538890     1.531246     1.523603     1.515960     1.508317     1.500674     1.493031     1.485388
      1.477745     1.470102     1.462458     1.454815     1.447172     1.439529     1.431886     1.424243     1.416600     1.408957
      1.401314     1.393671     1.386027     1.378384     1.370741     1.363098     1.355455     1.347812     1.340169     1.332526
      1.324883     1.317240     1.309596     1.301953     1.294310     1.286667     1.279024     1.271381     1.263738     1.256095
      1.248452     1.240808     1.233165     1.225522     1.217879     1.210236     1.202593     1.194950     1.187307     1.179664
      1.172021     1.164377     1.156734     1.149091     1.141448     1.133805     1.126162     1.118519     1.110876     1.103233
      1.095590     1.087946     1.080303     1.072660     1.065017     1.057374     1.049731     1.042088     1.034445     1.026802
      1.019158     1.011515     1.003872     0.996229     0.988586     0.980943     0.973300     0.965657     0.958014     0.950371
      0.942727     0.935084     0.927441     0.919798     0.912155     0.904512     0.896869     0.889226     0.881583     0.873940
      0.866296     0.858653     0.851010     0.843367     0.835724     0.828081     0.820438     0.812795     0.805152     0.797508
      0.789865     0.782222     0.774579     0.766936     0.759293     0.751650     0.744007     0.736364     0.728721     0.721077
      0.713434     0.705791     0.698148     0.690505     0.682862     0.675219     0.667576     0.659933     0.652290     0.644646
      0.637003     0.629360     0.621717     0.614074     0.606431     0.598788     0.591145     0.583502     0.575858     0.568215
      0.560572     0.552929     0.545286     0.537643     0.530000     0.522357     0.514714     0.507071     0.499427     0.491784
      0.484141     0.476498     0.468855     0.461212     0.453569     0.445925     0.438282     0.430639     0.422996     0.415353
      0.407710     0.400067     0.392424     0.384780     0.377137     0.369494     0.361851     0.354208     0.346565     0.338922
      0.331278     0.323635     0.315992     0.308349     0.300706     0.293063     0.285420     0.277777     0.270133     0.262490
      0.254847     0.247204     0.239561     0.231918     0.224275     0.216631     0.208988     0.201345
 NY phased data points follow
   4.24438E+01  4.83545E+01  4.12965E+01  5.58016E+01  6.75727E+01  7.46811E+01  9.44354E+01  9.47980E+01  9.89553E+01  1.10393E+02
   1.15940E+02  1.21804E+02  1.07081E+02  1.04345E+02  8.54984E+01  8.70007E+01  7.20666E+01  6.57371E+01  6.90471E+01  6.08178E+01
   5.47848E+01  5.45643E+01  6.20628E+01  6.29669E+01  5.67064E+01  5.83760E+01  4.79479E+01  6.52251E+01  5.97276E+01  6.32498E+01
   6.35979E+01  7.82066E+01  5.67881E+01  5.36413E+01  5.61025E+01  5.19135E+01  4.73212E+01  4.79331E+01  5.27151E+01  4.79179E+01
   4.50694E+01  4.34177E+01  5.27158E+01  5.97720E+01  6.11311E+01  6.02799E+01  6.22516E+01  5.97814E+01  5.81642E+01  5.74409E+01
   4.27238E+01  4.71331E+01  4.48585E+01  5.49052E+01  4.28433E+01  4.23418E+01  4.68736E+01  4.87480E+01  4.16845E+01  3.62297E+01
   2.96320E+01  3.31707E+01  2.28412E+01  2.66502E+01  1.69219E+01  2.22905E+01  2.07948E+01  2.40348E+01  1.49815E+01  1.17707E+01
   1.86575E+01  1.88946E+01  1.13746E+01  1.93395E+01  7.32952E+00  2.88196E+01  2.39240E+01  1.55211E+01  8.90995E+00  1.73257E+01
   1.86780E+01  2.25821E+01  9.28214E+00  2.01048E+01  1.22056E+01  1.75590E+01  8.64721E+00  1.87345E+01  1.86826E+01  1.98948E+01
   6.70661E+00  2.27419E+01  1.11555E+01  1.84397E+01  2.73306E+01  2.81708E+01  2.47089E+01  4.24902E+01  4.69350E+01  5.85045E+01
   7.38260E+01  9.34732E+01  9.35374E+01  1.13797E+02  1.05319E+02  1.03392E+02  7.51583E+01  7.34468E+01  5.41402E+01  4.54669E+01
   3.90809E+01  3.52088E+01  2.84828E+01  1.91795E+01  1.56010E+01  2.10811E+01  2.78062E+01  1.71590E+01  2.46734E+01  2.28378E+01
   2.77909E+01  4.40515E+01  6.10935E+01  6.59196E+01  8.18089E+01  9.74557E+01  1.13941E+02  1.21552E+02  1.16716E+02  9.63723E+01
   8.10014E+01  7.07107E+01  6.20846E+01  4.09338E+01  3.90245E+01  3.78650E+01  2.26487E+01  2.80207E+01  1.72778E+01  1.73945E+01
   1.44114E+01  1.28430E+01  1.45455E+01  1.88829E+01  1.45194E+01  2.59798E+01  1.98991E+01  2.23086E+01  2.31235E+01  1.57526E+01
   1.20087E+01  1.49048E+01  1.55084E+01  8.81155E-01  3.17667E+00  1.20468E+01  3.63808E+00  1.31524E+01  5.55864E+00  4.13082E+00
   5.78089E+00  4.57884E-01 -8.01782E-01  8.06134E+00  9.69892E+00  2.34762E+00  1.03249E+01  5.31292E+00  1.02772E+00 -1.67962E+01
  -1.08146E+00 -9.19552E+00 -1.47898E+01 -1.64102E+01 -2.10833E+01 -2.26762E+01 -1.67540E+01 -2.51243E+01 -1.85509E+01 -1.41737E+01
  -2.61796E+01 -1.86909E+01 -3.14784E+01 -3.56452E+01 -2.00935E+01 -2.12736E+01 -2.17165E+01 -9.83924E+00 -5.09254E+00  1.38258E+01
   9.50345E+00  1.34675E+01  1.21884E+01  1.59008E+01  1.90107E+01  1.10111E+01  1.02540E+01  5.35317E+00  4.60213E+00  6.24966E+00
   4.04858E+00  9.78279E+00  4.73880E+00  2.33987E+00  1.80214E+00  1.04823E+00 -5.61672E-01 -2.75602E+00 -1.15378E+01 -5.26766E+00
  -7.66556E-01  4.04844E+00  9.22018E+00  9.73352E+00  1.72497E+01  1.88072E+01  1.77094E+01  2.03665E+01  7.18840E+00  1.06365E+01
  -3.94839E+00 -6.14186E+00 -1.26189E+01 -3.17010E+00  1.24330E+01  7.68835E+00  1.30918E+01  1.89719E+01  1.12084E+01  1.64626E+01
   2.28564E+01  1.40263E+01  1.66032E+01  2.26213E+01  1.88305E+01  2.05289E+01  3.16626E+01  2.58646E+01  1.51308E+01  2.09560E+01
   2.12133E+01  1.39705E+01  1.45252E+01  1.34245E+01  2.43990E+01  2.25772E+01  2.65383E+01  2.94365E+01  3.22607E+01  3.78637E+01
   3.40025E+01  3.93031E+01  4.69180E+01  4.69699E+01  7.03580E+01  9.52208E+01  1.14723E+02  1.22017E+02  1.51420E+02  1.82979E+02
   1.92446E+02  1.78138E+02  1.61460E+02  1.26684E+02  1.03015E+02  8.48519E+01  5.96549E+01  4.13095E+01  2.93641E+01  2.03914E+01
   2.18461E+01  1.51366E+01  2.42852E+01  2.36719E+01  1.25770E+01  1.09630E+01  1.87361E+01  5.11867E+00  5.78260E+00  8.94358E+00
   6.01584E+00  1.45194E+01  8.20758E+00  1.05521E+01  1.00633E+01  4.49432E+00  7.19055E+00  1.10030E+01  1.21855E+01  8.04307E+00
   5.49635E+00  1.59888E+01  3.61316E+00  1.32166E+01  1.48375E+01  1.07794E+01  1.13752E+01  7.79316E+00  1.07863E+01  5.60670E+00
   8.13038E+00  1.35709E+01 -2.74715E-01  9.05555E+00  6.88296E+00  1.38613E+01  8.88578E-01  1.14742E+01  1.78240E+01  1.12627E+01
   1.70390E+01  5.90968E+00  7.59497E+00  3.83505E-01 -7.58849E-01  1.26513E+01  1.43977E+01 -4.41434E-01  7.96031E+00  5.12240E+00
   8.60537E+00  1.30641E+01  1.09420E+01  1.89311E+01  6.20106E+00  1.94535E+01  2.13381E+01  1.41175E+01  1.42914E+01  2.51368E+01
   2.30666E+01  2.63110E+01  2.31222E+01  2.59697E+01  3.85051E+01  2.76837E+01  3.18315E+01  3.20945E+01  2.63802E+01  3.01641E+01
   2.74535E+01  2.88822E+01  2.89009E+01  2.19930E+01  2.36355E+01  3.37937E+01  2.78929E+01  2.50744E+01  3.15925E+01  2.65686E+01
   1.79222E+01  2.50196E+01  3.12908E+01  2.28814E+01  2.49696E+01  2.84487E+01  2.84823E+01  1.94855E+01  1.39081E+01  2.46441E+01
   1.91258E+01  2.34242E+01  1.49838E+01  5.42134E+00  1.30987E+01  1.89746E+01  9.23703E+00  1.06994E+01  3.59695E+00  1.99869E+01
   1.16629E+01  1.36596E+01  1.92123E+01  1.71415E+01  1.32780E+01  1.33799E+01  1.94485E+01  1.09434E+01  1.26066E+01  1.64452E+01
   6.78016E+00  2.94007E+00  8.38143E+00  1.15838E+01  1.56615E+01  1.09392E+01  3.40852E+00  9.39214E+00  8.75009E+00  1.54850E+01
   1.06882E+01  1.70636E+01  1.36340E+01  1.73262E+01  8.05964E+00  1.00512E+01  1.12294E+01  9.63185E+00  1.24092E+01  6.01225E+00
   1.32524E+01  1.83130E+01  8.93844E+00  7.27678E+00  1.45874E+01  2.09489E+01  1.48491E+01  7.43523E+00  1.87962E+01  1.73525E+01
   1.71126E+01  1.34375E+01  1.76903E+01  1.11961E+01  1.15041E+01  1.91461E+00  1.25962E+01  3.96053E+00  7.48473E+00  1.24304E+01
   9.04198E+00  5.78431E+00  1.06996E+01  9.43212E+00  5.27673E+00  2.66519E+00  1.08773E+01  8.76261E+00  7.47376E+00  1.07302E+01
   6.13750E+00  6.25912E+00  1.02193E+01 -1.61858E+00  8.65873E+00  4.10489E-01  4.39090E+00  1.19924E+00 -2.28580E+00 -2.40575E+00
  -5.75572E+00 -5.09082E-01  4.99299E-01  2.30243E+00 -2.63782E+00  6.79357E+00  9.54473E+00  7.90218E+00  4.04247E+00  1.57214E+01
   7.86244E+00  1.62315E+00  5.96914E+00  5.05348E+00  4.80069E+00  2.99445E+00  3.64219E+00  7.29156E+00  8.30306E+00  5.57736E+00
   3.51317E+00  6.02289E+00  1.65257E+00  4.32648E+00  4.03915E+00 -4.60443E+00  2.69005E+00  7.11582E+00 -1.35452E+00  6.26361E+00
   8.90027E+00  3.48966E+00  1.33890E+01  1.55746E+01  1.32599E+00  9.38382E+00 -6.49582E-01  3.77861E+00  7.01366E+00 -1.05995E+01
  -8.23080E+00 -5.25032E+00  2.49369E+00  3.48056E+00  4.31083E+00  2.52400E+00  8.72357E+00  2.91313E+00  6.49876E+00  9.78722E+00
   1.07302E+01  7.54376E+00  7.21016E+00  1.38982E+01  4.38541E+00 -2.68867E+00  4.17584E-01  1.36590E+00
 NY points of the fit to the data follow
   4.73465E+01  4.77245E+01  5.00970E+01  5.48818E+01  6.20753E+01  7.07156E+01  8.01457E+01  8.98783E+01  9.93213E+01  1.07260E+02
   1.11850E+02  1.11562E+02  1.06363E+02  9.78705E+01  8.83566E+01  7.96096E+01  7.21989E+01  6.58458E+01  6.01931E+01  5.53568E+01
   5.11624E+01  4.80286E+01  4.70088E+01  4.75224E+01  4.90445E+01  5.12652E+01  5.43065E+01  5.85134E+01  6.36114E+01  6.85117E+01
   7.16640E+01  7.18647E+01  6.92268E+01  6.46150E+01  5.89158E+01  5.30535E+01  4.79976E+01  4.43396E+01  4.20762E+01  4.15637E+01
   4.30246E+01  4.54188E+01  4.77870E+01  5.00044E+01  5.22711E+01  5.43585E+01  5.53912E+01  5.46864E+01  5.21268E+01  4.82417E+01
   4.42644E+01  4.10250E+01  3.86468E+01  3.71105E+01  3.62204E+01  3.55534E+01  3.50642E+01  3.50330E+01  3.52531E+01  3.51865E+01
   3.45252E+01  3.33464E+01  3.18442E+01  3.03956E+01  2.93276E+01  2.87726E+01  2.86690E+01  2.87715E+01  2.89273E+01  2.91219E+01
   2.92751E+01  2.92829E+01  2.90364E+01  2.85142E+01  2.78126E+01  2.70451E+01  2.62880E+01  2.55789E+01  2.48311E+01  2.39304E+01
   2.27831E+01  2.14770E+01  2.01163E+01  1.87002E+01  1.72274E+01  1.57850E+01  1.45854E+01  1.38706E+01  1.38205E+01  1.43480E+01
   1.52105E+01  1.61638E+01  1.70592E+01  1.78742E+01  1.88891E+01  2.18734E+01  2.91933E+01  3.94601E+01  5.09316E+01  6.28587E+01
   7.57222E+01  8.97791E+01  1.02772E+02  1.10335E+02  1.09120E+02  9.94927E+01  8.51541E+01  7.03983E+01  5.75286E+01  4.69495E+01
   3.83693E+01  3.10310E+01  2.42757E+01  1.92863E+01  1.74733E+01  1.69731E+01  1.68638E+01  1.71253E+01  1.84108E+01  2.33685E+01
   3.30587E+01  4.53592E+01  5.86160E+01  7.23903E+01  8.73116E+01  1.02928E+02  1.15871E+02  1.21346E+02  1.16997E+02  1.04612E+02
   8.86189E+01  7.30309E+01  5.93694E+01  4.75715E+01  3.72848E+01  2.79577E+01  1.99298E+01  1.54624E+01  1.46534E+01  1.52171E+01
   1.61168E+01  1.67627E+01  1.68580E+01  1.65066E+01  1.59210E+01  1.51529E+01  1.42840E+01  1.33407E+01  1.23144E+01  1.12897E+01
   1.03396E+01  9.52367E+00  8.88228E+00  8.20383E+00  7.44520E+00  6.69657E+00  6.04687E+00  5.55969E+00  5.04243E+00  4.35481E+00
   3.62446E+00  3.12893E+00  3.03217E+00  3.16290E+00  3.09864E+00  2.52610E+00  1.47643E+00  1.67879E-01 -1.22938E+00 -2.56186E+00
  -3.64922E+00 -4.59874E+00 -5.50998E+00 -6.54923E+00 -7.60981E+00 -8.25388E+00 -8.32699E+00 -8.04292E+00 -7.81015E+00 -8.01020E+00
  -8.49319E+00 -8.74500E+00 -8.44930E+00 -7.60126E+00 -6.35764E+00 -4.84094E+00 -3.04004E+00 -8.60018E-01  1.64302E+00  4.01558E+00
   5.51372E+00  5.78019E+00  5.09105E+00  4.07209E+00  3.22785E+00  2.86036E+00  3.31534E+00  4.65733E+00  6.87668E+00  9.60848E+00
   1.21423E+01  1.37423E+01  1.39025E+01  1.27115E+01  1.02022E+01  6.38232E+00  1.81158E+00 -2.38587E+00 -4.70581E+00 -4.35075E+00
  -1.63970E+00  2.67471E+00  7.73020E+00  1.27483E+01  1.66537E+01  1.80056E+01  1.62004E+01  1.18299E+01  5.99774E+00 -1.21774E-01
  -5.43334E+00 -8.53289E+00 -8.56645E+00 -5.81981E+00 -1.37021E+00  3.54272E+00  8.14226E+00  1.15505E+01  1.34451E+01  1.44240E+01
   1.52645E+01  1.64077E+01  1.76723E+01  1.87973E+01  1.98999E+01  2.10238E+01  2.18757E+01  2.21857E+01  2.17402E+01  2.04786E+01
   1.87745E+01  1.71710E+01  1.63399E+01  1.68470E+01  1.85669E+01  2.08604E+01  2.31916E+01  2.53803E+01  2.72692E+01  2.88544E+01
   3.03529E+01  3.28260E+01  4.03714E+01  5.53380E+01  7.41384E+01  9.38667E+01  1.13767E+02  1.35109E+02  1.57855E+02  1.77247E+02
   1.85727E+02  1.78838E+02  1.58751E+02  1.32495E+02  1.06775E+02  8.45136E+01  6.60533E+01  5.08233E+01  3.73233E+01  2.50420E+01
   1.70438E+01  1.42477E+01  1.31469E+01  1.25929E+01  1.22895E+01  1.19756E+01  1.14578E+01  1.07927E+01  1.00459E+01  9.27780E+00
   8.55574E+00  7.94415E+00  7.45789E+00  7.12306E+00  6.96080E+00  6.94244E+00  7.02732E+00  7.18667E+00  7.39498E+00  7.64055E+00
   7.90970E+00  8.17813E+00  8.44540E+00  8.70963E+00  8.96135E+00  9.19726E+00  9.41666E+00  9.60939E+00  9.76102E+00  9.86363E+00
   9.91479E+00  9.91066E+00  9.85078E+00  9.73940E+00  9.57949E+00  9.37857E+00  9.14788E+00  8.90127E+00  8.65401E+00  8.42166E+00
   8.21928E+00  8.06104E+00  7.96064E+00  7.93210E+00  7.98845E+00  8.14044E+00  8.39674E+00  8.76387E+00  9.24665E+00  9.84794E+00
   1.05682E+01  1.14048E+01  1.23522E+01  1.34016E+01  1.45415E+01  1.57576E+01  1.70326E+01  1.83462E+01  1.96758E+01  2.09974E+01
   2.22862E+01  2.35175E+01  2.46670E+01  2.57121E+01  2.66324E+01  2.74113E+01  2.80366E+01  2.85009E+01  2.88016E+01  2.89415E+01
   2.89291E+01  2.87787E+01  2.85101E+01  2.81476E+01  2.77194E+01  2.72556E+01  2.67865E+01  2.63392E+01  2.59346E+01  2.55826E+01
   2.52805E+01  2.50115E+01  2.47469E+01  2.44502E+01  2.40830E+01  2.36121E+01  2.30162E+01  2.22902E+01  2.14464E+01  2.05111E+01
   1.95200E+01  1.85107E+01  1.75176E+01  1.65672E+01  1.56765E+01  1.48528E+01  1.40960E+01  1.34007E+01  1.27600E+01  1.21672E+01
   1.16174E+01  1.11078E+01  1.06375E+01  1.02075E+01  9.82007E+00  9.47855E+00  9.18654E+00  8.94752E+00  8.76457E+00  8.64046E+00
   8.57769E+00  8.57837E+00  8.64394E+00  8.77505E+00  8.97153E+00  9.23258E+00  9.55665E+00  9.94120E+00  1.03824E+01  1.08750E+01
   1.14125E+01  1.19871E+01  1.25897E+01  1.32098E+01  1.38356E+01  1.44540E+01  1.50516E+01  1.56145E+01  1.61292E+01  1.65823E+01
   1.69617E+01  1.72564E+01  1.74579E+01  1.75599E+01  1.75587E+01  1.74534E+01  1.72454E+01  1.69393E+01  1.65421E+01  1.60629E+01
   1.55127E+01  1.49032E+01  1.42471E+01  1.35574E+01  1.28468E+01  1.21277E+01  1.14111E+01  1.07066E+01  1.00226E+01  9.36588E+00
   8.74201E+00  8.15490E+00  7.60698E+00  7.09941E+00  6.63243E+00  6.20553E+00  5.81753E+00  5.46664E+00  5.15061E+00  4.86697E+00
   4.61330E+00  4.38721E+00  4.18636E+00  4.00834E+00  3.85083E+00  3.71175E+00  3.58931E+00  3.48192E+00  3.38805E+00  3.30622E+00
   3.23511E+00  3.17363E+00  3.12090E+00  3.07614E+00  3.03853E+00  3.00729E+00  2.98173E+00  2.96137E+00  2.94586E+00  2.93480E+00
   2.92772E+00  2.92419E+00  2.92390E+00  2.92666E+00  2.93234E+00  2.94068E+00  2.95139E+00  2.96421E+00  2.97904E+00  2.99583E+00
   3.01448E+00  3.03482E+00  3.05664E+00  3.07980E+00  3.10431E+00  3.13016E+00  3.15727E+00  3.18548E+00  3.21463E+00  3.24471E+00
   3.27577E+00  3.30781E+00  3.34073E+00  3.37438E+00  3.40871E+00  3.44374E+00  3.47953E+00  3.51606E+00  3.55320E+00  3.59085E+00
   3.62900E+00  3.66774E+00  3.70709E+00  3.74702E+00  3.78739E+00  3.82816E+00  3.86938E+00  3.91113E+00  3.95344E+00  3.99621E+00
   4.03935E+00  4.08288E+00  4.12690E+00  4.17149E+00  4.21663E+00  4.26225E+00  4.30831E+00  4.35491E+00
 NY background values follow
     3.877E+01    3.852E+01    3.826E+01    3.800E+01    3.774E+01    3.749E+01    3.723E+01    3.697E+01    3.671E+01    3.646E+01
     3.620E+01    3.594E+01    3.568E+01    3.542E+01    3.517E+01    3.491E+01    3.465E+01    3.439E+01    3.414E+01    3.388E+01
     3.362E+01    3.336E+01    3.311E+01    3.285E+01    3.259E+01    3.234E+01    3.208E+01    3.182E+01    3.157E+01    3.131E+01
     3.106E+01    3.080E+01    3.055E+01    3.029E+01    3.003E+01    2.978E+01    2.953E+01    2.927E+01    2.902E+01    2.876E+01
     2.851E+01    2.826E+01    2.800E+01    2.775E+01    2.750E+01    2.725E+01    2.700E+01    2.675E+01    2.650E+01    2.625E+01
     2.600E+01    2.575E+01    2.550E+01    2.525E+01    2.500E+01    2.475E+01    2.451E+01    2.426E+01    2.401E+01    2.377E+01
     2.352E+01    2.328E+01    2.304E+01    2.279E+01    2.255E+01    2.231E+01    2.207E+01    2.183E+01    2.159E+01    2.135E+01
     2.112E+01    2.088E+01    2.064E+01    2.041E+01    2.017E+01    1.994E+01    1.971E+01    1.947E+01    1.924E+01    1.901E+01
     1.878E+01    1.855E+01    1.833E+01    1.810E+01    1.788E+01    1.765E+01    1.743E+01    1.721E+01    1.698E+01    1.676E+01
     1.654E+01    1.633E+01    1.611E+01    1.589E+01    1.568E+01    1.547E+01    1.525E+01    1.504E+01    1.483E+01    1.462E+01
     1.442E+01    1.421E+01    1.400E+01    1.380E+01    1.360E+01    1.339E+01    1.319E+01    1.299E+01    1.279E+01    1.260E+01
     1.240E+01    1.220E+01    1.201E+01    1.182E+01    1.162E+01    1.143E+01    1.124E+01    1.106E+01    1.087E+01    1.068E+01
     1.050E+01    1.031E+01    1.013E+01    9.949E+00    9.768E+00    9.589E+00    9.411E+00    9.234E+00    9.058E+00    8.883E+00
     8.710E+00    8.538E+00    8.367E+00    8.197E+00    8.028E+00    7.860E+00    7.694E+00    7.529E+00    7.365E+00    7.202E+00
     7.040E+00    6.880E+00    6.721E+00    6.563E+00    6.406E+00    6.250E+00    6.096E+00    5.943E+00    5.791E+00    5.641E+00
     5.492E+00    5.344E+00    5.197E+00    5.052E+00    4.908E+00    4.766E+00    4.625E+00    4.485E+00    4.346E+00    4.209E+00
     4.073E+00    3.939E+00    3.806E+00    3.674E+00    3.544E+00    3.415E+00    3.288E+00    3.162E+00    3.037E+00    2.914E+00
     2.793E+00    2.673E+00    2.554E+00    2.437E+00    2.321E+00    2.207E+00    2.094E+00    1.983E+00    1.874E+00    1.766E+00
     1.659E+00    1.554E+00    1.451E+00    1.349E+00    1.249E+00    1.150E+00    1.052E+00    9.565E-01    8.621E-01    7.692E-01
     6.777E-01    5.877E-01    4.991E-01    4.119E-01    3.261E-01    2.416E-01    1.585E-01    7.683E-02   -3.555E-03   -8.261E-02
    -1.604E-01   -2.368E-01   -3.120E-01   -3.859E-01   -4.585E-01   -5.299E-01   -6.000E-01   -6.690E-01   -7.367E-01   -8.033E-01
    -8.686E-01   -9.328E-01   -9.959E-01   -1.058E+00   -1.119E+00   -1.178E+00   -1.237E+00   -1.294E+00   -1.351E+00   -1.406E+00
    -1.461E+00   -1.514E+00   -1.566E+00   -1.617E+00   -1.668E+00   -1.717E+00   -1.765E+00   -1.813E+00   -1.859E+00   -1.905E+00
    -1.949E+00   -1.993E+00   -2.036E+00   -2.078E+00   -2.119E+00   -2.159E+00   -2.198E+00   -2.236E+00   -2.274E+00   -2.310E+00
    -2.346E+00   -2.381E+00   -2.415E+00   -2.448E+00   -2.480E+00   -2.512E+00   -2.543E+00   -2.573E+00   -2.602E+00   -2.630E+00
    -2.657E+00   -2.684E+00   -2.710E+00   -2.735E+00   -2.760E+00   -2.783E+00   -2.806E+00   -2.828E+00   -2.850E+00   -2.870E+00
    -2.890E+00   -2.910E+00   -2.928E+00   -2.946E+00   -2.963E+00   -2.980E+00   -2.995E+00   -3.010E+00   -3.025E+00   -3.039E+00
    -3.052E+00   -3.064E+00   -3.076E+00   -3.087E+00   -3.098E+00   -3.108E+00   -3.117E+00   -3.126E+00   -3.134E+00   -3.141E+00
    -3.148E+00   -3.154E+00   -3.160E+00   -3.165E+00   -3.169E+00   -3.173E+00   -3.177E+00   -3.179E+00   -3.181E+00   -3.183E+00
    -3.184E+00   -3.184E+00   -3.184E+00   -3.184E+00   -3.182E+00   -3.181E+00   -3.178E+00   -3.175E+00   -3.172E+00   -3.168E+00
    -3.164E+00   -3.159E+00   -3.153E+00   -3.147E+00   -3.141E+00   -3.134E+00   -3.126E+00   -3.118E+00   -3.109E+00   -3.100E+00
    -3.091E+00   -3.081E+00   -3.070E+00   -3.060E+00   -3.048E+00   -3.036E+00   -3.024E+00   -3.011E+00   -2.998E+00   -2.984E+00
    -2.970E+00   -2.956E+00   -2.941E+00   -2.925E+00   -2.909E+00   -2.893E+00   -2.876E+00   -2.859E+00   -2.841E+00   -2.823E+00
    -2.805E+00   -2.786E+00   -2.767E+00   -2.747E+00   -2.727E+00   -2.707E+00   -2.686E+00   -2.665E+00   -2.643E+00   -2.621E+00
    -2.599E+00   -2.576E+00   -2.553E+00   -2.530E+00   -2.506E+00   -2.482E+00   -2.458E+00   -2.433E+00   -2.408E+00   -2.382E+00
    -2.356E+00   -2.330E+00   -2.303E+00   -2.277E+00   -2.249E+00   -2.222E+00   -2.194E+00   -2.166E+00   -2.137E+00   -2.109E+00
    -2.080E+00   -2.050E+00   -2.021E+00   -1.991E+00   -1.960E+00   -1.930E+00   -1.899E+00   -1.868E+00   -1.837E+00   -1.805E+00
    -1.773E+00   -1.741E+00   -1.708E+00   -1.675E+00   -1.642E+00   -1.608E+00   -1.575E+00   -1.541E+00   -1.506E+00   -1.472E+00
    -1.437E+00   -1.401E+00   -1.366E+00   -1.330E+00   -1.294E+00   -1.257E+00   -1.221E+00   -1.184E+00   -1.146E+00   -1.109E+00
    -1.071E+00   -1.032E+00   -9.939E-01   -9.551E-01   -9.160E-01   -8.766E-01   -8.369E-01   -7.969E-01   -7.565E-01   -7.159E-01
    -6.750E-01   -6.338E-01   -5.924E-01   -5.506E-01   -5.085E-01   -4.661E-01   -4.234E-01   -3.804E-01   -3.371E-01   -2.935E-01
    -2.497E-01   -2.055E-01   -1.611E-01   -1.164E-01   -7.150E-02   -2.630E-02    1.916E-02    6.486E-02    1.108E-01    1.570E-01
     2.034E-01    2.500E-01    2.968E-01    3.439E-01    3.912E-01    4.386E-01    4.863E-01    5.341E-01    5.821E-01    6.304E-01
     6.787E-01    7.273E-01    7.760E-01    8.248E-01    8.739E-01    9.230E-01    9.723E-01    1.022E+00    1.071E+00    1.121E+00
     1.171E+00    1.221E+00    1.271E+00    1.321E+00    1.371E+00    1.421E+00    1.472E+00    1.522E+00    1.573E+00    1.623E+00
     1.674E+00    1.724E+00    1.775E+00    1.826E+00    1.877E+00    1.928E+00    1.979E+00    2.030E+00    2.081E+00    2.132E+00
     2.183E+00    2.234E+00    2.285E+00    2.336E+00    2.387E+00    2.438E+00    2.490E+00    2.541E+00    2.592E+00    2.643E+00
     2.695E+00    2.746E+00    2.797E+00    2.849E+00    2.900E+00    2.952E+00    3.003E+00    3.055E+00    3.106E+00    3.157E+00
     3.209E+00    3.260E+00    3.312E+00    3.363E+00    3.415E+00    3.466E+00    3.518E+00    3.569E+00    3.621E+00    3.672E+00
     3.724E+00    3.775E+00    3.827E+00    3.878E+00    3.930E+00    3.981E+00    4.033E+00    4.084E+00
 Cr       Conc. = 2.28E+03
