 LCModel (Version 6.3-1L) Copyright: S.W. Provencher.          Ref.: Magn. Reson. Med. 30:672-679 (1993).                
 Slice#1 Row#10 Col#10  PD_05_press_2_raw_act
 36 lines in following concentration table = NCONC+1
    Conc.  %SD /Cr+PCr  Metabolite                                         
  660.017  53%   1.174 Ala                                                 
   47.856 219% 8.5E-02 Asp                                                 
    0.000 999%   0.000 Cr                                                  
  561.968  10%   1.000 PCr                                                 
   57.629 114%   0.103 GABA                                                
   54.389 118% 9.7E-02 Glc                                                 
 3.43E+03  13%   6.098 Gln                                                 
 2.34E+03  22%   4.161 Glu                                                 
    0.000 999%   0.000 GPC                                                 
  106.329  19%   0.189 PCh                                                 
    0.000 999%   0.000 GSH                                                 
  220.171 101%   0.392 Ins                                                 
 1.36E+03  27%   2.425 Lac                                                 
 1.24E+03   6%   2.209 NAA                                                 
    0.000 999%   0.000 NAAG                                                
   33.010  53% 5.9E-02 Scyllo                                              
  156.474  63%   0.278 Tau                                                 
  220.843  41%   0.393 -CrCH2                                              
  106.329  19%   0.189 GPC+PCh                                             
 1.24E+03   6%   2.209 NAA+NAAG                                            
  561.968  10%   1.000 Cr+PCr                                              
 5.77E+03  14%  10.259 Glu+Gln                                             
 3.02E+03  20%   5.366 Lip13a                                              
    0.000 999%   0.000 Lip13b                                              
  769.415  25%   1.369 Lip09                                               
  476.219  44%   0.847 MM09                                                
  484.883  25%   0.863 Lip20                                               
  748.590  39%   1.332 MM20                                                
  120.157 108%   0.214 MM12                                                
 2.55E+03  15%   4.537+MM14                                                
    0.000 999%   0.000 MM17                                                
 3.02E+03  20%   5.366 Lip13a+Lip13b                                       
 5.69E+03   8%  10.117 MM14+Lip13a+Lip13b+MM12                             
 1.25E+03  11%   2.217 MM09+Lip09                                          
 1.23E+03  21%   2.195 MM20+Lip20                                          
   6 lines in following misc. output table
  FWHM = 0.107 ppm    S/N =   5                                            
  Data shift = 0.015 ppm                                                   
  Ph: -62 deg     -22.7 deg/ppm                                            
  alphaB,S = 8.5E+01,   1.0E+02                                            
   14 spline knots.   Ns = 7(2)                                            
   2 inflections.     1 extrema                                            
  498 points on ppm-axis = NY
      4.000000     3.992357     3.984714     3.977070     3.969427     3.961784     3.954141     3.946497     3.938854     3.931211
      3.923568     3.915925     3.908281     3.900638     3.892995     3.885352     3.877708     3.870065     3.862422     3.854779
      3.847136     3.839492     3.831849     3.824206     3.816563     3.808919     3.801276     3.793633     3.785990     3.778347
      3.770703     3.763060     3.755417     3.747774     3.740130     3.732487     3.724844     3.717201     3.709558     3.701914
      3.694271     3.686628     3.678985     3.671341     3.663698     3.656055     3.648412     3.640769     3.633125     3.625482
      3.617839     3.610196     3.602552     3.594909     3.587266     3.579623     3.571980     3.564336     3.556693     3.549050
      3.541407     3.533763     3.526120     3.518477     3.510834     3.503191     3.495547     3.487904     3.480261     3.472618
      3.464974     3.457331     3.449688     3.442045     3.434402     3.426758     3.419115     3.411472     3.403829     3.396185
      3.388542     3.380899     3.373256     3.365613     3.357969     3.350326     3.342683     3.335040     3.327396     3.319753
      3.312110     3.304467     3.296824     3.289180     3.281537     3.273894     3.266251     3.258607     3.250964     3.243321
      3.235678     3.228034     3.220391     3.212748     3.205105     3.197462     3.189818     3.182175     3.174532     3.166889
      3.159245     3.151602     3.143959     3.136316     3.128673     3.121029     3.113386     3.105743     3.098100     3.090456
      3.082813     3.075170     3.067527     3.059884     3.052240     3.044597     3.036954     3.029311     3.021667     3.014024
      3.006381     2.998738     2.991095     2.983451     2.975808     2.968165     2.960522     2.952878     2.945235     2.937592
      2.929949     2.922306     2.914662     2.907019     2.899376     2.891733     2.884089     2.876446     2.868803     2.861160
      2.853517     2.845873     2.838230     2.830587     2.822944     2.815300     2.807657     2.800014     2.792371     2.784728
      2.777084     2.769441     2.761798     2.754155     2.746511     2.738868     2.731225     2.723582     2.715939     2.708295
      2.700652     2.693009     2.685366     2.677722     2.670079     2.662436     2.654793     2.647150     2.639506     2.631863
      2.624220     2.616577     2.608933     2.601290     2.593647     2.586004     2.578361     2.570717     2.563074     2.555431
      2.547788     2.540144     2.532501     2.524858     2.517215     2.509572     2.501928     2.494285     2.486642     2.478999
      2.471355     2.463712     2.456069     2.448426     2.440783     2.433139     2.425496     2.417853     2.410210     2.402566
      2.394923     2.387280     2.379637     2.371994     2.364350     2.356707     2.349064     2.341421     2.333777     2.326134
      2.318491     2.310848     2.303205     2.295561     2.287918     2.280275     2.272632     2.264988     2.257345     2.249702
      2.242059     2.234416     2.226772     2.219129     2.211486     2.203843     2.196199     2.188556     2.180913     2.173270
      2.165627     2.157983     2.150340     2.142697     2.135054     2.127410     2.119767     2.112124     2.104481     2.096838
      2.089194     2.081551     2.073908     2.066265     2.058621     2.050978     2.043335     2.035692     2.028049     2.020405
      2.012762     2.005119     1.997476     1.989833     1.982190     1.974546     1.966903     1.959260     1.951617     1.943974
      1.936331     1.928688     1.921045     1.913402     1.905759     1.898115     1.890472     1.882829     1.875186     1.867543
      1.859900     1.852257     1.844614     1.836971     1.829327     1.821684     1.814041     1.806398     1.798755     1.791112
      1.783469     1.775826     1.768183     1.760540     1.752896     1.745253     1.737610     1.729967     1.722324     1.714681
      1.707038     1.699395     1.691752     1.684108     1.676465     1.668822     1.661179     1.653536     1.645893     1.638250
      1.630607     1.622964     1.615321     1.607677     1.600034     1.592391     1.584748     1.577105     1.569462     1.561819
      1.554176     1.546533     1.538890     1.531246     1.523603     1.515960     1.508317     1.500674     1.493031     1.485388
      1.477745     1.470102     1.462458     1.454815     1.447172     1.439529     1.431886     1.424243     1.416600     1.408957
      1.401314     1.393671     1.386027     1.378384     1.370741     1.363098     1.355455     1.347812     1.340169     1.332526
      1.324883     1.317240     1.309596     1.301953     1.294310     1.286667     1.279024     1.271381     1.263738     1.256095
      1.248452     1.240808     1.233165     1.225522     1.217879     1.210236     1.202593     1.194950     1.187307     1.179664
      1.172021     1.164377     1.156734     1.149091     1.141448     1.133805     1.126162     1.118519     1.110876     1.103233
      1.095590     1.087946     1.080303     1.072660     1.065017     1.057374     1.049731     1.042088     1.034445     1.026802
      1.019158     1.011515     1.003872     0.996229     0.988586     0.980943     0.973300     0.965657     0.958014     0.950371
      0.942727     0.935084     0.927441     0.919798     0.912155     0.904512     0.896869     0.889226     0.881583     0.873940
      0.866296     0.858653     0.851010     0.843367     0.835724     0.828081     0.820438     0.812795     0.805152     0.797508
      0.789865     0.782222     0.774579     0.766936     0.759293     0.751650     0.744007     0.736364     0.728721     0.721077
      0.713434     0.705791     0.698148     0.690505     0.682862     0.675219     0.667576     0.659933     0.652290     0.644646
      0.637003     0.629360     0.621717     0.614074     0.606431     0.598788     0.591145     0.583502     0.575858     0.568215
      0.560572     0.552929     0.545286     0.537643     0.530000     0.522357     0.514714     0.507071     0.499427     0.491784
      0.484141     0.476498     0.468855     0.461212     0.453569     0.445925     0.438282     0.430639     0.422996     0.415353
      0.407710     0.400067     0.392424     0.384780     0.377137     0.369494     0.361851     0.354208     0.346565     0.338922
      0.331278     0.323635     0.315992     0.308349     0.300706     0.293063     0.285420     0.277777     0.270133     0.262490
      0.254847     0.247204     0.239561     0.231918     0.224275     0.216631     0.208988     0.201345
 NY phased data points follow
   4.74421E-01  3.40934E+00  7.34178E+00  1.23601E+00  5.87640E+00  3.60595E+00  7.96106E+00  5.51195E+00  6.00628E+00  1.15980E+00
   3.97341E+00  6.20734E+00  1.69816E+00  5.85751E+00  4.73022E+00  6.63006E+00  4.87278E+00  3.38961E+00  6.29573E+00  5.59760E+00
   7.59191E+00  3.90422E+00  4.00966E+00  2.63419E+00 -1.85083E+00  4.10258E+00  7.56264E+00  9.50850E-01  1.29873E-01  6.96877E+00
   5.91000E+00  4.15392E+00  5.87044E+00  4.42909E+00  7.63519E+00  3.70671E+00  2.57541E+00  3.54730E+00  3.48961E+00  2.47538E+00
   5.99650E+00  3.62220E+00  5.74251E+00  2.15361E+00  4.49650E+00  3.76913E+00  7.13628E+00  1.32373E+00  5.88167E+00  2.00487E+00
   5.72242E+00  6.89891E-02  4.21356E+00  3.87201E+00 -5.79993E-01  4.82347E+00  1.39762E+00  7.11269E+00  4.53772E-01  1.55564E+00
   2.83087E+00  8.38621E+00  4.25894E+00  3.54027E+00  4.52176E+00  2.83558E+00  3.92054E+00  2.32323E+00 -2.57763E-01  2.42617E+00
   1.08038E+00  2.40432E+00  1.29001E+00  4.73947E+00 -7.86806E-01  3.28515E+00  4.49798E+00  4.36904E+00  2.84635E+00  3.01442E+00
  -3.90378E+00 -4.64305E-01  4.15237E+00 -1.02644E+00  3.48970E+00  3.35610E+00  2.22027E+00 -1.48252E+00  4.73832E+00  2.11251E+00
   1.13403E+00  4.67866E+00  2.03332E+00  1.98117E+00  3.70557E+00  5.57074E+00  7.58030E+00  3.95399E+00  4.47222E+00  8.11558E+00
   6.91989E+00  4.65361E+00  7.37734E+00  4.70291E+00  3.71483E+00  7.02135E+00  4.14872E+00  5.88771E+00  9.67319E+00  6.38065E+00
   3.38909E+00  6.15367E+00  5.73642E+00  4.38227E+00  3.49017E+00  3.26247E+00  3.37477E+00 -9.86781E-01  4.69160E+00  3.26958E+00
   6.45478E+00  6.27534E+00  4.74813E+00  4.52693E+00  1.06346E+01  7.30827E+00  1.36750E+01  1.17639E+01  1.29498E+01  8.81738E+00
   1.07495E+01  1.20571E+01  1.56847E+01  9.29633E+00  9.84165E+00  7.53388E+00  3.05545E+00  4.32604E+00  6.11435E+00  4.04414E-01
   2.84542E+00  6.00756E+00  1.67224E+00  6.10862E+00  6.06873E+00  3.35603E+00  7.49810E-01  1.87451E+00  1.80552E+00  4.89515E+00
   3.21510E+00  2.06717E-01  2.72993E+00 -5.99001E-01  1.25567E+00  3.34204E+00  2.26325E+00  4.26771E+00  3.87991E+00 -7.46363E-01
   5.86676E+00  1.93367E+00  3.10744E+00  4.63212E+00 -5.29401E-01  3.59889E+00 -2.83575E-01 -4.55097E-01  4.67322E-01  2.41260E+00
  -5.74795E-02  1.80439E+00 -1.79095E+00  1.89723E-01  7.23766E-01  2.28351E+00 -4.96548E+00 -6.76106E-01 -3.23307E+00 -4.51856E+00
  -3.00529E+00 -3.59006E+00 -5.42349E+00 -3.55729E+00 -4.57090E-01  6.21985E-01 -6.53084E-01 -5.92890E-01  2.80818E+00  5.15496E+00
  -3.03798E+00 -2.84963E+00 -2.44810E+00 -1.19560E+00 -2.72325E-01 -5.75959E+00  1.32004E+00  2.91151E+00 -2.13869E+00 -2.69757E+00
  -2.92855E+00 -2.18588E+00  5.15781E-01 -2.22479E+00 -2.44311E+00  5.64107E-01  1.16153E+00 -2.06519E+00 -7.16187E-01  3.09282E+00
   3.29219E+00  3.70153E+00  1.07318E+00 -1.91798E+00  4.87639E+00  6.54575E+00  3.73360E+00  1.54952E-01  3.75450E+00  7.60063E+00
   7.51310E+00  3.87750E+00  6.37390E+00  3.78258E+00  8.95956E+00  4.50275E+00  3.08098E+00  5.19818E+00  3.59336E+00  3.15819E+00
   5.93490E+00  6.27963E+00  6.56062E+00  4.57545E+00  6.00018E+00  9.71339E+00  7.26864E+00  8.46439E+00  6.48248E+00  7.48529E+00
   5.42210E+00  7.72446E+00  5.58437E+00  6.12253E+00  7.51344E+00  3.66250E+00  4.08570E+00  5.44398E+00  1.54768E+00  1.26199E+00
   5.99950E+00  5.71407E+00  9.89647E+00  7.39685E+00  9.17303E+00  1.12008E+01  1.56936E+01  1.64128E+01  2.13409E+01  2.86726E+01
   2.48321E+01  2.82294E+01  3.04866E+01  3.43964E+01  3.04316E+01  2.92518E+01  2.90713E+01  2.47769E+01  1.59536E+01  1.50193E+01
   1.53001E+01  1.35019E+01  1.24952E+01  8.39956E+00  8.18203E+00  5.92513E+00  8.02755E+00  9.55055E+00  8.92999E+00  4.94863E+00
   6.67489E+00  5.54008E+00  6.14999E+00  6.90931E+00  4.84857E+00  6.62853E+00  4.62254E+00  5.10994E+00  2.15764E+00  5.51438E+00
   4.88702E+00 -1.02370E+00  1.65300E+00  3.96658E+00  2.22127E+00  2.31277E+00  4.98074E+00  4.99505E-01  8.16309E-01  6.29517E+00
  -5.94529E-02  8.92239E-01  4.48151E+00  4.27881E+00  5.55587E+00  4.16418E-01  4.61856E+00  4.09347E+00  7.09973E-01  9.28774E+00
   7.04383E+00  9.20778E+00  9.18231E+00  1.29566E+01  1.11837E+01  1.22094E+01  1.45967E+01  1.06055E+01  1.37170E+01  1.55452E+01
   1.57365E+01  1.69625E+01  1.85450E+01  2.02676E+01  2.04145E+01  2.22638E+01  2.08423E+01  2.23391E+01  2.29452E+01  2.51041E+01
   2.62857E+01  2.97829E+01  2.61225E+01  2.43639E+01  3.03147E+01  2.58306E+01  3.04410E+01  2.92866E+01  2.92891E+01  2.77089E+01
   2.99348E+01  3.08456E+01  2.69245E+01  2.83726E+01  2.35220E+01  2.31135E+01  2.30515E+01  2.29824E+01  2.62357E+01  1.76637E+01
   1.70520E+01  1.87567E+01  1.67553E+01  1.67378E+01  1.67408E+01  1.18715E+01  1.26872E+01  1.40698E+01  1.43697E+01  1.53600E+01
   8.16607E+00  1.27344E+01  1.24757E+01  1.42695E+01  1.52976E+01  1.64565E+01  1.84241E+01  1.55155E+01  1.17394E+01  1.02217E+01
   1.08667E+01  1.03892E+01  9.34683E+00  8.20298E+00  1.09603E+01  8.89964E+00  8.10603E+00  5.53025E+00  8.03542E+00  4.42653E+00
   8.60539E+00  8.16065E+00  5.90569E+00  9.35546E+00  1.06971E+01  6.67821E+00  5.34825E+00  7.42418E+00  4.13707E+00  4.72667E+00
   7.26165E+00  2.93593E+00  6.03765E+00  6.92095E+00  4.71724E+00  7.24788E+00  7.57923E+00  7.23452E+00  1.07198E+01  8.34513E+00
   7.72429E+00  7.34355E+00  1.09128E+01  8.22001E+00  7.34282E+00  9.12135E+00  1.53192E+01  6.45495E+00  8.65931E+00  7.62024E+00
   8.12498E+00  1.26992E+01  1.44907E+01  1.31756E+01  8.19689E+00  7.39608E+00  5.37284E+00  7.61099E+00  8.77807E+00  6.42687E+00
   6.37042E+00  8.81792E+00  5.93767E+00  5.81844E+00  2.79372E+00  6.47395E+00  2.97216E+00  6.11265E+00  3.73261E+00  5.02449E+00
   8.07358E+00  4.13222E+00  3.18917E+00  4.62680E+00  1.29929E+00  5.56835E+00  2.29684E+00  2.02947E+00  2.01507E+00  4.94238E+00
   1.72523E+00  3.31390E+00  2.85553E+00  1.31459E+00  2.60898E+00  2.11953E+00  3.34422E+00  3.68076E+00  5.24612E+00  1.87687E+00
   6.50740E-01  8.05976E+00  1.31161E+00 -1.26010E+00  3.28598E+00  6.25246E+00  5.54367E+00 -2.77837E+00  4.22755E+00  3.19361E+00
   2.98202E+00  1.43994E+00 -1.71051E+00  1.37941E+00  4.07394E+00  2.67550E+00  3.90235E+00 -2.21667E+00  7.98915E-01 -1.29152E+00
  -2.08613E+00  1.40054E-01 -1.50422E+00 -1.83721E+00  5.87764E+00  5.40220E+00  1.54264E+00 -6.45402E-02 -7.37180E-01  2.10753E-01
   9.82816E-01  9.09155E-01 -8.64229E-01  9.45592E-01 -9.99206E-01  3.27054E+00  2.72893E+00  8.94767E-01  6.99191E-01 -3.37102E+00
   1.66445E+00  3.11554E+00  4.34331E-01 -1.31165E+00  3.38416E+00  3.01256E+00  7.89122E+00  5.00952E+00
 NY points of the fit to the data follow
   2.43401E+00  2.68019E+00  3.23793E+00  3.18096E+00  3.96748E+00  3.65572E+00  4.67850E+00  4.14107E+00  5.16822E+00  4.62025E+00
   5.64088E+00  5.06358E+00  5.90284E+00  5.39654E+00  6.00698E+00  5.60839E+00  5.71731E+00  5.42897E+00  5.05743E+00  4.91719E+00
   4.07193E+00  4.46033E+00  3.52975E+00  4.37780E+00  3.52329E+00  4.57714E+00  3.89238E+00  4.75554E+00  4.13382E+00  4.82982E+00
   4.52438E+00  4.80761E+00  4.91627E+00  4.75575E+00  5.38195E+00  4.67562E+00  5.70583E+00  4.50933E+00  5.76357E+00  4.20818E+00
   5.55902E+00  4.05939E+00  5.42331E+00  4.02305E+00  5.00589E+00  3.78375E+00  4.28971E+00  3.46236E+00  3.77650E+00  3.56237E+00
   3.88701E+00  3.81093E+00  3.91927E+00  3.71659E+00  3.52292E+00  3.20893E+00  2.96459E+00  2.75780E+00  2.59308E+00  2.46322E+00
   2.32993E+00  2.25169E+00  2.15060E+00  2.13173E+00  2.05987E+00  2.11969E+00  2.07286E+00  2.15467E+00  2.08946E+00  2.16917E+00
   2.09685E+00  2.17076E+00  2.09378E+00  2.15575E+00  2.09803E+00  2.14233E+00  2.14919E+00  2.17793E+00  2.23168E+00  2.22620E+00
   2.31551E+00  2.26807E+00  2.38222E+00  2.29718E+00  2.41765E+00  2.31212E+00  2.40267E+00  2.27950E+00  2.33521E+00  2.18352E+00
   2.18930E+00  2.08231E+00  2.10549E+00  2.29995E+00  2.37392E+00  2.78711E+00  2.90132E+00  3.52245E+00  3.64889E+00  4.41385E+00
   4.56100E+00  5.42172E+00  5.54146E+00  6.26843E+00  6.31798E+00  6.83045E+00  6.73242E+00  6.89146E+00  6.63966E+00  6.41459E+00
   6.02385E+00  5.44632E+00  4.94917E+00  4.30646E+00  3.89712E+00  3.41278E+00  3.60376E+00  3.29655E+00  4.07094E+00  3.96277E+00
   5.39103E+00  5.44074E+00  7.37147E+00  7.21048E+00  9.49205E+00  8.91534E+00  1.11424E+01  1.01372E+01  1.21490E+01  1.07176E+01
   1.21951E+01  1.04318E+01  1.11867E+01  9.28556E+00  9.31138E+00  7.58357E+00  7.22542E+00  5.77640E+00  5.08599E+00  4.02231E+00
   3.24523E+00  2.65309E+00  2.11359E+00  1.97158E+00  1.90167E+00  1.87853E+00  1.84950E+00  1.85326E+00  1.83669E+00  1.84699E+00
   1.81851E+00  1.78890E+00  1.75633E+00  1.69390E+00  1.67795E+00  1.60254E+00  1.58204E+00  1.49094E+00  1.45655E+00  1.35045E+00
   1.29823E+00  1.19926E+00  1.12734E+00  1.03600E+00  9.18706E-01  8.27565E-01  6.52019E-01  5.83336E-01  3.79855E-01  3.22509E-01
   9.62529E-02 -9.59537E-04 -2.03196E-01 -3.21576E-01 -4.60784E-01 -5.97178E-01 -6.58650E-01 -8.45435E-01 -8.01448E-01 -1.00871E+00
  -8.17952E-01 -9.77746E-01 -6.64946E-01 -8.45173E-01 -5.19987E-01 -7.82564E-01 -5.77143E-01 -8.69506E-01 -8.31049E-01 -1.07138E+00
  -1.13169E+00 -1.09118E+00 -1.14904E+00 -7.21443E-01 -6.27421E-01  2.91698E-01  4.99337E-01  1.51863E+00  1.62849E+00  2.23528E+00
   2.08814E+00  2.45533E+00  2.05555E+00  2.16227E+00  1.59434E+00  1.55492E+00  1.10856E+00  8.56741E-01  6.05438E-01  3.47743E-01
   3.83840E-01 -7.05492E-02  1.86232E-01 -2.15050E-01  5.76734E-01  3.63833E-01  1.59670E+00  1.56096E+00  3.13582E+00  2.95161E+00
   4.50764E+00  4.26203E+00  5.60572E+00  5.19139E+00  5.86363E+00  5.02997E+00  5.17528E+00  4.29032E+00  4.28043E+00  4.24340E+00
   4.43355E+00  5.07049E+00  5.15803E+00  6.12424E+00  6.14700E+00  7.12949E+00  6.62351E+00  7.45529E+00  6.33979E+00  7.03843E+00
   5.38579E+00  6.16396E+00  4.57633E+00  5.60152E+00  4.07111E+00  5.05127E+00  3.60379E+00  4.57691E+00  3.55584E+00  4.82288E+00
   5.24350E+00  7.03825E+00  8.25077E+00  1.03987E+01  1.23196E+01  1.50513E+01  1.72654E+01  2.03632E+01  2.23939E+01  2.53109E+01
   2.59784E+01  2.82418E+01  2.77667E+01  2.92318E+01  2.74499E+01  2.79868E+01  2.50698E+01  2.46902E+01  2.10213E+01  2.00724E+01
   1.66138E+01  1.54404E+01  1.22159E+01  1.09607E+01  8.32024E+00  7.29472E+00  5.70355E+00  5.22939E+00  4.97457E+00  4.89984E+00
   4.76821E+00  4.72401E+00  4.64700E+00  4.57852E+00  4.51966E+00  4.45079E+00  4.39259E+00  4.31857E+00  4.26028E+00  4.19648E+00
   4.14826E+00  4.11991E+00  4.10472E+00  4.10535E+00  4.10997E+00  4.13185E+00  4.14750E+00  4.18406E+00  4.20763E+00  4.25884E+00
   4.30293E+00  4.37811E+00  4.45182E+00  4.56193E+00  4.67786E+00  4.83714E+00  5.01143E+00  5.23992E+00  5.49741E+00  5.82131E+00
   6.19220E+00  6.64536E+00  7.16335E+00  7.78058E+00  8.52716E+00  9.41554E+00  1.04658E+01  1.17413E+01  1.29391E+01  1.44011E+01
   1.56659E+01  1.71783E+01  1.83468E+01  1.97529E+01  2.07025E+01  2.20253E+01  2.28283E+01  2.38283E+01  2.45117E+01  2.51525E+01
   2.57247E+01  2.59057E+01  2.64323E+01  2.62202E+01  2.69407E+01  2.65413E+01  2.75733E+01  2.74189E+01  2.84184E+01  2.80343E+01
   2.88082E+01  2.80458E+01  2.83165E+01  2.70866E+01  2.66663E+01  2.55072E+01  2.44490E+01  2.29472E+01  2.14912E+01  2.00471E+01
   1.83963E+01  1.71499E+01  1.56608E+01  1.50142E+01  1.41329E+01  1.38770E+01  1.35447E+01  1.38750E+01  1.38978E+01  1.43537E+01
   1.45779E+01  1.49634E+01  1.52088E+01  1.53567E+01  1.53923E+01  1.53758E+01  1.49600E+01  1.41957E+01  1.34571E+01  1.22971E+01
   1.14165E+01  1.02994E+01  9.51417E+00  8.92610E+00  8.43265E+00  8.01942E+00  7.65447E+00  7.34634E+00  7.07302E+00  6.84802E+00
   6.65223E+00  6.50078E+00  6.37573E+00  6.29296E+00  6.23517E+00  6.21862E+00  6.22632E+00  6.27459E+00  6.34644E+00  6.45793E+00
   6.59175E+00  6.76331E+00  6.95451E+00  7.17965E+00  7.41945E+00  7.68675E+00  7.96083E+00  8.25296E+00  8.54096E+00  8.83467E+00
   9.11087E+00  9.37863E+00  9.61444E+00  9.82753E+00  9.99514E+00  1.01277E+01  1.02044E+01  1.02379E+01  1.02099E+01  1.01361E+01
   1.00012E+01  9.82363E+00  9.59114E+00  9.32449E+00  9.01348E+00  8.68040E+00  8.31605E+00  7.94318E+00  7.55255E+00  7.16634E+00
   6.77441E+00  6.39765E+00  6.02452E+00  5.67429E+00  5.33385E+00  5.02084E+00  4.72072E+00  4.44976E+00  4.19231E+00  3.96362E+00
   3.74731E+00  3.55801E+00  3.37892E+00  3.22435E+00  3.07742E+00  2.95234E+00  2.83230E+00  2.73155E+00  2.63347E+00  2.55241E+00
   2.47198E+00  2.40669E+00  2.34035E+00  2.28760E+00  2.23246E+00  2.18968E+00  2.14345E+00  2.10863E+00  2.06954E+00  2.04110E+00
   2.00775E+00  1.98446E+00  1.95577E+00  1.93668E+00  1.91182E+00  1.89618E+00  1.87447E+00  1.86171E+00  1.84263E+00  1.83227E+00
   1.81541E+00  1.80708E+00  1.79211E+00  1.78552E+00  1.77217E+00  1.76706E+00  1.75511E+00  1.75129E+00  1.74056E+00  1.73786E+00
   1.72822E+00  1.72651E+00  1.71781E+00  1.71698E+00  1.70914E+00  1.70910E+00  1.70203E+00  1.70271E+00  1.69634E+00  1.69768E+00
   1.69197E+00  1.69392E+00  1.68882E+00  1.69136E+00  1.68685E+00  1.68996E+00  1.68602E+00  1.68968E+00  1.68632E+00  1.69054E+00
   1.68777E+00  1.69258E+00  1.69042E+00  1.69586E+00  1.69437E+00  1.70051E+00  1.69978E+00  1.70672E+00
 NY background values follow
     9.715E-01    9.735E-01    9.756E-01    9.776E-01    9.796E-01    9.817E-01    9.837E-01    9.858E-01    9.878E-01    9.898E-01
     9.919E-01    9.939E-01    9.959E-01    9.980E-01    1.000E+00    1.002E+00    1.004E+00    1.006E+00    1.008E+00    1.010E+00
     1.012E+00    1.014E+00    1.016E+00    1.018E+00    1.020E+00    1.022E+00    1.024E+00    1.026E+00    1.029E+00    1.031E+00
     1.033E+00    1.035E+00    1.037E+00    1.039E+00    1.041E+00    1.043E+00    1.045E+00    1.047E+00    1.049E+00    1.051E+00
     1.053E+00    1.055E+00    1.057E+00    1.059E+00    1.061E+00    1.063E+00    1.065E+00    1.067E+00    1.069E+00    1.071E+00
     1.073E+00    1.075E+00    1.077E+00    1.079E+00    1.081E+00    1.083E+00    1.086E+00    1.088E+00    1.090E+00    1.092E+00
     1.094E+00    1.096E+00    1.098E+00    1.100E+00    1.102E+00    1.104E+00    1.106E+00    1.108E+00    1.110E+00    1.112E+00
     1.114E+00    1.116E+00    1.118E+00    1.120E+00    1.122E+00    1.124E+00    1.126E+00    1.128E+00    1.130E+00    1.132E+00
     1.134E+00    1.136E+00    1.138E+00    1.140E+00    1.142E+00    1.144E+00    1.146E+00    1.148E+00    1.150E+00    1.152E+00
     1.155E+00    1.157E+00    1.159E+00    1.161E+00    1.163E+00    1.165E+00    1.167E+00    1.169E+00    1.171E+00    1.173E+00
     1.175E+00    1.177E+00    1.179E+00    1.181E+00    1.183E+00    1.185E+00    1.187E+00    1.189E+00    1.191E+00    1.193E+00
     1.195E+00    1.197E+00    1.199E+00    1.201E+00    1.203E+00    1.205E+00    1.207E+00    1.209E+00    1.211E+00    1.213E+00
     1.215E+00    1.217E+00    1.219E+00    1.221E+00    1.223E+00    1.225E+00    1.227E+00    1.229E+00    1.231E+00    1.233E+00
     1.235E+00    1.237E+00    1.239E+00    1.241E+00    1.243E+00    1.245E+00    1.247E+00    1.249E+00    1.251E+00    1.253E+00
     1.256E+00    1.258E+00    1.260E+00    1.262E+00    1.264E+00    1.266E+00    1.268E+00    1.270E+00    1.272E+00    1.274E+00
     1.276E+00    1.278E+00    1.280E+00    1.282E+00    1.284E+00    1.286E+00    1.288E+00    1.290E+00    1.292E+00    1.294E+00
     1.296E+00    1.298E+00    1.300E+00    1.302E+00    1.304E+00    1.306E+00    1.308E+00    1.310E+00    1.312E+00    1.314E+00
     1.316E+00    1.318E+00    1.320E+00    1.322E+00    1.324E+00    1.326E+00    1.328E+00    1.330E+00    1.332E+00    1.334E+00
     1.336E+00    1.338E+00    1.340E+00    1.342E+00    1.344E+00    1.346E+00    1.348E+00    1.350E+00    1.352E+00    1.354E+00
     1.356E+00    1.358E+00    1.360E+00    1.362E+00    1.364E+00    1.366E+00    1.368E+00    1.370E+00    1.372E+00    1.374E+00
     1.376E+00    1.378E+00    1.380E+00    1.382E+00    1.384E+00    1.386E+00    1.388E+00    1.390E+00    1.391E+00    1.393E+00
     1.395E+00    1.397E+00    1.399E+00    1.401E+00    1.403E+00    1.405E+00    1.407E+00    1.409E+00    1.411E+00    1.413E+00
     1.415E+00    1.417E+00    1.419E+00    1.421E+00    1.423E+00    1.425E+00    1.427E+00    1.429E+00    1.431E+00    1.433E+00
     1.435E+00    1.437E+00    1.439E+00    1.441E+00    1.443E+00    1.445E+00    1.447E+00    1.449E+00    1.451E+00    1.453E+00
     1.455E+00    1.457E+00    1.459E+00    1.461E+00    1.463E+00    1.465E+00    1.467E+00    1.469E+00    1.471E+00    1.473E+00
     1.474E+00    1.476E+00    1.478E+00    1.480E+00    1.482E+00    1.484E+00    1.486E+00    1.488E+00    1.490E+00    1.492E+00
     1.494E+00    1.496E+00    1.498E+00    1.500E+00    1.502E+00    1.504E+00    1.506E+00    1.508E+00    1.510E+00    1.512E+00
     1.514E+00    1.516E+00    1.518E+00    1.520E+00    1.521E+00    1.523E+00    1.525E+00    1.527E+00    1.529E+00    1.531E+00
     1.533E+00    1.535E+00    1.537E+00    1.539E+00    1.541E+00    1.543E+00    1.545E+00    1.547E+00    1.549E+00    1.551E+00
     1.553E+00    1.555E+00    1.556E+00    1.558E+00    1.560E+00    1.562E+00    1.564E+00    1.566E+00    1.568E+00    1.570E+00
     1.572E+00    1.574E+00    1.576E+00    1.578E+00    1.580E+00    1.582E+00    1.584E+00    1.585E+00    1.587E+00    1.589E+00
     1.591E+00    1.593E+00    1.595E+00    1.597E+00    1.599E+00    1.601E+00    1.603E+00    1.605E+00    1.607E+00    1.609E+00
     1.611E+00    1.612E+00    1.614E+00    1.616E+00    1.618E+00    1.620E+00    1.622E+00    1.624E+00    1.626E+00    1.628E+00
     1.630E+00    1.632E+00    1.634E+00    1.635E+00    1.637E+00    1.639E+00    1.641E+00    1.643E+00    1.645E+00    1.647E+00
     1.649E+00    1.651E+00    1.653E+00    1.655E+00    1.656E+00    1.658E+00    1.660E+00    1.662E+00    1.664E+00    1.666E+00
     1.668E+00    1.670E+00    1.672E+00    1.674E+00    1.675E+00    1.677E+00    1.679E+00    1.681E+00    1.683E+00    1.685E+00
     1.687E+00    1.689E+00    1.691E+00    1.692E+00    1.694E+00    1.696E+00    1.698E+00    1.700E+00    1.702E+00    1.704E+00
     1.706E+00    1.708E+00    1.709E+00    1.711E+00    1.713E+00    1.715E+00    1.717E+00    1.719E+00    1.721E+00    1.723E+00
     1.725E+00    1.726E+00    1.728E+00    1.730E+00    1.732E+00    1.734E+00    1.736E+00    1.738E+00    1.740E+00    1.741E+00
     1.743E+00    1.745E+00    1.747E+00    1.749E+00    1.751E+00    1.753E+00    1.754E+00    1.756E+00    1.758E+00    1.760E+00
     1.762E+00    1.764E+00    1.766E+00    1.767E+00    1.769E+00    1.771E+00    1.773E+00    1.775E+00    1.777E+00    1.779E+00
     1.780E+00    1.782E+00    1.784E+00    1.786E+00    1.788E+00    1.790E+00    1.792E+00    1.793E+00    1.795E+00    1.797E+00
     1.799E+00    1.801E+00    1.803E+00    1.804E+00    1.806E+00    1.808E+00    1.810E+00    1.812E+00    1.814E+00    1.815E+00
     1.817E+00    1.819E+00    1.821E+00    1.823E+00    1.825E+00    1.826E+00    1.828E+00    1.830E+00    1.832E+00    1.834E+00
     1.836E+00    1.837E+00    1.839E+00    1.841E+00    1.843E+00    1.845E+00    1.847E+00    1.848E+00    1.850E+00    1.852E+00
     1.854E+00    1.856E+00    1.857E+00    1.859E+00    1.861E+00    1.863E+00    1.865E+00    1.867E+00    1.868E+00    1.870E+00
     1.872E+00    1.874E+00    1.876E+00    1.877E+00    1.879E+00    1.881E+00    1.883E+00    1.885E+00    1.886E+00    1.888E+00
     1.890E+00    1.892E+00    1.894E+00    1.895E+00    1.897E+00    1.899E+00    1.901E+00    1.903E+00    1.904E+00    1.906E+00
     1.908E+00    1.910E+00    1.911E+00    1.913E+00    1.915E+00    1.917E+00    1.919E+00    1.920E+00    1.922E+00    1.924E+00
     1.926E+00    1.927E+00    1.929E+00    1.931E+00    1.933E+00    1.935E+00    1.936E+00    1.938E+00
 Ala      Conc. = 6.60E+02
