 LCModel (Version 6.3-1L) Copyright: S.W. Provencher.          Ref.: Magn. Reson. Med. 30:672-679 (1993).                
 Slice#1 Row#12 Col#6  PD_05_press_2_raw_act
 36 lines in following concentration table = NCONC+1
    Conc.  %SD /Cr+PCr  Metabolite                                         
    0.000 999%   0.000 Ala                                                 
    2.565  81%   0.174 Asp                                                 
   14.746 160%   1.000 Cr                                                  
    0.000 999%   0.000 PCr                                                 
    1.541  81%   0.105 GABA                                                
    1.547  81%   0.105 Glc                                                 
    0.000 999%   0.000 Gln                                                 
   30.483 344%   2.067 Glu                                                 
   12.235  75%   0.830 GPC                                                 
    0.000 999%   0.000 PCh                                                 
   33.497 102%   2.272 GSH                                                 
    0.000 999%   0.000 Ins                                                 
    1.646 999%   0.112 Lac                                                 
    0.000 999%   0.000 NAA                                                 
    0.000 999%   0.000 NAAG                                                
    0.515  81% 3.5E-02 Scyllo                                              
    2.577  81%   0.175 Tau                                                 
    1.511 180%   0.102 -CrCH2                                              
   12.235  75%   0.830 GPC+PCh                                             
    0.000 999%   0.000 NAA+NAAG                                            
   14.746 160%   1.000 Cr+PCr                                              
   30.483 344%   2.067 Glu+Gln                                             
  874.248  19%  59.287 Lip13a                                              
    0.000 999%   0.000 Lip13b                                              
  231.143  23%  15.675 Lip09                                               
    0.474 999% 3.2E-02 MM09                                                
  123.253  30%   8.358 Lip20                                               
    0.000 999%   0.000 MM20                                                
    0.126 999% 8.6E-03 MM12                                                
    2.919 369%   0.198 MM14                                                
    0.000 999%   0.000 MM17                                                
  874.248  19%  59.287 Lip13a+Lip13b                                       
  877.293  19%  59.494 MM14+Lip13a+Lip13b+MM12                             
  231.618  23%  15.707 MM09+Lip09                                          
  123.253  30%   8.358 MM20+Lip20                                          
   6 lines in following misc. output table
  FWHM = 0.038 ppm    S/N =   1                                            
  Data shift = 0.008 ppm                                                   
  Ph:-129 deg     -22.2 deg/ppm                                            
  alphaB,S = 8.5E+01,   2.6E+01                                            
   14 spline knots.   Ns = 5(1)                                            
   2 inflections.     1 extrema                                            
  498 points on ppm-axis = NY
      4.000000     3.992357     3.984714     3.977070     3.969427     3.961784     3.954141     3.946497     3.938854     3.931211
      3.923568     3.915925     3.908281     3.900638     3.892995     3.885352     3.877708     3.870065     3.862422     3.854779
      3.847136     3.839492     3.831849     3.824206     3.816563     3.808919     3.801276     3.793633     3.785990     3.778347
      3.770703     3.763060     3.755417     3.747774     3.740130     3.732487     3.724844     3.717201     3.709558     3.701914
      3.694271     3.686628     3.678985     3.671341     3.663698     3.656055     3.648412     3.640769     3.633125     3.625482
      3.617839     3.610196     3.602552     3.594909     3.587266     3.579623     3.571980     3.564336     3.556693     3.549050
      3.541407     3.533763     3.526120     3.518477     3.510834     3.503191     3.495547     3.487904     3.480261     3.472618
      3.464974     3.457331     3.449688     3.442045     3.434402     3.426758     3.419115     3.411472     3.403829     3.396185
      3.388542     3.380899     3.373256     3.365613     3.357969     3.350326     3.342683     3.335040     3.327396     3.319753
      3.312110     3.304467     3.296824     3.289180     3.281537     3.273894     3.266251     3.258607     3.250964     3.243321
      3.235678     3.228034     3.220391     3.212748     3.205105     3.197462     3.189818     3.182175     3.174532     3.166889
      3.159245     3.151602     3.143959     3.136316     3.128673     3.121029     3.113386     3.105743     3.098100     3.090456
      3.082813     3.075170     3.067527     3.059884     3.052240     3.044597     3.036954     3.029311     3.021667     3.014024
      3.006381     2.998738     2.991095     2.983451     2.975808     2.968165     2.960522     2.952878     2.945235     2.937592
      2.929949     2.922306     2.914662     2.907019     2.899376     2.891733     2.884089     2.876446     2.868803     2.861160
      2.853517     2.845873     2.838230     2.830587     2.822944     2.815300     2.807657     2.800014     2.792371     2.784728
      2.777084     2.769441     2.761798     2.754155     2.746511     2.738868     2.731225     2.723582     2.715939     2.708295
      2.700652     2.693009     2.685366     2.677722     2.670079     2.662436     2.654793     2.647150     2.639506     2.631863
      2.624220     2.616577     2.608933     2.601290     2.593647     2.586004     2.578361     2.570717     2.563074     2.555431
      2.547788     2.540144     2.532501     2.524858     2.517215     2.509572     2.501928     2.494285     2.486642     2.478999
      2.471355     2.463712     2.456069     2.448426     2.440783     2.433139     2.425496     2.417853     2.410210     2.402566
      2.394923     2.387280     2.379637     2.371994     2.364350     2.356707     2.349064     2.341421     2.333777     2.326134
      2.318491     2.310848     2.303205     2.295561     2.287918     2.280275     2.272632     2.264988     2.257345     2.249702
      2.242059     2.234416     2.226772     2.219129     2.211486     2.203843     2.196199     2.188556     2.180913     2.173270
      2.165627     2.157983     2.150340     2.142697     2.135054     2.127410     2.119767     2.112124     2.104481     2.096838
      2.089194     2.081551     2.073908     2.066265     2.058621     2.050978     2.043335     2.035692     2.028049     2.020405
      2.012762     2.005119     1.997476     1.989833     1.982190     1.974546     1.966903     1.959260     1.951617     1.943974
      1.936331     1.928688     1.921045     1.913402     1.905759     1.898115     1.890472     1.882829     1.875186     1.867543
      1.859900     1.852257     1.844614     1.836971     1.829327     1.821684     1.814041     1.806398     1.798755     1.791112
      1.783469     1.775826     1.768183     1.760540     1.752896     1.745253     1.737610     1.729967     1.722324     1.714681
      1.707038     1.699395     1.691752     1.684108     1.676465     1.668822     1.661179     1.653536     1.645893     1.638250
      1.630607     1.622964     1.615321     1.607677     1.600034     1.592391     1.584748     1.577105     1.569462     1.561819
      1.554176     1.546533     1.538890     1.531246     1.523603     1.515960     1.508317     1.500674     1.493031     1.485388
      1.477745     1.470102     1.462458     1.454815     1.447172     1.439529     1.431886     1.424243     1.416600     1.408957
      1.401314     1.393671     1.386027     1.378384     1.370741     1.363098     1.355455     1.347812     1.340169     1.332526
      1.324883     1.317240     1.309596     1.301953     1.294310     1.286667     1.279024     1.271381     1.263738     1.256095
      1.248452     1.240808     1.233165     1.225522     1.217879     1.210236     1.202593     1.194950     1.187307     1.179664
      1.172021     1.164377     1.156734     1.149091     1.141448     1.133805     1.126162     1.118519     1.110876     1.103233
      1.095590     1.087946     1.080303     1.072660     1.065017     1.057374     1.049731     1.042088     1.034445     1.026802
      1.019158     1.011515     1.003872     0.996229     0.988586     0.980943     0.973300     0.965657     0.958014     0.950371
      0.942727     0.935084     0.927441     0.919798     0.912155     0.904512     0.896869     0.889226     0.881583     0.873940
      0.866296     0.858653     0.851010     0.843367     0.835724     0.828081     0.820438     0.812795     0.805152     0.797508
      0.789865     0.782222     0.774579     0.766936     0.759293     0.751650     0.744007     0.736364     0.728721     0.721077
      0.713434     0.705791     0.698148     0.690505     0.682862     0.675219     0.667576     0.659933     0.652290     0.644646
      0.637003     0.629360     0.621717     0.614074     0.606431     0.598788     0.591145     0.583502     0.575858     0.568215
      0.560572     0.552929     0.545286     0.537643     0.530000     0.522357     0.514714     0.507071     0.499427     0.491784
      0.484141     0.476498     0.468855     0.461212     0.453569     0.445925     0.438282     0.430639     0.422996     0.415353
      0.407710     0.400067     0.392424     0.384780     0.377137     0.369494     0.361851     0.354208     0.346565     0.338922
      0.331278     0.323635     0.315992     0.308349     0.300706     0.293063     0.285420     0.277777     0.270133     0.262490
      0.254847     0.247204     0.239561     0.231918     0.224275     0.216631     0.208988     0.201345
 NY phased data points follow
  -1.95005E+00 -6.56470E+00 -5.44316E+00 -1.86654E+00 -1.17450E+00 -2.09279E+00 -6.12476E-01 -1.81441E+00 -2.09877E+00 -3.84492E+00
  -2.56697E-01 -4.87338E-01  1.98435E+00 -4.26019E+00 -3.26293E+00 -2.61496E+00 -6.99091E-01 -1.40351E+00 -3.01567E+00 -3.07923E+00
  -5.80366E-01 -2.26318E+00 -2.40194E+00  6.07873E-01 -1.91943E+00 -1.34555E+00  1.59419E+00 -7.75375E-01 -9.54403E-01 -2.36431E+00
  -1.33979E-01  1.60148E+00 -9.59612E-01  8.61402E-01 -6.82139E-01 -1.95495E+00 -3.03373E+00  3.83148E-01 -1.21916E+00 -5.73727E-01
   1.27041E+00 -3.63137E+00  1.30171E-01 -1.28289E+00 -2.55689E+00 -3.47739E+00  2.25986E-01 -3.20718E-01 -2.74863E+00 -3.31280E+00
  -1.78551E+00 -1.84262E+00  1.47735E+00 -1.45405E+00 -9.75501E-01 -2.39503E+00 -2.98201E+00 -2.10115E+00 -1.21872E+00 -4.89672E+00
  -7.80826E-01 -4.11017E+00 -1.74663E+00 -1.34822E+00 -2.28031E-01  2.15751E-01  1.94059E+00 -1.02705E+00 -3.58771E+00  3.91651E-01
  -1.39303E+00 -1.68352E+00 -4.63020E-01 -9.08283E-01  1.94846E+00 -9.58256E-01  3.31244E-02 -1.35978E+00  1.97741E+00  2.16153E+00
   4.57545E-01 -4.21968E+00  3.89500E-01 -2.83558E+00  1.45450E+00  1.29660E+00 -2.13817E+00 -3.12668E+00 -3.69722E+00  7.21092E-01
  -3.13304E-01  1.32776E+00 -2.87274E+00 -9.65244E-01 -2.82717E-02 -2.47835E+00  1.71006E-01 -1.87402E+00  1.20109E+00 -3.94817E-01
   1.09443E+00  9.61731E-01  2.09910E+00 -7.46741E-02 -1.68335E+00 -1.30836E+00 -2.82371E+00 -1.34522E+00 -1.64195E+00 -9.28369E-01
  -1.51243E+00 -3.55000E+00 -3.85034E-01 -3.77147E+00 -4.56516E+00 -3.90439E+00 -1.79360E+00 -1.09965E-01 -3.84112E+00 -4.10643E+00
  -2.02075E-01 -4.28670E+00 -1.99622E+00 -6.20813E-01 -2.42865E+00  1.28604E+00  2.27119E+00  1.93103E+00 -7.54460E-01 -3.24558E+00
  -3.21061E+00 -9.57660E-01 -1.33204E+00 -2.91456E+00  2.53306E+00 -2.85044E+00 -3.47282E-01 -1.96071E+00 -3.52637E-01 -3.23931E+00
   1.30975E+00 -1.68327E-01 -2.06849E+00 -1.13948E+00 -4.22240E-01 -3.27250E+00 -9.17582E-01  1.44248E+00 -7.11720E-01 -1.35667E+00
  -2.43688E+00 -1.26109E+00  7.23511E-01  1.03675E+00  4.11286E+00  1.31831E+00 -3.62105E+00  4.15092E-01  8.00558E-01  7.11022E-01
   5.45878E-02 -1.07865E-01 -2.21408E+00  7.58962E-01 -3.76176E-01 -1.06932E+00 -1.97603E+00 -5.72844E-01 -6.56596E-01 -3.57525E+00
  -5.71049E-01 -5.22452E-02 -3.89731E+00 -1.85986E+00 -1.75564E+00 -1.11246E-01 -2.57896E+00 -9.40091E-01  7.74117E-01 -4.58033E-01
   3.08670E+00 -6.01726E-01 -1.31394E+00  1.16749E-01 -2.34603E-01 -2.20294E+00  6.91823E-01 -2.48129E+00  8.82654E-01 -1.34215E+00
  -1.61074E+00 -7.90076E-01  1.99826E+00 -2.66046E+00  1.58919E+00 -1.82329E+00 -1.05778E+00  1.00700E-01  1.89616E+00  2.02329E+00
   2.13822E+00  1.72585E+00 -1.89811E+00 -1.21078E+00 -2.16645E+00 -4.83879E-01  3.06381E+00 -1.99609E+00  2.59666E+00 -5.12926E+00
  -2.45440E+00 -4.60249E-01  2.26980E+00 -5.09570E-01 -1.24729E+00  9.30488E-01 -5.93665E-01  7.51946E-01  1.39362E-01  4.11079E-01
  -1.32084E+00 -2.07449E+00  1.99459E+00 -1.57559E+00 -3.93161E-01  5.67692E-01 -1.28356E+00 -4.98478E-01 -1.57612E+00  4.18288E+00
   1.15930E+00 -9.09540E-01 -8.34013E-01 -4.74691E-01 -9.46363E-01  2.90442E+00  7.86421E-01 -1.84539E+00 -5.16696E-01  7.45120E-01
   3.39848E-01 -4.29089E+00 -2.52854E+00 -2.10779E+00  2.04713E+00 -1.46813E+00  2.75823E+00  3.49119E-01  5.23967E-01 -1.90409E+00
  -1.54759E+00 -1.98707E+00 -2.50124E+00 -3.87520E+00 -5.53573E-01  4.38501E-01 -3.23158E+00 -3.98589E+00 -2.71456E-01  1.12025E+00
   2.50909E+00 -7.30395E-01 -1.65063E+00 -2.20838E+00 -5.63504E+00 -6.30264E+00 -3.41029E+00  1.19759E+00 -4.37689E+00 -4.08576E+00
  -5.93124E+00 -3.10000E-01 -1.13654E+00 -5.26582E-01  1.74871E+00 -5.96152E+00 -7.75047E-02 -2.18986E+00 -3.21472E+00 -3.00180E+00
  -1.35099E+00 -3.44275E+00 -3.43875E+00 -3.29563E-01  9.84137E-01 -4.01961E+00  1.16962E-01 -2.15990E+00 -2.06525E+00 -2.13832E+00
   1.33654E+00  1.43006E+00 -2.73625E+00 -1.64811E+00 -2.64094E+00 -4.53313E+00 -2.31158E+00 -3.87746E+00 -2.84410E+00 -2.27225E+00
  -3.25836E+00 -2.42737E+00 -6.99720E-01 -3.11674E+00  8.81716E-01  9.89250E-01 -4.28708E+00 -3.14849E+00 -4.67801E+00 -3.79460E+00
  -4.76451E+00 -3.45460E+00 -3.32349E+00 -2.71282E+00 -4.31654E+00 -1.99920E+00 -1.18928E+00 -8.25295E-01 -1.52924E+00 -3.74139E+00
  -2.41254E+00 -6.66051E-01 -2.32447E+00 -2.29087E+00 -3.34575E+00 -3.28708E-01 -2.94470E+00  1.49108E+00  7.91836E-01  1.67327E+00
   3.29077E+00  3.84739E+00  5.67169E+00  3.87747E+00  2.55133E+00  7.85963E-02  6.34664E+00  1.18445E-01  4.53833E+00  4.20973E+00
   3.55592E+00  4.69229E+00  7.49365E+00  8.05361E+00  4.38454E+00  3.90353E+00  5.31795E+00  3.61996E+00  3.88037E+00  4.69627E+00
   4.71449E+00  2.11301E+00  2.64606E+00 -3.75287E+00 -9.73337E-01 -3.23310E+00 -8.25752E-01 -2.61052E+00 -6.22702E-01 -1.26014E+00
  -2.57755E+00  1.69282E+00 -4.85500E-01 -1.34234E+00  4.62506E-01  1.28518E+00  4.04009E+00  2.29855E+00 -1.50570E+00  3.87189E+00
   4.29596E+00  3.05607E+00  1.90028E+00  2.62429E+00  1.60782E+00 -3.05133E-01  3.22468E+00  8.71094E-01  4.40891E+00  4.66022E+00
   2.90581E+00  3.35028E+00 -1.09337E-01  6.93994E-01  2.42720E-01  7.14811E-01 -6.50237E-01 -1.42619E+00  1.26092E-01 -1.92700E+00
  -7.40947E-01  5.04410E-01  1.22346E+00  5.74894E-01  1.05225E+00  4.69279E-01  3.92834E+00 -2.75089E+00  5.92802E-01  2.49374E+00
   3.33171E+00  2.80781E+00 -7.37064E-01  1.80708E+00  6.32617E-01  2.11366E+00  2.54501E+00 -7.63602E-01  3.62706E-01 -1.08664E+00
  -1.34102E+00 -3.45619E+00  6.01013E-01  5.10494E+00 -5.72895E-01 -3.57112E-01  1.62493E+00  1.60482E+00  1.31583E+00 -2.52552E+00
  -1.08660E+00  8.94639E-01  8.18871E-02 -2.93134E+00  2.24152E+00  1.07847E+00  6.32215E-01 -9.85432E-01  3.02424E-01 -3.14638E+00
  -2.02857E-01 -5.53623E-01  1.91529E+00 -1.01446E+00 -1.60624E-01 -6.36647E-01  1.51419E+00  2.65138E-01 -1.62135E-01 -2.70620E+00
  -9.51314E-01 -8.88387E-01  1.23599E+00 -2.26368E+00  1.27866E+00 -1.63018E+00 -2.01188E+00  4.00751E-02 -6.50823E-01  1.93615E+00
  -1.69386E+00  2.45618E+00  5.20395E-01  5.80666E-01 -2.59638E+00  9.98301E-01 -1.21549E+00 -9.45323E-01 -3.83859E-01 -1.67372E+00
  -2.01121E+00 -6.94133E-01  1.62926E+00 -7.58032E-01 -1.83514E+00 -1.74329E+00 -2.33233E+00  1.35962E-02  1.55474E+00  1.08965E+00
  -1.61305E+00 -9.81384E-01 -2.25840E+00  2.82218E+00  1.83337E+00 -2.40956E+00 -5.49907E-01  8.09778E-01  9.44474E-01  6.54635E-01
   1.51406E+00  1.20155E+00  2.56609E+00  9.24621E-02 -2.10393E+00  1.05763E+00  8.81346E-01 -1.25218E+00  3.16135E-01 -1.09726E+00
  -2.02435E+00 -4.49451E+00 -1.73446E-01 -1.34686E-01 -2.77521E+00 -3.46018E+00 -3.67428E+00 -2.38470E+00
 NY points of the fit to the data follow
  -1.31012E+00 -1.29707E+00 -1.28004E+00 -1.26101E+00 -1.24492E+00 -1.22866E+00 -1.18483E+00 -1.10122E+00 -1.00211E+00 -9.15890E-01
  -8.64062E-01 -8.58260E-01 -8.96998E-01 -9.66008E-01 -1.04301E+00 -1.10844E+00 -1.15210E+00 -1.17328E+00 -1.17961E+00 -1.18670E+00
  -1.20157E+00 -1.22072E+00 -1.23989E+00 -1.25744E+00 -1.24681E+00 -1.12613E+00 -8.88958E-01 -6.13001E-01 -3.76304E-01 -2.40542E-01
  -2.44126E-01 -3.87889E-01 -6.19991E-01 -8.66046E-01 -1.06551E+00 -1.18683E+00 -1.23468E+00 -1.23403E+00 -1.20844E+00 -1.17759E+00
  -1.15441E+00 -1.14095E+00 -1.13738E+00 -1.14407E+00 -1.15720E+00 -1.16865E+00 -1.17463E+00 -1.17516E+00 -1.17224E+00 -1.16845E+00
  -1.16634E+00 -1.16797E+00 -1.17372E+00 -1.18271E+00 -1.19293E+00 -1.20232E+00 -1.20980E+00 -1.21546E+00 -1.21947E+00 -1.22191E+00
  -1.22290E+00 -1.22258E+00 -1.22120E+00 -1.21961E+00 -1.21800E+00 -1.21691E+00 -1.21682E+00 -1.21747E+00 -1.21822E+00 -1.21851E+00
  -1.21674E+00 -1.21163E+00 -1.20446E+00 -1.19752E+00 -1.19285E+00 -1.19179E+00 -1.19433E+00 -1.19857E+00 -1.20209E+00 -1.20320E+00
  -1.20081E+00 -1.19285E+00 -1.17996E+00 -1.16629E+00 -1.15540E+00 -1.14940E+00 -1.14878E+00 -1.15236E+00 -1.15831E+00 -1.16498E+00
  -1.17086E+00 -1.17483E+00 -1.17614E+00 -1.17342E+00 -1.16442E+00 -1.14738E+00 -1.11449E+00 -1.01400E+00 -7.51492E-01 -3.79868E-01
  -1.61317E-02  2.38235E-01  3.15558E-01  1.98229E-01 -7.15033E-02 -4.04846E-01 -7.09048E-01 -9.26883E-01 -1.04821E+00 -1.09800E+00
  -1.11408E+00 -1.11932E+00 -1.12051E+00 -1.11905E+00 -1.11594E+00 -1.11395E+00 -1.11423E+00 -1.11609E+00 -1.11806E+00 -1.11704E+00
  -1.10693E+00 -1.07469E+00 -9.81643E-01 -8.27730E-01 -6.59809E-01 -5.23647E-01 -4.51224E-01 -4.53440E-01 -5.11337E-01 -5.87532E-01
  -6.64278E-01 -7.41482E-01 -8.24722E-01 -9.22000E-01 -1.02876E+00 -1.11971E+00 -1.16584E+00 -1.14523E+00 -1.06803E+00 -9.64192E-01
  -8.67879E-01 -8.04245E-01 -7.81409E-01 -7.91625E-01 -8.17971E-01 -8.45361E-01 -8.65901E-01 -8.78544E-01 -8.86016E-01 -8.92316E-01
  -8.99943E-01 -9.07257E-01 -9.10996E-01 -9.09797E-01 -9.04221E-01 -8.96342E-01 -8.88561E-01 -8.82890E-01 -8.80409E-01 -8.81157E-01
  -8.84418E-01 -8.89292E-01 -8.94353E-01 -8.98551E-01 -9.01684E-01 -9.03884E-01 -9.05463E-01 -9.06775E-01 -9.07861E-01 -9.09023E-01
  -9.11587E-01 -9.16940E-01 -9.25522E-01 -9.36936E-01 -9.50216E-01 -9.64078E-01 -9.77326E-01 -9.88977E-01 -9.98947E-01 -1.00661E+00
  -1.01580E+00 -1.02947E+00 -1.04588E+00 -1.06167E+00 -1.07095E+00 -1.06333E+00 -1.02995E+00 -9.71520E-01 -9.01989E-01 -8.43051E-01
  -8.12862E-01 -8.22265E-01 -8.75712E-01 -9.67884E-01 -1.06612E+00 -1.13462E+00 -1.15520E+00 -1.12761E+00 -1.06498E+00 -9.88170E-01
  -9.18085E-01 -8.67987E-01 -8.42983E-01 -8.38556E-01 -8.44731E-01 -8.56606E-01 -8.71214E-01 -8.85808E-01 -8.96021E-01 -8.95543E-01
  -8.78382E-01 -8.33557E-01 -7.69461E-01 -7.07369E-01 -6.65986E-01 -6.57893E-01 -6.89153E-01 -7.60165E-01 -8.56508E-01 -9.46042E-01
  -9.97761E-01 -9.99349E-01 -9.52750E-01 -8.72431E-01 -7.80115E-01 -6.98843E-01 -6.52130E-01 -6.52442E-01 -6.85846E-01 -7.26422E-01
  -7.50562E-01 -7.41878E-01 -6.91037E-01 -6.02956E-01 -5.12538E-01 -4.60872E-01 -4.70183E-01 -5.38293E-01 -6.47113E-01 -7.64666E-01
  -8.51380E-01 -8.75398E-01 -8.33553E-01 -7.44264E-01 -6.37211E-01 -5.43888E-01 -4.86049E-01 -4.70414E-01 -4.87447E-01 -5.20130E-01
  -5.50451E-01 -5.66793E-01 -5.66663E-01 -5.57465E-01 -5.46715E-01 -5.37784E-01 -5.30637E-01 -5.23967E-01 -5.16098E-01 -5.05655E-01
  -4.95562E-01 -4.91041E-01 -4.94177E-01 -5.05196E-01 -5.22796E-01 -5.44515E-01 -5.67684E-01 -5.90661E-01 -6.11702E-01 -6.28714E-01
  -6.40705E-01 -6.47989E-01 -6.51702E-01 -6.53698E-01 -6.56171E-01 -6.60850E-01 -6.68430E-01 -6.78109E-01 -6.88390E-01 -6.97820E-01
  -7.05337E-01 -7.10413E-01 -7.13087E-01 -7.13864E-01 -7.13373E-01 -7.12108E-01 -7.10434E-01 -7.08545E-01 -7.06401E-01 -7.03900E-01
  -7.00950E-01 -6.97493E-01 -6.93503E-01 -6.88984E-01 -6.83948E-01 -6.78400E-01 -6.72341E-01 -6.65771E-01 -6.58660E-01 -6.50973E-01
  -6.42699E-01 -6.33836E-01 -6.24386E-01 -6.14335E-01 -6.03652E-01 -5.92287E-01 -5.80177E-01 -5.67247E-01 -5.53422E-01 -5.38633E-01
  -5.22811E-01 -5.05878E-01 -4.87743E-01 -4.68299E-01 -4.47426E-01 -4.24992E-01 -4.00855E-01 -3.74858E-01 -3.46827E-01 -3.16574E-01
  -2.83893E-01 -2.48564E-01 -2.10347E-01 -1.68992E-01 -1.24230E-01 -7.57854E-02 -2.33735E-02  3.32890E-02  9.44823E-02  1.60472E-01
   2.31498E-01  3.07765E-01  3.89422E-01  4.76552E-01  5.69154E-01  6.67129E-01  7.70261E-01  8.78208E-01  9.90493E-01  1.10652E+00
   1.22563E+00  1.34729E+00  1.47138E+00  1.59524E+00  1.71403E+00  1.82436E+00  1.92438E+00  2.01335E+00  2.09147E+00  2.15958E+00
   2.22058E+00  2.27594E+00  2.32360E+00  2.35996E+00  2.38128E+00  2.38464E+00  2.36875E+00  2.33405E+00  2.28254E+00  2.21699E+00
   2.14010E+00  2.05408E+00  1.96050E+00  1.86067E+00  1.75605E+00  1.64821E+00  1.53872E+00  1.42907E+00  1.32064E+00  1.21467E+00
   1.11224E+00  1.01428E+00  9.21548E-01  8.34664E-01  7.54104E-01  6.80221E-01  6.13264E-01  5.53397E-01  5.00715E-01  4.55263E-01
   4.17050E-01  3.86060E-01  3.62259E-01  3.45598E-01  3.36019E-01  3.33444E-01  3.37769E-01  3.48853E-01  3.66504E-01  3.90455E-01
   4.20356E-01  4.55750E-01  4.96061E-01  5.40575E-01  5.88443E-01  6.38675E-01  6.90152E-01  7.41641E-01  7.91823E-01  8.39331E-01
   8.82788E-01  9.20859E-01  9.52303E-01  9.76017E-01  9.91094E-01  9.96848E-01  9.92859E-01  9.78981E-01  9.55352E-01  9.22382E-01
   8.80732E-01  8.31277E-01  7.75071E-01  7.13289E-01  6.47180E-01  5.78014E-01  5.07034E-01  4.35411E-01  3.64216E-01  2.94389E-01
   2.26725E-01  1.61864E-01  1.00293E-01  4.23537E-02 -1.17451E-02 -6.19124E-02 -1.08156E-01 -1.50567E-01 -1.89294E-01 -2.24535E-01
  -2.56514E-01 -2.85473E-01 -3.11660E-01 -3.35322E-01 -3.56697E-01 -3.76009E-01 -3.93467E-01 -4.09262E-01 -4.23570E-01 -4.36548E-01
  -4.48336E-01 -4.59062E-01 -4.68834E-01 -4.77751E-01 -4.85902E-01 -4.93362E-01 -5.00200E-01 -5.06474E-01 -5.12238E-01 -5.17539E-01
  -5.22418E-01 -5.26913E-01 -5.31056E-01 -5.34876E-01 -5.38398E-01 -5.41648E-01 -5.44646E-01 -5.47411E-01 -5.49961E-01 -5.52311E-01
  -5.54475E-01 -5.56467E-01 -5.58298E-01 -5.59978E-01 -5.61518E-01 -5.62925E-01 -5.64209E-01 -5.65378E-01 -5.66438E-01 -5.67396E-01
  -5.68257E-01 -5.69026E-01 -5.69709E-01 -5.70312E-01 -5.70837E-01 -5.71289E-01 -5.71671E-01 -5.71988E-01 -5.72243E-01 -5.72440E-01
  -5.72579E-01 -5.72665E-01 -5.72699E-01 -5.72685E-01 -5.72625E-01 -5.72520E-01 -5.72373E-01 -5.72185E-01 -5.71957E-01 -5.71693E-01
  -5.71394E-01 -5.71060E-01 -5.70692E-01 -5.70293E-01 -5.69864E-01 -5.69406E-01 -5.68919E-01 -5.68405E-01
 NY background values follow
    -1.348E+00   -1.347E+00   -1.345E+00   -1.344E+00   -1.342E+00   -1.341E+00   -1.339E+00   -1.338E+00   -1.337E+00   -1.335E+00
    -1.334E+00   -1.332E+00   -1.331E+00   -1.329E+00   -1.328E+00   -1.326E+00   -1.325E+00   -1.323E+00   -1.322E+00   -1.320E+00
    -1.319E+00   -1.318E+00   -1.316E+00   -1.315E+00   -1.313E+00   -1.312E+00   -1.310E+00   -1.309E+00   -1.307E+00   -1.306E+00
    -1.304E+00   -1.303E+00   -1.302E+00   -1.300E+00   -1.299E+00   -1.297E+00   -1.296E+00   -1.294E+00   -1.293E+00   -1.291E+00
    -1.290E+00   -1.288E+00   -1.287E+00   -1.286E+00   -1.284E+00   -1.283E+00   -1.281E+00   -1.280E+00   -1.278E+00   -1.277E+00
    -1.275E+00   -1.274E+00   -1.272E+00   -1.271E+00   -1.269E+00   -1.268E+00   -1.267E+00   -1.265E+00   -1.264E+00   -1.262E+00
    -1.261E+00   -1.259E+00   -1.258E+00   -1.256E+00   -1.255E+00   -1.253E+00   -1.252E+00   -1.251E+00   -1.249E+00   -1.248E+00
    -1.246E+00   -1.245E+00   -1.243E+00   -1.242E+00   -1.240E+00   -1.239E+00   -1.237E+00   -1.236E+00   -1.235E+00   -1.233E+00
    -1.232E+00   -1.230E+00   -1.229E+00   -1.227E+00   -1.226E+00   -1.224E+00   -1.223E+00   -1.221E+00   -1.220E+00   -1.218E+00
    -1.217E+00   -1.216E+00   -1.214E+00   -1.213E+00   -1.211E+00   -1.210E+00   -1.208E+00   -1.207E+00   -1.205E+00   -1.204E+00
    -1.202E+00   -1.201E+00   -1.200E+00   -1.198E+00   -1.197E+00   -1.195E+00   -1.194E+00   -1.192E+00   -1.191E+00   -1.189E+00
    -1.188E+00   -1.186E+00   -1.185E+00   -1.184E+00   -1.182E+00   -1.181E+00   -1.179E+00   -1.178E+00   -1.176E+00   -1.175E+00
    -1.173E+00   -1.172E+00   -1.170E+00   -1.169E+00   -1.167E+00   -1.166E+00   -1.165E+00   -1.163E+00   -1.162E+00   -1.160E+00
    -1.159E+00   -1.157E+00   -1.156E+00   -1.154E+00   -1.153E+00   -1.151E+00   -1.150E+00   -1.149E+00   -1.147E+00   -1.146E+00
    -1.144E+00   -1.143E+00   -1.141E+00   -1.140E+00   -1.138E+00   -1.137E+00   -1.135E+00   -1.134E+00   -1.133E+00   -1.131E+00
    -1.130E+00   -1.128E+00   -1.127E+00   -1.125E+00   -1.124E+00   -1.122E+00   -1.121E+00   -1.119E+00   -1.118E+00   -1.116E+00
    -1.115E+00   -1.114E+00   -1.112E+00   -1.111E+00   -1.109E+00   -1.108E+00   -1.106E+00   -1.105E+00   -1.103E+00   -1.102E+00
    -1.100E+00   -1.099E+00   -1.098E+00   -1.096E+00   -1.095E+00   -1.093E+00   -1.092E+00   -1.090E+00   -1.089E+00   -1.087E+00
    -1.086E+00   -1.084E+00   -1.083E+00   -1.082E+00   -1.080E+00   -1.079E+00   -1.077E+00   -1.076E+00   -1.074E+00   -1.073E+00
    -1.071E+00   -1.070E+00   -1.068E+00   -1.067E+00   -1.065E+00   -1.064E+00   -1.063E+00   -1.061E+00   -1.060E+00   -1.058E+00
    -1.057E+00   -1.055E+00   -1.054E+00   -1.052E+00   -1.051E+00   -1.049E+00   -1.048E+00   -1.047E+00   -1.045E+00   -1.044E+00
    -1.042E+00   -1.041E+00   -1.039E+00   -1.038E+00   -1.036E+00   -1.035E+00   -1.033E+00   -1.032E+00   -1.031E+00   -1.029E+00
    -1.028E+00   -1.026E+00   -1.025E+00   -1.023E+00   -1.022E+00   -1.020E+00   -1.019E+00   -1.017E+00   -1.016E+00   -1.014E+00
    -1.013E+00   -1.012E+00   -1.010E+00   -1.009E+00   -1.007E+00   -1.006E+00   -1.004E+00   -1.003E+00   -1.001E+00   -9.999E-01
    -9.985E-01   -9.970E-01   -9.955E-01   -9.941E-01   -9.926E-01   -9.912E-01   -9.897E-01   -9.883E-01   -9.868E-01   -9.853E-01
    -9.839E-01   -9.824E-01   -9.810E-01   -9.795E-01   -9.781E-01   -9.766E-01   -9.751E-01   -9.737E-01   -9.722E-01   -9.708E-01
    -9.693E-01   -9.679E-01   -9.664E-01   -9.649E-01   -9.635E-01   -9.620E-01   -9.606E-01   -9.591E-01   -9.577E-01   -9.562E-01
    -9.547E-01   -9.533E-01   -9.518E-01   -9.504E-01   -9.489E-01   -9.475E-01   -9.460E-01   -9.445E-01   -9.431E-01   -9.416E-01
    -9.402E-01   -9.387E-01   -9.373E-01   -9.358E-01   -9.343E-01   -9.329E-01   -9.314E-01   -9.300E-01   -9.285E-01   -9.271E-01
    -9.256E-01   -9.241E-01   -9.227E-01   -9.212E-01   -9.198E-01   -9.183E-01   -9.169E-01   -9.154E-01   -9.139E-01   -9.125E-01
    -9.110E-01   -9.096E-01   -9.081E-01   -9.067E-01   -9.052E-01   -9.037E-01   -9.023E-01   -9.008E-01   -8.994E-01   -8.979E-01
    -8.964E-01   -8.950E-01   -8.935E-01   -8.921E-01   -8.906E-01   -8.892E-01   -8.877E-01   -8.862E-01   -8.848E-01   -8.833E-01
    -8.819E-01   -8.804E-01   -8.790E-01   -8.775E-01   -8.760E-01   -8.746E-01   -8.731E-01   -8.717E-01   -8.702E-01   -8.688E-01
    -8.673E-01   -8.658E-01   -8.644E-01   -8.629E-01   -8.615E-01   -8.600E-01   -8.586E-01   -8.571E-01   -8.556E-01   -8.542E-01
    -8.527E-01   -8.513E-01   -8.498E-01   -8.484E-01   -8.469E-01   -8.454E-01   -8.440E-01   -8.425E-01   -8.411E-01   -8.396E-01
    -8.382E-01   -8.367E-01   -8.352E-01   -8.338E-01   -8.323E-01   -8.309E-01   -8.294E-01   -8.280E-01   -8.265E-01   -8.250E-01
    -8.236E-01   -8.221E-01   -8.207E-01   -8.192E-01   -8.178E-01   -8.163E-01   -8.148E-01   -8.134E-01   -8.119E-01   -8.105E-01
    -8.090E-01   -8.076E-01   -8.061E-01   -8.046E-01   -8.032E-01   -8.017E-01   -8.003E-01   -7.988E-01   -7.974E-01   -7.959E-01
    -7.944E-01   -7.930E-01   -7.915E-01   -7.901E-01   -7.886E-01   -7.872E-01   -7.857E-01   -7.842E-01   -7.828E-01   -7.813E-01
    -7.799E-01   -7.784E-01   -7.770E-01   -7.755E-01   -7.740E-01   -7.726E-01   -7.711E-01   -7.697E-01   -7.682E-01   -7.667E-01
    -7.653E-01   -7.638E-01   -7.624E-01   -7.609E-01   -7.595E-01   -7.580E-01   -7.565E-01   -7.551E-01   -7.536E-01   -7.522E-01
    -7.507E-01   -7.493E-01   -7.478E-01   -7.463E-01   -7.449E-01   -7.434E-01   -7.420E-01   -7.405E-01   -7.391E-01   -7.376E-01
    -7.361E-01   -7.347E-01   -7.332E-01   -7.318E-01   -7.303E-01   -7.289E-01   -7.274E-01   -7.259E-01   -7.245E-01   -7.230E-01
    -7.216E-01   -7.201E-01   -7.187E-01   -7.172E-01   -7.157E-01   -7.143E-01   -7.128E-01   -7.114E-01   -7.099E-01   -7.085E-01
    -7.070E-01   -7.055E-01   -7.041E-01   -7.026E-01   -7.012E-01   -6.997E-01   -6.983E-01   -6.968E-01   -6.953E-01   -6.939E-01
    -6.924E-01   -6.910E-01   -6.895E-01   -6.881E-01   -6.866E-01   -6.851E-01   -6.837E-01   -6.822E-01   -6.808E-01   -6.793E-01
    -6.779E-01   -6.764E-01   -6.749E-01   -6.735E-01   -6.720E-01   -6.706E-01   -6.691E-01   -6.677E-01   -6.662E-01   -6.647E-01
    -6.633E-01   -6.618E-01   -6.604E-01   -6.589E-01   -6.574E-01   -6.560E-01   -6.545E-01   -6.531E-01   -6.516E-01   -6.502E-01
    -6.487E-01   -6.472E-01   -6.458E-01   -6.443E-01   -6.429E-01   -6.414E-01   -6.400E-01   -6.385E-01   -6.370E-01   -6.356E-01
    -6.341E-01   -6.327E-01   -6.312E-01   -6.298E-01   -6.283E-01   -6.268E-01   -6.254E-01   -6.239E-01
 Asp      Conc. = 2.57E+00
