 LCModel (Version 6.3-1L) Copyright: S.W. Provencher.          Ref.: Magn. Reson. Med. 30:672-679 (1993).                
 Slice#1 Row#11 Col#12  PD_05_press_2_raw_act
 36 lines in following concentration table = NCONC+1
    Conc.  %SD /Cr+PCr  Metabolite                                         
 1.93E+03  15% 166.027 Ala                                                 
    6.325  44%   0.544 Asp                                                 
    0.000 999%   0.000 Cr                                                  
   11.628 273%   1.000 PCr                                                 
    3.794  44%   0.326 GABA                                                
    3.795  44%   0.326 Glc                                                 
  792.097  34%  68.119 Gln                                                 
 1.27E+03  25% 109.486 Glu                                                 
    0.000 999%   0.000 GPC                                                 
   38.285  32%   3.292 PCh                                                 
    0.000 999%   0.000 GSH                                                 
  198.214  67%  17.046 Ins                                                 
    0.000 999%   0.000 Lac                                                 
    0.000 999%   0.000 NAA                                                 
    0.000 999%   0.000 NAAG                                                
    1.265  44%   0.109 Scyllo                                              
    6.326  44%   0.544 Tau                                                 
    1.158 302%   0.100 -CrCH2                                              
   38.285  32%   3.292 GPC+PCh                                             
    0.000 999%   0.000 NAA+NAAG                                            
   11.628 273%   1.000 Cr+PCr                                              
 2.07E+03  21% 177.605 Glu+Gln                                             
    0.000 999%   0.000 Lip13a                                              
    0.000 999%   0.000 Lip13b                                              
 9.97E-04 999% 8.6E-05 Lip09                                               
  459.158  13%  39.487 MM09                                                
    0.000 999%   0.000 Lip20                                               
    0.000 999%   0.000 MM20                                                
   46.571 143%   4.005 MM12                                                
 1.91E+03   4% 164.228+MM14                                                
  719.229  19%  61.853 MM17                                                
    0.000 999%   0.000 Lip13a+Lip13b                                       
 1.96E+03   6% 168.233 MM14+Lip13a+Lip13b+MM12                             
  459.159  13%  39.487 MM09+Lip09                                          
    0.000 999%   0.000 MM20+Lip20                                          
   6 lines in following misc. output table
  FWHM = 0.138 ppm    S/N =   7                                            
  Data shift = 0.145 ppm                                                   
  Ph: -21 deg      -3.7 deg/ppm                                            
  alphaB,S = 8.5E+01,   1.0E+02                                            
    7 spline knots.   Ns = 9(2)                                            
   2 inflections.     1 extrema                                            
  498 points on ppm-axis = NY
      4.000000     3.992357     3.984714     3.977070     3.969427     3.961784     3.954141     3.946497     3.938854     3.931211
      3.923568     3.915925     3.908281     3.900638     3.892995     3.885352     3.877708     3.870065     3.862422     3.854779
      3.847136     3.839492     3.831849     3.824206     3.816563     3.808919     3.801276     3.793633     3.785990     3.778347
      3.770703     3.763060     3.755417     3.747774     3.740130     3.732487     3.724844     3.717201     3.709558     3.701914
      3.694271     3.686628     3.678985     3.671341     3.663698     3.656055     3.648412     3.640769     3.633125     3.625482
      3.617839     3.610196     3.602552     3.594909     3.587266     3.579623     3.571980     3.564336     3.556693     3.549050
      3.541407     3.533763     3.526120     3.518477     3.510834     3.503191     3.495547     3.487904     3.480261     3.472618
      3.464974     3.457331     3.449688     3.442045     3.434402     3.426758     3.419115     3.411472     3.403829     3.396185
      3.388542     3.380899     3.373256     3.365613     3.357969     3.350326     3.342683     3.335040     3.327396     3.319753
      3.312110     3.304467     3.296824     3.289180     3.281537     3.273894     3.266251     3.258607     3.250964     3.243321
      3.235678     3.228034     3.220391     3.212748     3.205105     3.197462     3.189818     3.182175     3.174532     3.166889
      3.159245     3.151602     3.143959     3.136316     3.128673     3.121029     3.113386     3.105743     3.098100     3.090456
      3.082813     3.075170     3.067527     3.059884     3.052240     3.044597     3.036954     3.029311     3.021667     3.014024
      3.006381     2.998738     2.991095     2.983451     2.975808     2.968165     2.960522     2.952878     2.945235     2.937592
      2.929949     2.922306     2.914662     2.907019     2.899376     2.891733     2.884089     2.876446     2.868803     2.861160
      2.853517     2.845873     2.838230     2.830587     2.822944     2.815300     2.807657     2.800014     2.792371     2.784728
      2.777084     2.769441     2.761798     2.754155     2.746511     2.738868     2.731225     2.723582     2.715939     2.708295
      2.700652     2.693009     2.685366     2.677722     2.670079     2.662436     2.654793     2.647150     2.639506     2.631863
      2.624220     2.616577     2.608933     2.601290     2.593647     2.586004     2.578361     2.570717     2.563074     2.555431
      2.547788     2.540144     2.532501     2.524858     2.517215     2.509572     2.501928     2.494285     2.486642     2.478999
      2.471355     2.463712     2.456069     2.448426     2.440783     2.433139     2.425496     2.417853     2.410210     2.402566
      2.394923     2.387280     2.379637     2.371994     2.364350     2.356707     2.349064     2.341421     2.333777     2.326134
      2.318491     2.310848     2.303205     2.295561     2.287918     2.280275     2.272632     2.264988     2.257345     2.249702
      2.242059     2.234416     2.226772     2.219129     2.211486     2.203843     2.196199     2.188556     2.180913     2.173270
      2.165627     2.157983     2.150340     2.142697     2.135054     2.127410     2.119767     2.112124     2.104481     2.096838
      2.089194     2.081551     2.073908     2.066265     2.058621     2.050978     2.043335     2.035692     2.028049     2.020405
      2.012762     2.005119     1.997476     1.989833     1.982190     1.974546     1.966903     1.959260     1.951617     1.943974
      1.936331     1.928688     1.921045     1.913402     1.905759     1.898115     1.890472     1.882829     1.875186     1.867543
      1.859900     1.852257     1.844614     1.836971     1.829327     1.821684     1.814041     1.806398     1.798755     1.791112
      1.783469     1.775826     1.768183     1.760540     1.752896     1.745253     1.737610     1.729967     1.722324     1.714681
      1.707038     1.699395     1.691752     1.684108     1.676465     1.668822     1.661179     1.653536     1.645893     1.638250
      1.630607     1.622964     1.615321     1.607677     1.600034     1.592391     1.584748     1.577105     1.569462     1.561819
      1.554176     1.546533     1.538890     1.531246     1.523603     1.515960     1.508317     1.500674     1.493031     1.485388
      1.477745     1.470102     1.462458     1.454815     1.447172     1.439529     1.431886     1.424243     1.416600     1.408957
      1.401314     1.393671     1.386027     1.378384     1.370741     1.363098     1.355455     1.347812     1.340169     1.332526
      1.324883     1.317240     1.309596     1.301953     1.294310     1.286667     1.279024     1.271381     1.263738     1.256095
      1.248452     1.240808     1.233165     1.225522     1.217879     1.210236     1.202593     1.194950     1.187307     1.179664
      1.172021     1.164377     1.156734     1.149091     1.141448     1.133805     1.126162     1.118519     1.110876     1.103233
      1.095590     1.087946     1.080303     1.072660     1.065017     1.057374     1.049731     1.042088     1.034445     1.026802
      1.019158     1.011515     1.003872     0.996229     0.988586     0.980943     0.973300     0.965657     0.958014     0.950371
      0.942727     0.935084     0.927441     0.919798     0.912155     0.904512     0.896869     0.889226     0.881583     0.873940
      0.866296     0.858653     0.851010     0.843367     0.835724     0.828081     0.820438     0.812795     0.805152     0.797508
      0.789865     0.782222     0.774579     0.766936     0.759293     0.751650     0.744007     0.736364     0.728721     0.721077
      0.713434     0.705791     0.698148     0.690505     0.682862     0.675219     0.667576     0.659933     0.652290     0.644646
      0.637003     0.629360     0.621717     0.614074     0.606431     0.598788     0.591145     0.583502     0.575858     0.568215
      0.560572     0.552929     0.545286     0.537643     0.530000     0.522357     0.514714     0.507071     0.499427     0.491784
      0.484141     0.476498     0.468855     0.461212     0.453569     0.445925     0.438282     0.430639     0.422996     0.415353
      0.407710     0.400067     0.392424     0.384780     0.377137     0.369494     0.361851     0.354208     0.346565     0.338922
      0.331278     0.323635     0.315992     0.308349     0.300706     0.293063     0.285420     0.277777     0.270133     0.262490
      0.254847     0.247204     0.239561     0.231918     0.224275     0.216631     0.208988     0.201345
 NY phased data points follow
   9.68324E-01  2.00358E+00  1.12224E-01  2.35357E+00  3.94808E-01  6.62558E-01  2.26711E+00  5.91810E-01  2.49242E-01  9.86838E-01
  -5.60762E-01  6.58488E-01  2.51552E-01 -3.16915E-01 -9.80891E-01  9.73524E-01 -4.32867E-01 -1.61923E+00 -1.53150E+00  2.02473E+00
   2.82771E+00  1.00391E+00 -3.81741E-01  1.51747E-01  7.47440E-01  4.15521E-01  3.42301E+00  1.20329E+00  1.66842E+00 -7.21091E-02
  -5.76414E-01 -2.44012E-01  6.85696E-01  2.78748E+00  2.72178E+00  1.01373E+00  5.17350E-01  7.22572E-02  1.76341E+00  1.84108E+00
  -3.23921E-01 -1.08276E-02 -1.38941E-01 -5.92006E-02  2.40800E-02 -4.19518E-01  1.74148E+00  1.75869E+00 -1.27080E+00 -6.75014E-01
   5.49427E-01  1.62196E+00  1.06016E+00  4.45863E-01  1.45876E+00  1.83879E+00  9.09997E-01  3.95598E-01  1.34377E+00  2.75561E+00
   1.09805E-02  1.68951E+00 -1.65920E-01  1.11015E+00 -3.49322E-01 -9.70338E-01 -6.01650E-01 -1.64916E+00 -1.18135E+00  5.84465E-01
   6.28195E-01  1.16225E+00 -2.28837E-01  2.58826E+00 -2.43302E-01 -5.50377E-01 -5.76475E-01  3.80110E-01 -1.32914E+00  1.13745E+00
  -1.82302E+00  4.12795E-01  1.67109E+00  3.21227E+00  1.72603E+00  2.02110E+00  7.74692E-01  7.37679E-01 -4.43664E-01  7.11355E-01
   3.69654E-01 -4.60068E-01  7.29972E-01  6.57010E-02 -1.25157E+00  1.41349E+00  1.14357E+00  3.07675E+00  7.67864E-01  8.68644E-01
   8.87182E-02 -5.03287E-01  8.09351E-01  5.34267E-01 -4.09647E-01 -3.86980E-01 -1.39985E-01 -3.68337E-01  3.63764E+00  2.93659E+00
   3.94469E+00  1.25524E+00  5.21221E-01 -1.03443E+00 -2.94341E-01  9.14881E-01  1.77860E+00  1.57902E+00  6.48056E-01 -5.40485E-01
   1.74654E+00 -9.86098E-01  1.29221E+00 -5.54254E-01 -8.29461E-02 -1.53565E+00  1.76091E-01  2.76581E-01  2.13348E-01 -3.84566E-01
   7.05299E-01 -9.38629E-01 -7.02757E-01 -2.00348E+00  7.16680E-01  6.60812E-01 -2.73743E-01 -1.88364E-01  1.96814E+00  6.06322E-01
  -5.77155E-01 -9.77836E-01 -8.77108E-02 -1.03334E+00  1.11466E+00 -1.58353E+00 -2.00671E+00  1.41745E+00  2.99820E+00  5.44942E-01
  -4.22512E-01 -1.39580E+00 -2.01816E+00 -1.24400E-01 -1.89757E-02 -8.84224E-01 -1.33159E+00 -3.10730E+00 -6.49396E-01 -1.08321E+00
   9.31512E-01  1.31284E+00 -7.89536E-01 -3.04305E+00 -2.78933E+00 -2.10377E+00  5.91163E-01 -3.78068E-01  8.23147E-02  1.81723E+00
   5.51782E-01  8.81675E-01  2.14071E+00  1.09318E-01 -1.30577E+00 -1.16214E+00  2.92682E-01 -1.02697E+00 -1.55130E+00 -1.86223E-01
  -1.82293E-02  1.15783E+00 -1.76467E+00  9.62922E-01  5.94989E-01 -1.11103E+00 -2.55697E+00  1.42249E+00  6.30657E-01 -7.48295E-01
   2.43568E-04  6.16246E-01 -2.54464E-01 -5.46922E-02  2.69931E-01  1.15760E+00 -1.78422E+00  1.94493E+00  2.08716E-02  1.12455E+00
   1.01619E-01  1.28442E+00 -1.34956E+00 -1.40963E-01  7.90422E-01  1.29861E+00 -1.43408E+00 -8.88313E-01 -2.23452E-01 -1.50857E+00
   1.06837E+00  2.38162E+00 -1.92029E+00 -1.56947E+00 -1.18590E+00  5.06903E-01  2.14569E+00 -2.55963E+00  1.86977E+00 -1.11236E+00
   4.26825E-01  1.73420E+00 -2.54858E-01 -1.68581E+00 -1.19269E+00 -4.28262E-01  2.75800E-01 -2.50760E+00  1.91647E-02  1.18018E-01
  -4.17126E-01 -4.75462E-01  8.31923E-01  3.15007E+00 -2.08194E-01  1.45064E+00 -1.60604E+00  1.13712E+00 -1.20962E+00  2.21654E-01
   3.15399E+00  3.73683E+00 -1.02842E+00  7.41794E-01  1.78169E+00  1.37094E+00  4.11597E-01  3.04607E-01 -2.32240E+00 -1.63659E+00
  -2.32321E+00 -5.37453E-01  5.41600E-02 -1.79504E+00 -1.13630E+00  2.14790E+00 -1.79471E+00 -1.15073E-01  2.31877E+00  1.83914E+00
   3.42256E+00 -2.52873E-01  1.61593E+00 -6.15324E-01  2.31776E-01  2.33880E+00  8.93725E-01 -1.18071E+00  1.60678E+00 -1.24742E+00
   2.90474E+00  1.19954E+00  1.17555E+00 -9.44328E-01  5.97634E-02  1.48229E+00  1.47538E+00  3.37456E+00  4.68744E-01  1.33437E+00
   3.26208E+00  1.20909E+00  3.60792E+00  1.53279E+00  1.27075E-01  3.90363E+00  3.38822E+00  1.24633E+00  4.87889E+00  1.54357E+00
   2.46600E+00  2.03995E+00  2.83659E+00  4.70205E+00  4.21771E+00  3.73113E+00  2.21885E+00  3.18262E+00  4.25452E+00  4.51448E+00
   4.03139E+00  5.04110E+00  7.45495E+00  7.52391E+00  6.59209E+00  8.76927E+00  8.15683E+00  9.08671E+00  9.33453E+00  9.26056E+00
   1.02306E+01  9.82170E+00  1.35588E+01  1.18265E+01  1.36603E+01  1.61189E+01  1.69472E+01  1.76885E+01  1.81771E+01  1.67094E+01
   2.19490E+01  2.26061E+01  1.94003E+01  2.13750E+01  2.02103E+01  1.89367E+01  2.19633E+01  1.86301E+01  1.89647E+01  1.47360E+01
   1.34944E+01  1.34507E+01  1.52192E+01  9.97961E+00  1.10495E+01  9.29080E+00  9.71416E+00  1.00070E+01  8.54648E+00  9.37707E+00
   9.57029E+00  5.05215E+00  6.75612E+00  7.81115E+00  6.10334E+00  6.70236E+00  7.15137E+00  6.79000E+00  5.07815E+00  5.87424E+00
   5.75260E+00  6.36972E+00  4.64768E+00  4.93286E+00  2.90803E+00  6.24049E+00  9.04480E-01  4.68203E+00  1.38584E+00  4.67201E+00
   4.20576E+00  1.77936E+00 -3.44383E-03  1.50025E+00  6.92670E-01  3.64776E+00  1.89309E+00  9.13475E-01 -1.59134E+00  1.96594E+00
   1.28230E+00 -3.09259E-01 -7.71970E-01  2.75907E+00  6.68418E-01  1.63980E+00  8.73827E-01  1.83414E+00  3.35755E+00  3.41930E+00
   4.09616E+00  1.27904E+00  3.81664E+00  4.40858E+00  1.71511E+00  3.66561E+00  2.76793E+00  5.37002E+00  4.13730E+00  3.23101E+00
   2.43915E+00  3.97414E+00  5.96979E+00  4.70923E+00  3.38643E+00  5.21753E+00  3.65351E+00  4.78043E+00  3.49629E+00  3.01128E+00
   4.31896E+00  2.77743E+00  3.32109E+00  3.81274E+00  3.59894E+00  2.93001E+00  2.17885E+00  4.88944E+00  5.21118E+00  3.05682E+00
   4.07420E+00  6.50928E-01  3.33372E+00  3.15291E+00  4.09265E+00  8.61671E-01  2.47480E+00  2.79685E+00  2.88518E+00  2.77085E+00
   3.28348E+00  3.32451E+00  4.09968E+00  1.74143E+00  3.43623E+00  1.72115E+00  1.50023E+00  1.49998E-03  3.11535E+00  1.91344E+00
   1.15269E+00  2.10330E+00  4.71474E+00 -7.85826E-02  3.00700E+00  1.81363E+00  2.96361E+00  9.50244E-01  2.73207E+00  2.97055E+00
   2.89665E+00  3.34022E+00  1.17254E+00  6.29095E-01  1.36288E+00  2.28543E+00  2.40374E+00 -1.63463E-01  4.10455E-01  7.10243E-01
  -5.21080E-01  2.27884E+00  2.04730E+00  5.19051E-01  3.32743E+00  3.70309E-01 -1.08734E-01  1.95190E+00 -7.21318E-01  3.31547E+00
   6.66538E-01 -1.12736E+00  2.05210E+00  2.34977E+00  3.38683E+00  1.20849E+00  2.60580E+00 -1.39551E-01  1.20801E+00  2.74205E+00
   1.80328E+00  1.65446E+00  2.25677E+00 -9.36151E-01  6.92953E-01  1.75560E-01  9.35325E-01  1.52503E-01  2.91705E+00  5.03043E-01
  -7.11642E-02  1.08980E+00 -4.17215E-01  1.43881E+00  1.58470E+00  1.53720E-01  1.73149E+00 -1.64599E-01  2.60150E+00  2.15629E-01
   8.76073E-03  2.07896E+00 -1.48893E-01 -1.98881E+00 -2.14643E-01  1.92270E+00  3.28408E-01  1.51905E+00
 NY points of the fit to the data follow
   4.04630E-01  3.95880E-01  3.60177E-01  3.59212E-01  3.22143E-01  3.29451E-01  2.85925E-01  3.22385E-01  2.54943E-01  3.18355E-01
   2.20810E-01  3.04604E-01  2.03155E-01  3.85733E-01  2.89322E-01  5.61875E-01  4.35234E-01  7.14108E-01  5.45858E-01  8.57787E-01
   6.38796E-01  9.21594E-01  7.02192E-01  9.15427E-01  7.75872E-01  8.79703E-01  7.71056E-01  6.84360E-01  7.41707E-01  5.15010E-01
   7.89930E-01  4.14983E-01  9.74770E-01  5.53657E-01  1.33351E+00  7.43594E-01  1.55842E+00  7.95518E-01  1.56208E+00  7.26976E-01
   1.42779E+00  6.48623E-01  1.36360E+00  7.00244E-01  1.39695E+00  8.36433E-01  1.45972E+00  1.03849E+00  1.43633E+00  1.01419E+00
   1.20036E+00  8.30285E-01  8.81710E-01  6.18623E-01  6.55092E-01  5.51105E-01  6.34164E-01  5.59446E-01  6.04469E-01  5.23471E-01
   5.28636E-01  4.79015E-01  4.64759E-01  4.01899E-01  3.92966E-01  3.31990E-01  3.32513E-01  2.80121E-01  2.95046E-01  2.64026E-01
   2.95720E-01  2.64555E-01  2.92180E-01  2.50619E-01  2.68573E-01  2.18924E-01  2.27353E-01  1.70650E-01  1.71081E-01  1.11399E-01
   1.07296E-01  4.80488E-02  4.51289E-02 -1.52542E-02 -1.33411E-02 -6.50780E-02 -5.01844E-02 -9.76185E-02 -6.86191E-02 -1.13555E-01
  -6.36874E-02 -7.46702E-02  1.80586E-02  3.65582E-02  1.82838E-01  1.98640E-01  3.89158E-01  4.10936E-01  6.56524E-01  6.40666E-01
   9.22123E-01  8.44861E-01  1.14543E+00  1.02563E+00  1.34122E+00  1.12349E+00  1.40092E+00  1.11420E+00  1.33897E+00  1.00393E+00
   1.16341E+00  8.34382E-01  9.47746E-01  6.51972E-01  7.30835E-01  4.73574E-01  5.17404E-01  3.01145E-01  3.09341E-01  1.47704E-01
   1.29695E-01  2.27320E-02 -1.69802E-02 -6.70145E-02 -1.11782E-01 -8.38623E-02 -1.04302E-01 -6.69628E-02 -9.36264E-02 -6.08894E-02
  -9.25731E-02 -6.67547E-02 -1.01317E-01 -8.38695E-02 -1.16687E-01 -1.04861E-01 -1.33796E-01 -1.26194E-01 -1.51335E-01 -1.47880E-01
  -1.69090E-01 -1.69947E-01 -1.86684E-01 -1.89947E-01 -2.02122E-01 -2.07107E-01 -2.14450E-01 -2.19197E-01 -2.20699E-01 -2.20327E-01
  -2.21209E-01 -2.20338E-01 -2.21433E-01 -2.20338E-01 -2.21838E-01 -2.20523E-01 -2.22132E-01 -2.20306E-01 -2.21864E-01 -2.19713E-01
  -2.21210E-01 -2.18373E-01 -2.19201E-01 -2.15559E-01 -2.15893E-01 -2.11836E-01 -2.11250E-01 -2.06772E-01 -2.05284E-01 -2.00430E-01
  -1.98504E-01 -1.93606E-01 -1.90825E-01 -1.85729E-01 -1.82185E-01 -1.77516E-01 -1.76007E-01 -1.71974E-01 -1.77927E-01 -1.72666E-01
  -1.86389E-01 -1.80520E-01 -2.03718E-01 -1.90068E-01 -2.32556E-01 -2.03816E-01 -2.72007E-01 -2.22690E-01 -3.21252E-01 -2.34398E-01
  -3.61356E-01 -2.40554E-01 -3.93448E-01 -2.13438E-01 -3.86766E-01 -1.16103E-01 -2.89220E-01  1.03488E-02 -1.75866E-01  1.32157E-01
  -8.41631E-02  2.21899E-01 -1.37733E-03  2.44514E-01 -1.00209E-02  2.19779E-01  4.67482E-04  1.60566E-01  3.86830E-02  1.10836E-01
   7.17406E-02  7.75258E-02  1.99163E-01  9.42582E-02  3.64046E-01  1.39282E-01  4.79666E-01  2.32439E-02  3.45947E-01 -2.24216E-01
   8.57518E-02 -4.76072E-01 -1.83279E-01 -5.41468E-01 -1.51917E-01 -3.21125E-01  5.93400E-02  6.53605E-02  3.71990E-01  4.25868E-01
   5.11458E-01  5.64837E-01  4.12091E-01  5.98110E-01  3.53965E-01  6.90354E-01  3.74008E-01  8.61367E-01  5.48055E-01  9.81195E-01
   6.18275E-01  9.71088E-01  5.47642E-01  7.30056E-01  2.86869E-01  4.00244E-01  6.09473E-02  1.78758E-01 -2.49797E-02  1.28752E-01
   1.24463E-02  1.88159E-01  1.22971E-01  2.93438E-01  2.72364E-01  4.33439E-01  4.46857E-01  5.70913E-01  5.76022E-01  6.93846E-01
   7.54955E-01  8.75139E-01  9.66525E-01  1.09133E+00  1.16570E+00  1.21575E+00  1.28849E+00  1.29458E+00  1.34906E+00  1.33160E+00
   1.39040E+00  1.35603E+00  1.41499E+00  1.38730E+00  1.46232E+00  1.45139E+00  1.53136E+00  1.53071E+00  1.59459E+00  1.59269E+00
   1.62538E+00  1.64069E+00  1.68193E+00  1.73245E+00  1.78778E+00  1.87364E+00  1.95525E+00  2.05782E+00  2.16873E+00  2.30266E+00
   2.44666E+00  2.61533E+00  2.79843E+00  3.00667E+00  3.23588E+00  3.49650E+00  3.77906E+00  4.08898E+00  4.41978E+00  4.77470E+00
   5.14901E+00  5.54490E+00  5.95864E+00  6.39689E+00  6.85738E+00  7.34898E+00  7.87413E+00  8.44776E+00  9.08846E+00  9.82140E+00
   1.05398E+01  1.13813E+01  1.21487E+01  1.30634E+01  1.39667E+01  1.50877E+01  1.59667E+01  1.71930E+01  1.79261E+01  1.90118E+01
   1.95873E+01  2.04203E+01  2.04378E+01  2.07493E+01  2.03108E+01  2.00622E+01  1.94419E+01  1.86382E+01  1.76186E+01  1.61195E+01
   1.53261E+01  1.34547E+01  1.30884E+01  1.09451E+01  1.11279E+01  9.26611E+00  1.02357E+01  8.41210E+00  9.63179E+00  7.76458E+00
   9.02455E+00  7.08799E+00  8.19271E+00  6.45672E+00  7.42034E+00  5.99629E+00  6.90731E+00  5.85081E+00  6.69684E+00  6.01571E+00
   6.36180E+00  5.60224E+00  5.58723E+00  4.83284E+00  4.52013E+00  3.81799E+00  3.30655E+00  2.98339E+00  2.75467E+00  2.58275E+00
   2.44904E+00  2.34276E+00  2.25693E+00  2.18687E+00  2.12922E+00  2.08164E+00  2.04238E+00  2.01028E+00  1.98446E+00  1.96446E+00
   1.94992E+00  1.94079E+00  1.93708E+00  1.93905E+00  1.94696E+00  1.96130E+00  1.98250E+00  2.01118E+00  2.04786E+00  2.09321E+00
   2.14776E+00  2.21212E+00  2.28665E+00  2.37172E+00  2.46738E+00  2.57357E+00  2.68981E+00  2.81541E+00  2.94917E+00  3.08962E+00
   3.23476E+00  3.38232E+00  3.52953E+00  3.67347E+00  3.81086E+00  3.93847E+00  4.05297E+00  4.15131E+00  4.23064E+00  4.28867E+00
   4.32353E+00  4.33414E+00  4.32000E+00  4.28146E+00  4.21946E+00  4.13570E+00  4.03236E+00  3.91219E+00  3.77812E+00  3.63342E+00
   3.48127E+00  3.32487E+00  3.16712E+00  3.01076E+00  2.85805E+00  2.71096E+00  2.57095E+00  2.43919E+00  2.31635E+00  2.20288E+00
   2.09882E+00  2.00410E+00  1.91831E+00  1.84105E+00  1.77169E+00  1.70968E+00  1.65430E+00  1.60498E+00  1.56104E+00  1.52195E+00
   1.48712E+00  1.45610E+00  1.42841E+00  1.40370E+00  1.38156E+00  1.36174E+00  1.34392E+00  1.32791E+00  1.31347E+00  1.30047E+00
   1.28869E+00  1.27805E+00  1.26840E+00  1.25967E+00  1.25173E+00  1.24455E+00  1.23800E+00  1.23208E+00  1.22669E+00  1.22183E+00
   1.21740E+00  1.21342E+00  1.20979E+00  1.20655E+00  1.20361E+00  1.20101E+00  1.19866E+00  1.19660E+00  1.19476E+00  1.19317E+00
   1.19176E+00  1.19059E+00  1.18956E+00  1.18875E+00  1.18806E+00  1.18756E+00  1.18717E+00  1.18696E+00  1.18683E+00  1.18686E+00
   1.18698E+00  1.18723E+00  1.18756E+00  1.18802E+00  1.18854E+00  1.18918E+00  1.18988E+00  1.19068E+00  1.19154E+00  1.19250E+00
   1.19350E+00  1.19460E+00  1.19574E+00  1.19698E+00  1.19824E+00  1.19960E+00  1.20098E+00  1.20246E+00  1.20396E+00  1.20555E+00
   1.20717E+00  1.20887E+00  1.21060E+00  1.21243E+00  1.21428E+00  1.21624E+00  1.21824E+00  1.22035E+00
 NY background values follow
    -4.588E-01   -4.557E-01   -4.525E-01   -4.493E-01   -4.461E-01   -4.430E-01   -4.398E-01   -4.366E-01   -4.334E-01   -4.303E-01
    -4.271E-01   -4.239E-01   -4.207E-01   -4.176E-01   -4.144E-01   -4.112E-01   -4.080E-01   -4.049E-01   -4.017E-01   -3.985E-01
    -3.954E-01   -3.922E-01   -3.890E-01   -3.858E-01   -3.827E-01   -3.795E-01   -3.763E-01   -3.731E-01   -3.700E-01   -3.668E-01
    -3.636E-01   -3.604E-01   -3.573E-01   -3.541E-01   -3.509E-01   -3.477E-01   -3.446E-01   -3.414E-01   -3.382E-01   -3.350E-01
    -3.319E-01   -3.287E-01   -3.255E-01   -3.223E-01   -3.192E-01   -3.160E-01   -3.128E-01   -3.096E-01   -3.065E-01   -3.033E-01
    -3.001E-01   -2.970E-01   -2.938E-01   -2.906E-01   -2.874E-01   -2.843E-01   -2.811E-01   -2.779E-01   -2.747E-01   -2.716E-01
    -2.684E-01   -2.652E-01   -2.620E-01   -2.589E-01   -2.557E-01   -2.525E-01   -2.493E-01   -2.462E-01   -2.430E-01   -2.398E-01
    -2.366E-01   -2.335E-01   -2.303E-01   -2.271E-01   -2.239E-01   -2.208E-01   -2.176E-01   -2.144E-01   -2.112E-01   -2.081E-01
    -2.049E-01   -2.017E-01   -1.985E-01   -1.954E-01   -1.922E-01   -1.890E-01   -1.858E-01   -1.827E-01   -1.795E-01   -1.763E-01
    -1.731E-01   -1.700E-01   -1.668E-01   -1.636E-01   -1.604E-01   -1.572E-01   -1.541E-01   -1.509E-01   -1.477E-01   -1.445E-01
    -1.414E-01   -1.382E-01   -1.350E-01   -1.318E-01   -1.287E-01   -1.255E-01   -1.223E-01   -1.191E-01   -1.160E-01   -1.128E-01
    -1.096E-01   -1.064E-01   -1.033E-01   -1.001E-01   -9.690E-02   -9.373E-02   -9.055E-02   -8.737E-02   -8.420E-02   -8.102E-02
    -7.784E-02   -7.466E-02   -7.149E-02   -6.831E-02   -6.513E-02   -6.196E-02   -5.878E-02   -5.560E-02   -5.242E-02   -4.925E-02
    -4.607E-02   -4.289E-02   -3.972E-02   -3.654E-02   -3.336E-02   -3.018E-02   -2.701E-02   -2.383E-02   -2.065E-02   -1.747E-02
    -1.429E-02   -1.112E-02   -7.938E-03   -4.760E-03   -1.582E-03    1.597E-03    4.775E-03    7.953E-03    1.113E-02    1.431E-02
     1.749E-02    2.067E-02    2.385E-02    2.702E-02    3.020E-02    3.338E-02    3.656E-02    3.974E-02    4.292E-02    4.610E-02
     4.928E-02    5.246E-02    5.564E-02    5.882E-02    6.200E-02    6.518E-02    6.835E-02    7.153E-02    7.471E-02    7.789E-02
     8.107E-02    8.425E-02    8.743E-02    9.061E-02    9.380E-02    9.698E-02    1.002E-01    1.033E-01    1.065E-01    1.097E-01
     1.129E-01    1.161E-01    1.192E-01    1.224E-01    1.256E-01    1.288E-01    1.320E-01    1.351E-01    1.383E-01    1.415E-01
     1.447E-01    1.479E-01    1.511E-01    1.542E-01    1.574E-01    1.606E-01    1.638E-01    1.670E-01    1.701E-01    1.733E-01
     1.765E-01    1.797E-01    1.829E-01    1.861E-01    1.892E-01    1.924E-01    1.956E-01    1.988E-01    2.020E-01    2.052E-01
     2.083E-01    2.115E-01    2.147E-01    2.179E-01    2.211E-01    2.243E-01    2.275E-01    2.306E-01    2.338E-01    2.370E-01
     2.402E-01    2.434E-01    2.466E-01    2.497E-01    2.529E-01    2.561E-01    2.593E-01    2.625E-01    2.657E-01    2.689E-01
     2.720E-01    2.752E-01    2.784E-01    2.816E-01    2.848E-01    2.880E-01    2.912E-01    2.943E-01    2.975E-01    3.007E-01
     3.039E-01    3.071E-01    3.103E-01    3.135E-01    3.167E-01    3.198E-01    3.230E-01    3.262E-01    3.294E-01    3.326E-01
     3.358E-01    3.390E-01    3.422E-01    3.454E-01    3.485E-01    3.517E-01    3.549E-01    3.581E-01    3.613E-01    3.645E-01
     3.677E-01    3.709E-01    3.741E-01    3.772E-01    3.804E-01    3.836E-01    3.868E-01    3.900E-01    3.932E-01    3.964E-01
     3.996E-01    4.028E-01    4.060E-01    4.092E-01    4.123E-01    4.155E-01    4.187E-01    4.219E-01    4.251E-01    4.283E-01
     4.315E-01    4.347E-01    4.379E-01    4.411E-01    4.443E-01    4.475E-01    4.506E-01    4.538E-01    4.570E-01    4.602E-01
     4.634E-01    4.666E-01    4.698E-01    4.730E-01    4.762E-01    4.794E-01    4.826E-01    4.858E-01    4.890E-01    4.922E-01
     4.953E-01    4.985E-01    5.017E-01    5.049E-01    5.081E-01    5.113E-01    5.145E-01    5.177E-01    5.209E-01    5.241E-01
     5.273E-01    5.305E-01    5.337E-01    5.369E-01    5.401E-01    5.432E-01    5.464E-01    5.496E-01    5.528E-01    5.560E-01
     5.592E-01    5.624E-01    5.656E-01    5.688E-01    5.720E-01    5.752E-01    5.784E-01    5.816E-01    5.848E-01    5.880E-01
     5.912E-01    5.944E-01    5.975E-01    6.007E-01    6.039E-01    6.071E-01    6.103E-01    6.135E-01    6.167E-01    6.199E-01
     6.231E-01    6.263E-01    6.295E-01    6.327E-01    6.359E-01    6.391E-01    6.423E-01    6.455E-01    6.487E-01    6.519E-01
     6.551E-01    6.582E-01    6.614E-01    6.646E-01    6.678E-01    6.710E-01    6.742E-01    6.774E-01    6.806E-01    6.838E-01
     6.870E-01    6.902E-01    6.934E-01    6.966E-01    6.998E-01    7.030E-01    7.062E-01    7.094E-01    7.126E-01    7.157E-01
     7.189E-01    7.221E-01    7.253E-01    7.285E-01    7.317E-01    7.349E-01    7.381E-01    7.413E-01    7.445E-01    7.477E-01
     7.509E-01    7.541E-01    7.573E-01    7.605E-01    7.637E-01    7.668E-01    7.700E-01    7.732E-01    7.764E-01    7.796E-01
     7.828E-01    7.860E-01    7.892E-01    7.924E-01    7.956E-01    7.988E-01    8.020E-01    8.052E-01    8.084E-01    8.116E-01
     8.147E-01    8.179E-01    8.211E-01    8.243E-01    8.275E-01    8.307E-01    8.339E-01    8.371E-01    8.403E-01    8.435E-01
     8.467E-01    8.499E-01    8.531E-01    8.563E-01    8.594E-01    8.626E-01    8.658E-01    8.690E-01    8.722E-01    8.754E-01
     8.786E-01    8.818E-01    8.850E-01    8.882E-01    8.914E-01    8.946E-01    8.978E-01    9.010E-01    9.041E-01    9.073E-01
     9.105E-01    9.137E-01    9.169E-01    9.201E-01    9.233E-01    9.265E-01    9.297E-01    9.329E-01    9.361E-01    9.393E-01
     9.424E-01    9.456E-01    9.488E-01    9.520E-01    9.552E-01    9.584E-01    9.616E-01    9.648E-01    9.680E-01    9.712E-01
     9.744E-01    9.775E-01    9.807E-01    9.839E-01    9.871E-01    9.903E-01    9.935E-01    9.967E-01    9.999E-01    1.003E+00
     1.006E+00    1.009E+00    1.013E+00    1.016E+00    1.019E+00    1.022E+00    1.025E+00    1.029E+00    1.032E+00    1.035E+00
     1.038E+00    1.041E+00    1.045E+00    1.048E+00    1.051E+00    1.054E+00    1.057E+00    1.061E+00    1.064E+00    1.067E+00
     1.070E+00    1.073E+00    1.076E+00    1.080E+00    1.083E+00    1.086E+00    1.089E+00    1.092E+00    1.096E+00    1.099E+00
     1.102E+00    1.105E+00    1.108E+00    1.112E+00    1.115E+00    1.118E+00    1.121E+00    1.124E+00
 Ala      Conc. = 1.93E+03
