 LCModel (Version 6.3-1L) Copyright: S.W. Provencher.          Ref.: Magn. Reson. Med. 30:672-679 (1993).                
 Slice#3 Row#5 Col#4  PD_05_press_2_raw_act
 36 lines in following concentration table = NCONC+1
    Conc.  %SD /Cr+PCr  Metabolite                                         
    0.000 999%   0.000 Ala                                                 
  403.550 129%   0.120 Asp                                                 
 1.97E+03  25%   0.585 Cr                                                  
 1.40E+03  35%   0.415 PCr                                                 
  115.826 300% 3.4E-02 GABA                                                
  175.673 202% 5.2E-02 Glc                                                 
  941.082  53%   0.279 Gln                                                 
 4.23E+03  14%   1.253 Glu                                                 
 1.39E+03   4%   0.412 GPC                                                 
    0.000 999%   0.000 PCh                                                 
 1.10E+03  16%   0.325 GSH                                                 
 2.45E+03  25%   0.727 Ins                                                 
    0.000 999%   0.000 Lac                                                 
 4.78E+03   6%   1.415 NAA                                                 
  473.358  66%   0.140 NAAG                                                
  253.353  26% 7.5E-02 Scyllo                                              
   21.590 999% 6.4E-03 Tau                                                 
    0.000 999%   0.000 -CrCH2                                              
 1.39E+03   4%   0.412 GPC+PCh                                             
 5.25E+03   4%   1.555 NAA+NAAG                                            
 3.38E+03   4%   1.000 Cr+PCr                                              
 5.17E+03  16%   1.532 Glu+Gln                                             
    0.000 999%   0.000 Lip13a                                              
    0.000 999%   0.000 Lip13b                                              
    0.000 999%   0.000 Lip09                                               
 4.09E+03  16%   1.211 MM09                                                
    0.000 999%   0.000 Lip20                                               
 7.09E+03  17%   2.101 MM20                                                
 1.56E+03  36%   0.461 MM12                                                
    0.000 999%   0.000 MM14                                                
 6.37E+03  16%   1.887 MM17                                                
    0.000 999%   0.000 Lip13a+Lip13b                                       
 1.56E+03  36%   0.461 MM14+Lip13a+Lip13b+MM12                             
 4.09E+03  16%   1.211 MM09+Lip09                                          
 7.09E+03  17%   2.101 MM20+Lip20                                          
   6 lines in following misc. output table
  FWHM = 0.046 ppm    S/N =  11                                            
  Data shift = 0.023 ppm                                                   
  Ph: -13 deg      -1.5 deg/ppm                                            
  alphaB,S = 6.0E-01,   4.9E+01                                            
   14 spline knots.   Ns = 6(1)                                            
  (11) 2 infls.   ( 5) 1 extrs.                                            
  498 points on ppm-axis = NY
      4.000000     3.992357     3.984714     3.977070     3.969427     3.961784     3.954141     3.946497     3.938854     3.931211
      3.923568     3.915925     3.908281     3.900638     3.892995     3.885352     3.877708     3.870065     3.862422     3.854779
      3.847136     3.839492     3.831849     3.824206     3.816563     3.808919     3.801276     3.793633     3.785990     3.778347
      3.770703     3.763060     3.755417     3.747774     3.740130     3.732487     3.724844     3.717201     3.709558     3.701914
      3.694271     3.686628     3.678985     3.671341     3.663698     3.656055     3.648412     3.640769     3.633125     3.625482
      3.617839     3.610196     3.602552     3.594909     3.587266     3.579623     3.571980     3.564336     3.556693     3.549050
      3.541407     3.533763     3.526120     3.518477     3.510834     3.503191     3.495547     3.487904     3.480261     3.472618
      3.464974     3.457331     3.449688     3.442045     3.434402     3.426758     3.419115     3.411472     3.403829     3.396185
      3.388542     3.380899     3.373256     3.365613     3.357969     3.350326     3.342683     3.335040     3.327396     3.319753
      3.312110     3.304467     3.296824     3.289180     3.281537     3.273894     3.266251     3.258607     3.250964     3.243321
      3.235678     3.228034     3.220391     3.212748     3.205105     3.197462     3.189818     3.182175     3.174532     3.166889
      3.159245     3.151602     3.143959     3.136316     3.128673     3.121029     3.113386     3.105743     3.098100     3.090456
      3.082813     3.075170     3.067527     3.059884     3.052240     3.044597     3.036954     3.029311     3.021667     3.014024
      3.006381     2.998738     2.991095     2.983451     2.975808     2.968165     2.960522     2.952878     2.945235     2.937592
      2.929949     2.922306     2.914662     2.907019     2.899376     2.891733     2.884089     2.876446     2.868803     2.861160
      2.853517     2.845873     2.838230     2.830587     2.822944     2.815300     2.807657     2.800014     2.792371     2.784728
      2.777084     2.769441     2.761798     2.754155     2.746511     2.738868     2.731225     2.723582     2.715939     2.708295
      2.700652     2.693009     2.685366     2.677722     2.670079     2.662436     2.654793     2.647150     2.639506     2.631863
      2.624220     2.616577     2.608933     2.601290     2.593647     2.586004     2.578361     2.570717     2.563074     2.555431
      2.547788     2.540144     2.532501     2.524858     2.517215     2.509572     2.501928     2.494285     2.486642     2.478999
      2.471355     2.463712     2.456069     2.448426     2.440783     2.433139     2.425496     2.417853     2.410210     2.402566
      2.394923     2.387280     2.379637     2.371994     2.364350     2.356707     2.349064     2.341421     2.333777     2.326134
      2.318491     2.310848     2.303205     2.295561     2.287918     2.280275     2.272632     2.264988     2.257345     2.249702
      2.242059     2.234416     2.226772     2.219129     2.211486     2.203843     2.196199     2.188556     2.180913     2.173270
      2.165627     2.157983     2.150340     2.142697     2.135054     2.127410     2.119767     2.112124     2.104481     2.096838
      2.089194     2.081551     2.073908     2.066265     2.058621     2.050978     2.043335     2.035692     2.028049     2.020405
      2.012762     2.005119     1.997476     1.989833     1.982190     1.974546     1.966903     1.959260     1.951617     1.943974
      1.936331     1.928688     1.921045     1.913402     1.905759     1.898115     1.890472     1.882829     1.875186     1.867543
      1.859900     1.852257     1.844614     1.836971     1.829327     1.821684     1.814041     1.806398     1.798755     1.791112
      1.783469     1.775826     1.768183     1.760540     1.752896     1.745253     1.737610     1.729967     1.722324     1.714681
      1.707038     1.699395     1.691752     1.684108     1.676465     1.668822     1.661179     1.653536     1.645893     1.638250
      1.630607     1.622964     1.615321     1.607677     1.600034     1.592391     1.584748     1.577105     1.569462     1.561819
      1.554176     1.546533     1.538890     1.531246     1.523603     1.515960     1.508317     1.500674     1.493031     1.485388
      1.477745     1.470102     1.462458     1.454815     1.447172     1.439529     1.431886     1.424243     1.416600     1.408957
      1.401314     1.393671     1.386027     1.378384     1.370741     1.363098     1.355455     1.347812     1.340169     1.332526
      1.324883     1.317240     1.309596     1.301953     1.294310     1.286667     1.279024     1.271381     1.263738     1.256095
      1.248452     1.240808     1.233165     1.225522     1.217879     1.210236     1.202593     1.194950     1.187307     1.179664
      1.172021     1.164377     1.156734     1.149091     1.141448     1.133805     1.126162     1.118519     1.110876     1.103233
      1.095590     1.087946     1.080303     1.072660     1.065017     1.057374     1.049731     1.042088     1.034445     1.026802
      1.019158     1.011515     1.003872     0.996229     0.988586     0.980943     0.973300     0.965657     0.958014     0.950371
      0.942727     0.935084     0.927441     0.919798     0.912155     0.904512     0.896869     0.889226     0.881583     0.873940
      0.866296     0.858653     0.851010     0.843367     0.835724     0.828081     0.820438     0.812795     0.805152     0.797508
      0.789865     0.782222     0.774579     0.766936     0.759293     0.751650     0.744007     0.736364     0.728721     0.721077
      0.713434     0.705791     0.698148     0.690505     0.682862     0.675219     0.667576     0.659933     0.652290     0.644646
      0.637003     0.629360     0.621717     0.614074     0.606431     0.598788     0.591145     0.583502     0.575858     0.568215
      0.560572     0.552929     0.545286     0.537643     0.530000     0.522357     0.514714     0.507071     0.499427     0.491784
      0.484141     0.476498     0.468855     0.461212     0.453569     0.445925     0.438282     0.430639     0.422996     0.415353
      0.407710     0.400067     0.392424     0.384780     0.377137     0.369494     0.361851     0.354208     0.346565     0.338922
      0.331278     0.323635     0.315992     0.308349     0.300706     0.293063     0.285420     0.277777     0.270133     0.262490
      0.254847     0.247204     0.239561     0.231918     0.224275     0.216631     0.208988     0.201345
 NY phased data points follow
  -9.49678E+01 -8.13425E+01 -7.26036E+01 -7.15631E+01 -7.62126E+01 -5.52471E+01 -5.15838E+01 -3.77315E+01 -1.87330E+01 -7.13967E+00
   1.59832E+00  2.45851E+01  1.97987E+00  5.44656E+00 -2.78077E+01 -3.17195E+01 -4.97241E+01 -5.81057E+01 -5.64503E+01 -5.91644E+01
  -6.66848E+01 -5.27197E+01 -6.45627E+01 -5.99122E+01 -6.25620E+01 -5.80770E+01 -5.45250E+01 -4.19000E+01 -5.06800E+01 -4.30380E+01
  -4.30615E+01 -3.11555E+01 -3.49825E+01 -3.37305E+01 -5.23912E+01 -4.42734E+01 -4.31610E+01 -4.06574E+01 -4.61759E+01 -4.66152E+01
  -6.59281E+01 -4.61656E+01 -5.94111E+01 -4.09520E+01 -7.04452E+01 -3.55426E+01 -3.32598E+01 -2.26011E+01 -2.95344E+01 -3.24093E+01
  -4.27630E+01 -4.44046E+01 -4.41719E+01 -4.90289E+01 -6.10638E+01 -6.19156E+01 -3.72231E+01 -4.94942E+01 -4.07274E+01 -4.95117E+01
  -4.94130E+01 -6.23312E+01 -6.94894E+01 -6.51505E+01 -6.95509E+01 -6.38063E+01 -6.57277E+01 -5.84089E+01 -6.96082E+01 -5.82801E+01
  -6.97566E+01 -5.69297E+01 -6.14738E+01 -5.35922E+01 -4.83264E+01 -4.96847E+01 -6.50794E+01 -4.80943E+01 -5.46123E+01 -5.45461E+01
  -5.06337E+01 -5.17701E+01 -5.51335E+01 -3.66394E+01 -4.44715E+01 -5.21255E+01 -4.42817E+01 -5.33920E+01 -3.40494E+01 -3.49616E+01
  -4.70362E+01 -3.77148E+01 -5.55740E+01 -4.84429E+01 -4.62415E+01 -4.55992E+01 -2.69977E+01 -3.49374E+01 -3.13246E+01 -1.05971E+00
   2.15989E+01  3.87125E+01  5.97231E+01  8.82924E+01  8.80464E+01  6.57912E+01  3.72092E+01  2.89529E+01 -3.10029E+00 -1.78978E+01
  -1.98763E+01 -4.40313E+01 -3.47658E+01 -3.49682E+01 -5.08980E+01 -3.37790E+01 -5.21599E+01 -4.77224E+01 -3.74488E+01 -3.94909E+01
  -4.96495E+01 -3.60351E+01 -3.12482E+01 -1.68061E+01  5.84927E+00  4.44894E+01  5.71216E+01  7.81390E+01  7.80888E+01  6.62344E+01
   3.99360E+01  2.05059E+01  9.51650E+00 -9.95970E+00 -2.68650E+01 -2.89025E+01 -3.98514E+01 -4.85661E+01 -3.75654E+01 -4.87017E+01
  -3.34044E+01 -4.71719E+01 -4.23198E+01 -4.68443E+01 -4.86520E+01 -4.27351E+01 -4.12963E+01 -5.39636E+01 -4.09801E+01 -4.19858E+01
  -4.16330E+01 -4.95849E+01 -4.53491E+01 -4.48512E+01 -3.97190E+01 -5.68906E+01 -4.73510E+01 -5.39631E+01 -5.03847E+01 -4.88995E+01
  -4.62394E+01 -4.41090E+01 -5.25014E+01 -4.14522E+01 -3.83044E+01 -4.30510E+01 -4.53322E+01 -3.41760E+01 -4.16108E+01 -4.68512E+01
  -4.18122E+01 -5.15097E+01 -5.09425E+01 -5.20946E+01 -5.06464E+01 -5.39113E+01 -4.73263E+01 -4.86920E+01 -5.12650E+01 -6.09927E+01
  -5.49659E+01 -5.43964E+01 -5.05687E+01 -6.98548E+01 -6.16523E+01 -4.88996E+01 -4.32654E+01 -4.05863E+01 -3.25809E+01 -2.24796E+01
  -3.12096E+01 -3.49731E+00 -1.74505E+01 -1.88471E+01 -1.07221E+01 -1.34570E+01 -2.37438E+01 -2.66240E+01 -3.49469E+01 -3.48595E+01
  -3.53718E+01 -2.16871E+01 -2.52704E+01 -9.88253E+00 -2.02207E+01 -3.33787E+01 -2.35838E+01 -3.84530E+01 -4.55739E+01 -4.11544E+01
  -4.22834E+01 -4.14612E+01 -3.05612E+01 -2.83392E+01 -5.87693E+00  2.14154E+00 -1.35363E+00 -8.31800E+00 -1.24799E+01 -1.60479E+01
  -4.10424E+01 -3.87310E+01 -3.80211E+01 -4.55810E+01 -3.36955E+01 -3.08199E+01 -1.34091E+01 -2.20057E+01 -1.51448E+01 -1.12051E+01
  -9.51060E+00 -1.18266E+01 -1.08597E+01 -1.42619E+01 -1.51987E+01 -6.12380E+00 -1.40217E+01 -7.52200E+00 -5.10157E+00 -1.34531E+01
  -2.27495E+01 -2.62155E+01 -2.79251E+01 -2.05839E+01 -1.31591E+01 -1.06822E+01 -9.93652E+00 -1.47384E+00 -5.18310E+00 -1.32799E+01
  -2.21090E+01 -1.40908E+01 -4.88351E+00  1.51544E+01  2.57791E+01  3.91868E+01  5.92769E+01  9.36882E+01  1.15936E+02  1.50350E+02
   1.71119E+02  1.71465E+02  1.32572E+02  8.71351E+01  5.65532E+01  2.34282E+01  5.71215E+00 -4.24202E+00 -1.10791E+01 -2.06628E+01
  -2.39350E+01 -2.23155E+01 -5.88042E+00 -2.08061E+01 -7.64668E+00 -1.57908E+01 -2.38709E+01 -1.03576E+01 -1.77677E+01 -2.00534E+01
  -2.42980E+01 -1.63670E+01 -2.38473E+01 -3.13417E+01 -3.43804E+01 -2.36932E+01 -1.95981E+01 -2.83702E+01 -1.22242E+01 -1.72810E+01
  -2.65369E+00 -2.37709E+01 -2.18106E+01 -8.99692E+00 -2.56128E+01 -1.66378E+01 -1.13265E+01 -2.81934E+01 -2.22129E+01 -8.59524E+00
  -1.84378E+01 -7.60047E+00 -2.88652E+01 -8.45241E+00 -1.01041E+01 -6.68050E+00 -1.20325E+01 -5.34604E-01 -8.22482E+00 -1.06111E-01
  -5.43597E+00 -1.83930E+01 -1.46462E+01 -2.20778E+01 -1.51580E+01 -2.96775E+01 -1.34271E+01 -2.16919E+01 -4.18140E+01 -3.08241E+01
  -3.27131E+01 -3.34540E+01 -5.50048E+01 -3.89347E+01 -3.10315E+01 -4.03069E+01 -4.40895E+01 -4.50214E+01 -4.65611E+01 -6.11465E+01
  -4.50285E+01 -4.77666E+01 -4.04685E+01 -5.80303E+01 -5.98426E+01 -5.66266E+01 -4.95527E+01 -4.78085E+01 -5.47025E+01 -5.56775E+01
  -5.25572E+01 -6.05613E+01 -5.61107E+01 -4.92519E+01 -7.20465E+01 -4.96822E+01 -5.22309E+01 -6.14536E+01 -5.59826E+01 -6.69444E+01
  -5.88035E+01 -6.27277E+01 -6.04976E+01 -5.96706E+01 -5.17502E+01 -4.49790E+01 -5.19194E+01 -5.98588E+01 -4.58720E+01 -4.24742E+01
  -4.24231E+01 -3.72704E+01 -3.60462E+01 -4.41925E+01 -3.04753E+01 -3.59047E+01 -4.05219E+01 -2.51567E+01 -3.81019E+01 -1.98197E+01
  -2.66577E+01 -2.99201E+01 -3.11431E+01 -1.92483E+01 -3.63610E+01 -2.24793E+01 -3.55328E+01 -2.34832E+01 -1.99972E+01 -2.55452E+01
  -2.57632E+01 -2.85330E+01 -2.09487E+01 -1.86160E+01 -3.04848E+01 -1.50480E+01 -2.34727E+01 -2.95440E+01 -2.83939E+01 -2.05382E+01
  -1.95886E+01 -1.91807E+01 -1.72849E+01 -3.54501E+01 -2.12838E+01 -1.59515E+01 -2.10933E+01 -1.64245E+01 -2.03191E+01 -1.84525E+01
  -1.39066E+01 -7.83143E+00 -9.16210E+00 -1.17117E+01 -1.02165E+01 -1.70781E+01 -1.13337E+01 -2.01801E+00 -1.77216E+01 -9.01415E+00
  -1.14435E+01 -1.64805E+01 -4.86269E+00 -5.72882E+00 -2.42448E+01 -1.86643E+01 -7.38051E-01 -1.15086E+01 -1.29893E+01 -1.69568E+01
  -1.33808E+01 -2.00097E+01 -1.01465E+01 -1.92067E+01 -1.14618E+01 -2.62115E+01 -1.89101E+01 -1.38802E+01 -1.00996E+01 -1.09527E+01
  -1.24358E+01 -8.05595E+00 -1.64601E+01 -2.32096E+01 -1.49750E+01 -1.80891E+01 -1.97853E+01 -1.37761E+01 -2.79844E+01 -1.01448E+01
  -1.45604E+01 -1.78059E+01 -2.88220E+01 -6.71265E+00 -1.26557E+01  1.97493E-01 -2.46086E+01 -4.20996E+00 -1.66058E+01 -9.33108E+00
  -1.25838E+01 -5.21870E+00 -2.13452E+01 -1.98540E+01 -2.45274E+01 -2.37811E+01 -1.60096E+01 -2.17333E+01 -1.77097E+01 -1.90368E+01
  -8.23012E+00 -8.09609E+00 -1.89307E+01 -2.75586E+01 -2.36769E+01 -1.24937E+01 -1.72958E+01 -7.35093E+00 -1.96924E+01 -1.27784E+01
  -1.71363E+01 -1.85818E+01 -1.92949E+01 -1.85654E+01 -1.81892E+01 -1.00173E+01 -1.63570E+01 -1.14301E+01 -2.21283E+01 -1.87897E+01
  -8.58827E+00 -3.55788E+01 -1.21266E+01 -1.51018E+01 -1.28981E+01 -1.59031E+01 -1.59295E+01 -1.40243E+01 -1.65472E+01 -8.53652E+00
  -1.48419E+01 -1.25019E+01 -1.65669E+01 -1.51242E+01 -1.78338E+01 -1.15126E+01 -1.71256E+01 -1.60678E+01
 NY points of the fit to the data follow
  -7.44052E+01 -7.44213E+01 -7.36249E+01 -7.15429E+01 -6.72027E+01 -5.99877E+01 -4.91978E+01 -3.57711E+01 -2.04249E+01 -5.27537E+00
   6.28488E+00  1.08680E+01  6.49204E+00 -5.21752E+00 -1.96536E+01 -3.23968E+01 -4.24500E+01 -5.03320E+01 -5.61926E+01 -6.01355E+01
  -6.15463E+01 -6.19050E+01 -6.21892E+01 -6.25116E+01 -6.21771E+01 -6.10358E+01 -5.84502E+01 -5.44078E+01 -4.92022E+01 -4.25126E+01
  -3.58170E+01 -3.18726E+01 -3.21059E+01 -3.52720E+01 -3.99183E+01 -4.55871E+01 -5.17857E+01 -5.72453E+01 -6.00575E+01 -6.06181E+01
  -5.96099E+01 -5.72650E+01 -5.40816E+01 -5.01675E+01 -4.60897E+01 -4.21939E+01 -3.86280E+01 -3.63367E+01 -3.65292E+01 -3.96359E+01
  -4.43698E+01 -4.88209E+01 -5.21883E+01 -5.46721E+01 -5.63226E+01 -5.66989E+01 -5.58114E+01 -5.44358E+01 -5.29924E+01 -5.16887E+01
  -5.10036E+01 -5.13566E+01 -5.27519E+01 -5.46117E+01 -5.62382E+01 -5.71700E+01 -5.73108E+01 -5.67398E+01 -5.56175E+01 -5.43037E+01
  -5.30131E+01 -5.19179E+01 -5.11614E+01 -5.09075E+01 -5.11447E+01 -5.15424E+01 -5.19005E+01 -5.21617E+01 -5.23741E+01 -5.25111E+01
  -5.22036E+01 -5.11992E+01 -4.97369E+01 -4.77550E+01 -4.55168E+01 -4.34581E+01 -4.19884E+01 -4.19839E+01 -4.39360E+01 -4.68970E+01
  -4.91588E+01 -5.01722E+01 -5.03738E+01 -5.02905E+01 -5.00573E+01 -4.90794E+01 -4.68618E+01 -4.03680E+01 -2.82370E+01 -1.00510E+01
   1.45844E+01  4.22238E+01  6.89704E+01  8.79219E+01  8.93475E+01  7.09345E+01  4.27164E+01  1.63894E+01 -4.26776E+00 -2.04352E+01
  -3.40949E+01 -4.25167E+01 -4.50276E+01 -4.57030E+01 -4.58638E+01 -4.58217E+01 -4.56763E+01 -4.54569E+01 -4.51046E+01 -4.44535E+01
  -4.27938E+01 -3.72148E+01 -2.62754E+01 -1.03411E+01  1.11766E+01  3.53857E+01  5.91219E+01  7.72598E+01  8.09554E+01  6.67759E+01
   4.29554E+01  2.02935E+01  2.21827E+00 -1.25461E+01 -2.63571E+01 -3.69268E+01 -4.16134E+01 -4.34412E+01 -4.33442E+01 -4.19328E+01
  -4.00013E+01 -3.82173E+01 -3.69617E+01 -3.65440E+01 -3.68355E+01 -3.74322E+01 -3.82249E+01 -3.91337E+01 -4.00290E+01 -4.08477E+01
  -4.14657E+01 -4.19946E+01 -4.24064E+01 -4.26573E+01 -4.28044E+01 -4.29699E+01 -4.31765E+01 -4.35833E+01 -4.42202E+01 -4.49563E+01
  -4.57175E+01 -4.59664E+01 -4.53907E+01 -4.42834E+01 -4.33025E+01 -4.30610E+01 -4.36481E+01 -4.45173E+01 -4.51562E+01 -4.57598E+01
  -4.64644E+01 -4.71896E+01 -4.78916E+01 -4.84328E+01 -4.89360E+01 -4.93932E+01 -4.93902E+01 -4.87326E+01 -4.77550E+01 -4.71858E+01
  -4.72942E+01 -4.75971E+01 -4.73556E+01 -4.65330E+01 -4.56143E+01 -4.45195E+01 -4.27447E+01 -3.98517E+01 -3.58927E+01 -3.19096E+01
  -2.89023E+01 -2.73926E+01 -2.74660E+01 -2.87125E+01 -3.06665E+01 -3.27976E+01 -3.43739E+01 -3.50845E+01 -3.45373E+01 -3.23355E+01
  -2.87327E+01 -2.48780E+01 -2.16600E+01 -1.95068E+01 -1.91851E+01 -2.08430E+01 -2.46294E+01 -2.98063E+01 -3.49467E+01 -3.90014E+01
  -4.05655E+01 -3.86819E+01 -3.34309E+01 -2.58695E+01 -1.77369E+01 -1.09352E+01 -8.03494E+00 -1.07692E+01 -1.89323E+01 -2.94579E+01
  -3.91348E+01 -4.64221E+01 -5.01099E+01 -4.91168E+01 -4.27061E+01 -3.32170E+01 -2.46923E+01 -1.88615E+01 -1.55806E+01 -1.41302E+01
  -1.42192E+01 -1.53509E+01 -1.61569E+01 -1.54300E+01 -1.35823E+01 -1.16479E+01 -1.02038E+01 -9.74294E+00 -1.04386E+01 -1.25309E+01
  -1.54336E+01 -1.77737E+01 -1.86808E+01 -1.79261E+01 -1.56549E+01 -1.22470E+01 -8.93209E+00 -6.81759E+00 -5.95444E+00 -5.69521E+00
  -4.93609E+00 -3.43068E+00 -3.29537E-01  5.96866E+00  1.94800E+01  3.90049E+01  6.42709E+01  9.40071E+01  1.23897E+02  1.51511E+02
   1.68471E+02  1.62363E+02  1.32301E+02  9.35521E+01  6.02529E+01  3.46736E+01  1.38688E+01 -4.64132E+00 -1.51712E+01 -1.90245E+01
  -2.11930E+01 -2.26045E+01 -2.33726E+01 -2.36010E+01 -2.36900E+01 -2.38675E+01 -2.43080E+01 -2.50001E+01 -2.58041E+01 -2.65770E+01
  -2.72867E+01 -2.78721E+01 -2.82023E+01 -2.82394E+01 -2.80617E+01 -2.77453E+01 -2.73031E+01 -2.67239E+01 -2.59961E+01 -2.51290E+01
  -2.41043E+01 -2.29114E+01 -2.15679E+01 -2.01215E+01 -1.86131E+01 -1.70799E+01 -1.55571E+01 -1.40820E+01 -1.26931E+01 -1.14314E+01
  -1.03250E+01 -9.41130E+00 -8.74020E+00 -8.35312E+00 -8.27768E+00 -8.52867E+00 -9.10715E+00 -1.00069E+01 -1.12062E+01 -1.26732E+01
  -1.43718E+01 -1.62597E+01 -1.82909E+01 -2.04208E+01 -2.26041E+01 -2.47972E+01 -2.69601E+01 -2.90585E+01 -3.10647E+01 -3.29572E+01
  -3.47203E+01 -3.63432E+01 -3.78210E+01 -3.91536E+01 -4.03450E+01 -4.14017E+01 -4.23315E+01 -4.31435E+01 -4.38478E+01 -4.44550E+01
  -4.49754E+01 -4.54181E+01 -4.57914E+01 -4.61023E+01 -4.63574E+01 -4.65628E+01 -4.67233E+01 -4.68422E+01 -4.69220E+01 -4.69645E+01
  -4.69716E+01 -4.69442E+01 -4.68828E+01 -4.67868E+01 -4.66553E+01 -4.64877E+01 -4.62833E+01 -4.60414E+01 -4.57607E+01 -4.54402E+01
  -4.50793E+01 -4.46783E+01 -4.42383E+01 -4.37609E+01 -4.32482E+01 -4.27033E+01 -4.21305E+01 -4.15355E+01 -4.09250E+01 -4.03058E+01
  -3.96852E+01 -3.90710E+01 -3.84712E+01 -3.78938E+01 -3.73458E+01 -3.68330E+01 -3.63596E+01 -3.59283E+01 -3.55401E+01 -3.51942E+01
  -3.48873E+01 -3.46139E+01 -3.43670E+01 -3.41381E+01 -3.39179E+01 -3.36959E+01 -3.34609E+01 -3.32013E+01 -3.29060E+01 -3.25646E+01
  -3.21676E+01 -3.17063E+01 -3.11727E+01 -3.05605E+01 -2.98652E+01 -2.90840E+01 -2.82160E+01 -2.72617E+01 -2.62239E+01 -2.51075E+01
  -2.39202E+01 -2.26718E+01 -2.13746E+01 -2.00428E+01 -1.86927E+01 -1.73430E+01 -1.60136E+01 -1.47258E+01 -1.35007E+01 -1.23591E+01
  -1.13207E+01 -1.04038E+01 -9.62413E+00 -8.99415E+00 -8.52230E+00 -8.21294E+00 -8.06641E+00 -8.07901E+00 -8.24289E+00 -8.54627E+00
  -8.97411E+00 -9.50910E+00 -1.01325E+01 -1.08249E+01 -1.15665E+01 -1.23381E+01 -1.31213E+01 -1.38998E+01 -1.46596E+01 -1.53888E+01
  -1.60776E+01 -1.67185E+01 -1.73061E+01 -1.78373E+01 -1.83109E+01 -1.87272E+01 -1.90872E+01 -1.93931E+01 -1.96478E+01 -1.98548E+01
  -2.00180E+01 -2.01411E+01 -2.02279E+01 -2.02817E+01 -2.03062E+01 -2.03049E+01 -2.02808E+01 -2.02367E+01 -2.01748E+01 -2.00975E+01
  -2.00068E+01 -1.99048E+01 -1.97931E+01 -1.96730E+01 -1.95456E+01 -1.94121E+01 -1.92737E+01 -1.91314E+01 -1.89861E+01 -1.88381E+01
  -1.86882E+01 -1.85369E+01 -1.83850E+01 -1.82329E+01 -1.80809E+01 -1.79289E+01 -1.77772E+01 -1.76260E+01 -1.74757E+01 -1.73263E+01
  -1.71778E+01 -1.70301E+01 -1.68834E+01 -1.67377E+01 -1.65934E+01 -1.64502E+01 -1.63079E+01 -1.61666E+01 -1.60264E+01 -1.58874E+01
  -1.57496E+01 -1.56126E+01 -1.54765E+01 -1.53411E+01 -1.52066E+01 -1.50730E+01 -1.49402E+01 -1.48079E+01 -1.46760E+01 -1.45446E+01
  -1.44136E+01 -1.42831E+01 -1.41529E+01 -1.40226E+01 -1.38923E+01 -1.37620E+01 -1.36316E+01 -1.35011E+01 -1.33702E+01 -1.32387E+01
  -1.31066E+01 -1.29739E+01 -1.28406E+01 -1.27064E+01 -1.25710E+01 -1.24344E+01 -1.22966E+01 -1.21575E+01
 NY background values follow
    -8.203E+01   -8.169E+01   -8.134E+01   -8.100E+01   -8.066E+01   -8.032E+01   -7.998E+01   -7.964E+01   -7.930E+01   -7.896E+01
    -7.862E+01   -7.828E+01   -7.795E+01   -7.761E+01   -7.728E+01   -7.695E+01   -7.662E+01   -7.629E+01   -7.596E+01   -7.563E+01
    -7.530E+01   -7.498E+01   -7.465E+01   -7.433E+01   -7.400E+01   -7.368E+01   -7.336E+01   -7.305E+01   -7.273E+01   -7.241E+01
    -7.210E+01   -7.179E+01   -7.148E+01   -7.117E+01   -7.086E+01   -7.055E+01   -7.025E+01   -6.995E+01   -6.964E+01   -6.934E+01
    -6.905E+01   -6.875E+01   -6.846E+01   -6.816E+01   -6.787E+01   -6.758E+01   -6.730E+01   -6.701E+01   -6.673E+01   -6.645E+01
    -6.617E+01   -6.589E+01   -6.562E+01   -6.534E+01   -6.507E+01   -6.480E+01   -6.453E+01   -6.427E+01   -6.400E+01   -6.374E+01
    -6.348E+01   -6.322E+01   -6.297E+01   -6.271E+01   -6.246E+01   -6.221E+01   -6.196E+01   -6.171E+01   -6.147E+01   -6.122E+01
    -6.098E+01   -6.074E+01   -6.050E+01   -6.027E+01   -6.003E+01   -5.980E+01   -5.957E+01   -5.934E+01   -5.911E+01   -5.889E+01
    -5.866E+01   -5.844E+01   -5.822E+01   -5.800E+01   -5.778E+01   -5.757E+01   -5.736E+01   -5.714E+01   -5.693E+01   -5.673E+01
    -5.652E+01   -5.632E+01   -5.611E+01   -5.591E+01   -5.571E+01   -5.551E+01   -5.532E+01   -5.512E+01   -5.493E+01   -5.474E+01
    -5.455E+01   -5.435E+01   -5.417E+01   -5.398E+01   -5.379E+01   -5.360E+01   -5.342E+01   -5.323E+01   -5.305E+01   -5.287E+01
    -5.268E+01   -5.250E+01   -5.232E+01   -5.214E+01   -5.196E+01   -5.177E+01   -5.159E+01   -5.141E+01   -5.123E+01   -5.105E+01
    -5.087E+01   -5.069E+01   -5.051E+01   -5.033E+01   -5.014E+01   -4.996E+01   -4.978E+01   -4.960E+01   -4.941E+01   -4.923E+01
    -4.904E+01   -4.886E+01   -4.867E+01   -4.848E+01   -4.830E+01   -4.811E+01   -4.792E+01   -4.772E+01   -4.753E+01   -4.734E+01
    -4.714E+01   -4.695E+01   -4.675E+01   -4.656E+01   -4.636E+01   -4.616E+01   -4.596E+01   -4.576E+01   -4.556E+01   -4.536E+01
    -4.516E+01   -4.496E+01   -4.476E+01   -4.456E+01   -4.436E+01   -4.416E+01   -4.395E+01   -4.375E+01   -4.355E+01   -4.335E+01
    -4.315E+01   -4.295E+01   -4.275E+01   -4.255E+01   -4.235E+01   -4.215E+01   -4.195E+01   -4.175E+01   -4.156E+01   -4.136E+01
    -4.117E+01   -4.097E+01   -4.078E+01   -4.058E+01   -4.039E+01   -4.020E+01   -4.001E+01   -3.982E+01   -3.964E+01   -3.945E+01
    -3.927E+01   -3.908E+01   -3.890E+01   -3.872E+01   -3.854E+01   -3.837E+01   -3.819E+01   -3.802E+01   -3.785E+01   -3.768E+01
    -3.751E+01   -3.735E+01   -3.719E+01   -3.703E+01   -3.688E+01   -3.672E+01   -3.658E+01   -3.643E+01   -3.629E+01   -3.615E+01
    -3.601E+01   -3.588E+01   -3.575E+01   -3.562E+01   -3.550E+01   -3.539E+01   -3.527E+01   -3.516E+01   -3.506E+01   -3.496E+01
    -3.486E+01   -3.477E+01   -3.469E+01   -3.460E+01   -3.453E+01   -3.446E+01   -3.439E+01   -3.433E+01   -3.427E+01   -3.422E+01
    -3.418E+01   -3.414E+01   -3.411E+01   -3.408E+01   -3.406E+01   -3.405E+01   -3.404E+01   -3.404E+01   -3.404E+01   -3.405E+01
    -3.407E+01   -3.409E+01   -3.412E+01   -3.416E+01   -3.420E+01   -3.425E+01   -3.430E+01   -3.436E+01   -3.443E+01   -3.450E+01
    -3.457E+01   -3.465E+01   -3.474E+01   -3.483E+01   -3.493E+01   -3.504E+01   -3.515E+01   -3.526E+01   -3.538E+01   -3.550E+01
    -3.563E+01   -3.577E+01   -3.591E+01   -3.605E+01   -3.620E+01   -3.635E+01   -3.651E+01   -3.668E+01   -3.684E+01   -3.702E+01
    -3.719E+01   -3.738E+01   -3.756E+01   -3.775E+01   -3.795E+01   -3.815E+01   -3.835E+01   -3.856E+01   -3.877E+01   -3.898E+01
    -3.920E+01   -3.942E+01   -3.965E+01   -3.988E+01   -4.011E+01   -4.035E+01   -4.059E+01   -4.083E+01   -4.108E+01   -4.132E+01
    -4.157E+01   -4.182E+01   -4.208E+01   -4.233E+01   -4.258E+01   -4.284E+01   -4.309E+01   -4.335E+01   -4.361E+01   -4.386E+01
    -4.412E+01   -4.437E+01   -4.462E+01   -4.488E+01   -4.513E+01   -4.538E+01   -4.562E+01   -4.587E+01   -4.611E+01   -4.635E+01
    -4.659E+01   -4.683E+01   -4.706E+01   -4.729E+01   -4.751E+01   -4.773E+01   -4.795E+01   -4.816E+01   -4.836E+01   -4.857E+01
    -4.876E+01   -4.895E+01   -4.914E+01   -4.932E+01   -4.949E+01   -4.966E+01   -4.982E+01   -4.997E+01   -5.012E+01   -5.026E+01
    -5.039E+01   -5.052E+01   -5.064E+01   -5.075E+01   -5.085E+01   -5.095E+01   -5.104E+01   -5.112E+01   -5.119E+01   -5.126E+01
    -5.132E+01   -5.137E+01   -5.142E+01   -5.145E+01   -5.148E+01   -5.150E+01   -5.152E+01   -5.152E+01   -5.152E+01   -5.151E+01
    -5.149E+01   -5.146E+01   -5.142E+01   -5.138E+01   -5.133E+01   -5.127E+01   -5.120E+01   -5.112E+01   -5.103E+01   -5.094E+01
    -5.084E+01   -5.072E+01   -5.060E+01   -5.047E+01   -5.034E+01   -5.019E+01   -5.003E+01   -4.987E+01   -4.969E+01   -4.951E+01
    -4.932E+01   -4.912E+01   -4.890E+01   -4.868E+01   -4.846E+01   -4.822E+01   -4.797E+01   -4.772E+01   -4.746E+01   -4.719E+01
    -4.691E+01   -4.663E+01   -4.633E+01   -4.604E+01   -4.573E+01   -4.542E+01   -4.511E+01   -4.479E+01   -4.446E+01   -4.413E+01
    -4.379E+01   -4.345E+01   -4.310E+01   -4.275E+01   -4.240E+01   -4.204E+01   -4.168E+01   -4.132E+01   -4.095E+01   -4.058E+01
    -4.021E+01   -3.984E+01   -3.946E+01   -3.908E+01   -3.871E+01   -3.833E+01   -3.795E+01   -3.757E+01   -3.719E+01   -3.681E+01
    -3.642E+01   -3.604E+01   -3.567E+01   -3.529E+01   -3.491E+01   -3.453E+01   -3.416E+01   -3.379E+01   -3.342E+01   -3.305E+01
    -3.269E+01   -3.232E+01   -3.196E+01   -3.160E+01   -3.125E+01   -3.089E+01   -3.054E+01   -3.020E+01   -2.985E+01   -2.951E+01
    -2.917E+01   -2.883E+01   -2.850E+01   -2.817E+01   -2.784E+01   -2.751E+01   -2.719E+01   -2.687E+01   -2.655E+01   -2.624E+01
    -2.593E+01   -2.562E+01   -2.532E+01   -2.502E+01   -2.473E+01   -2.443E+01   -2.414E+01   -2.386E+01   -2.358E+01   -2.330E+01
    -2.302E+01   -2.275E+01   -2.249E+01   -2.222E+01   -2.196E+01   -2.171E+01   -2.146E+01   -2.121E+01   -2.097E+01   -2.073E+01
    -2.049E+01   -2.026E+01   -2.004E+01   -1.981E+01   -1.960E+01   -1.938E+01   -1.917E+01   -1.897E+01   -1.877E+01   -1.857E+01
    -1.837E+01   -1.818E+01   -1.799E+01   -1.781E+01   -1.763E+01   -1.745E+01   -1.727E+01   -1.710E+01   -1.693E+01   -1.676E+01
    -1.659E+01   -1.643E+01   -1.627E+01   -1.611E+01   -1.595E+01   -1.579E+01   -1.564E+01   -1.549E+01   -1.534E+01   -1.519E+01
    -1.504E+01   -1.489E+01   -1.474E+01   -1.459E+01   -1.445E+01   -1.430E+01   -1.416E+01   -1.401E+01   -1.387E+01   -1.373E+01
    -1.358E+01   -1.344E+01   -1.329E+01   -1.315E+01   -1.300E+01   -1.286E+01   -1.271E+01   -1.256E+01
 Asp      Conc. = 4.04E+02
