 LCModel (Version 6.3-1L) Copyright: S.W. Provencher.          Ref.: Magn. Reson. Med. 30:672-679 (1993).                
 Slice#3 Row#9 Col#3  PD_05_press_2_raw_act
 36 lines in following concentration table = NCONC+1
    Conc.  %SD /Cr+PCr  Metabolite                                         
    0.000 999%   0.000 Ala                                                 
  292.710  95%   0.200 Asp                                                 
 1.46E+03   7%   1.000 Cr                                                  
    0.000 999%   0.000 PCr                                                 
  190.705  97%   0.131 GABA                                                
    0.000 999%   0.000 Glc                                                 
  306.857 178%   0.210 Gln                                                 
 1.04E+03  60%   0.711 Glu                                                 
  459.340   8%   0.314 GPC                                                 
    0.000 999%   0.000 PCh                                                 
  855.492  16%   0.586 GSH                                                 
 2.51E+03  23%   1.718 Ins                                                 
  820.834  34%   0.562 Lac                                                 
 2.52E+03   9%   1.728 NAA                                                 
   15.577 999% 1.1E-02 NAAG                                                
  137.758  31% 9.4E-02 Scyllo                                              
    0.000 999%   0.000 Tau                                                 
  962.342  20%   0.659 -CrCH2                                              
  459.340   8%   0.314 GPC+PCh                                             
 2.54E+03   5%   1.739 NAA+NAAG                                            
 1.46E+03   7%   1.000 Cr+PCr                                              
 1.34E+03  74%   0.921 Glu+Gln                                             
 1.76E+03  44%   1.205 Lip13a                                              
    0.000 999%   0.000 Lip13b                                              
  248.922 134%   0.170 Lip09                                               
 1.42E+03  27%   0.973 MM09                                                
  267.074  82%   0.183 Lip20                                               
 2.72E+03  23%   1.860 MM20                                                
  466.790  44%   0.319 MM12                                                
 1.47E+03  35%   1.003 MM14                                                
  361.654  96%   0.248 MM17                                                
 1.76E+03  44%   1.205 Lip13a+Lip13b                                       
 3.69E+03  23%   2.528 MM14+Lip13a+Lip13b+MM12                             
 1.67E+03  21%   1.143 MM09+Lip09                                          
 2.98E+03  20%   2.042 MM20+Lip20                                          
   6 lines in following misc. output table
  FWHM = 0.069 ppm    S/N =   7                                            
  Data shift =-0.008 ppm                                                   
  Ph:   3 deg      -0.5 deg/ppm                                            
  alphaB,S = 7.7E-01,   2.0E+02                                            
   14 spline knots.   Ns = 9(1)                                            
  (14) 6 infls.   (15) 1 extrs.                                            
  498 points on ppm-axis = NY
      4.000000     3.992357     3.984714     3.977070     3.969427     3.961784     3.954141     3.946497     3.938854     3.931211
      3.923568     3.915925     3.908281     3.900638     3.892995     3.885352     3.877708     3.870065     3.862422     3.854779
      3.847136     3.839492     3.831849     3.824206     3.816563     3.808919     3.801276     3.793633     3.785990     3.778347
      3.770703     3.763060     3.755417     3.747774     3.740130     3.732487     3.724844     3.717201     3.709558     3.701914
      3.694271     3.686628     3.678985     3.671341     3.663698     3.656055     3.648412     3.640769     3.633125     3.625482
      3.617839     3.610196     3.602552     3.594909     3.587266     3.579623     3.571980     3.564336     3.556693     3.549050
      3.541407     3.533763     3.526120     3.518477     3.510834     3.503191     3.495547     3.487904     3.480261     3.472618
      3.464974     3.457331     3.449688     3.442045     3.434402     3.426758     3.419115     3.411472     3.403829     3.396185
      3.388542     3.380899     3.373256     3.365613     3.357969     3.350326     3.342683     3.335040     3.327396     3.319753
      3.312110     3.304467     3.296824     3.289180     3.281537     3.273894     3.266251     3.258607     3.250964     3.243321
      3.235678     3.228034     3.220391     3.212748     3.205105     3.197462     3.189818     3.182175     3.174532     3.166889
      3.159245     3.151602     3.143959     3.136316     3.128673     3.121029     3.113386     3.105743     3.098100     3.090456
      3.082813     3.075170     3.067527     3.059884     3.052240     3.044597     3.036954     3.029311     3.021667     3.014024
      3.006381     2.998738     2.991095     2.983451     2.975808     2.968165     2.960522     2.952878     2.945235     2.937592
      2.929949     2.922306     2.914662     2.907019     2.899376     2.891733     2.884089     2.876446     2.868803     2.861160
      2.853517     2.845873     2.838230     2.830587     2.822944     2.815300     2.807657     2.800014     2.792371     2.784728
      2.777084     2.769441     2.761798     2.754155     2.746511     2.738868     2.731225     2.723582     2.715939     2.708295
      2.700652     2.693009     2.685366     2.677722     2.670079     2.662436     2.654793     2.647150     2.639506     2.631863
      2.624220     2.616577     2.608933     2.601290     2.593647     2.586004     2.578361     2.570717     2.563074     2.555431
      2.547788     2.540144     2.532501     2.524858     2.517215     2.509572     2.501928     2.494285     2.486642     2.478999
      2.471355     2.463712     2.456069     2.448426     2.440783     2.433139     2.425496     2.417853     2.410210     2.402566
      2.394923     2.387280     2.379637     2.371994     2.364350     2.356707     2.349064     2.341421     2.333777     2.326134
      2.318491     2.310848     2.303205     2.295561     2.287918     2.280275     2.272632     2.264988     2.257345     2.249702
      2.242059     2.234416     2.226772     2.219129     2.211486     2.203843     2.196199     2.188556     2.180913     2.173270
      2.165627     2.157983     2.150340     2.142697     2.135054     2.127410     2.119767     2.112124     2.104481     2.096838
      2.089194     2.081551     2.073908     2.066265     2.058621     2.050978     2.043335     2.035692     2.028049     2.020405
      2.012762     2.005119     1.997476     1.989833     1.982190     1.974546     1.966903     1.959260     1.951617     1.943974
      1.936331     1.928688     1.921045     1.913402     1.905759     1.898115     1.890472     1.882829     1.875186     1.867543
      1.859900     1.852257     1.844614     1.836971     1.829327     1.821684     1.814041     1.806398     1.798755     1.791112
      1.783469     1.775826     1.768183     1.760540     1.752896     1.745253     1.737610     1.729967     1.722324     1.714681
      1.707038     1.699395     1.691752     1.684108     1.676465     1.668822     1.661179     1.653536     1.645893     1.638250
      1.630607     1.622964     1.615321     1.607677     1.600034     1.592391     1.584748     1.577105     1.569462     1.561819
      1.554176     1.546533     1.538890     1.531246     1.523603     1.515960     1.508317     1.500674     1.493031     1.485388
      1.477745     1.470102     1.462458     1.454815     1.447172     1.439529     1.431886     1.424243     1.416600     1.408957
      1.401314     1.393671     1.386027     1.378384     1.370741     1.363098     1.355455     1.347812     1.340169     1.332526
      1.324883     1.317240     1.309596     1.301953     1.294310     1.286667     1.279024     1.271381     1.263738     1.256095
      1.248452     1.240808     1.233165     1.225522     1.217879     1.210236     1.202593     1.194950     1.187307     1.179664
      1.172021     1.164377     1.156734     1.149091     1.141448     1.133805     1.126162     1.118519     1.110876     1.103233
      1.095590     1.087946     1.080303     1.072660     1.065017     1.057374     1.049731     1.042088     1.034445     1.026802
      1.019158     1.011515     1.003872     0.996229     0.988586     0.980943     0.973300     0.965657     0.958014     0.950371
      0.942727     0.935084     0.927441     0.919798     0.912155     0.904512     0.896869     0.889226     0.881583     0.873940
      0.866296     0.858653     0.851010     0.843367     0.835724     0.828081     0.820438     0.812795     0.805152     0.797508
      0.789865     0.782222     0.774579     0.766936     0.759293     0.751650     0.744007     0.736364     0.728721     0.721077
      0.713434     0.705791     0.698148     0.690505     0.682862     0.675219     0.667576     0.659933     0.652290     0.644646
      0.637003     0.629360     0.621717     0.614074     0.606431     0.598788     0.591145     0.583502     0.575858     0.568215
      0.560572     0.552929     0.545286     0.537643     0.530000     0.522357     0.514714     0.507071     0.499427     0.491784
      0.484141     0.476498     0.468855     0.461212     0.453569     0.445925     0.438282     0.430639     0.422996     0.415353
      0.407710     0.400067     0.392424     0.384780     0.377137     0.369494     0.361851     0.354208     0.346565     0.338922
      0.331278     0.323635     0.315992     0.308349     0.300706     0.293063     0.285420     0.277777     0.270133     0.262490
      0.254847     0.247204     0.239561     0.231918     0.224275     0.216631     0.208988     0.201345
 NY phased data points follow
  -1.77351E+02 -1.79046E+02 -1.69514E+02 -1.75469E+02 -1.67460E+02 -1.62479E+02 -1.52450E+02 -1.46125E+02 -1.42125E+02 -1.40985E+02
  -1.35548E+02 -1.34438E+02 -1.34880E+02 -1.28178E+02 -1.34232E+02 -1.35758E+02 -1.38097E+02 -1.46496E+02 -1.45217E+02 -1.41262E+02
  -1.33519E+02 -1.34380E+02 -1.33189E+02 -1.24485E+02 -1.27576E+02 -1.22612E+02 -1.24954E+02 -1.27157E+02 -1.20954E+02 -1.14363E+02
  -1.10716E+02 -1.19123E+02 -1.07745E+02 -1.14598E+02 -1.07515E+02 -1.08996E+02 -1.04995E+02 -1.10052E+02 -1.07489E+02 -1.04378E+02
  -1.04052E+02 -1.00059E+02 -1.03180E+02 -1.08033E+02 -1.02405E+02 -1.01001E+02 -9.30587E+01 -1.02422E+02 -9.18169E+01 -9.81279E+01
  -9.51122E+01 -9.34586E+01 -9.79880E+01 -9.54223E+01 -9.92628E+01 -1.04501E+02 -1.06810E+02 -9.35966E+01 -9.12181E+01 -9.65900E+01
  -1.01472E+02 -1.00379E+02 -9.91972E+01 -9.67538E+01 -1.02308E+02 -1.03465E+02 -9.77159E+01 -1.03302E+02 -9.37750E+01 -8.94793E+01
  -9.31314E+01 -9.11595E+01 -9.13243E+01 -9.33988E+01 -9.17949E+01 -9.52281E+01 -8.98131E+01 -8.63871E+01 -8.67275E+01 -8.36751E+01
  -8.27107E+01 -8.56203E+01 -8.84096E+01 -8.45876E+01 -8.48255E+01 -7.98773E+01 -8.17317E+01 -7.27734E+01 -7.48406E+01 -7.96922E+01
  -7.53463E+01 -7.55356E+01 -7.48454E+01 -6.57338E+01 -7.04063E+01 -7.03016E+01 -6.91675E+01 -6.34337E+01 -6.20207E+01 -6.17028E+01
  -5.64969E+01 -5.57336E+01 -4.78615E+01 -4.47535E+01 -3.92901E+01 -5.05953E+01 -4.33474E+01 -5.56134E+01 -5.49919E+01 -5.17703E+01
  -5.78608E+01 -6.14358E+01 -6.17680E+01 -6.35058E+01 -5.81096E+01 -6.33474E+01 -6.25301E+01 -5.46256E+01 -5.75598E+01 -5.75226E+01
  -5.79633E+01 -5.01848E+01 -3.92182E+01 -4.17527E+01 -3.56740E+01 -3.12344E+01 -2.61978E+01 -1.84358E+01 -2.03863E+01 -2.94132E+01
  -4.22475E+01 -3.99428E+01 -5.18295E+01 -5.07567E+01 -4.90261E+01 -5.17204E+01 -6.11622E+01 -6.02761E+01 -5.41088E+01 -6.73245E+01
  -6.55589E+01 -5.28285E+01 -5.43058E+01 -5.91234E+01 -5.48924E+01 -5.03924E+01 -6.12527E+01 -6.35941E+01 -5.46868E+01 -5.18565E+01
  -5.69596E+01 -6.27824E+01 -5.52682E+01 -6.09379E+01 -6.53106E+01 -5.63584E+01 -5.93286E+01 -5.21737E+01 -6.23027E+01 -6.07008E+01
  -5.54241E+01 -5.61504E+01 -5.95028E+01 -5.60665E+01 -5.31089E+01 -4.53093E+01 -5.01487E+01 -5.20746E+01 -4.88806E+01 -5.91707E+01
  -5.83742E+01 -5.17229E+01 -5.60172E+01 -5.40495E+01 -5.92955E+01 -5.11336E+01 -6.37123E+01 -6.02452E+01 -5.13185E+01 -5.61067E+01
  -5.61508E+01 -5.42199E+01 -5.53083E+01 -5.87575E+01 -5.37820E+01 -5.24260E+01 -5.43347E+01 -5.53316E+01 -5.32449E+01 -4.56693E+01
  -4.96189E+01 -4.23952E+01 -4.33883E+01 -3.56435E+01 -4.32767E+01 -4.17460E+01 -4.33459E+01 -4.02018E+01 -4.45639E+01 -4.91297E+01
  -4.71450E+01 -4.31199E+01 -4.94374E+01 -4.13083E+01 -4.12745E+01 -4.69612E+01 -5.02443E+01 -4.65825E+01 -4.65509E+01 -4.89572E+01
  -3.80179E+01 -4.27431E+01 -4.87732E+01 -4.99411E+01 -3.77891E+01 -3.85557E+01 -3.98731E+01 -3.99809E+01 -4.14524E+01 -4.06992E+01
  -4.12342E+01 -4.16985E+01 -4.31537E+01 -4.00564E+01 -3.37044E+01 -3.95312E+01 -3.16578E+01 -3.78060E+01 -3.29704E+01 -4.15140E+01
  -3.51848E+01 -3.44205E+01 -2.93110E+01 -3.73288E+01 -3.70745E+01 -3.06832E+01 -3.09098E+01 -2.76871E+01 -3.59863E+01 -3.03410E+01
  -2.87964E+01 -3.51197E+01 -3.93843E+01 -3.10552E+01 -3.26496E+01 -2.46606E+01 -2.40640E+01 -2.98195E+01 -1.35040E+01 -1.71558E+01
  -1.85331E+01 -1.63136E+01 -1.15956E+01 -9.88948E+00  7.56498E+00  9.17327E+00  1.04894E+01  1.32584E+01  3.24422E+01  4.00420E+01
   4.47739E+01  3.98623E+01  2.82922E+01  1.45763E+01 -2.52435E+00 -5.43690E+00 -1.63928E+01 -1.42303E+01 -2.08042E+01 -1.73827E+01
  -2.07275E+01 -2.82458E+01 -2.66997E+01 -2.58060E+01 -2.73243E+01 -2.09817E+01 -2.26910E+01 -3.25672E+01 -3.73182E+01 -3.13416E+01
  -3.22360E+01 -2.76270E+01 -3.56852E+01 -3.24028E+01 -2.74381E+01 -3.04339E+01 -3.14490E+01 -3.51613E+01 -3.23120E+01 -4.06466E+01
  -2.74225E+01 -3.48405E+01 -3.31711E+01 -3.63009E+01 -3.30164E+01 -3.11480E+01 -3.43736E+01 -3.38331E+01 -2.79328E+01 -3.24406E+01
  -2.89567E+01 -2.93109E+01 -3.42213E+01 -2.91950E+01 -2.49054E+01 -2.96547E+01 -2.58585E+01 -3.05424E+01 -2.87214E+01 -2.73804E+01
  -2.65694E+01 -2.03537E+01 -2.14532E+01 -2.97088E+01 -2.34170E+01 -2.91376E+01 -2.82030E+01 -3.51983E+01 -2.72107E+01 -2.84435E+01
  -2.93843E+01 -2.73020E+01 -3.31905E+01 -2.64664E+01 -2.45578E+01 -2.46880E+01 -2.51377E+01 -2.46723E+01 -2.73938E+01 -2.01446E+01
  -2.05721E+01 -2.71393E+01 -1.57383E+01 -2.00974E+01 -1.54741E+01 -1.40891E+01 -1.73909E+01 -1.38887E+01 -1.44863E+01 -1.09297E+01
  -1.53432E+01 -1.93928E+01 -1.80589E+01 -1.93614E+01 -1.06792E+01 -1.55164E+01 -1.49404E+01 -2.13426E+01 -2.04134E+01 -2.17164E+01
  -2.06303E+01 -2.07770E+01 -2.36987E+01 -1.65807E+01 -1.75361E+01 -2.55841E+01 -1.71604E+01 -1.59660E+01 -9.12838E+00 -1.35168E+01
  -1.56823E+01 -2.15542E+01 -1.32613E+01 -1.92970E+01 -1.71997E+01 -1.94604E+01 -2.18435E+01 -1.45336E+01 -1.61772E+01 -1.88735E+01
  -2.61090E+01 -1.66082E+01 -1.74709E+01 -1.81703E+01 -2.26713E+01 -2.22905E+01 -2.53984E+01 -2.68825E+01 -2.43117E+01 -2.89667E+01
  -2.56517E+01 -3.45289E+01 -1.74175E+01 -2.32871E+01 -2.81684E+01 -2.86146E+01 -2.85592E+01 -1.83302E+01 -2.16881E+01 -2.17738E+01
  -2.25147E+01 -1.96943E+01 -1.50774E+01 -1.62175E+01 -1.58403E+01 -1.85736E+01 -2.12030E+01 -1.98561E+01 -2.10426E+01 -1.66519E+01
  -1.68262E+01 -1.23464E+01 -2.27045E+01 -1.81944E+01 -1.69219E+01 -1.91444E+01 -1.51106E+01 -1.91010E+01 -1.52301E+01 -2.19570E+01
  -2.14396E+01 -1.63881E+01 -2.05529E+01 -2.09180E+01 -1.83889E+01 -1.74769E+01 -1.68186E+01 -2.05301E+01 -2.43292E+01 -2.47079E+01
  -2.96211E+01 -2.03460E+01 -2.73549E+01 -2.75643E+01 -2.72667E+01 -2.39353E+01 -2.35682E+01 -1.72272E+01 -2.82627E+01 -3.36345E+01
  -2.71854E+01 -2.27963E+01 -2.70061E+01 -3.22036E+01 -2.68274E+01 -2.90970E+01 -2.84024E+01 -2.03532E+01 -2.49355E+01 -1.52663E+01
  -2.18231E+01 -2.71443E+01 -2.04975E+01 -2.63880E+01 -2.71077E+01 -2.31715E+01 -2.40783E+01 -2.37913E+01 -2.09570E+01 -2.96807E+01
  -2.71036E+01 -2.29642E+01 -2.67722E+01 -2.48433E+01 -2.89010E+01 -2.12587E+01 -2.96623E+01 -2.89466E+01 -1.61197E+01 -1.54118E+01
  -2.66290E+01 -2.71246E+01 -2.41034E+01 -2.65759E+01 -2.33599E+01 -2.25845E+01 -1.76103E+01 -1.80328E+01 -3.13004E+01 -1.66114E+01
  -2.61709E+01 -2.50186E+01 -2.29933E+01 -2.04385E+01 -2.54278E+01 -2.58910E+01 -2.65834E+01 -2.20608E+01 -2.62808E+01 -2.37544E+01
  -2.23065E+01 -2.23312E+01 -2.21479E+01 -1.79001E+01 -2.16768E+01 -2.78474E+01 -2.49545E+01 -2.05855E+01 -2.38068E+01 -2.24226E+01
  -1.81193E+01 -1.39126E+01 -1.80617E+01 -2.56772E+01 -2.52195E+01 -1.87329E+01 -1.49687E+01 -2.53847E+01
 NY points of the fit to the data follow
  -1.64010E+02 -1.64865E+02 -1.64159E+02 -1.62106E+02 -1.59784E+02 -1.57798E+02 -1.55900E+02 -1.53315E+02 -1.49382E+02 -1.44208E+02
  -1.38767E+02 -1.34381E+02 -1.32006E+02 -1.31778E+02 -1.33009E+02 -1.34604E+02 -1.35702E+02 -1.35975E+02 -1.35805E+02 -1.35977E+02
  -1.36482E+02 -1.36579E+02 -1.35117E+02 -1.32580E+02 -1.29808E+02 -1.27105E+02 -1.24454E+02 -1.21602E+02 -1.18331E+02 -1.14857E+02
  -1.11850E+02 -1.09913E+02 -1.09399E+02 -1.10263E+02 -1.11986E+02 -1.13839E+02 -1.15259E+02 -1.15723E+02 -1.14966E+02 -1.13439E+02
  -1.11807E+02 -1.10203E+02 -1.08254E+02 -1.06006E+02 -1.03591E+02 -1.01289E+02 -9.95946E+01 -9.89490E+01 -9.94785E+01 -1.00847E+02
  -1.02383E+02 -1.03415E+02 -1.03613E+02 -1.03107E+02 -1.02227E+02 -1.01288E+02 -1.00453E+02 -9.95512E+01 -9.83835E+01 -9.71935E+01
  -9.63550E+01 -9.59790E+01 -9.58315E+01 -9.56668E+01 -9.53015E+01 -9.46337E+01 -9.36737E+01 -9.25334E+01 -9.13849E+01 -9.03071E+01
  -8.93230E+01 -8.84861E+01 -8.78026E+01 -8.72837E+01 -8.68899E+01 -8.65475E+01 -8.61934E+01 -8.57399E+01 -8.50594E+01 -8.43554E+01
  -8.37608E+01 -8.32738E+01 -8.27762E+01 -8.21914E+01 -8.15084E+01 -8.08179E+01 -8.02362E+01 -7.98107E+01 -7.95702E+01 -7.94320E+01
  -7.92461E+01 -7.88885E+01 -7.83325E+01 -7.75721E+01 -7.61809E+01 -7.33531E+01 -6.97097E+01 -6.59956E+01 -6.23818E+01 -5.88137E+01
  -5.48863E+01 -5.04219E+01 -4.60205E+01 -4.28457E+01 -4.19238E+01 -4.36132E+01 -4.73976E+01 -5.21230E+01 -5.65872E+01 -6.00164E+01
  -6.22753E+01 -6.37771E+01 -6.50971E+01 -6.64783E+01 -6.74830E+01 -6.74657E+01 -6.68016E+01 -6.52780E+01 -6.18284E+01 -5.71539E+01
  -5.23351E+01 -4.78097E+01 -4.34755E+01 -3.88735E+01 -3.37364E+01 -2.85928E+01 -2.47217E+01 -2.34607E+01 -2.53764E+01 -2.99515E+01
  -3.58530E+01 -4.15339E+01 -4.60233E+01 -4.92088E+01 -5.16294E+01 -5.40053E+01 -5.65702E+01 -5.86596E+01 -5.92752E+01 -5.88823E+01
  -5.80254E+01 -5.70032E+01 -5.61161E+01 -5.55665E+01 -5.53702E+01 -5.53798E+01 -5.54617E+01 -5.55902E+01 -5.57313E+01 -5.58687E+01
  -5.60218E+01 -5.61995E+01 -5.64449E+01 -5.67085E+01 -5.68906E+01 -5.69560E+01 -5.68762E+01 -5.67520E+01 -5.66912E+01 -5.67056E+01
  -5.67185E+01 -5.66266E+01 -5.63843E+01 -5.60354E+01 -5.56906E+01 -5.54637E+01 -5.54286E+01 -5.56162E+01 -5.59119E+01 -5.61137E+01
  -5.61576E+01 -5.61199E+01 -5.61769E+01 -5.63473E+01 -5.65231E+01 -5.65660E+01 -5.63915E+01 -5.61362E+01 -5.59469E+01 -5.57965E+01
  -5.55953E+01 -5.52684E+01 -5.47442E+01 -5.40153E+01 -5.31319E+01 -5.21486E+01 -5.10956E+01 -4.99788E+01 -4.87593E+01 -4.75497E+01
  -4.65639E+01 -4.58774E+01 -4.55479E+01 -4.55323E+01 -4.56884E+01 -4.58540E+01 -4.59385E+01 -4.58839E+01 -4.56358E+01 -4.51089E+01
  -4.43260E+01 -4.34851E+01 -4.27404E+01 -4.22399E+01 -4.21422E+01 -4.23955E+01 -4.28052E+01 -4.30915E+01 -4.31737E+01 -4.31628E+01
  -4.30670E+01 -4.27728E+01 -4.22674E+01 -4.16842E+01 -4.11558E+01 -4.07306E+01 -4.04895E+01 -4.05268E+01 -4.08255E+01 -4.12391E+01
  -4.15437E+01 -4.15439E+01 -4.11064E+01 -4.03148E+01 -3.93846E+01 -3.84230E+01 -3.75332E+01 -3.67798E+01 -3.62042E+01 -3.57151E+01
  -3.51611E+01 -3.45386E+01 -3.38726E+01 -3.32042E+01 -3.25634E+01 -3.18897E+01 -3.12425E+01 -3.07676E+01 -3.05475E+01 -3.05852E+01
  -3.07805E+01 -3.09512E+01 -3.08920E+01 -3.04556E+01 -2.95895E+01 -2.83733E+01 -2.70361E+01 -2.58038E+01 -2.47476E+01 -2.37517E+01
  -2.22643E+01 -1.83824E+01 -1.16314E+01 -4.01397E+00  3.16824E+00  9.63493E+00  1.58988E+01  2.27172E+01  2.98745E+01  3.56785E+01
   3.79476E+01  3.52995E+01  2.79026E+01  1.74510E+01  6.41694E+00 -3.12254E+00 -1.02820E+01 -1.53931E+01 -1.95225E+01 -2.35978E+01
  -2.75031E+01 -2.98211E+01 -3.04656E+01 -3.06768E+01 -3.07833E+01 -3.08630E+01 -3.09684E+01 -3.11199E+01 -3.12975E+01 -3.14803E+01
  -3.16496E+01 -3.17899E+01 -3.18897E+01 -3.19477E+01 -3.19623E+01 -3.19365E+01 -3.18815E+01 -3.18040E+01 -3.17091E+01 -3.16029E+01
  -3.14872E+01 -3.13614E+01 -3.12275E+01 -3.10843E+01 -3.09320E+01 -3.07721E+01 -3.06038E+01 -3.04259E+01 -3.02420E+01 -3.00562E+01
  -2.98710E+01 -2.96878E+01 -2.95099E+01 -2.93392E+01 -2.91769E+01 -2.90246E+01 -2.88823E+01 -2.87488E+01 -2.86222E+01 -2.85001E+01
  -2.83798E+01 -2.82578E+01 -2.81306E+01 -2.79943E+01 -2.78446E+01 -2.76775E+01 -2.74893E+01 -2.72766E+01 -2.70369E+01 -2.67680E+01
  -2.64687E+01 -2.61383E+01 -2.57774E+01 -2.53868E+01 -2.49687E+01 -2.45253E+01 -2.40600E+01 -2.35761E+01 -2.30774E+01 -2.25671E+01
  -2.20484E+01 -2.15227E+01 -2.09905E+01 -2.04491E+01 -1.98918E+01 -1.93033E+01 -1.86508E+01 -1.78525E+01 -1.67656E+01 -1.56316E+01
  -1.48469E+01 -1.44706E+01 -1.44139E+01 -1.45712E+01 -1.49595E+01 -1.57414E+01 -1.68089E+01 -1.80865E+01 -1.95636E+01 -2.10359E+01
  -2.21578E+01 -2.25567E+01 -2.19919E+01 -2.05317E+01 -1.85846E+01 -1.67111E+01 -1.53552E+01 -1.46567E+01 -1.44737E+01 -1.47494E+01
  -1.53758E+01 -1.60753E+01 -1.67201E+01 -1.73606E+01 -1.81286E+01 -1.90482E+01 -1.98633E+01 -2.04986E+01 -2.10434E+01 -2.15331E+01
  -2.19803E+01 -2.23893E+01 -2.27613E+01 -2.30955E+01 -2.33907E+01 -2.36450E+01 -2.38568E+01 -2.40242E+01 -2.41455E+01 -2.42190E+01
  -2.42431E+01 -2.42164E+01 -2.41378E+01 -2.40061E+01 -2.38209E+01 -2.35818E+01 -2.32897E+01 -2.29456E+01 -2.25521E+01 -2.21127E+01
  -2.16326E+01 -2.11180E+01 -2.05771E+01 -2.00195E+01 -1.94562E+01 -1.88995E+01 -1.83624E+01 -1.78585E+01 -1.74014E+01 -1.70037E+01
  -1.66773E+01 -1.64319E+01 -1.62753E+01 -1.62125E+01 -1.62456E+01 -1.63736E+01 -1.65928E+01 -1.68964E+01 -1.72757E+01 -1.77196E+01
  -1.82160E+01 -1.87518E+01 -1.93140E+01 -1.98895E+01 -2.04664E+01 -2.10338E+01 -2.15825E+01 -2.21046E+01 -2.25944E+01 -2.30473E+01
  -2.34610E+01 -2.38339E+01 -2.41660E+01 -2.44583E+01 -2.47124E+01 -2.49305E+01 -2.51154E+01 -2.52696E+01 -2.53961E+01 -2.54977E+01
  -2.55772E+01 -2.56369E+01 -2.56793E+01 -2.57063E+01 -2.57200E+01 -2.57219E+01 -2.57136E+01 -2.56963E+01 -2.56711E+01 -2.56390E+01
  -2.56008E+01 -2.55573E+01 -2.55090E+01 -2.54566E+01 -2.54005E+01 -2.53410E+01 -2.52788E+01 -2.52138E+01 -2.51466E+01 -2.50773E+01
  -2.50063E+01 -2.49335E+01 -2.48593E+01 -2.47838E+01 -2.47072E+01 -2.46295E+01 -2.45508E+01 -2.44711E+01 -2.43907E+01 -2.43094E+01
  -2.42275E+01 -2.41448E+01 -2.40616E+01 -2.39776E+01 -2.38933E+01 -2.38083E+01 -2.37229E+01 -2.36369E+01 -2.35506E+01 -2.34637E+01
  -2.33766E+01 -2.32889E+01 -2.32010E+01 -2.31126E+01 -2.30239E+01 -2.29348E+01 -2.28454E+01 -2.27557E+01 -2.26656E+01 -2.25752E+01
  -2.24845E+01 -2.23935E+01 -2.23022E+01 -2.22104E+01 -2.21185E+01 -2.20261E+01 -2.19335E+01 -2.18405E+01 -2.17472E+01 -2.16535E+01
  -2.15595E+01 -2.14651E+01 -2.13703E+01 -2.12751E+01 -2.11795E+01 -2.10834E+01 -2.09868E+01 -2.08897E+01
 NY background values follow
    -1.668E+02   -1.657E+02   -1.645E+02   -1.633E+02   -1.622E+02   -1.610E+02   -1.599E+02   -1.587E+02   -1.576E+02   -1.564E+02
    -1.553E+02   -1.541E+02   -1.530E+02   -1.518E+02   -1.507E+02   -1.495E+02   -1.484E+02   -1.473E+02   -1.462E+02   -1.450E+02
    -1.439E+02   -1.428E+02   -1.417E+02   -1.406E+02   -1.395E+02   -1.384E+02   -1.373E+02   -1.362E+02   -1.352E+02   -1.341E+02
    -1.330E+02   -1.320E+02   -1.309E+02   -1.298E+02   -1.288E+02   -1.278E+02   -1.267E+02   -1.257E+02   -1.247E+02   -1.237E+02
    -1.227E+02   -1.217E+02   -1.207E+02   -1.197E+02   -1.188E+02   -1.178E+02   -1.169E+02   -1.159E+02   -1.150E+02   -1.141E+02
    -1.131E+02   -1.122E+02   -1.113E+02   -1.104E+02   -1.096E+02   -1.087E+02   -1.078E+02   -1.070E+02   -1.061E+02   -1.053E+02
    -1.044E+02   -1.036E+02   -1.028E+02   -1.020E+02   -1.012E+02   -1.004E+02   -9.961E+01   -9.883E+01   -9.806E+01   -9.730E+01
    -9.654E+01   -9.580E+01   -9.506E+01   -9.433E+01   -9.361E+01   -9.289E+01   -9.219E+01   -9.149E+01   -9.080E+01   -9.011E+01
    -8.944E+01   -8.877E+01   -8.811E+01   -8.745E+01   -8.680E+01   -8.617E+01   -8.553E+01   -8.491E+01   -8.429E+01   -8.368E+01
    -8.308E+01   -8.248E+01   -8.190E+01   -8.132E+01   -8.074E+01   -8.017E+01   -7.961E+01   -7.906E+01   -7.852E+01   -7.798E+01
    -7.744E+01   -7.692E+01   -7.640E+01   -7.589E+01   -7.538E+01   -7.488E+01   -7.439E+01   -7.390E+01   -7.342E+01   -7.295E+01
    -7.248E+01   -7.202E+01   -7.156E+01   -7.111E+01   -7.067E+01   -7.023E+01   -6.980E+01   -6.938E+01   -6.896E+01   -6.854E+01
    -6.814E+01   -6.773E+01   -6.734E+01   -6.695E+01   -6.656E+01   -6.618E+01   -6.581E+01   -6.544E+01   -6.508E+01   -6.472E+01
    -6.436E+01   -6.402E+01   -6.367E+01   -6.334E+01   -6.300E+01   -6.268E+01   -6.235E+01   -6.203E+01   -6.172E+01   -6.141E+01
    -6.111E+01   -6.081E+01   -6.052E+01   -6.022E+01   -5.994E+01   -5.966E+01   -5.938E+01   -5.910E+01   -5.883E+01   -5.857E+01
    -5.830E+01   -5.804E+01   -5.779E+01   -5.753E+01   -5.728E+01   -5.704E+01   -5.679E+01   -5.655E+01   -5.631E+01   -5.608E+01
    -5.585E+01   -5.562E+01   -5.539E+01   -5.517E+01   -5.494E+01   -5.472E+01   -5.450E+01   -5.429E+01   -5.407E+01   -5.386E+01
    -5.365E+01   -5.344E+01   -5.323E+01   -5.303E+01   -5.282E+01   -5.262E+01   -5.241E+01   -5.221E+01   -5.201E+01   -5.181E+01
    -5.161E+01   -5.142E+01   -5.122E+01   -5.102E+01   -5.082E+01   -5.063E+01   -5.043E+01   -5.024E+01   -5.004E+01   -4.985E+01
    -4.966E+01   -4.946E+01   -4.927E+01   -4.908E+01   -4.889E+01   -4.870E+01   -4.851E+01   -4.832E+01   -4.813E+01   -4.794E+01
    -4.775E+01   -4.756E+01   -4.737E+01   -4.719E+01   -4.700E+01   -4.681E+01   -4.663E+01   -4.644E+01   -4.626E+01   -4.607E+01
    -4.589E+01   -4.570E+01   -4.552E+01   -4.533E+01   -4.515E+01   -4.497E+01   -4.479E+01   -4.460E+01   -4.442E+01   -4.424E+01
    -4.406E+01   -4.388E+01   -4.370E+01   -4.351E+01   -4.333E+01   -4.315E+01   -4.297E+01   -4.279E+01   -4.261E+01   -4.244E+01
    -4.226E+01   -4.208E+01   -4.190E+01   -4.172E+01   -4.155E+01   -4.137E+01   -4.120E+01   -4.102E+01   -4.085E+01   -4.067E+01
    -4.050E+01   -4.033E+01   -4.016E+01   -3.999E+01   -3.982E+01   -3.966E+01   -3.949E+01   -3.933E+01   -3.916E+01   -3.900E+01
    -3.884E+01   -3.868E+01   -3.852E+01   -3.837E+01   -3.821E+01   -3.806E+01   -3.791E+01   -3.776E+01   -3.761E+01   -3.747E+01
    -3.733E+01   -3.718E+01   -3.705E+01   -3.691E+01   -3.677E+01   -3.664E+01   -3.651E+01   -3.638E+01   -3.626E+01   -3.613E+01
    -3.601E+01   -3.589E+01   -3.578E+01   -3.566E+01   -3.555E+01   -3.544E+01   -3.534E+01   -3.523E+01   -3.513E+01   -3.503E+01
    -3.493E+01   -3.484E+01   -3.474E+01   -3.465E+01   -3.456E+01   -3.447E+01   -3.439E+01   -3.431E+01   -3.422E+01   -3.414E+01
    -3.406E+01   -3.399E+01   -3.391E+01   -3.384E+01   -3.376E+01   -3.369E+01   -3.362E+01   -3.355E+01   -3.349E+01   -3.342E+01
    -3.335E+01   -3.329E+01   -3.323E+01   -3.317E+01   -3.310E+01   -3.304E+01   -3.298E+01   -3.293E+01   -3.287E+01   -3.281E+01
    -3.275E+01   -3.270E+01   -3.264E+01   -3.259E+01   -3.253E+01   -3.248E+01   -3.242E+01   -3.237E+01   -3.232E+01   -3.226E+01
    -3.221E+01   -3.216E+01   -3.210E+01   -3.205E+01   -3.200E+01   -3.195E+01   -3.190E+01   -3.185E+01   -3.180E+01   -3.174E+01
    -3.169E+01   -3.164E+01   -3.160E+01   -3.155E+01   -3.150E+01   -3.145E+01   -3.140E+01   -3.135E+01   -3.131E+01   -3.126E+01
    -3.121E+01   -3.117E+01   -3.112E+01   -3.108E+01   -3.103E+01   -3.099E+01   -3.095E+01   -3.090E+01   -3.086E+01   -3.082E+01
    -3.078E+01   -3.073E+01   -3.069E+01   -3.065E+01   -3.061E+01   -3.057E+01   -3.054E+01   -3.050E+01   -3.046E+01   -3.042E+01
    -3.039E+01   -3.035E+01   -3.031E+01   -3.028E+01   -3.024E+01   -3.021E+01   -3.018E+01   -3.014E+01   -3.011E+01   -3.008E+01
    -3.004E+01   -3.001E+01   -2.998E+01   -2.995E+01   -2.992E+01   -2.988E+01   -2.985E+01   -2.982E+01   -2.979E+01   -2.975E+01
    -2.972E+01   -2.969E+01   -2.965E+01   -2.962E+01   -2.958E+01   -2.955E+01   -2.951E+01   -2.948E+01   -2.944E+01   -2.940E+01
    -2.937E+01   -2.933E+01   -2.929E+01   -2.925E+01   -2.920E+01   -2.916E+01   -2.912E+01   -2.907E+01   -2.903E+01   -2.898E+01
    -2.893E+01   -2.888E+01   -2.883E+01   -2.878E+01   -2.873E+01   -2.867E+01   -2.862E+01   -2.856E+01   -2.850E+01   -2.844E+01
    -2.838E+01   -2.831E+01   -2.825E+01   -2.818E+01   -2.812E+01   -2.805E+01   -2.798E+01   -2.791E+01   -2.783E+01   -2.776E+01
    -2.768E+01   -2.761E+01   -2.753E+01   -2.745E+01   -2.737E+01   -2.729E+01   -2.721E+01   -2.713E+01   -2.705E+01   -2.697E+01
    -2.688E+01   -2.680E+01   -2.671E+01   -2.662E+01   -2.654E+01   -2.645E+01   -2.636E+01   -2.627E+01   -2.618E+01   -2.610E+01
    -2.601E+01   -2.591E+01   -2.582E+01   -2.573E+01   -2.564E+01   -2.555E+01   -2.546E+01   -2.537E+01   -2.527E+01   -2.518E+01
    -2.509E+01   -2.500E+01   -2.491E+01   -2.481E+01   -2.472E+01   -2.463E+01   -2.454E+01   -2.444E+01   -2.435E+01   -2.426E+01
    -2.417E+01   -2.408E+01   -2.398E+01   -2.389E+01   -2.380E+01   -2.371E+01   -2.361E+01   -2.352E+01   -2.343E+01   -2.334E+01
    -2.324E+01   -2.315E+01   -2.306E+01   -2.297E+01   -2.287E+01   -2.278E+01   -2.269E+01   -2.260E+01   -2.250E+01   -2.241E+01
    -2.232E+01   -2.222E+01   -2.213E+01   -2.204E+01   -2.194E+01   -2.185E+01   -2.175E+01   -2.166E+01   -2.157E+01   -2.147E+01
    -2.138E+01   -2.128E+01   -2.119E+01   -2.109E+01   -2.100E+01   -2.090E+01   -2.081E+01   -2.071E+01
 Asp      Conc. = 2.93E+02
