 LCModel (Version 6.3-1L) Copyright: S.W. Provencher.          Ref.: Magn. Reson. Med. 30:672-679 (1993).                
 Slice#3 Row#7 Col#10  PD_05_press_2_raw_act
 36 lines in following concentration table = NCONC+1
    Conc.  %SD /Cr+PCr  Metabolite                                         
    0.000 999%   0.000 Ala                                                 
    0.000 999%   0.000 Asp                                                 
    0.000 999%   0.000 Cr                                                  
 2.40E+03   5%   1.000 PCr                                                 
    7.274 999% 3.0E-03 GABA                                                
   92.818 296% 3.9E-02 Glc                                                 
 1.15E+03  35%   0.478 Gln                                                 
 3.16E+03  16%   1.314 Glu                                                 
  961.984   4%   0.400 GPC                                                 
    0.000 999%   0.000 PCh                                                 
  706.868  19%   0.294 GSH                                                 
 1.94E+03  24%   0.806 Ins                                                 
    0.000 999%   0.000 Lac                                                 
 4.38E+03   3%   1.824 NAA                                                 
    0.000 999%   0.000 NAAG                                                
  221.393  23% 9.2E-02 Scyllo                                              
    0.000 999%   0.000 Tau                                                 
 1.49E+03  13%   0.620 -CrCH2                                              
  961.984   4%   0.400 GPC+PCh                                             
 4.38E+03   3%   1.824 NAA+NAAG                                            
 2.40E+03   5%   1.000 Cr+PCr                                              
 4.31E+03  15%   1.792 Glu+Gln                                             
 2.16E+03  38%   0.900 Lip13a                                              
    0.000 999%   0.000 Lip13b                                              
    0.000 999%   0.000 Lip09                                               
 2.60E+03  15%   1.081 MM09                                                
  369.800  93%   0.154 Lip20                                               
 6.79E+03  11%   2.826 MM20                                                
  824.741  40%   0.343 MM12                                                
 2.17E+03  31%   0.902 MM14                                                
 1.10E+03  39%   0.456 MM17                                                
 2.16E+03  38%   0.900 Lip13a+Lip13b                                       
 5.15E+03  14%   2.145 MM14+Lip13a+Lip13b+MM12                             
 2.60E+03  15%   1.081 MM09+Lip09                                          
 7.16E+03  11%   2.980 MM20+Lip20                                          
   6 lines in following misc. output table
  FWHM = 0.046 ppm    S/N =  12                                            
  Data shift = 0.023 ppm                                                   
  Ph: -46 deg     -12.1 deg/ppm                                            
  alphaB,S = 1.1E+00,   9.6E+01                                            
   14 spline knots.   Ns = 6(1)                                            
  (11) 2 infls.   ( 3) 1 extrs.                                            
  498 points on ppm-axis = NY
      4.000000     3.992357     3.984714     3.977070     3.969427     3.961784     3.954141     3.946497     3.938854     3.931211
      3.923568     3.915925     3.908281     3.900638     3.892995     3.885352     3.877708     3.870065     3.862422     3.854779
      3.847136     3.839492     3.831849     3.824206     3.816563     3.808919     3.801276     3.793633     3.785990     3.778347
      3.770703     3.763060     3.755417     3.747774     3.740130     3.732487     3.724844     3.717201     3.709558     3.701914
      3.694271     3.686628     3.678985     3.671341     3.663698     3.656055     3.648412     3.640769     3.633125     3.625482
      3.617839     3.610196     3.602552     3.594909     3.587266     3.579623     3.571980     3.564336     3.556693     3.549050
      3.541407     3.533763     3.526120     3.518477     3.510834     3.503191     3.495547     3.487904     3.480261     3.472618
      3.464974     3.457331     3.449688     3.442045     3.434402     3.426758     3.419115     3.411472     3.403829     3.396185
      3.388542     3.380899     3.373256     3.365613     3.357969     3.350326     3.342683     3.335040     3.327396     3.319753
      3.312110     3.304467     3.296824     3.289180     3.281537     3.273894     3.266251     3.258607     3.250964     3.243321
      3.235678     3.228034     3.220391     3.212748     3.205105     3.197462     3.189818     3.182175     3.174532     3.166889
      3.159245     3.151602     3.143959     3.136316     3.128673     3.121029     3.113386     3.105743     3.098100     3.090456
      3.082813     3.075170     3.067527     3.059884     3.052240     3.044597     3.036954     3.029311     3.021667     3.014024
      3.006381     2.998738     2.991095     2.983451     2.975808     2.968165     2.960522     2.952878     2.945235     2.937592
      2.929949     2.922306     2.914662     2.907019     2.899376     2.891733     2.884089     2.876446     2.868803     2.861160
      2.853517     2.845873     2.838230     2.830587     2.822944     2.815300     2.807657     2.800014     2.792371     2.784728
      2.777084     2.769441     2.761798     2.754155     2.746511     2.738868     2.731225     2.723582     2.715939     2.708295
      2.700652     2.693009     2.685366     2.677722     2.670079     2.662436     2.654793     2.647150     2.639506     2.631863
      2.624220     2.616577     2.608933     2.601290     2.593647     2.586004     2.578361     2.570717     2.563074     2.555431
      2.547788     2.540144     2.532501     2.524858     2.517215     2.509572     2.501928     2.494285     2.486642     2.478999
      2.471355     2.463712     2.456069     2.448426     2.440783     2.433139     2.425496     2.417853     2.410210     2.402566
      2.394923     2.387280     2.379637     2.371994     2.364350     2.356707     2.349064     2.341421     2.333777     2.326134
      2.318491     2.310848     2.303205     2.295561     2.287918     2.280275     2.272632     2.264988     2.257345     2.249702
      2.242059     2.234416     2.226772     2.219129     2.211486     2.203843     2.196199     2.188556     2.180913     2.173270
      2.165627     2.157983     2.150340     2.142697     2.135054     2.127410     2.119767     2.112124     2.104481     2.096838
      2.089194     2.081551     2.073908     2.066265     2.058621     2.050978     2.043335     2.035692     2.028049     2.020405
      2.012762     2.005119     1.997476     1.989833     1.982190     1.974546     1.966903     1.959260     1.951617     1.943974
      1.936331     1.928688     1.921045     1.913402     1.905759     1.898115     1.890472     1.882829     1.875186     1.867543
      1.859900     1.852257     1.844614     1.836971     1.829327     1.821684     1.814041     1.806398     1.798755     1.791112
      1.783469     1.775826     1.768183     1.760540     1.752896     1.745253     1.737610     1.729967     1.722324     1.714681
      1.707038     1.699395     1.691752     1.684108     1.676465     1.668822     1.661179     1.653536     1.645893     1.638250
      1.630607     1.622964     1.615321     1.607677     1.600034     1.592391     1.584748     1.577105     1.569462     1.561819
      1.554176     1.546533     1.538890     1.531246     1.523603     1.515960     1.508317     1.500674     1.493031     1.485388
      1.477745     1.470102     1.462458     1.454815     1.447172     1.439529     1.431886     1.424243     1.416600     1.408957
      1.401314     1.393671     1.386027     1.378384     1.370741     1.363098     1.355455     1.347812     1.340169     1.332526
      1.324883     1.317240     1.309596     1.301953     1.294310     1.286667     1.279024     1.271381     1.263738     1.256095
      1.248452     1.240808     1.233165     1.225522     1.217879     1.210236     1.202593     1.194950     1.187307     1.179664
      1.172021     1.164377     1.156734     1.149091     1.141448     1.133805     1.126162     1.118519     1.110876     1.103233
      1.095590     1.087946     1.080303     1.072660     1.065017     1.057374     1.049731     1.042088     1.034445     1.026802
      1.019158     1.011515     1.003872     0.996229     0.988586     0.980943     0.973300     0.965657     0.958014     0.950371
      0.942727     0.935084     0.927441     0.919798     0.912155     0.904512     0.896869     0.889226     0.881583     0.873940
      0.866296     0.858653     0.851010     0.843367     0.835724     0.828081     0.820438     0.812795     0.805152     0.797508
      0.789865     0.782222     0.774579     0.766936     0.759293     0.751650     0.744007     0.736364     0.728721     0.721077
      0.713434     0.705791     0.698148     0.690505     0.682862     0.675219     0.667576     0.659933     0.652290     0.644646
      0.637003     0.629360     0.621717     0.614074     0.606431     0.598788     0.591145     0.583502     0.575858     0.568215
      0.560572     0.552929     0.545286     0.537643     0.530000     0.522357     0.514714     0.507071     0.499427     0.491784
      0.484141     0.476498     0.468855     0.461212     0.453569     0.445925     0.438282     0.430639     0.422996     0.415353
      0.407710     0.400067     0.392424     0.384780     0.377137     0.369494     0.361851     0.354208     0.346565     0.338922
      0.331278     0.323635     0.315992     0.308349     0.300706     0.293063     0.285420     0.277777     0.270133     0.262490
      0.254847     0.247204     0.239561     0.231918     0.224275     0.216631     0.208988     0.201345
 NY phased data points follow
   3.27220E+01  3.41796E+01  3.64646E+01  3.37194E+01  3.85605E+01  3.20907E+01  4.17489E+01  5.31064E+01  5.04349E+01  5.48204E+01
   5.22358E+01  5.33771E+01  4.42010E+01  3.67870E+01  3.45828E+01  4.09164E+01  3.90021E+01  3.43773E+01  3.18579E+01  3.42126E+01
   3.38352E+01  2.94683E+01  2.76328E+01  3.65927E+01  3.96428E+01  3.67464E+01  3.60820E+01  3.58574E+01  4.36028E+01  3.27702E+01
   3.41978E+01  4.46871E+01  4.37030E+01  4.22438E+01  3.63637E+01  5.11278E+01  3.45135E+01  3.19454E+01  3.30630E+01  2.85632E+01
   3.09436E+01  3.52832E+01  2.95409E+01  3.73215E+01  4.62735E+01  4.66065E+01  4.82450E+01  3.79741E+01  4.05204E+01  4.57654E+01
   3.47385E+01  3.47270E+01  2.90933E+01  4.03796E+01  3.35563E+01  3.78204E+01  2.96090E+01  2.34992E+01  2.23116E+01  2.28205E+01
   2.44430E+01  2.03588E+01  8.48228E+00  5.64768E+00  1.12416E+01  1.93744E+01  6.87070E+00  1.07253E+01  2.14033E+01  2.02056E+01
   9.35052E+00  2.11101E+01  1.72547E+01  1.30734E+01  1.56993E+01  1.27596E+01  1.53149E+01  2.43229E+01  2.14138E+01  1.96878E+01
   1.28203E+01  2.35916E+01  1.93655E+01  2.69767E+01  2.86883E+01  3.22178E+01  2.12512E+01  2.61230E+01  2.09735E+01  2.05126E+01
   1.97268E+01  2.79200E+01  2.16867E+01  3.09714E+01  2.62056E+01  3.37161E+01  1.57733E+01  3.12469E+01  4.18418E+01  5.90015E+01
   7.09001E+01  9.44120E+01  1.07388E+02  1.02479E+02  8.88892E+01  8.01867E+01  6.37983E+01  5.31224E+01  3.68002E+01  3.27616E+01
   2.52746E+01  2.06938E+01  3.20095E+01  1.65800E+01  1.53784E+01  1.65631E+01  1.75820E+01  9.68724E+00  2.19182E+01  1.58170E+01
   1.48450E+01  2.23539E+01  2.62757E+01  3.29838E+01  5.86097E+01  8.50763E+01  9.45304E+01  9.82278E+01  9.36654E+01  8.02416E+01
   7.47165E+01  4.37542E+01  4.27931E+01  2.44078E+01  2.59642E+01  1.77477E+01  7.80997E+00  2.06773E+01  1.77434E+01  9.58939E+00
   1.66515E+01  1.27948E+01  1.16832E+01  1.00792E+01  6.99638E+00  1.15306E+01  1.77955E+01  1.33427E+01  1.16171E+01  8.82718E+00
   6.49792E+00  1.22096E+01  1.13990E+01  7.19743E+00  1.21358E+00  8.83916E+00  8.81987E+00  4.57100E+00  7.15452E+00  4.02863E+00
   7.69103E+00  1.13397E+01 -4.05768E+00  5.13368E+00  1.28822E+00  7.53286E+00  5.19130E-01 -6.55241E+00 -1.04021E+01 -1.39735E+01
  -1.26397E+01 -1.93275E+01 -1.31615E+01 -2.05176E+01 -2.57350E+01 -2.48317E+01 -2.53607E+01 -2.91760E+01 -2.54362E+01 -8.35083E+00
  -1.46870E+01 -1.07053E+01 -8.43634E+00 -1.16475E+01 -1.16575E+01 -5.93380E+00 -2.65122E+01 -1.61222E+01 -1.26541E+01 -1.24676E+01
  -5.04601E+00 -2.67545E+00  2.34762E+00  7.60882E+00 -4.49674E+00  3.04796E+00 -8.32897E+00 -7.45122E+00 -6.99026E+00 -2.43720E+00
  -1.23537E+01 -6.75007E+00  2.71069E+00  9.56868E+00  1.99089E+01  1.11129E+01  2.13416E+00  7.32905E+00  3.13522E+00  4.29700E-01
   6.35600E+00  9.01991E+00  1.35527E+01  2.24669E+01  2.08952E+01  3.25812E+01  4.03558E+01  2.91859E+01  3.28380E+01  1.59871E+01
   9.46588E+00 -5.56843E+00  4.50449E+00 -3.67633E+00  1.05466E+01  1.52349E+01  1.17008E+01  1.83404E+01  1.83201E+01  2.10686E+01
   2.20281E+01  1.85633E+01  1.88212E+01  1.69474E+01  2.71578E+01  1.92753E+01  1.36688E+01  2.31276E+01  2.65742E+01  2.22854E+01
   1.87978E+01  1.15949E+01  3.00655E+00  1.19710E+01  1.53102E+01  2.16961E+01  2.87231E+01  2.46326E+01  2.30247E+01  2.43050E+01
   2.71807E+01  2.38600E+01  2.20436E+01  3.24279E+01  4.63761E+01  5.17118E+01  7.66300E+01  8.98225E+01  1.23980E+02  1.65932E+02
   1.84835E+02  1.76272E+02  1.54961E+02  1.19447E+02  9.20573E+01  6.17193E+01  3.94491E+01  2.97014E+01  2.25046E+01  2.02788E+01
   1.36636E+01  2.11734E+01  1.94089E+01  1.38143E+01  1.31830E+01  6.99442E-01  2.07243E+01  1.24167E+01  8.98853E+00  6.63776E+00
   8.38903E+00  7.24598E+00  6.69096E+00  1.18496E+01  1.57026E+01  4.24171E+00  7.06203E+00  1.13673E+01  6.55521E+00  6.46354E+00
   3.29027E+00  7.04837E+00  5.39310E+00  1.10899E+01  1.00786E+01  5.83558E+00  1.34133E+00  2.83523E+00  4.35565E+00  9.53682E+00
   2.28624E+00  7.39697E+00  7.76849E+00  6.40174E+00  1.14420E+01  4.48187E+00  6.60209E+00  1.17693E+01  1.25294E+01  7.64706E+00
   1.32087E+01  7.55430E+00  5.90143E+00  1.15933E+01  7.02494E+00 -8.78827E-01  1.12164E+01  8.68964E+00  9.85838E+00 -2.46430E-01
   8.13431E-01  2.57159E+00  1.43969E+01 -1.29011E+00 -3.59619E+00  3.17494E+00  5.35439E+00  4.64566E+00  8.70570E+00  9.51964E+00
   1.53769E+01  7.69334E+00  9.79272E+00  1.28479E+01  1.39046E+01  1.77610E+01  9.30765E+00  1.95875E+01  9.94858E+00  1.60135E+01
   1.53941E+01  8.24117E+00  1.46334E+01  2.12814E+01  1.89722E+01  2.39791E+01  2.60468E+01  2.31430E+01  2.40782E+01  1.95230E+01
   1.65082E+01  1.48714E+01  2.09732E+01  2.51763E+01  2.67472E+01  1.54284E+01  1.17901E+01  1.31682E+01  2.30437E+01  2.29821E+01
   1.10232E+01  1.18774E+01  8.13202E+00  1.77767E+01  9.45823E+00  9.46052E+00  1.15661E+01  1.65790E+01  1.61264E+01  1.60534E+01
   1.26847E+01  1.52926E+01  1.86254E+01  6.76400E+00  1.07851E+01  9.97368E+00  1.09247E+01  9.19958E+00  6.49394E+00  8.02197E+00
   1.00902E+01  7.83143E+00  1.24915E+01  1.22450E+01  1.31367E+01  1.74288E+01  1.62288E+01  1.64485E+01  1.08257E+01  1.20740E+01
   1.72493E+01  1.73551E+01  8.51534E+00  1.62606E+01  1.60224E+01  1.77133E+01  1.16668E+01  1.85705E+01  1.79398E+01  8.90526E+00
   9.99697E+00  1.59316E+01  1.66826E+01  1.37726E+01  1.56741E+01  6.54688E+00  1.64606E+01  2.47399E+01  1.74067E+01  1.11153E+01
   1.34413E+01  1.28455E+01  1.81325E+01  1.73932E+01  1.61127E+01  9.22398E+00  1.87549E+01  7.34469E+00  3.51661E+00  1.75545E+00
   1.46360E+01  9.58256E+00  1.27553E+01  6.28404E+00 -3.94900E-01  7.32884E+00  5.47560E+00  1.10897E+01  1.08257E+01  1.17881E+01
   9.69484E+00  4.44052E+00  4.13253E+00  6.05982E+00  4.41702E+00  6.52298E+00  8.81954E+00  1.13048E+01  3.93592E+00  1.18006E+01
   1.05315E+01  8.98787E+00 -8.38480E-01  4.70284E+00  8.85103E+00  4.02090E+00  4.01687E+00  3.05244E+00  7.33905E+00  7.72270E+00
   9.22817E+00 -2.94381E+00  7.57870E+00  7.96254E+00  7.33109E+00  8.92620E+00  6.59391E+00  8.72739E+00  2.60846E+00  9.33277E-03
   8.28584E-01 -3.52510E+00  3.52515E+00  4.86566E+00 -3.18784E+00  4.06962E+00  5.14438E+00  1.85726E+00 -1.26758E+00  2.32511E+00
   4.47688E+00  3.26189E+00  1.30052E+00  4.15861E+00  3.12969E+00  5.45340E+00  1.04213E+01  8.89343E+00  6.18665E+00  5.61176E+00
   6.67667E+00  7.78077E+00  1.21085E+01 -5.81150E-01  1.18469E-01  5.14415E+00 -3.14213E+00  2.15485E+00  1.11166E+01 -1.10382E+00
   6.43887E+00  4.83571E+00 -2.46715E+00  7.90638E+00  9.16000E+00  3.24566E+00  5.71839E+00  2.19820E+00
 NY points of the fit to the data follow
   3.17528E+01  3.15552E+01  3.19507E+01  3.32601E+01  3.59503E+01  3.94443E+01  4.36577E+01  4.83657E+01  5.24798E+01  5.45419E+01
   5.38882E+01  5.10357E+01  4.70886E+01  4.31249E+01  3.98411E+01  3.72698E+01  3.51758E+01  3.35873E+01  3.28274E+01  3.23315E+01
   3.19036E+01  3.15433E+01  3.09780E+01  3.03276E+01  3.02412E+01  3.07270E+01  3.18748E+01  3.42973E+01  3.81186E+01  4.25469E+01
   4.61781E+01  4.81613E+01  4.80661E+01  4.58633E+01  4.19893E+01  3.73555E+01  3.25888E+01  2.84833E+01  2.60835E+01  2.53886E+01
   2.61857E+01  2.82228E+01  3.09014E+01  3.38980E+01  3.70096E+01  3.99330E+01  4.18053E+01  4.17190E+01  3.95867E+01  3.60974E+01
   3.21833E+01  2.86755E+01  2.58938E+01  2.39610E+01  2.29445E+01  2.28995E+01  2.35847E+01  2.45769E+01  2.55005E+01  2.59561E+01
   2.56535E+01  2.45878E+01  2.30120E+01  2.14005E+01  2.01463E+01  1.94673E+01  1.93651E+01  1.97324E+01  2.03674E+01  2.11112E+01
   2.17676E+01  2.21205E+01  2.20800E+01  2.17051E+01  2.11337E+01  2.05391E+01  1.99997E+01  1.95652E+01  1.92017E+01  1.90227E+01
   1.93916E+01  2.03799E+01  2.17046E+01  2.34308E+01  2.53920E+01  2.68009E+01  2.67923E+01  2.52793E+01  2.29261E+01  2.05712E+01
   1.88338E+01  1.78583E+01  1.74143E+01  1.72328E+01  1.74774E+01  1.84468E+01  2.13056E+01  2.85463E+01  3.96337E+01  5.47224E+01
   7.38486E+01  9.32856E+01  1.06098E+02  1.07435E+02  9.78412E+01  8.15680E+01  6.35961E+01  4.75359E+01  3.46829E+01  2.45130E+01
   1.72605E+01  1.43559E+01  1.36069E+01  1.34016E+01  1.33745E+01  1.34349E+01  1.35578E+01  1.37516E+01  1.40792E+01  1.47416E+01
   1.64825E+01  2.17709E+01  3.10201E+01  4.33914E+01  5.94587E+01  7.76776E+01  9.26291E+01  9.86097E+01  9.41077E+01  8.18908E+01
   6.64632E+01  5.16189E+01  3.90468E+01  2.84153E+01  1.92089E+01  1.33465E+01  1.08441E+01  9.82414E+00  9.84316E+00  1.05640E+01
   1.15034E+01  1.22700E+01  1.26545E+01  1.25359E+01  1.19980E+01  1.12466E+01  1.04168E+01  9.61943E+00  8.89642E+00  8.23527E+00
   7.68934E+00  7.22290E+00  6.82586E+00  6.52438E+00  6.29792E+00  5.96563E+00  5.48561E+00  4.84661E+00  3.98661E+00  3.07364E+00
   2.33720E+00  2.09728E+00  2.48295E+00  3.15384E+00  3.51968E+00  3.20798E+00  2.28996E+00  1.13788E+00  5.95409E-02 -9.85648E-01
  -2.07933E+00 -3.21589E+00 -4.24679E+00 -5.09203E+00 -5.79749E+00 -6.24477E+00 -6.14224E+00 -5.57629E+00 -5.03050E+00 -4.86036E+00
  -5.01129E+00 -5.28033E+00 -5.40517E+00 -5.32312E+00 -5.20836E+00 -4.84052E+00 -3.58548E+00 -1.26685E+00  1.71276E+00  4.57628E+00
   6.69076E+00  7.78305E+00  7.70785E+00  6.80647E+00  5.51281E+00  4.05813E+00  2.83752E+00  2.37910E+00  3.04301E+00  4.80638E+00
   7.37528E+00  1.02507E+01  1.27033E+01  1.41057E+01  1.37394E+01  1.15995E+01  7.88716E+00  3.08694E+00 -1.69020E+00 -5.08215E+00
  -6.04937E+00 -4.17321E+00  1.12557E-01  6.25636E+00  1.31323E+01  1.88026E+01  2.11500E+01  1.92699E+01  1.37328E+01  6.39329E+00
  -1.05586E+00 -7.17683E+00 -1.02396E+01 -9.37207E+00 -4.99347E+00  1.43230E+00  7.67953E+00  1.25765E+01  1.57153E+01  1.71710E+01
   1.72525E+01  1.65745E+01  1.59794E+01  1.60572E+01  1.68868E+01  1.83330E+01  2.00315E+01  2.12405E+01  2.15695E+01  2.09865E+01
   1.96356E+01  1.80415E+01  1.70631E+01  1.73000E+01  1.86401E+01  2.06935E+01  2.28947E+01  2.47161E+01  2.59289E+01  2.65826E+01
   2.69956E+01  2.74419E+01  2.82614E+01  3.03080E+01  3.77476E+01  5.26253E+01  7.27625E+01  9.97781E+01  1.32834E+02  1.63132E+02
   1.78557E+02  1.73908E+02  1.53027E+02  1.24023E+02  9.46197E+01  6.94928E+01  4.92040E+01  3.23114E+01  2.13608E+01  1.71917E+01
   1.50428E+01  1.35850E+01  1.26537E+01  1.21595E+01  1.18085E+01  1.14426E+01  1.09898E+01  1.04174E+01  9.74181E+00  9.02036E+00
   8.29947E+00  7.63594E+00  7.09474E+00  6.69588E+00  6.40807E+00  6.19980E+00  6.04754E+00  5.94587E+00  5.89304E+00  5.87658E+00
   5.89677E+00  5.96223E+00  6.07072E+00  6.21807E+00  6.39497E+00  6.59417E+00  6.80508E+00  7.01784E+00  7.22421E+00  7.41769E+00
   7.58814E+00  7.73044E+00  7.83877E+00  7.90958E+00  7.93726E+00  7.92080E+00  7.85977E+00  7.75934E+00  7.62466E+00  7.46442E+00
   7.28502E+00  7.09599E+00  6.90595E+00  6.72551E+00  6.56289E+00  6.42795E+00  6.32713E+00  6.26828E+00  6.25617E+00  6.29712E+00
   6.39380E+00  6.54957E+00  6.76385E+00  7.03732E+00  7.36748E+00  7.75322E+00  8.18982E+00  8.67351E+00  9.19719E+00  9.75561E+00
   1.03409E+01  1.09471E+01  1.15655E+01  1.21891E+01  1.28091E+01  1.34195E+01  1.40130E+01  1.45849E+01  1.51289E+01  1.56416E+01
   1.61187E+01  1.65590E+01  1.69602E+01  1.73224E+01  1.76439E+01  1.79252E+01  1.81653E+01  1.83654E+01  1.85244E+01  1.86426E+01
   1.87179E+01  1.87502E+01  1.87374E+01  1.86794E+01  1.85741E+01  1.84217E+01  1.82205E+01  1.79719E+01  1.76761E+01  1.73365E+01
   1.69549E+01  1.65358E+01  1.60828E+01  1.56026E+01  1.51004E+01  1.45839E+01  1.40589E+01  1.35333E+01  1.30131E+01  1.25065E+01
   1.20193E+01  1.15590E+01  1.11302E+01  1.07394E+01  1.03908E+01  1.00900E+01  9.84025E+00  9.64622E+00  9.50981E+00  9.43472E+00
   9.42234E+00  9.47564E+00  9.59481E+00  9.78123E+00  1.00335E+01  1.03515E+01  1.07322E+01  1.11734E+01  1.16693E+01  1.22146E+01
   1.28004E+01  1.34187E+01  1.40577E+01  1.47066E+01  1.53507E+01  1.59768E+01  1.65695E+01  1.71152E+01  1.75991E+01  1.80094E+01
   1.83335E+01  1.85629E+01  1.86902E+01  1.87122E+01  1.86271E+01  1.84375E+01  1.81468E+01  1.77632E+01  1.72952E+01  1.67552E+01
   1.61545E+01  1.55069E+01  1.48248E+01  1.41220E+01  1.34099E+01  1.27008E+01  1.20035E+01  1.13269E+01  1.06770E+01  1.00598E+01
   9.47839E+00  8.93595E+00  8.43253E+00  7.96908E+00  7.54394E+00  7.15682E+00  6.80504E+00  6.48728E+00  6.20010E+00  5.94193E+00
   5.70947E+00  5.50144E+00  5.31469E+00  5.14791E+00  4.99808E+00  4.86436E+00  4.74432E+00  4.63754E+00  4.54176E+00  4.45660E+00
   4.38003E+00  4.31212E+00  4.25128E+00  4.19777E+00  4.14993E+00  4.10795E+00  4.07042E+00  4.03790E+00  4.00920E+00  3.98484E+00
   3.96348E+00  3.94563E+00  3.93019E+00  3.91796E+00  3.90792E+00  3.90068E+00  3.89505E+00  3.89174E+00  3.88980E+00  3.89012E+00
   3.89170E+00  3.89519E+00  3.89952E+00  3.90550E+00  3.91232E+00  3.92083E+00  3.93005E+00  3.94064E+00  3.95161E+00  3.96388E+00
   3.97663E+00  3.99073E+00  4.00514E+00  4.02060E+00  4.03621E+00  4.05292E+00  4.06991E+00  4.08797E+00  4.10609E+00  4.12503E+00
   4.14398E+00  4.16388E+00  4.18390E+00  4.20477E+00  4.22553E+00  4.24697E+00  4.26836E+00  4.29060E+00  4.31282E+00  4.33572E+00
   4.35837E+00  4.38164E+00  4.40481E+00  4.42873E+00  4.45250E+00  4.47681E+00  4.50080E+00  4.52537E+00
 NY background values follow
     2.478E+01    2.463E+01    2.448E+01    2.434E+01    2.419E+01    2.404E+01    2.389E+01    2.375E+01    2.360E+01    2.345E+01
     2.330E+01    2.316E+01    2.301E+01    2.286E+01    2.271E+01    2.257E+01    2.242E+01    2.227E+01    2.212E+01    2.198E+01
     2.183E+01    2.168E+01    2.153E+01    2.139E+01    2.124E+01    2.109E+01    2.094E+01    2.080E+01    2.065E+01    2.050E+01
     2.036E+01    2.021E+01    2.006E+01    1.991E+01    1.977E+01    1.962E+01    1.947E+01    1.932E+01    1.918E+01    1.903E+01
     1.888E+01    1.874E+01    1.859E+01    1.844E+01    1.830E+01    1.815E+01    1.800E+01    1.786E+01    1.771E+01    1.756E+01
     1.742E+01    1.727E+01    1.712E+01    1.698E+01    1.683E+01    1.669E+01    1.654E+01    1.639E+01    1.625E+01    1.610E+01
     1.596E+01    1.581E+01    1.567E+01    1.552E+01    1.538E+01    1.523E+01    1.509E+01    1.494E+01    1.480E+01    1.466E+01
     1.451E+01    1.437E+01    1.423E+01    1.408E+01    1.394E+01    1.380E+01    1.365E+01    1.351E+01    1.337E+01    1.323E+01
     1.308E+01    1.294E+01    1.280E+01    1.266E+01    1.252E+01    1.238E+01    1.224E+01    1.210E+01    1.196E+01    1.182E+01
     1.168E+01    1.154E+01    1.140E+01    1.126E+01    1.112E+01    1.099E+01    1.085E+01    1.071E+01    1.057E+01    1.044E+01
     1.030E+01    1.016E+01    1.003E+01    9.893E+00    9.758E+00    9.623E+00    9.489E+00    9.355E+00    9.222E+00    9.089E+00
     8.957E+00    8.824E+00    8.693E+00    8.561E+00    8.431E+00    8.300E+00    8.170E+00    8.041E+00    7.912E+00    7.784E+00
     7.656E+00    7.528E+00    7.402E+00    7.275E+00    7.149E+00    7.024E+00    6.899E+00    6.775E+00    6.651E+00    6.528E+00
     6.406E+00    6.284E+00    6.162E+00    6.042E+00    5.922E+00    5.802E+00    5.683E+00    5.565E+00    5.447E+00    5.330E+00
     5.214E+00    5.099E+00    4.984E+00    4.870E+00    4.756E+00    4.644E+00    4.532E+00    4.421E+00    4.310E+00    4.201E+00
     4.092E+00    3.984E+00    3.877E+00    3.771E+00    3.666E+00    3.562E+00    3.458E+00    3.356E+00    3.254E+00    3.154E+00
     3.054E+00    2.956E+00    2.858E+00    2.762E+00    2.666E+00    2.572E+00    2.478E+00    2.386E+00    2.295E+00    2.205E+00
     2.116E+00    2.028E+00    1.941E+00    1.856E+00    1.771E+00    1.688E+00    1.606E+00    1.526E+00    1.446E+00    1.368E+00
     1.291E+00    1.215E+00    1.141E+00    1.068E+00    9.961E-01    9.255E-01    8.562E-01    7.880E-01    7.211E-01    6.554E-01
     5.908E-01    5.273E-01    4.650E-01    4.038E-01    3.437E-01    2.847E-01    2.268E-01    1.699E-01    1.140E-01    5.920E-02
     5.356E-03   -4.750E-02   -9.939E-02   -1.503E-01   -2.003E-01   -2.494E-01   -2.976E-01   -3.449E-01   -3.913E-01   -4.369E-01
    -4.816E-01   -5.255E-01   -5.686E-01   -6.109E-01   -6.524E-01   -6.932E-01   -7.333E-01   -7.726E-01   -8.112E-01   -8.491E-01
    -8.863E-01   -9.229E-01   -9.589E-01   -9.942E-01   -1.029E+00   -1.063E+00   -1.097E+00   -1.129E+00   -1.162E+00   -1.194E+00
    -1.225E+00   -1.256E+00   -1.286E+00   -1.316E+00   -1.345E+00   -1.373E+00   -1.401E+00   -1.429E+00   -1.455E+00   -1.482E+00
    -1.507E+00   -1.533E+00   -1.557E+00   -1.582E+00   -1.605E+00   -1.628E+00   -1.651E+00   -1.673E+00   -1.694E+00   -1.715E+00
    -1.736E+00   -1.756E+00   -1.775E+00   -1.794E+00   -1.812E+00   -1.830E+00   -1.847E+00   -1.864E+00   -1.880E+00   -1.896E+00
    -1.911E+00   -1.926E+00   -1.940E+00   -1.954E+00   -1.967E+00   -1.980E+00   -1.992E+00   -2.004E+00   -2.015E+00   -2.025E+00
    -2.035E+00   -2.045E+00   -2.054E+00   -2.063E+00   -2.071E+00   -2.079E+00   -2.086E+00   -2.093E+00   -2.099E+00   -2.105E+00
    -2.110E+00   -2.115E+00   -2.119E+00   -2.123E+00   -2.126E+00   -2.129E+00   -2.132E+00   -2.134E+00   -2.135E+00   -2.136E+00
    -2.137E+00   -2.137E+00   -2.137E+00   -2.136E+00   -2.135E+00   -2.133E+00   -2.131E+00   -2.129E+00   -2.126E+00   -2.123E+00
    -2.119E+00   -2.115E+00   -2.110E+00   -2.105E+00   -2.100E+00   -2.094E+00   -2.088E+00   -2.081E+00   -2.074E+00   -2.066E+00
    -2.058E+00   -2.050E+00   -2.041E+00   -2.032E+00   -2.023E+00   -2.013E+00   -2.002E+00   -1.992E+00   -1.981E+00   -1.969E+00
    -1.958E+00   -1.945E+00   -1.933E+00   -1.920E+00   -1.907E+00   -1.893E+00   -1.879E+00   -1.864E+00   -1.850E+00   -1.835E+00
    -1.819E+00   -1.803E+00   -1.787E+00   -1.771E+00   -1.754E+00   -1.737E+00   -1.720E+00   -1.702E+00   -1.684E+00   -1.665E+00
    -1.647E+00   -1.628E+00   -1.608E+00   -1.589E+00   -1.569E+00   -1.548E+00   -1.528E+00   -1.507E+00   -1.486E+00   -1.464E+00
    -1.443E+00   -1.421E+00   -1.398E+00   -1.376E+00   -1.353E+00   -1.330E+00   -1.307E+00   -1.283E+00   -1.259E+00   -1.235E+00
    -1.211E+00   -1.186E+00   -1.161E+00   -1.136E+00   -1.110E+00   -1.085E+00   -1.059E+00   -1.033E+00   -1.007E+00   -9.799E-01
    -9.532E-01   -9.261E-01   -8.989E-01   -8.714E-01   -8.437E-01   -8.158E-01   -7.877E-01   -7.594E-01   -7.308E-01   -7.021E-01
    -6.731E-01   -6.440E-01   -6.146E-01   -5.850E-01   -5.553E-01   -5.253E-01   -4.952E-01   -4.648E-01   -4.343E-01   -4.036E-01
    -3.727E-01   -3.416E-01   -3.104E-01   -2.789E-01   -2.473E-01   -2.155E-01   -1.836E-01   -1.515E-01   -1.192E-01   -8.677E-02
    -5.417E-02   -2.141E-02    1.151E-02    4.457E-02    7.779E-02    1.112E-01    1.447E-01    1.783E-01    2.121E-01    2.461E-01
     2.801E-01    3.143E-01    3.487E-01    3.831E-01    4.177E-01    4.524E-01    4.872E-01    5.221E-01    5.571E-01    5.923E-01
     6.275E-01    6.628E-01    6.982E-01    7.337E-01    7.693E-01    8.050E-01    8.408E-01    8.766E-01    9.125E-01    9.485E-01
     9.845E-01    1.021E+00    1.057E+00    1.093E+00    1.129E+00    1.166E+00    1.202E+00    1.238E+00    1.275E+00    1.311E+00
     1.348E+00    1.384E+00    1.421E+00    1.457E+00    1.494E+00    1.531E+00    1.567E+00    1.604E+00    1.640E+00    1.677E+00
     1.714E+00    1.750E+00    1.787E+00    1.823E+00    1.860E+00    1.897E+00    1.933E+00    1.970E+00    2.006E+00    2.043E+00
     2.079E+00    2.116E+00    2.152E+00    2.189E+00    2.225E+00    2.262E+00    2.298E+00    2.334E+00    2.371E+00    2.407E+00
     2.444E+00    2.480E+00    2.516E+00    2.553E+00    2.589E+00    2.626E+00    2.662E+00    2.698E+00    2.735E+00    2.771E+00
     2.808E+00    2.844E+00    2.880E+00    2.917E+00    2.953E+00    2.989E+00    3.026E+00    3.062E+00    3.099E+00    3.135E+00
     3.171E+00    3.208E+00    3.244E+00    3.280E+00    3.317E+00    3.353E+00    3.390E+00    3.426E+00
 PCr      Conc. = 2.40E+03
