 LCModel (Version 6.3-1L) Copyright: S.W. Provencher.          Ref.: Magn. Reson. Med. 30:672-679 (1993).                
 Slice#2 Row#4 Col#5  PD_05_press_2_raw_act
 36 lines in following concentration table = NCONC+1
    Conc.  %SD /Cr+PCr  Metabolite                                         
    0.000 999%   0.000 Ala                                                 
  415.784 166%   0.105 Asp                                                 
    0.000 999%   0.000 Cr                                                  
 3.95E+03   5%   1.000 PCr                                                 
    0.000 999%   0.000 GABA                                                
  112.440 428% 2.9E-02 Glc                                                 
 1.82E+03  40%   0.462 Gln                                                 
 3.06E+03  26%   0.776 Glu                                                 
 1.97E+03   4%   0.499 GPC                                                 
    0.000 999%   0.000 PCh                                                 
 1.30E+03  18%   0.331 GSH                                                 
 5.86E+03  15%   1.485 Ins                                                 
  124.675 320% 3.2E-02 Lac                                                 
 6.97E+03   6%   1.767 NAA                                                 
  614.397  74%   0.156 NAAG                                                
  642.191  15%   0.163 Scyllo                                              
 1.23E+03  56%   0.312 Tau                                                 
 1.23E+03  27%   0.311 -CrCH2                                              
 1.97E+03   4%   0.499 GPC+PCh                                             
 7.58E+03   3%   1.922 NAA+NAAG                                            
 3.95E+03   5%   1.000 Cr+PCr                                              
 4.88E+03  24%   1.238 Glu+Gln                                             
 2.80E+03  75%   0.710 Lip13a                                              
  485.021 215%   0.123 Lip13b                                              
  443.669 143%   0.112 Lip09                                               
 3.68E+03  22%   0.934 MM09                                                
  558.663  75%   0.142 Lip20                                               
 7.97E+03  15%   2.021 MM20                                                
 1.12E+03  44%   0.283 MM12                                                
  643.141 150%   0.163 MM14                                                
 2.66E+03  28%   0.675 MM17                                                
 3.28E+03  42%   0.833 Lip13a+Lip13b                                       
 5.04E+03  30%   1.278 MM14+Lip13a+Lip13b+MM12                             
 4.13E+03  17%   1.046 MM09+Lip09                                          
 8.53E+03  14%   2.162 MM20+Lip20                                          
   6 lines in following misc. output table
  FWHM = 0.054 ppm    S/N =  12                                            
  Data shift = 0.023 ppm                                                   
  Ph: -52 deg     -14.7 deg/ppm                                            
  alphaB,S = 1.0E+00,   1.0E+02                                            
   14 spline knots.   Ns = 7(1)                                            
  (12) 4 infls.   ( 9) 1 extrs.                                            
  498 points on ppm-axis = NY
      4.000000     3.992357     3.984714     3.977070     3.969427     3.961784     3.954141     3.946497     3.938854     3.931211
      3.923568     3.915925     3.908281     3.900638     3.892995     3.885352     3.877708     3.870065     3.862422     3.854779
      3.847136     3.839492     3.831849     3.824206     3.816563     3.808919     3.801276     3.793633     3.785990     3.778347
      3.770703     3.763060     3.755417     3.747774     3.740130     3.732487     3.724844     3.717201     3.709558     3.701914
      3.694271     3.686628     3.678985     3.671341     3.663698     3.656055     3.648412     3.640769     3.633125     3.625482
      3.617839     3.610196     3.602552     3.594909     3.587266     3.579623     3.571980     3.564336     3.556693     3.549050
      3.541407     3.533763     3.526120     3.518477     3.510834     3.503191     3.495547     3.487904     3.480261     3.472618
      3.464974     3.457331     3.449688     3.442045     3.434402     3.426758     3.419115     3.411472     3.403829     3.396185
      3.388542     3.380899     3.373256     3.365613     3.357969     3.350326     3.342683     3.335040     3.327396     3.319753
      3.312110     3.304467     3.296824     3.289180     3.281537     3.273894     3.266251     3.258607     3.250964     3.243321
      3.235678     3.228034     3.220391     3.212748     3.205105     3.197462     3.189818     3.182175     3.174532     3.166889
      3.159245     3.151602     3.143959     3.136316     3.128673     3.121029     3.113386     3.105743     3.098100     3.090456
      3.082813     3.075170     3.067527     3.059884     3.052240     3.044597     3.036954     3.029311     3.021667     3.014024
      3.006381     2.998738     2.991095     2.983451     2.975808     2.968165     2.960522     2.952878     2.945235     2.937592
      2.929949     2.922306     2.914662     2.907019     2.899376     2.891733     2.884089     2.876446     2.868803     2.861160
      2.853517     2.845873     2.838230     2.830587     2.822944     2.815300     2.807657     2.800014     2.792371     2.784728
      2.777084     2.769441     2.761798     2.754155     2.746511     2.738868     2.731225     2.723582     2.715939     2.708295
      2.700652     2.693009     2.685366     2.677722     2.670079     2.662436     2.654793     2.647150     2.639506     2.631863
      2.624220     2.616577     2.608933     2.601290     2.593647     2.586004     2.578361     2.570717     2.563074     2.555431
      2.547788     2.540144     2.532501     2.524858     2.517215     2.509572     2.501928     2.494285     2.486642     2.478999
      2.471355     2.463712     2.456069     2.448426     2.440783     2.433139     2.425496     2.417853     2.410210     2.402566
      2.394923     2.387280     2.379637     2.371994     2.364350     2.356707     2.349064     2.341421     2.333777     2.326134
      2.318491     2.310848     2.303205     2.295561     2.287918     2.280275     2.272632     2.264988     2.257345     2.249702
      2.242059     2.234416     2.226772     2.219129     2.211486     2.203843     2.196199     2.188556     2.180913     2.173270
      2.165627     2.157983     2.150340     2.142697     2.135054     2.127410     2.119767     2.112124     2.104481     2.096838
      2.089194     2.081551     2.073908     2.066265     2.058621     2.050978     2.043335     2.035692     2.028049     2.020405
      2.012762     2.005119     1.997476     1.989833     1.982190     1.974546     1.966903     1.959260     1.951617     1.943974
      1.936331     1.928688     1.921045     1.913402     1.905759     1.898115     1.890472     1.882829     1.875186     1.867543
      1.859900     1.852257     1.844614     1.836971     1.829327     1.821684     1.814041     1.806398     1.798755     1.791112
      1.783469     1.775826     1.768183     1.760540     1.752896     1.745253     1.737610     1.729967     1.722324     1.714681
      1.707038     1.699395     1.691752     1.684108     1.676465     1.668822     1.661179     1.653536     1.645893     1.638250
      1.630607     1.622964     1.615321     1.607677     1.600034     1.592391     1.584748     1.577105     1.569462     1.561819
      1.554176     1.546533     1.538890     1.531246     1.523603     1.515960     1.508317     1.500674     1.493031     1.485388
      1.477745     1.470102     1.462458     1.454815     1.447172     1.439529     1.431886     1.424243     1.416600     1.408957
      1.401314     1.393671     1.386027     1.378384     1.370741     1.363098     1.355455     1.347812     1.340169     1.332526
      1.324883     1.317240     1.309596     1.301953     1.294310     1.286667     1.279024     1.271381     1.263738     1.256095
      1.248452     1.240808     1.233165     1.225522     1.217879     1.210236     1.202593     1.194950     1.187307     1.179664
      1.172021     1.164377     1.156734     1.149091     1.141448     1.133805     1.126162     1.118519     1.110876     1.103233
      1.095590     1.087946     1.080303     1.072660     1.065017     1.057374     1.049731     1.042088     1.034445     1.026802
      1.019158     1.011515     1.003872     0.996229     0.988586     0.980943     0.973300     0.965657     0.958014     0.950371
      0.942727     0.935084     0.927441     0.919798     0.912155     0.904512     0.896869     0.889226     0.881583     0.873940
      0.866296     0.858653     0.851010     0.843367     0.835724     0.828081     0.820438     0.812795     0.805152     0.797508
      0.789865     0.782222     0.774579     0.766936     0.759293     0.751650     0.744007     0.736364     0.728721     0.721077
      0.713434     0.705791     0.698148     0.690505     0.682862     0.675219     0.667576     0.659933     0.652290     0.644646
      0.637003     0.629360     0.621717     0.614074     0.606431     0.598788     0.591145     0.583502     0.575858     0.568215
      0.560572     0.552929     0.545286     0.537643     0.530000     0.522357     0.514714     0.507071     0.499427     0.491784
      0.484141     0.476498     0.468855     0.461212     0.453569     0.445925     0.438282     0.430639     0.422996     0.415353
      0.407710     0.400067     0.392424     0.384780     0.377137     0.369494     0.361851     0.354208     0.346565     0.338922
      0.331278     0.323635     0.315992     0.308349     0.300706     0.293063     0.285420     0.277777     0.270133     0.262490
      0.254847     0.247204     0.239561     0.231918     0.224275     0.216631     0.208988     0.201345
 NY phased data points follow
  -2.93014E+02 -2.79734E+02 -2.74402E+02 -2.75098E+02 -2.59056E+02 -2.48430E+02 -2.38690E+02 -2.06843E+02 -1.94286E+02 -1.93654E+02
  -1.89796E+02 -1.76914E+02 -1.80102E+02 -2.02988E+02 -2.08336E+02 -2.14690E+02 -2.41849E+02 -2.31877E+02 -2.37704E+02 -2.38635E+02
  -2.38274E+02 -2.40637E+02 -2.15304E+02 -2.27989E+02 -2.16464E+02 -2.04189E+02 -2.21139E+02 -1.95569E+02 -1.94181E+02 -1.84890E+02
  -1.75167E+02 -1.80060E+02 -1.90487E+02 -1.95420E+02 -1.82414E+02 -1.79511E+02 -1.86637E+02 -1.84907E+02 -1.72940E+02 -1.66245E+02
  -1.70720E+02 -1.65831E+02 -1.61720E+02 -1.67121E+02 -1.63682E+02 -1.43737E+02 -1.34588E+02 -1.34182E+02 -1.33603E+02 -1.56479E+02
  -1.48535E+02 -1.54013E+02 -1.66485E+02 -1.54080E+02 -1.64641E+02 -1.53006E+02 -1.56899E+02 -1.50420E+02 -1.39646E+02 -1.49723E+02
  -1.35922E+02 -1.52610E+02 -1.51558E+02 -1.60602E+02 -1.37601E+02 -1.46068E+02 -1.48687E+02 -1.57847E+02 -1.56886E+02 -1.50061E+02
  -1.31175E+02 -1.45447E+02 -1.35069E+02 -1.39623E+02 -1.39071E+02 -1.17727E+02 -1.24413E+02 -1.26818E+02 -1.28265E+02 -1.31322E+02
  -1.22836E+02 -1.23817E+02 -1.17333E+02 -1.10573E+02 -1.07629E+02 -1.11549E+02 -9.64352E+01 -9.46830E+01 -9.72234E+01 -9.97699E+01
  -1.03507E+02 -8.17686E+01 -6.85849E+01 -9.47875E+01 -8.15732E+01 -8.54375E+01 -8.73084E+01 -6.36383E+01 -6.36425E+01 -3.69972E+01
  -2.89433E+00  1.62230E+01  6.94756E+01  6.54270E+01  6.68345E+01  3.42401E+01  6.88304E+00 -1.97496E+01 -2.70541E+01 -5.27281E+01
  -5.96767E+01 -7.10522E+01 -8.83557E+01 -7.89847E+01 -7.81306E+01 -8.16438E+01 -7.24927E+01 -8.51188E+01 -6.97229E+01 -7.52617E+01
  -7.49834E+01 -6.01102E+01 -7.38090E+01 -3.00327E+01 -2.04540E+01  3.07857E+00  3.85066E+01  4.64222E+01  4.91572E+01  2.92408E+01
   2.81197E+00 -5.78806E+00 -1.14757E+01 -3.71653E+01 -3.83403E+01 -7.90706E+01 -6.76677E+01 -7.78817E+01 -8.25165E+01 -7.23998E+01
  -6.93449E+01 -6.50223E+01 -6.53125E+01 -7.38109E+01 -7.21106E+01 -6.00259E+01 -6.30444E+01 -6.02000E+01 -7.49588E+01 -5.40417E+01
  -4.70916E+01 -8.83504E+01 -7.87827E+01 -6.63875E+01 -8.59700E+01 -7.56757E+01 -6.43523E+01 -7.62561E+01 -5.91567E+01 -6.51689E+01
  -6.48867E+01 -7.59158E+01 -4.51533E+01 -5.20458E+01 -6.34040E+01 -6.01130E+01 -4.99053E+01 -5.29758E+01 -4.89811E+01 -6.05616E+01
  -7.55779E+01 -7.29257E+01 -7.89416E+01 -5.72478E+01 -7.22181E+01 -8.02526E+01 -7.26444E+01 -7.68257E+01 -7.16470E+01 -6.75042E+01
  -7.76040E+01 -6.94583E+01 -6.43645E+01 -6.75418E+01 -5.46817E+01 -4.88699E+01 -6.66020E+01 -3.42021E+01 -4.74724E+01 -5.29002E+01
  -4.03192E+01 -3.84324E+01 -3.06405E+01 -2.17316E+01 -3.29420E+01 -3.59325E+01 -3.88178E+01 -4.63859E+01 -4.90927E+01 -4.68295E+01
  -3.41607E+01 -2.31560E+01 -1.35449E+01 -1.94874E+01 -2.06004E+01 -2.83564E+01 -2.40517E+01 -4.60372E+01 -2.79391E+01 -3.49695E+01
  -2.37138E+01 -4.00960E+01 -3.67100E+01 -2.57832E+01  1.53487E+00 -8.66249E+00  4.12588E+00  8.91030E+00 -1.02684E+01 -1.96517E+01
  -7.28836E+00 -9.63306E+00 -2.10970E+01 -2.07269E+01 -1.67653E+01 -5.80259E+00 -1.10814E+01  7.00730E+00  1.62259E+01 -2.55554E+00
   1.16995E+01 -4.56566E+00  1.88932E+01  1.76067E+01  9.89600E+00  8.24229E+00  2.14346E+01  9.73187E+00  1.23705E+01 -2.61403E+00
  -1.07854E+01  1.19212E+00  9.30009E+00  2.53495E+00  1.10931E+01  1.69554E+01  2.09071E+01  2.16837E+01  2.10616E+01  2.82897E+01
   4.37706E+01  5.35000E+01  3.89126E+01  7.18575E+01  7.07136E+01  9.16047E+01  1.08778E+02  1.74030E+02  2.00785E+02  2.39756E+02
   2.52867E+02  2.37393E+02  2.19329E+02  1.82121E+02  1.51978E+02  1.31381E+02  8.42314E+01  6.65807E+01  3.66756E+01  2.87939E+01
   2.46053E+01  3.65867E+01  2.00942E+01  1.98955E+00  2.54892E+01  1.80151E+01  2.04758E+01  2.44598E+01  2.88594E+01  8.18743E+00
   1.65687E+01  1.58704E+01  2.26945E+01  2.03061E+01  2.21661E+01  1.60370E+01  3.18523E+01  1.39730E+01  9.02537E+00  2.05749E+01
   1.19315E+01  1.05839E+01  6.74322E+00  2.88500E+01  2.52640E+01  2.82399E+01  3.06197E+01  1.68290E+01  2.00245E+01  1.84051E+01
   3.29421E+01  2.93039E+01  2.94646E+01  3.09374E+01  3.92844E+01  4.41714E+01  4.20814E+01  2.82208E+01  3.02221E+01  3.77061E+01
   2.49386E+01  3.65537E+01  3.30188E+01  4.61118E+00  2.81384E+01  2.69196E+01  3.37184E+01  2.91812E+01  2.18674E+01  9.73407E-01
   2.60449E+01  2.54279E+01  1.10204E+01  2.10596E+01  1.88249E+01  1.65726E+01  1.09453E+01  2.38936E+01  1.52147E+01  2.19972E+01
   2.10240E+01  1.79593E+01  1.94040E+01  3.78648E+01  2.12166E+01  3.29404E+01  2.79357E+01  1.65335E+01  2.92666E+01  2.94070E+01
   3.17370E+01  3.20683E+01  2.27548E+01  2.62382E+01  4.71560E+01  4.11305E+01  2.76213E+01  3.75587E+01  4.02594E+01  4.22934E+01
   4.26676E+01  2.47704E+01  4.51653E+01  5.37358E+01  4.51900E+01  4.96811E+01  3.42646E+01  5.39731E+01  5.02121E+01  3.63234E+01
   3.69193E+01  4.32406E+01  4.99455E+01  4.35384E+01  4.24151E+01  4.30689E+01  2.24421E+01  3.80313E+01  5.48359E+01  3.02510E+01
   3.95964E+01  5.21655E+01  3.72014E+01  3.33148E+01  5.66865E+01  3.05467E+01  2.99394E+01  1.60800E+01  2.50571E+01  3.48578E+01
   2.07283E+01  2.51827E+01  2.30447E+01  3.51945E+01  3.42989E+01  2.56491E+01  2.50311E+01  2.34525E+01  3.52718E+01  5.81456E+01
   5.17248E+01  3.18977E+01  4.43226E+01  4.04372E+01  3.88896E+01  4.65553E+01  4.64462E+01  5.81579E+01  3.63452E+01  3.47454E+01
   3.28982E+01  5.17408E+01  4.13525E+01  4.70192E+01  5.00241E+01  6.75959E+01  5.44488E+01  6.37938E+01  6.66936E+01  5.43089E+01
   5.14280E+01  5.77524E+01  4.79290E+01  5.54901E+01  5.89406E+01  5.41497E+01  5.81826E+01  5.40064E+01  5.01618E+01  4.59447E+01
   5.84731E+01  4.75039E+01  5.38912E+01  5.10627E+01  4.37212E+01  3.81910E+01  4.15923E+01  4.96491E+01  5.00395E+01  3.37924E+01
   3.85935E+01  4.05814E+01  4.72910E+01  4.19277E+01  3.94686E+01  4.76554E+01  4.42117E+01  3.83562E+01  2.97653E+01  2.56792E+01
   3.63708E+01  4.06609E+01  3.54810E+01  3.74020E+01  4.17834E+01  4.74783E+01  3.36350E+01  2.80484E+01  4.23010E+01  3.85144E+01
   3.93314E+01  4.11270E+01  4.72733E+01  4.17375E+01  5.11953E+01  2.85468E+01  2.92472E+01  3.30557E+01  3.19127E+01  4.90657E+01
   4.16709E+01  3.47401E+01  4.22994E+01  2.16078E+01  2.92086E+01  2.77266E+01  3.85237E+01  4.02243E+01  3.37460E+01  4.35107E+01
   3.20554E+01  4.65032E+01  3.35202E+01  4.52211E+01  4.30627E+01  4.98233E+01  4.39531E+01  3.85278E+01  4.81933E+01  5.23945E+01
   4.39802E+01  4.36621E+01  4.32687E+01  4.87857E+01  4.30970E+01  4.23194E+01  4.81967E+01  4.58058E+01  5.85999E+01  3.14663E+01
   4.63353E+01  3.90037E+01  3.55089E+01  4.95025E+01  4.19230E+01  4.09380E+01  5.27165E+01  3.47396E+01
 NY points of the fit to the data follow
  -2.66521E+02 -2.66161E+02 -2.63226E+02 -2.57253E+02 -2.50662E+02 -2.42020E+02 -2.29699E+02 -2.14713E+02 -2.00015E+02 -1.89505E+02
  -1.85881E+02 -1.88811E+02 -1.95419E+02 -2.02004E+02 -2.07317E+02 -2.12551E+02 -2.18283E+02 -2.24122E+02 -2.27658E+02 -2.27770E+02
  -2.26928E+02 -2.25946E+02 -2.24534E+02 -2.22244E+02 -2.19760E+02 -2.16103E+02 -2.10305E+02 -2.02562E+02 -1.93922E+02 -1.86029E+02
  -1.80244E+02 -1.77345E+02 -1.77128E+02 -1.78324E+02 -1.80389E+02 -1.83314E+02 -1.86615E+02 -1.89932E+02 -1.92022E+02 -1.91071E+02
  -1.87476E+02 -1.82228E+02 -1.75588E+02 -1.66917E+02 -1.56805E+02 -1.47448E+02 -1.41249E+02 -1.39908E+02 -1.43192E+02 -1.48968E+02
  -1.54946E+02 -1.59579E+02 -1.62741E+02 -1.65085E+02 -1.66217E+02 -1.65036E+02 -1.61232E+02 -1.56168E+02 -1.51581E+02 -1.48333E+02
  -1.46860E+02 -1.47115E+02 -1.48125E+02 -1.48922E+02 -1.48723E+02 -1.47523E+02 -1.45806E+02 -1.43672E+02 -1.40863E+02 -1.37554E+02
  -1.34264E+02 -1.31414E+02 -1.29112E+02 -1.27408E+02 -1.26307E+02 -1.25705E+02 -1.25686E+02 -1.26258E+02 -1.26908E+02 -1.27079E+02
  -1.25551E+02 -1.22624E+02 -1.19594E+02 -1.15881E+02 -1.10718E+02 -1.04466E+02 -9.86255E+01 -9.48839E+01 -9.39050E+01 -9.51116E+01
  -9.73658E+01 -9.92333E+01 -1.00461E+02 -1.01800E+02 -1.02880E+02 -1.01065E+02 -9.17474E+01 -7.79639E+01 -6.05449E+01 -3.51772E+01
  -2.15353E+00  3.20365E+01  5.77991E+01  6.70973E+01  5.87322E+01  3.82389E+01  1.40314E+01 -8.38155E+00 -2.93376E+01 -5.03053E+01
  -7.00380E+01 -8.49220E+01 -9.11694E+01 -9.23313E+01 -9.21862E+01 -9.16119E+01 -9.08209E+01 -8.97277E+01 -8.82080E+01 -8.55481E+01
  -7.86826E+01 -6.82193E+01 -5.63986E+01 -3.96020E+01 -1.60993E+01  1.04817E+01  3.33245E+01  4.53635E+01  4.36230E+01  3.11452E+01
   1.41548E+01 -2.26090E+00 -1.76934E+01 -3.40188E+01 -5.07373E+01 -6.50999E+01 -7.28244E+01 -7.40615E+01 -7.30379E+01 -7.12867E+01
  -6.94838E+01 -6.79257E+01 -6.65834E+01 -6.55031E+01 -6.48340E+01 -6.45307E+01 -6.45811E+01 -6.49674E+01 -6.54492E+01 -6.58340E+01
  -6.60107E+01 -6.60126E+01 -6.58928E+01 -6.56922E+01 -6.55214E+01 -6.52371E+01 -6.49520E+01 -6.49372E+01 -6.52190E+01 -6.57919E+01
  -6.61345E+01 -6.56902E+01 -6.45062E+01 -6.31231E+01 -6.21677E+01 -6.19268E+01 -6.22011E+01 -6.25843E+01 -6.28347E+01 -6.31287E+01
  -6.36550E+01 -6.42487E+01 -6.50073E+01 -6.58254E+01 -6.63576E+01 -6.62541E+01 -6.53682E+01 -6.40675E+01 -6.29621E+01 -6.23344E+01
  -6.20262E+01 -6.12851E+01 -5.98377E+01 -5.80921E+01 -5.63313E+01 -5.43831E+01 -5.16307E+01 -4.75623E+01 -4.26390E+01 -3.80131E+01
  -3.47899E+01 -3.33171E+01 -3.29886E+01 -3.33010E+01 -3.39895E+01 -3.47788E+01 -3.52862E+01 -3.48102E+01 -3.30207E+01 -3.00009E+01
  -2.61220E+01 -2.20789E+01 -1.87634E+01 -1.70365E+01 -1.69276E+01 -1.87223E+01 -2.25661E+01 -2.73970E+01 -3.16705E+01 -3.42020E+01
  -3.45625E+01 -3.28181E+01 -2.87928E+01 -2.29085E+01 -1.64936E+01 -1.11535E+01 -8.25919E+00 -8.15571E+00 -1.04062E+01 -1.44116E+01
  -1.85601E+01 -2.16044E+01 -2.28887E+01 -2.17770E+01 -1.85111E+01 -1.38382E+01 -8.92248E+00 -4.87906E+00 -1.93156E+00  1.24792E-01
   1.75092E+00  2.94620E+00  3.80838E+00  5.02684E+00  6.93819E+00  9.03723E+00  1.08478E+01  1.22775E+01  1.30996E+01  1.29990E+01
   1.20503E+01  1.10872E+01  1.09333E+01  1.19097E+01  1.38775E+01  1.64217E+01  1.92884E+01  2.20998E+01  2.48873E+01  2.82816E+01
   3.21037E+01  3.64745E+01  4.31494E+01  5.72994E+01  7.69989E+01  9.78865E+01  1.25127E+02  1.61739E+02  2.02359E+02  2.36176E+02
   2.51910E+02  2.44459E+02  2.18266E+02  1.83978E+02  1.51223E+02  1.21857E+02  9.30353E+01  6.48171E+01  4.08169E+01  2.70671E+01
   2.23959E+01  2.03638E+01  1.92245E+01  1.85488E+01  1.80576E+01  1.75554E+01  1.70481E+01  1.65524E+01  1.60931E+01  1.56970E+01
   1.53751E+01  1.51340E+01  1.50071E+01  1.50270E+01  1.51751E+01  1.54226E+01  1.57555E+01  1.61903E+01  1.67428E+01  1.74162E+01
   1.82034E+01  1.91073E+01  2.01141E+01  2.12012E+01  2.23333E+01  2.34835E+01  2.46299E+01  2.57505E+01  2.68205E+01  2.78187E+01
   2.87215E+01  2.95114E+01  3.01621E+01  3.06512E+01  3.09647E+01  3.10978E+01  3.10499E+01  3.08285E+01  3.04450E+01  2.99238E+01
   2.92913E+01  2.85752E+01  2.78040E+01  2.70077E+01  2.62130E+01  2.54457E+01  2.47255E+01  2.40697E+01  2.34903E+01  2.29977E+01
   2.25972E+01  2.22915E+01  2.20782E+01  2.19543E+01  2.19140E+01  2.19532E+01  2.20648E+01  2.22430E+01  2.24798E+01  2.27704E+01
   2.31094E+01  2.34946E+01  2.39225E+01  2.43919E+01  2.49010E+01  2.54517E+01  2.60463E+01  2.66906E+01  2.73914E+01  2.81653E+01
   2.90390E+01  2.99799E+01  3.09658E+01  3.20460E+01  3.31948E+01  3.43187E+01  3.53262E+01  3.61891E+01  3.70139E+01  3.78950E+01
   3.88814E+01  4.00276E+01  4.13131E+01  4.26568E+01  4.39522E+01  4.50620E+01  4.58619E+01  4.62418E+01  4.61838E+01  4.57951E+01
   4.51561E+01  4.43106E+01  4.33073E+01  4.22176E+01  4.11556E+01  4.01722E+01  3.92554E+01  3.84014E+01  3.76075E+01  3.68723E+01
   3.61932E+01  3.55697E+01  3.50005E+01  3.44865E+01  3.40290E+01  3.36314E+01  3.32958E+01  3.30256E+01  3.28223E+01  3.26890E+01
   3.26280E+01  3.26428E+01  3.27357E+01  3.29100E+01  3.31678E+01  3.35130E+01  3.39490E+01  3.44803E+01  3.51096E+01  3.58401E+01
   3.66734E+01  3.76115E+01  3.86536E+01  3.97980E+01  4.10388E+01  4.23680E+01  4.37734E+01  4.52408E+01  4.67510E+01  4.82820E+01
   4.98072E+01  5.12985E+01  5.27254E+01  5.40579E+01  5.52654E+01  5.63197E+01  5.71945E+01  5.78691E+01  5.83274E+01  5.85610E+01
   5.85662E+01  5.83474E+01  5.79141E+01  5.72836E+01  5.64772E+01  5.55215E+01  5.44441E+01  5.32751E+01  5.20438E+01  5.07799E+01
   4.95101E+01  4.82590E+01  4.70464E+01  4.58894E+01  4.48006E+01  4.37900E+01  4.28633E+01  4.20236E+01  4.12704E+01  4.06020E+01
   4.00147E+01  3.95045E+01  3.90655E+01  3.86923E+01  3.83778E+01  3.81169E+01  3.79035E+01  3.77332E+01  3.76004E+01  3.75011E+01
   3.74305E+01  3.73857E+01  3.73636E+01  3.73619E+01  3.73777E+01  3.74091E+01  3.74537E+01  3.75108E+01  3.75787E+01  3.76566E+01
   3.77429E+01  3.78369E+01  3.79375E+01  3.80446E+01  3.81574E+01  3.82757E+01  3.83982E+01  3.85250E+01  3.86553E+01  3.87897E+01
   3.89273E+01  3.90681E+01  3.92112E+01  3.93569E+01  3.95048E+01  3.96554E+01  3.98079E+01  3.99623E+01  4.01180E+01  4.02755E+01
   4.04344E+01  4.05952E+01  4.07570E+01  4.09202E+01  4.10840E+01  4.12492E+01  4.14155E+01  4.15830E+01  4.17511E+01  4.19201E+01
   4.20895E+01  4.22600E+01  4.24312E+01  4.26033E+01  4.27756E+01  4.29485E+01  4.31218E+01  4.32960E+01  4.34707E+01  4.36459E+01
   4.38212E+01  4.39969E+01  4.41730E+01  4.43499E+01  4.45271E+01  4.47046E+01  4.48820E+01  4.50600E+01
 NY background values follow
    -2.845E+02   -2.826E+02   -2.806E+02   -2.786E+02   -2.767E+02   -2.747E+02   -2.727E+02   -2.708E+02   -2.688E+02   -2.669E+02
    -2.649E+02   -2.629E+02   -2.610E+02   -2.590E+02   -2.571E+02   -2.551E+02   -2.532E+02   -2.512E+02   -2.493E+02   -2.473E+02
    -2.454E+02   -2.434E+02   -2.415E+02   -2.396E+02   -2.377E+02   -2.357E+02   -2.338E+02   -2.319E+02   -2.300E+02   -2.281E+02
    -2.262E+02   -2.243E+02   -2.224E+02   -2.206E+02   -2.187E+02   -2.168E+02   -2.150E+02   -2.131E+02   -2.113E+02   -2.094E+02
    -2.076E+02   -2.058E+02   -2.039E+02   -2.021E+02   -2.003E+02   -1.985E+02   -1.968E+02   -1.950E+02   -1.932E+02   -1.915E+02
    -1.897E+02   -1.880E+02   -1.863E+02   -1.845E+02   -1.828E+02   -1.811E+02   -1.794E+02   -1.778E+02   -1.761E+02   -1.744E+02
    -1.728E+02   -1.711E+02   -1.695E+02   -1.679E+02   -1.663E+02   -1.647E+02   -1.631E+02   -1.615E+02   -1.599E+02   -1.584E+02
    -1.568E+02   -1.553E+02   -1.538E+02   -1.522E+02   -1.507E+02   -1.493E+02   -1.478E+02   -1.463E+02   -1.449E+02   -1.434E+02
    -1.420E+02   -1.406E+02   -1.392E+02   -1.378E+02   -1.364E+02   -1.350E+02   -1.337E+02   -1.323E+02   -1.310E+02   -1.297E+02
    -1.284E+02   -1.271E+02   -1.258E+02   -1.245E+02   -1.233E+02   -1.220E+02   -1.208E+02   -1.196E+02   -1.184E+02   -1.172E+02
    -1.160E+02   -1.148E+02   -1.137E+02   -1.125E+02   -1.114E+02   -1.103E+02   -1.092E+02   -1.081E+02   -1.070E+02   -1.059E+02
    -1.049E+02   -1.038E+02   -1.028E+02   -1.017E+02   -1.007E+02   -9.970E+01   -9.870E+01   -9.771E+01   -9.673E+01   -9.576E+01
    -9.480E+01   -9.385E+01   -9.291E+01   -9.198E+01   -9.106E+01   -9.015E+01   -8.925E+01   -8.836E+01   -8.748E+01   -8.660E+01
    -8.574E+01   -8.488E+01   -8.403E+01   -8.319E+01   -8.236E+01   -8.154E+01   -8.072E+01   -7.992E+01   -7.912E+01   -7.833E+01
    -7.754E+01   -7.677E+01   -7.600E+01   -7.523E+01   -7.448E+01   -7.373E+01   -7.298E+01   -7.225E+01   -7.152E+01   -7.079E+01
    -7.007E+01   -6.935E+01   -6.864E+01   -6.794E+01   -6.724E+01   -6.654E+01   -6.585E+01   -6.516E+01   -6.448E+01   -6.380E+01
    -6.312E+01   -6.245E+01   -6.178E+01   -6.111E+01   -6.044E+01   -5.978E+01   -5.912E+01   -5.846E+01   -5.781E+01   -5.715E+01
    -5.650E+01   -5.584E+01   -5.519E+01   -5.454E+01   -5.389E+01   -5.324E+01   -5.260E+01   -5.195E+01   -5.130E+01   -5.065E+01
    -5.000E+01   -4.935E+01   -4.870E+01   -4.804E+01   -4.739E+01   -4.674E+01   -4.608E+01   -4.543E+01   -4.478E+01   -4.412E+01
    -4.347E+01   -4.281E+01   -4.216E+01   -4.151E+01   -4.085E+01   -4.020E+01   -3.955E+01   -3.890E+01   -3.825E+01   -3.760E+01
    -3.695E+01   -3.631E+01   -3.567E+01   -3.502E+01   -3.438E+01   -3.374E+01   -3.311E+01   -3.247E+01   -3.184E+01   -3.121E+01
    -3.058E+01   -2.995E+01   -2.933E+01   -2.871E+01   -2.809E+01   -2.748E+01   -2.687E+01   -2.626E+01   -2.565E+01   -2.505E+01
    -2.446E+01   -2.386E+01   -2.327E+01   -2.269E+01   -2.210E+01   -2.153E+01   -2.095E+01   -2.038E+01   -1.982E+01   -1.926E+01
    -1.870E+01   -1.815E+01   -1.760E+01   -1.706E+01   -1.652E+01   -1.599E+01   -1.546E+01   -1.493E+01   -1.441E+01   -1.390E+01
    -1.339E+01   -1.288E+01   -1.238E+01   -1.188E+01   -1.139E+01   -1.090E+01   -1.042E+01   -9.941E+00   -9.468E+00   -8.999E+00
    -8.535E+00   -8.076E+00   -7.621E+00   -7.172E+00   -6.727E+00   -6.287E+00   -5.852E+00   -5.422E+00   -4.997E+00   -4.576E+00
    -4.161E+00   -3.750E+00   -3.345E+00   -2.944E+00   -2.549E+00   -2.158E+00   -1.772E+00   -1.392E+00   -1.017E+00   -6.462E-01
    -2.809E-01    7.923E-02    4.343E-01    7.843E-01    1.129E+00    1.469E+00    1.805E+00    2.135E+00    2.461E+00    2.782E+00
     3.098E+00    3.410E+00    3.718E+00    4.021E+00    4.319E+00    4.614E+00    4.904E+00    5.191E+00    5.473E+00    5.751E+00
     6.026E+00    6.296E+00    6.563E+00    6.826E+00    7.086E+00    7.341E+00    7.594E+00    7.843E+00    8.089E+00    8.331E+00
     8.570E+00    8.806E+00    9.039E+00    9.269E+00    9.496E+00    9.720E+00    9.941E+00    1.016E+01    1.038E+01    1.059E+01
     1.080E+01    1.101E+01    1.121E+01    1.142E+01    1.162E+01    1.182E+01    1.202E+01    1.221E+01    1.240E+01    1.259E+01
     1.278E+01    1.297E+01    1.316E+01    1.334E+01    1.352E+01    1.370E+01    1.388E+01    1.406E+01    1.423E+01    1.441E+01
     1.458E+01    1.475E+01    1.492E+01    1.509E+01    1.526E+01    1.542E+01    1.559E+01    1.575E+01    1.592E+01    1.608E+01
     1.624E+01    1.640E+01    1.656E+01    1.672E+01    1.687E+01    1.703E+01    1.719E+01    1.734E+01    1.749E+01    1.765E+01
     1.780E+01    1.796E+01    1.811E+01    1.826E+01    1.841E+01    1.856E+01    1.871E+01    1.887E+01    1.902E+01    1.917E+01
     1.932E+01    1.947E+01    1.962E+01    1.977E+01    1.992E+01    2.007E+01    2.022E+01    2.038E+01    2.053E+01    2.068E+01
     2.083E+01    2.098E+01    2.114E+01    2.129E+01    2.144E+01    2.159E+01    2.175E+01    2.190E+01    2.206E+01    2.221E+01
     2.236E+01    2.252E+01    2.268E+01    2.283E+01    2.299E+01    2.315E+01    2.330E+01    2.346E+01    2.362E+01    2.378E+01
     2.394E+01    2.410E+01    2.426E+01    2.442E+01    2.459E+01    2.475E+01    2.491E+01    2.508E+01    2.524E+01    2.541E+01
     2.558E+01    2.574E+01    2.591E+01    2.608E+01    2.625E+01    2.642E+01    2.659E+01    2.677E+01    2.694E+01    2.712E+01
     2.729E+01    2.747E+01    2.764E+01    2.782E+01    2.800E+01    2.818E+01    2.836E+01    2.854E+01    2.872E+01    2.891E+01
     2.909E+01    2.927E+01    2.946E+01    2.964E+01    2.983E+01    3.002E+01    3.020E+01    3.039E+01    3.058E+01    3.077E+01
     3.095E+01    3.114E+01    3.133E+01    3.152E+01    3.171E+01    3.190E+01    3.210E+01    3.229E+01    3.248E+01    3.267E+01
     3.286E+01    3.305E+01    3.325E+01    3.344E+01    3.363E+01    3.383E+01    3.402E+01    3.421E+01    3.441E+01    3.460E+01
     3.479E+01    3.499E+01    3.518E+01    3.537E+01    3.557E+01    3.576E+01    3.595E+01    3.615E+01    3.634E+01    3.653E+01
     3.673E+01    3.692E+01    3.711E+01    3.731E+01    3.750E+01    3.769E+01    3.789E+01    3.808E+01    3.827E+01    3.847E+01
     3.866E+01    3.885E+01    3.904E+01    3.924E+01    3.943E+01    3.962E+01    3.982E+01    4.001E+01    4.020E+01    4.039E+01
     4.059E+01    4.078E+01    4.097E+01    4.116E+01    4.136E+01    4.155E+01    4.174E+01    4.193E+01    4.213E+01    4.232E+01
     4.251E+01    4.270E+01    4.289E+01    4.309E+01    4.328E+01    4.347E+01    4.366E+01    4.385E+01
 Asp      Conc. = 4.16E+02
