 LCModel (Version 6.3-1L) Copyright: S.W. Provencher.          Ref.: Magn. Reson. Med. 30:672-679 (1993).                
 Slice#1 Row#5 Col#10  PD_05_press_2_raw_act
 36 lines in following concentration table = NCONC+1
    Conc.  %SD /Cr+PCr  Metabolite                                         
    0.000 999%   0.000 Ala                                                 
    0.000 999%   0.000 Asp                                                 
 1.55E+03  40%   0.901 Cr                                                  
  169.261 366% 9.9E-02 PCr                                                 
  160.835 161% 9.4E-02 GABA                                                
  251.725 100%   0.147 Glc                                                 
 1.77E+03  42%   1.032 Gln                                                 
 2.94E+03  28%   1.713 Glu                                                 
  651.379   8%   0.379 GPC                                                 
    0.000 999%   0.000 PCh                                                 
  630.126  31%   0.367 GSH                                                 
 3.97E+03  15%   2.310 Ins                                                 
  936.592  47%   0.545 Lac                                                 
 2.87E+03  11%   1.669 NAA                                                 
  548.869  62%   0.320 NAAG                                                
  268.135  21%   0.156 Scyllo                                              
  546.126  66%   0.318 Tau                                                 
  735.228  34%   0.428 -CrCH2                                              
  651.379   8%   0.379 GPC+PCh                                             
 3.42E+03   5%   1.988 NAA+NAAG                                            
 1.72E+03   8%   1.000 Cr+PCr                                              
 4.72E+03  28%   2.745 Glu+Gln                                             
    0.000 999%   0.000 Lip13a                                              
  949.841  56%   0.553 Lip13b                                              
  193.161 116%   0.112 Lip09                                               
 1.97E+03  18%   1.148 MM09                                                
  123.216 116% 7.2E-02 Lip20                                               
 2.77E+03  24%   1.612 MM20                                                
  593.840  41%   0.346 MM12                                                
 3.78E+03  16%   2.198 MM14                                                
 1.93E+03  15%   1.126 MM17                                                
  949.841  56%   0.553 Lip13a+Lip13b                                       
 5.32E+03  10%   3.097 MM14+Lip13a+Lip13b+MM12                             
 2.17E+03  14%   1.260 MM09+Lip09                                          
 2.89E+03  22%   1.683 MM20+Lip20                                          
   6 lines in following misc. output table
  FWHM = 0.069 ppm    S/N =   6                                            
  Data shift = 0.000 ppm                                                   
  Ph: -47 deg     -13.9 deg/ppm                                            
  alphaB,S = 8.5E+01,   1.9E+02                                            
   14 spline knots.   Ns = 9(1)                                            
   4 inflections.     1 extrema                                            
  498 points on ppm-axis = NY
      4.000000     3.992357     3.984714     3.977070     3.969427     3.961784     3.954141     3.946497     3.938854     3.931211
      3.923568     3.915925     3.908281     3.900638     3.892995     3.885352     3.877708     3.870065     3.862422     3.854779
      3.847136     3.839492     3.831849     3.824206     3.816563     3.808919     3.801276     3.793633     3.785990     3.778347
      3.770703     3.763060     3.755417     3.747774     3.740130     3.732487     3.724844     3.717201     3.709558     3.701914
      3.694271     3.686628     3.678985     3.671341     3.663698     3.656055     3.648412     3.640769     3.633125     3.625482
      3.617839     3.610196     3.602552     3.594909     3.587266     3.579623     3.571980     3.564336     3.556693     3.549050
      3.541407     3.533763     3.526120     3.518477     3.510834     3.503191     3.495547     3.487904     3.480261     3.472618
      3.464974     3.457331     3.449688     3.442045     3.434402     3.426758     3.419115     3.411472     3.403829     3.396185
      3.388542     3.380899     3.373256     3.365613     3.357969     3.350326     3.342683     3.335040     3.327396     3.319753
      3.312110     3.304467     3.296824     3.289180     3.281537     3.273894     3.266251     3.258607     3.250964     3.243321
      3.235678     3.228034     3.220391     3.212748     3.205105     3.197462     3.189818     3.182175     3.174532     3.166889
      3.159245     3.151602     3.143959     3.136316     3.128673     3.121029     3.113386     3.105743     3.098100     3.090456
      3.082813     3.075170     3.067527     3.059884     3.052240     3.044597     3.036954     3.029311     3.021667     3.014024
      3.006381     2.998738     2.991095     2.983451     2.975808     2.968165     2.960522     2.952878     2.945235     2.937592
      2.929949     2.922306     2.914662     2.907019     2.899376     2.891733     2.884089     2.876446     2.868803     2.861160
      2.853517     2.845873     2.838230     2.830587     2.822944     2.815300     2.807657     2.800014     2.792371     2.784728
      2.777084     2.769441     2.761798     2.754155     2.746511     2.738868     2.731225     2.723582     2.715939     2.708295
      2.700652     2.693009     2.685366     2.677722     2.670079     2.662436     2.654793     2.647150     2.639506     2.631863
      2.624220     2.616577     2.608933     2.601290     2.593647     2.586004     2.578361     2.570717     2.563074     2.555431
      2.547788     2.540144     2.532501     2.524858     2.517215     2.509572     2.501928     2.494285     2.486642     2.478999
      2.471355     2.463712     2.456069     2.448426     2.440783     2.433139     2.425496     2.417853     2.410210     2.402566
      2.394923     2.387280     2.379637     2.371994     2.364350     2.356707     2.349064     2.341421     2.333777     2.326134
      2.318491     2.310848     2.303205     2.295561     2.287918     2.280275     2.272632     2.264988     2.257345     2.249702
      2.242059     2.234416     2.226772     2.219129     2.211486     2.203843     2.196199     2.188556     2.180913     2.173270
      2.165627     2.157983     2.150340     2.142697     2.135054     2.127410     2.119767     2.112124     2.104481     2.096838
      2.089194     2.081551     2.073908     2.066265     2.058621     2.050978     2.043335     2.035692     2.028049     2.020405
      2.012762     2.005119     1.997476     1.989833     1.982190     1.974546     1.966903     1.959260     1.951617     1.943974
      1.936331     1.928688     1.921045     1.913402     1.905759     1.898115     1.890472     1.882829     1.875186     1.867543
      1.859900     1.852257     1.844614     1.836971     1.829327     1.821684     1.814041     1.806398     1.798755     1.791112
      1.783469     1.775826     1.768183     1.760540     1.752896     1.745253     1.737610     1.729967     1.722324     1.714681
      1.707038     1.699395     1.691752     1.684108     1.676465     1.668822     1.661179     1.653536     1.645893     1.638250
      1.630607     1.622964     1.615321     1.607677     1.600034     1.592391     1.584748     1.577105     1.569462     1.561819
      1.554176     1.546533     1.538890     1.531246     1.523603     1.515960     1.508317     1.500674     1.493031     1.485388
      1.477745     1.470102     1.462458     1.454815     1.447172     1.439529     1.431886     1.424243     1.416600     1.408957
      1.401314     1.393671     1.386027     1.378384     1.370741     1.363098     1.355455     1.347812     1.340169     1.332526
      1.324883     1.317240     1.309596     1.301953     1.294310     1.286667     1.279024     1.271381     1.263738     1.256095
      1.248452     1.240808     1.233165     1.225522     1.217879     1.210236     1.202593     1.194950     1.187307     1.179664
      1.172021     1.164377     1.156734     1.149091     1.141448     1.133805     1.126162     1.118519     1.110876     1.103233
      1.095590     1.087946     1.080303     1.072660     1.065017     1.057374     1.049731     1.042088     1.034445     1.026802
      1.019158     1.011515     1.003872     0.996229     0.988586     0.980943     0.973300     0.965657     0.958014     0.950371
      0.942727     0.935084     0.927441     0.919798     0.912155     0.904512     0.896869     0.889226     0.881583     0.873940
      0.866296     0.858653     0.851010     0.843367     0.835724     0.828081     0.820438     0.812795     0.805152     0.797508
      0.789865     0.782222     0.774579     0.766936     0.759293     0.751650     0.744007     0.736364     0.728721     0.721077
      0.713434     0.705791     0.698148     0.690505     0.682862     0.675219     0.667576     0.659933     0.652290     0.644646
      0.637003     0.629360     0.621717     0.614074     0.606431     0.598788     0.591145     0.583502     0.575858     0.568215
      0.560572     0.552929     0.545286     0.537643     0.530000     0.522357     0.514714     0.507071     0.499427     0.491784
      0.484141     0.476498     0.468855     0.461212     0.453569     0.445925     0.438282     0.430639     0.422996     0.415353
      0.407710     0.400067     0.392424     0.384780     0.377137     0.369494     0.361851     0.354208     0.346565     0.338922
      0.331278     0.323635     0.315992     0.308349     0.300706     0.293063     0.285420     0.277777     0.270133     0.262490
      0.254847     0.247204     0.239561     0.231918     0.224275     0.216631     0.208988     0.201345
 NY phased data points follow
   1.13555E+01  1.33353E+01 -1.49923E+00 -1.89158E+00 -5.03419E+00  1.18355E+01  1.34629E+01  1.64074E+01  1.76448E+01  4.35146E+00
   1.37959E+01  2.71597E+01  2.61824E+01  1.96024E+01  1.36951E+01  1.16160E+00  7.38114E+00  1.40674E+01  9.98800E+00  1.89428E+01
   1.18382E+01  1.36796E+01  1.59922E+01  1.10148E+01  2.84928E+00 -4.35444E+00 -1.53257E-01  1.70668E+01  1.30005E+01  1.63936E+01
   1.51198E+01  1.32868E+01  2.08365E+01  6.60470E+00  1.53369E+01  1.14472E+01  1.32537E+01  1.82567E+01  2.04151E+01  1.14212E+01
   9.42237E+00  5.10550E+00  7.93002E+00  1.32064E+01  1.72643E+01  1.52092E+01  2.30403E+01  1.64195E+01  3.34910E+01  1.74014E+01
   1.62358E+01  1.01758E+01  1.64733E+01  1.28320E+01  1.67707E+01  1.84537E+01  2.06756E+01  1.03887E+01  1.50952E+01  1.48313E+01
   2.29994E+01  8.98619E+00  1.88658E+00  1.01628E+01  1.62693E+01 -2.18331E+00 -1.42302E+00  8.82374E+00  1.71309E+00  6.93328E+00
   3.21861E+00 -2.80174E+00  6.21257E+00  1.01992E+01  1.02892E+01  6.61401E+00  1.28972E+01  1.34222E+01  1.50174E+01 -1.14796E+00
   4.91408E+00  6.36402E+00  1.67358E+01  9.96503E+00  1.45459E+01  1.49540E+01  6.78064E+00  2.52373E-02  1.79768E+01  7.09779E+00
   1.35980E+01  1.20391E+01  7.18110E+00  1.82200E+01  1.16331E+01  1.14372E+01  8.00102E+00  1.84316E+01  1.73919E+01  3.37602E+01
   2.79515E+01  3.49856E+01  4.51740E+01  5.62913E+01  4.53137E+01  4.58596E+01  3.07349E+01  1.53337E+01  1.66834E+01  2.17142E+00
   1.57786E+01 -2.34925E+00  5.40868E-01  1.68007E+01  5.89936E+00  6.64273E+00  3.54148E-01  1.85125E+01  1.41937E+01  5.23217E+00
   2.03268E+01  1.71540E+01  2.77243E+01  1.87969E+01  3.77459E+01  3.78432E+01  5.43466E+01  4.81198E+01  4.02544E+01  3.94839E+01
   3.25501E+01  2.13858E+01  1.33928E+01  6.48941E+00  2.36619E+01  2.67807E+00  1.54740E+01  1.23812E+01  1.95407E+00  4.25810E+00
   7.14884E+00  7.57750E+00  5.14488E+00  8.90199E+00 -2.02479E+00 -5.49400E-01  8.72511E+00  1.68960E+00  6.67932E+00  7.93635E+00
   1.48748E+01  1.37492E+01  1.00850E+01  3.86048E+00  4.13977E+00  3.68740E+00 -2.71042E+00  8.36698E+00 -3.95411E+00 -1.94743E+00
  -9.72631E-01 -4.85453E+00  2.74922E+00 -5.06728E+00 -5.86425E+00  1.41057E-01 -8.19006E+00 -8.95529E+00  1.30767E-01 -9.53043E+00
  -5.87077E+00 -1.42264E+01 -2.27932E+01 -3.03586E+01 -1.17870E+01 -1.53305E+01 -2.84219E+01 -2.97933E+01 -1.67726E+01 -1.37876E+01
  -6.20335E+00 -7.15198E+00 -1.90987E+01 -5.43004E+00 -1.93056E+01 -3.77346E+00 -4.89454E+00 -1.24944E+01 -1.18339E+01 -9.66882E+00
  -4.67490E+00 -4.32176E+00 -6.06634E-01 -5.50671E+00 -1.38736E+00 -5.57034E+00 -1.06789E+01 -6.54984E+00 -1.29994E+01  1.80670E+00
   6.08292E+00  5.68943E+00  2.68840E+00 -1.95213E+00  3.47332E+00 -3.49315E+00 -8.58452E+00  3.67694E+00 -5.49693E+00 -1.33701E+00
  -1.85860E+00 -2.74145E+00  8.52663E+00  7.07487E+00  6.16666E+00  1.13723E+01  9.36695E+00  1.90574E+01  1.72712E+00 -9.24683E+00
   3.05472E+00 -6.41835E+00 -6.28883E+00  1.87012E+00 -5.71539E+00 -2.68956E+00  1.89116E+01  1.46150E+01 -4.81539E-01  3.58633E+00
   5.61830E+00  1.15131E+01  2.16250E+01  1.39687E+01  1.28069E+01  1.42108E+01  5.58848E+00  1.55808E+00  3.24878E+00  1.39412E+01
   1.18845E+01  1.34544E+00  5.60975E+00  2.02822E+00 -2.17800E+00  1.49700E+01  7.30302E+00  2.89967E+01  1.34309E+01  1.90094E+01
   3.40186E+01  2.26995E+01  3.58444E+01  3.36246E+01  5.16940E+01  6.34788E+01  6.71495E+01  8.47878E+01  8.48982E+01  8.76129E+01
   9.99397E+01  1.08175E+02  8.57267E+01  8.03110E+01  4.36155E+01  2.71141E+01  2.80734E+01  2.63796E+01  1.14223E+01  1.74249E+01
   1.84149E+01  5.04528E+00  1.07827E+00  1.75945E+01  1.35175E+01  4.58424E+00  8.18632E+00  4.06298E-01  4.96274E+00  1.02440E+01
   1.50662E+01  2.94212E+00 -3.22849E-01 -4.18268E+00  9.58582E-02 -2.80251E+00 -5.70241E-01 -4.18535E+00 -2.70645E+00 -2.64110E+00
   7.44078E+00  2.56057E+00  4.83976E+00 -1.71124E+00  1.04819E+01  3.94023E+00  1.39284E+01  9.51562E+00  1.26784E+01  1.53179E+01
   1.30613E+01  1.56794E+01  1.92886E+01  1.19923E+01  2.08241E+01  2.44579E+01  2.58635E+01  2.85048E+01  2.63909E+01  2.79489E+01
   2.36904E+01  2.49022E+01  2.24051E+01  2.32477E+01  1.44952E+01  1.64840E+01  2.30282E+01  2.44524E+01  2.63462E+01  5.68365E+00
   2.88218E+01  1.75085E+01  1.04663E+01  1.49840E+01  2.18134E+01  2.36457E+01  1.62196E+01  1.79523E+01  3.74852E+01  2.89608E+01
   2.89454E+01  4.28419E+01  4.70607E+01  3.09981E+01  2.94968E+01  2.99368E+01  2.91915E+01  3.41906E+01  2.90106E+01  2.89675E+01
   3.09793E+01  3.19807E+01  3.65911E+01  3.19283E+01  2.79222E+01  1.97966E+01  2.57775E+01  2.18428E+01  2.08991E+01  1.81784E+01
   1.55443E+01  1.52472E+01  1.99202E+01  2.29757E+01  1.41956E+01  1.79399E+01  2.04071E+01  2.94298E+01  2.30299E+01  2.45689E+01
   2.52367E+01  3.15274E+01  2.54669E+01  2.10114E+01  1.94013E+01  1.48439E+01  1.41769E+01  1.27576E+01 -1.05445E+00  1.83094E+01
   1.00670E+01  1.57672E+01  1.53501E+01  1.07286E+01  1.27435E+01  2.25900E+00  8.40804E+00  2.48453E+00  9.85802E+00  4.23641E+00
   7.95079E+00  7.23437E+00  1.11920E+01  1.74179E+01  1.00988E+01  6.40428E+00  7.24617E+00  1.24825E+01  4.11401E+00  1.98639E+01
   1.14560E+01  1.76281E+01  1.53107E+01  1.49321E+01  1.40570E+01  2.34645E+01  9.52698E+00  1.18966E+01  1.90764E+01  2.33301E+01
   1.80741E+01  2.63805E+01  8.18276E+00  3.28726E+01  3.05470E+01  2.13559E+01  2.05945E+01  2.51681E+01  1.56694E+01  1.53912E+01
   1.98577E+01  2.62600E+01  8.95695E+00  2.59587E+01  1.89319E+01  2.81066E+01  5.93504E+00  1.21060E+01  1.17220E+01  1.60465E+01
  -4.62775E-01  1.13214E+01  1.37678E+01  8.06156E+00  1.75251E+01  8.76030E+00  1.11373E+01  6.44006E-01  8.02272E+00  5.82994E+00
   5.23522E+00  1.52331E+01  6.95990E+00 -1.24993E+00  9.83093E+00  1.94098E+01  1.25758E+01  1.56970E+01  1.66405E+01  1.76320E+01
   8.19612E+00  4.91463E+00  1.74631E+01  3.25968E+00  5.10763E+00  1.57517E+01  1.50911E+01  7.31409E+00  8.27457E+00  1.64024E+01
   1.27306E+01  1.31908E+01  1.86633E+01  8.31710E+00  1.06162E+01  9.97817E+00  8.90817E+00  3.69618E+00  8.72544E+00  1.79268E+00
   8.08368E+00  8.87333E+00  6.66131E+00  2.05550E+01  1.01148E+01  1.03200E+01  7.03783E+00  8.37768E+00  3.69409E+00 -1.98903E+00
   1.68712E+01  9.94210E+00  5.88615E+00  1.41208E+01  5.34750E+00 -7.35091E-02  2.28627E+01  1.94753E+01  1.19658E+01  1.32457E+01
   8.18597E+00  1.45592E+01  7.20560E+00  4.15664E+00  3.58905E+00  1.42806E+01  2.53681E+00  1.48806E+01  1.03828E+01 -6.08170E+00
   6.13934E+00  6.04301E+00  1.24405E+01  9.82905E+00  1.34859E+01  1.14588E+01  1.25465E+01  5.41210E+00
 NY points of the fit to the data follow
   5.08917E+00  3.41203E+00  2.91648E+00  3.47700E+00  4.81285E+00  6.64751E+00  8.79128E+00  1.12037E+01  1.38224E+01  1.66161E+01
   1.93890E+01  2.14290E+01  2.18255E+01  2.02083E+01  1.71239E+01  1.37692E+01  1.12148E+01  9.65766E+00  8.62542E+00  7.47065E+00
   6.00095E+00  4.89056E+00  4.74704E+00  5.37736E+00  6.46669E+00  7.89019E+00  9.59218E+00  1.15130E+01  1.37078E+01  1.61202E+01
   1.83182E+01  1.96617E+01  1.95775E+01  1.79325E+01  1.51902E+01  1.20809E+01  9.28786E+00  7.30556E+00  6.52545E+00  6.99904E+00
   8.44217E+00  1.05758E+01  1.30733E+01  1.57587E+01  1.84573E+01  2.09741E+01  2.30142E+01  2.40456E+01  2.34574E+01  2.09080E+01
   1.68433E+01  1.24608E+01  8.97587E+00  7.08659E+00  6.63236E+00  6.93352E+00  7.37254E+00  7.75746E+00  8.28012E+00  9.01110E+00
   9.62637E+00  9.69852E+00  9.06768E+00  8.02411E+00  6.99061E+00  6.35497E+00  6.37634E+00  7.02054E+00  7.95911E+00  8.84415E+00
   9.55875E+00  1.01087E+01  1.04597E+01  1.05941E+01  1.04428E+01  9.99248E+00  9.32636E+00  8.73445E+00  8.50590E+00  8.48412E+00
   8.61264E+00  8.89619E+00  9.25475E+00  9.63398E+00  9.88957E+00  9.86995E+00  9.42578E+00  8.40017E+00  6.78565E+00  4.91107E+00
   3.36090E+00  2.51913E+00  2.42280E+00  3.08923E+00  5.26979E+00  8.78607E+00  1.30651E+01  1.81139E+01  2.37868E+01  2.96235E+01
   3.53518E+01  4.07500E+01  4.51326E+01  4.71187E+01  4.53475E+01  3.97014E+01  3.16566E+01  2.35606E+01  1.72295E+01  1.29488E+01
   9.88966E+00  7.12438E+00  4.36353E+00  1.98418E+00  7.92766E-01  4.88287E-01  5.36175E-01  1.32817E+00  3.83984E+00  7.73126E+00
   1.24899E+01  1.79269E+01  2.38086E+01  2.98812E+01  3.59117E+01  4.14968E+01  4.56897E+01  4.70905E+01  4.46830E+01  3.87520E+01
   3.09636E+01  2.34830E+01  1.76973E+01  1.35946E+01  1.02801E+01  7.08634E+00  4.03296E+00  1.75603E+00  1.00631E+00  1.21054E+00
   1.71841E+00  2.18849E+00  2.41412E+00  2.34416E+00  2.07756E+00  1.74197E+00  1.38743E+00  1.05316E+00  7.40039E-01  4.19089E-01
   1.03670E-01 -2.00290E-01 -5.38640E-01 -8.72460E-01 -1.17375E+00 -1.41056E+00 -1.54047E+00 -1.63539E+00 -1.78340E+00 -2.02586E+00
  -2.35179E+00 -2.68260E+00 -2.89808E+00 -2.95042E+00 -2.93431E+00 -3.04393E+00 -3.43685E+00 -4.11424E+00 -4.88607E+00 -5.49710E+00
  -5.86467E+00 -6.07786E+00 -6.33354E+00 -6.67996E+00 -7.05542E+00 -7.34779E+00 -7.44116E+00 -7.33593E+00 -7.13919E+00 -6.93733E+00
  -6.78237E+00 -6.63564E+00 -6.31585E+00 -5.66221E+00 -4.70635E+00 -3.62631E+00 -2.54368E+00 -1.51811E+00 -5.00458E-01  4.32507E-01
   1.11540E+00  1.38113E+00  1.17775E+00  6.85664E-01  2.26118E-01  1.36558E-01  6.00923E-01  1.61308E+00  3.00305E+00  4.58452E+00
   6.03336E+00  6.83459E+00  6.86938E+00  6.08816E+00  4.43122E+00  2.13651E+00 -3.55346E-01 -2.44012E+00 -3.75883E+00 -4.08567E+00
  -3.08365E+00 -7.63883E-01  2.34977E+00  5.35287E+00  7.45109E+00  8.31936E+00  7.86959E+00  6.08184E+00  3.30854E+00  2.41777E-01
  -2.35814E+00 -3.95416E+00 -4.14368E+00 -2.93445E+00 -6.66993E-01  2.10833E+00  4.66775E+00  6.51396E+00  7.51369E+00  7.89176E+00
   8.05244E+00  8.29970E+00  8.76686E+00  9.28256E+00  9.62801E+00  9.90996E+00  1.01983E+01  1.03905E+01  1.03813E+01  1.00950E+01
   9.46999E+00  8.57631E+00  7.66579E+00  7.12388E+00  7.29722E+00  8.19925E+00  9.65173E+00  1.15968E+01  1.38269E+01  1.61800E+01
   1.90165E+01  2.40915E+01  3.21673E+01  4.18253E+01  5.22701E+01  6.29135E+01  7.29162E+01  8.16192E+01  8.88119E+01  9.41935E+01
   9.64773E+01  9.36819E+01  8.48790E+01  7.14490E+01  5.67225E+01  4.40836E+01  3.49712E+01  2.86693E+01  2.35000E+01  1.85027E+01
   1.39111E+01  1.10318E+01  1.00042E+01  9.54461E+00  9.25282E+00  8.99537E+00  8.67181E+00  8.24727E+00  7.78743E+00  7.34765E+00
   6.96324E+00  6.64435E+00  6.38878E+00  6.18809E+00  6.04472E+00  5.96342E+00  5.93964E+00  5.97162E+00  6.06771E+00  6.24201E+00
   6.50752E+00  6.87348E+00  7.34134E+00  7.91379E+00  8.59276E+00  9.37717E+00  1.02659E+01  1.12587E+01  1.23470E+01  1.35123E+01
   1.47298E+01  1.59671E+01  1.71856E+01  1.83462E+01  1.94090E+01  2.03367E+01  2.11011E+01  2.16826E+01  2.20708E+01  2.22641E+01
   2.22704E+01  2.21103E+01  2.18141E+01  2.14190E+01  2.09686E+01  2.05090E+01  2.00862E+01  1.97432E+01  1.95180E+01  1.94408E+01
   1.95337E+01  1.98084E+01  2.02668E+01  2.09002E+01  2.16911E+01  2.26134E+01  2.36350E+01  2.47183E+01  2.58232E+01  2.69086E+01
   2.79351E+01  2.88665E+01  2.96728E+01  3.03312E+01  3.08295E+01  3.11697E+01  3.13762E+01  3.15198E+01  3.17637E+01  3.20615E+01
   3.21104E+01  3.18455E+01  3.12417E+01  3.02540E+01  2.88359E+01  2.69351E+01  2.47267E+01  2.23388E+01  1.97487E+01  1.72729E+01
   1.54990E+01  1.49524E+01  1.58155E+01  1.78319E+01  2.04728E+01  2.31301E+01  2.52113E+01  2.62915E+01  2.62958E+01  2.53671E+01
   2.37941E+01  2.20496E+01  2.03567E+01  1.87077E+01  1.70448E+01  1.53796E+01  1.39398E+01  1.28635E+01  1.20503E+01  1.14297E+01
   1.09567E+01  1.05967E+01  1.03232E+01  1.01164E+01  9.96263E+00  9.85270E+00  9.78171E+00  9.74740E+00  9.74995E+00  9.79061E+00
   9.87190E+00  9.99666E+00  1.01684E+01  1.03907E+01  1.06670E+01  1.10005E+01  1.13939E+01  1.18488E+01  1.23663E+01  1.29454E+01
   1.35838E+01  1.42770E+01  1.50183E+01  1.57985E+01  1.66061E+01  1.74273E+01  1.82463E+01  1.90451E+01  1.98055E+01  2.05081E+01
   2.11347E+01  2.16677E+01  2.20921E+01  2.23954E+01  2.25689E+01  2.26076E+01  2.25111E+01  2.22828E+01  2.19302E+01  2.14644E+01
   2.08996E+01  2.02519E+01  1.95390E+01  1.87789E+01  1.79896E+01  1.71878E+01  1.63892E+01  1.56071E+01  1.48528E+01  1.41351E+01
   1.34606E+01  1.28335E+01  1.22564E+01  1.17298E+01  1.12532E+01  1.08245E+01  1.04412E+01  1.01001E+01  9.79788E+00  9.53073E+00
   9.29524E+00  9.08785E+00  8.90552E+00  8.74516E+00  8.60426E+00  8.48025E+00  8.37117E+00  8.27503E+00  8.19038E+00  8.11568E+00
   8.04986E+00  7.99171E+00  7.94046E+00  7.89522E+00  7.85546E+00  7.82046E+00  7.78984E+00  7.76298E+00  7.73967E+00  7.71944E+00
   7.70215E+00  7.68738E+00  7.67503E+00  7.66475E+00  7.65651E+00  7.65003E+00  7.64530E+00  7.64204E+00  7.64025E+00  7.63968E+00
   7.64040E+00  7.64220E+00  7.64512E+00  7.64895E+00  7.65374E+00  7.65930E+00  7.66574E+00  7.67286E+00  7.68075E+00  7.68921E+00
   7.69833E+00  7.70797E+00  7.71824E+00  7.72897E+00  7.74024E+00  7.75187E+00  7.76401E+00  7.77649E+00  7.78944E+00  7.80268E+00
   7.81631E+00  7.83018E+00  7.84443E+00  7.85892E+00  7.87376E+00  7.88878E+00  7.90410E+00  7.91957E+00  7.93534E+00  7.95127E+00
   7.96746E+00  7.98375E+00  8.00027E+00  8.01689E+00  8.03376E+00  8.05071E+00  8.06788E+00  8.08509E+00
 NY background values follow
    -5.601E+00   -5.575E+00   -5.549E+00   -5.523E+00   -5.497E+00   -5.471E+00   -5.445E+00   -5.419E+00   -5.392E+00   -5.366E+00
    -5.340E+00   -5.314E+00   -5.288E+00   -5.262E+00   -5.236E+00   -5.210E+00   -5.184E+00   -5.158E+00   -5.132E+00   -5.106E+00
    -5.080E+00   -5.054E+00   -5.028E+00   -5.002E+00   -4.975E+00   -4.949E+00   -4.923E+00   -4.897E+00   -4.871E+00   -4.845E+00
    -4.819E+00   -4.793E+00   -4.767E+00   -4.741E+00   -4.715E+00   -4.689E+00   -4.663E+00   -4.637E+00   -4.611E+00   -4.585E+00
    -4.559E+00   -4.532E+00   -4.506E+00   -4.480E+00   -4.454E+00   -4.428E+00   -4.402E+00   -4.376E+00   -4.350E+00   -4.324E+00
    -4.298E+00   -4.272E+00   -4.246E+00   -4.220E+00   -4.194E+00   -4.168E+00   -4.142E+00   -4.115E+00   -4.089E+00   -4.063E+00
    -4.037E+00   -4.011E+00   -3.985E+00   -3.959E+00   -3.933E+00   -3.907E+00   -3.881E+00   -3.855E+00   -3.829E+00   -3.803E+00
    -3.777E+00   -3.751E+00   -3.725E+00   -3.698E+00   -3.672E+00   -3.646E+00   -3.620E+00   -3.594E+00   -3.568E+00   -3.542E+00
    -3.516E+00   -3.490E+00   -3.464E+00   -3.438E+00   -3.412E+00   -3.386E+00   -3.360E+00   -3.334E+00   -3.307E+00   -3.281E+00
    -3.255E+00   -3.229E+00   -3.203E+00   -3.177E+00   -3.151E+00   -3.125E+00   -3.099E+00   -3.073E+00   -3.047E+00   -3.021E+00
    -2.995E+00   -2.969E+00   -2.943E+00   -2.917E+00   -2.890E+00   -2.864E+00   -2.838E+00   -2.812E+00   -2.786E+00   -2.760E+00
    -2.734E+00   -2.708E+00   -2.682E+00   -2.656E+00   -2.630E+00   -2.604E+00   -2.578E+00   -2.552E+00   -2.526E+00   -2.500E+00
    -2.473E+00   -2.447E+00   -2.421E+00   -2.395E+00   -2.369E+00   -2.343E+00   -2.317E+00   -2.291E+00   -2.265E+00   -2.239E+00
    -2.213E+00   -2.187E+00   -2.161E+00   -2.135E+00   -2.109E+00   -2.082E+00   -2.056E+00   -2.030E+00   -2.004E+00   -1.978E+00
    -1.952E+00   -1.926E+00   -1.900E+00   -1.874E+00   -1.848E+00   -1.822E+00   -1.796E+00   -1.770E+00   -1.744E+00   -1.718E+00
    -1.692E+00   -1.665E+00   -1.639E+00   -1.613E+00   -1.587E+00   -1.561E+00   -1.535E+00   -1.509E+00   -1.483E+00   -1.457E+00
    -1.431E+00   -1.405E+00   -1.379E+00   -1.353E+00   -1.327E+00   -1.301E+00   -1.274E+00   -1.248E+00   -1.222E+00   -1.196E+00
    -1.170E+00   -1.144E+00   -1.118E+00   -1.092E+00   -1.066E+00   -1.040E+00   -1.014E+00   -9.878E-01   -9.617E-01   -9.356E-01
    -9.096E-01   -8.835E-01   -8.574E-01   -8.314E-01   -8.053E-01   -7.792E-01   -7.532E-01   -7.271E-01   -7.010E-01   -6.750E-01
    -6.489E-01   -6.228E-01   -5.968E-01   -5.707E-01   -5.446E-01   -5.186E-01   -4.925E-01   -4.665E-01   -4.404E-01   -4.143E-01
    -3.883E-01   -3.622E-01   -3.361E-01   -3.101E-01   -2.840E-01   -2.579E-01   -2.319E-01   -2.058E-01   -1.797E-01   -1.537E-01
    -1.276E-01   -1.015E-01   -7.548E-02   -4.941E-02   -2.335E-02    2.719E-03    2.878E-02    5.485E-02    8.091E-02    1.070E-01
     1.330E-01    1.591E-01    1.852E-01    2.112E-01    2.373E-01    2.634E-01    2.894E-01    3.155E-01    3.416E-01    3.676E-01
     3.937E-01    4.198E-01    4.458E-01    4.719E-01    4.979E-01    5.240E-01    5.501E-01    5.761E-01    6.022E-01    6.283E-01
     6.543E-01    6.804E-01    7.065E-01    7.325E-01    7.586E-01    7.846E-01    8.107E-01    8.368E-01    8.628E-01    8.889E-01
     9.150E-01    9.410E-01    9.671E-01    9.932E-01    1.019E+00    1.045E+00    1.071E+00    1.097E+00    1.123E+00    1.150E+00
     1.176E+00    1.202E+00    1.228E+00    1.254E+00    1.280E+00    1.306E+00    1.332E+00    1.358E+00    1.384E+00    1.410E+00
     1.436E+00    1.462E+00    1.488E+00    1.514E+00    1.540E+00    1.567E+00    1.593E+00    1.619E+00    1.645E+00    1.671E+00
     1.697E+00    1.723E+00    1.749E+00    1.775E+00    1.801E+00    1.827E+00    1.853E+00    1.879E+00    1.905E+00    1.931E+00
     1.957E+00    1.983E+00    2.010E+00    2.036E+00    2.062E+00    2.088E+00    2.114E+00    2.140E+00    2.166E+00    2.192E+00
     2.218E+00    2.244E+00    2.270E+00    2.296E+00    2.322E+00    2.348E+00    2.374E+00    2.400E+00    2.426E+00    2.453E+00
     2.479E+00    2.505E+00    2.531E+00    2.557E+00    2.583E+00    2.609E+00    2.635E+00    2.661E+00    2.687E+00    2.713E+00
     2.739E+00    2.765E+00    2.791E+00    2.817E+00    2.843E+00    2.869E+00    2.895E+00    2.922E+00    2.948E+00    2.974E+00
     3.000E+00    3.026E+00    3.052E+00    3.078E+00    3.104E+00    3.130E+00    3.156E+00    3.182E+00    3.208E+00    3.234E+00
     3.260E+00    3.286E+00    3.312E+00    3.338E+00    3.364E+00    3.390E+00    3.417E+00    3.443E+00    3.469E+00    3.495E+00
     3.521E+00    3.547E+00    3.573E+00    3.599E+00    3.625E+00    3.651E+00    3.677E+00    3.703E+00    3.729E+00    3.755E+00
     3.781E+00    3.807E+00    3.833E+00    3.859E+00    3.885E+00    3.911E+00    3.937E+00    3.964E+00    3.990E+00    4.016E+00
     4.042E+00    4.068E+00    4.094E+00    4.120E+00    4.146E+00    4.172E+00    4.198E+00    4.224E+00    4.250E+00    4.276E+00
     4.302E+00    4.328E+00    4.354E+00    4.380E+00    4.406E+00    4.432E+00    4.458E+00    4.484E+00    4.510E+00    4.536E+00
     4.562E+00    4.589E+00    4.615E+00    4.641E+00    4.667E+00    4.693E+00    4.719E+00    4.745E+00    4.771E+00    4.797E+00
     4.823E+00    4.849E+00    4.875E+00    4.901E+00    4.927E+00    4.953E+00    4.979E+00    5.005E+00    5.031E+00    5.057E+00
     5.083E+00    5.109E+00    5.135E+00    5.161E+00    5.187E+00    5.213E+00    5.239E+00    5.265E+00    5.291E+00    5.317E+00
     5.343E+00    5.370E+00    5.396E+00    5.422E+00    5.448E+00    5.474E+00    5.500E+00    5.526E+00    5.552E+00    5.578E+00
     5.604E+00    5.630E+00    5.656E+00    5.682E+00    5.708E+00    5.734E+00    5.760E+00    5.786E+00    5.812E+00    5.838E+00
     5.864E+00    5.890E+00    5.916E+00    5.942E+00    5.968E+00    5.994E+00    6.020E+00    6.046E+00    6.072E+00    6.098E+00
     6.124E+00    6.150E+00    6.176E+00    6.202E+00    6.228E+00    6.254E+00    6.280E+00    6.306E+00    6.332E+00    6.358E+00
     6.384E+00    6.410E+00    6.436E+00    6.462E+00    6.488E+00    6.514E+00    6.540E+00    6.566E+00    6.592E+00    6.618E+00
     6.644E+00    6.670E+00    6.696E+00    6.723E+00    6.749E+00    6.775E+00    6.801E+00    6.827E+00    6.853E+00    6.879E+00
     6.905E+00    6.931E+00    6.957E+00    6.983E+00    7.009E+00    7.035E+00    7.061E+00    7.087E+00    7.113E+00    7.139E+00
     7.165E+00    7.191E+00    7.217E+00    7.243E+00    7.269E+00    7.295E+00    7.321E+00    7.347E+00
 Cr       Conc. = 1.55E+03
