 LCModel (Version 6.3-1L) Copyright: S.W. Provencher.          Ref.: Magn. Reson. Med. 30:672-679 (1993).                
 Slice#1 Row#9 Col#2  PD_05_press_2_raw_act
 36 lines in following concentration table = NCONC+1
    Conc.  %SD /Cr+PCr  Metabolite                                         
  113.879  57%   0.478 Ala                                                 
   46.625  24%   0.196 Asp                                                 
  238.458  22%   1.000 Cr                                                  
    0.000 999%   0.000 PCr                                                 
   27.383  24%   0.115 GABA                                                
   27.737  24%   0.116 Glc                                                 
  380.595  35%   1.596 Gln                                                 
  327.911  40%   1.375 Glu                                                 
    0.000 999%   0.000 GPC                                                 
   53.657  26%   0.225 PCh                                                 
   25.796 138%   0.108 GSH                                                 
  505.212  31%   2.119 Ins                                                 
    4.108 999% 1.7E-02 Lac                                                 
  526.333  20%   2.207 NAA                                                 
    0.000 999%   0.000 NAAG                                                
    9.300  24% 3.9E-02 Scyllo                                              
   45.857  24%   0.192 Tau                                                 
   26.094  34%   0.109 -CrCH2                                              
   53.657  26%   0.225 GPC+PCh                                             
  526.333  20%   2.207 NAA+NAAG                                            
  238.458  22%   1.000 Cr+PCr                                              
  708.506  30%   2.971 Glu+Gln                                             
 2.12E+04  16%  88.716 Lip13a                                              
    0.000 999%   0.000 Lip13b                                              
 7.88E+03  16%  33.026 Lip09                                               
 4.67E+03  17%  19.592 MM09                                                
 5.39E+03  15%  22.595 Lip20                                               
 2.58E+03  36%  10.810 MM20                                                
    0.000 999%   0.000 MM12                                                
 1.58E+04  16%  66.416 MM14                                                
 1.11E+04  24%  46.752 MM17                                                
 2.12E+04  16%  88.716 Lip13a+Lip13b                                       
 3.70E+04  11% 155.132 MM14+Lip13a+Lip13b+MM12                             
 1.25E+04  12%  52.618 MM09+Lip09                                          
 7.97E+03  10%  33.405 MM20+Lip20                                          
   6 lines in following misc. output table
  FWHM = 0.153 ppm    S/N =  20                                            
  Data shift = 0.046 ppm                                                   
  Ph: 176 deg      35.9 deg/ppm                                            
  alphaB,S = 3.8E-01,   5.8E+00                                            
    8 spline knots.   Ns = 9(2)                                            
   8 inflections.     4 extrema                                            
  498 points on ppm-axis = NY
      4.000000     3.992357     3.984714     3.977070     3.969427     3.961784     3.954141     3.946497     3.938854     3.931211
      3.923568     3.915925     3.908281     3.900638     3.892995     3.885352     3.877708     3.870065     3.862422     3.854779
      3.847136     3.839492     3.831849     3.824206     3.816563     3.808919     3.801276     3.793633     3.785990     3.778347
      3.770703     3.763060     3.755417     3.747774     3.740130     3.732487     3.724844     3.717201     3.709558     3.701914
      3.694271     3.686628     3.678985     3.671341     3.663698     3.656055     3.648412     3.640769     3.633125     3.625482
      3.617839     3.610196     3.602552     3.594909     3.587266     3.579623     3.571980     3.564336     3.556693     3.549050
      3.541407     3.533763     3.526120     3.518477     3.510834     3.503191     3.495547     3.487904     3.480261     3.472618
      3.464974     3.457331     3.449688     3.442045     3.434402     3.426758     3.419115     3.411472     3.403829     3.396185
      3.388542     3.380899     3.373256     3.365613     3.357969     3.350326     3.342683     3.335040     3.327396     3.319753
      3.312110     3.304467     3.296824     3.289180     3.281537     3.273894     3.266251     3.258607     3.250964     3.243321
      3.235678     3.228034     3.220391     3.212748     3.205105     3.197462     3.189818     3.182175     3.174532     3.166889
      3.159245     3.151602     3.143959     3.136316     3.128673     3.121029     3.113386     3.105743     3.098100     3.090456
      3.082813     3.075170     3.067527     3.059884     3.052240     3.044597     3.036954     3.029311     3.021667     3.014024
      3.006381     2.998738     2.991095     2.983451     2.975808     2.968165     2.960522     2.952878     2.945235     2.937592
      2.929949     2.922306     2.914662     2.907019     2.899376     2.891733     2.884089     2.876446     2.868803     2.861160
      2.853517     2.845873     2.838230     2.830587     2.822944     2.815300     2.807657     2.800014     2.792371     2.784728
      2.777084     2.769441     2.761798     2.754155     2.746511     2.738868     2.731225     2.723582     2.715939     2.708295
      2.700652     2.693009     2.685366     2.677722     2.670079     2.662436     2.654793     2.647150     2.639506     2.631863
      2.624220     2.616577     2.608933     2.601290     2.593647     2.586004     2.578361     2.570717     2.563074     2.555431
      2.547788     2.540144     2.532501     2.524858     2.517215     2.509572     2.501928     2.494285     2.486642     2.478999
      2.471355     2.463712     2.456069     2.448426     2.440783     2.433139     2.425496     2.417853     2.410210     2.402566
      2.394923     2.387280     2.379637     2.371994     2.364350     2.356707     2.349064     2.341421     2.333777     2.326134
      2.318491     2.310848     2.303205     2.295561     2.287918     2.280275     2.272632     2.264988     2.257345     2.249702
      2.242059     2.234416     2.226772     2.219129     2.211486     2.203843     2.196199     2.188556     2.180913     2.173270
      2.165627     2.157983     2.150340     2.142697     2.135054     2.127410     2.119767     2.112124     2.104481     2.096838
      2.089194     2.081551     2.073908     2.066265     2.058621     2.050978     2.043335     2.035692     2.028049     2.020405
      2.012762     2.005119     1.997476     1.989833     1.982190     1.974546     1.966903     1.959260     1.951617     1.943974
      1.936331     1.928688     1.921045     1.913402     1.905759     1.898115     1.890472     1.882829     1.875186     1.867543
      1.859900     1.852257     1.844614     1.836971     1.829327     1.821684     1.814041     1.806398     1.798755     1.791112
      1.783469     1.775826     1.768183     1.760540     1.752896     1.745253     1.737610     1.729967     1.722324     1.714681
      1.707038     1.699395     1.691752     1.684108     1.676465     1.668822     1.661179     1.653536     1.645893     1.638250
      1.630607     1.622964     1.615321     1.607677     1.600034     1.592391     1.584748     1.577105     1.569462     1.561819
      1.554176     1.546533     1.538890     1.531246     1.523603     1.515960     1.508317     1.500674     1.493031     1.485388
      1.477745     1.470102     1.462458     1.454815     1.447172     1.439529     1.431886     1.424243     1.416600     1.408957
      1.401314     1.393671     1.386027     1.378384     1.370741     1.363098     1.355455     1.347812     1.340169     1.332526
      1.324883     1.317240     1.309596     1.301953     1.294310     1.286667     1.279024     1.271381     1.263738     1.256095
      1.248452     1.240808     1.233165     1.225522     1.217879     1.210236     1.202593     1.194950     1.187307     1.179664
      1.172021     1.164377     1.156734     1.149091     1.141448     1.133805     1.126162     1.118519     1.110876     1.103233
      1.095590     1.087946     1.080303     1.072660     1.065017     1.057374     1.049731     1.042088     1.034445     1.026802
      1.019158     1.011515     1.003872     0.996229     0.988586     0.980943     0.973300     0.965657     0.958014     0.950371
      0.942727     0.935084     0.927441     0.919798     0.912155     0.904512     0.896869     0.889226     0.881583     0.873940
      0.866296     0.858653     0.851010     0.843367     0.835724     0.828081     0.820438     0.812795     0.805152     0.797508
      0.789865     0.782222     0.774579     0.766936     0.759293     0.751650     0.744007     0.736364     0.728721     0.721077
      0.713434     0.705791     0.698148     0.690505     0.682862     0.675219     0.667576     0.659933     0.652290     0.644646
      0.637003     0.629360     0.621717     0.614074     0.606431     0.598788     0.591145     0.583502     0.575858     0.568215
      0.560572     0.552929     0.545286     0.537643     0.530000     0.522357     0.514714     0.507071     0.499427     0.491784
      0.484141     0.476498     0.468855     0.461212     0.453569     0.445925     0.438282     0.430639     0.422996     0.415353
      0.407710     0.400067     0.392424     0.384780     0.377137     0.369494     0.361851     0.354208     0.346565     0.338922
      0.331278     0.323635     0.315992     0.308349     0.300706     0.293063     0.285420     0.277777     0.270133     0.262490
      0.254847     0.247204     0.239561     0.231918     0.224275     0.216631     0.208988     0.201345
 NY phased data points follow
   4.48820E+01  3.68708E+01  3.52237E+01  3.54078E+01  3.32692E+01  3.00961E+01  2.86385E+01  3.04996E+01  2.96497E+01  2.78707E+01
   3.72297E+01  3.07788E+01  3.52118E+01  4.18993E+01  3.06059E+01  3.51050E+01  3.91907E+01  3.91211E+01  3.84671E+01  3.58079E+01
   3.29384E+01  3.25928E+01  3.22297E+01  3.37635E+01  3.06788E+01  2.63735E+01  2.61137E+01  2.82890E+01  2.44121E+01  3.23067E+01
   2.94143E+01  2.78333E+01  2.43876E+01  2.30325E+01  2.40610E+01  2.45936E+01  2.52466E+01  2.75891E+01  3.16301E+01  2.66972E+01
   2.48276E+01  2.06611E+01  2.43869E+01  2.14710E+01  2.51172E+01  2.37772E+01  2.07868E+01  2.49740E+01  2.81461E+01  2.93762E+01
   2.36750E+01  2.72508E+01  2.55416E+01  2.44698E+01  2.24084E+01  1.79520E+01  2.22669E+01  2.17763E+01  2.36993E+01  2.36011E+01
   2.41258E+01  2.37740E+01  2.77574E+01  2.60621E+01  2.91447E+01  1.67975E+01  1.77032E+01  1.97199E+01  2.02665E+01  1.16037E+01
   1.79377E+01  1.27294E+01  1.64723E+01  1.64117E+01  9.50904E+00  1.78323E+01  1.90659E+01  1.53894E+01  1.43743E+01  1.23236E+01
   1.06684E+01  1.44486E+01  1.28879E+01  1.34815E+01  1.48901E+01  1.11428E+01  1.71100E+01  7.33580E+00  7.99882E+00  1.01304E+01
   3.68319E+00  7.86446E+00  6.10117E+00  4.72953E+00  4.74467E+00  6.77959E+00  1.59631E+00 -2.85782E+00 -7.99382E+00 -9.51661E+00
  -6.51668E+00 -9.80206E-01  1.05827E+01  5.53245E+00  5.76332E+00  1.26101E+01  1.15004E+01  2.59861E+00  1.63486E+00  7.85259E+00
   2.25489E+00  3.35450E-01 -2.49914E+00  6.44141E+00  4.43404E+00  6.96839E+00  2.66016E+00  2.08514E+00 -1.88970E+00 -1.77184E+00
  -1.73037E+01 -1.40724E+01 -1.66155E+01 -1.27786E+01 -9.16027E+00 -8.16029E+00 -7.50482E-01  6.59527E+00  6.22129E+00  7.10557E+00
   1.30369E+01  6.89277E+00  4.73332E+00  8.53340E+00  8.41576E+00  6.98930E+00  3.80963E+00  7.00720E+00  7.83982E+00  8.68133E+00
   8.04209E+00  7.88624E+00  2.59846E+00  1.00631E+01  9.93152E+00 -4.13606E+00  5.97955E+00  4.51516E+00  3.05542E+00  5.88469E-01
   2.10308E+00  1.56813E+00 -3.40813E+00 -2.39656E+00 -3.24270E+00 -3.14544E+00  2.85987E+00 -3.02015E+00 -5.74175E+00 -8.28568E+00
  -2.15494E+00 -2.14644E+00 -8.99215E+00 -8.49194E+00 -7.32616E+00 -8.58856E+00 -6.06909E+00 -1.11818E+01 -3.51218E+00 -3.51287E+00
  -5.24325E+00 -1.17382E+01 -9.80465E+00 -1.03657E+01 -1.67831E+01 -1.70374E+01 -1.43192E+01 -1.65746E+01 -1.71991E+01 -2.13752E+01
  -1.85292E+01 -1.61138E+01 -2.20930E+01 -1.46552E+01 -1.83597E+01 -1.39982E+01 -1.42620E+01 -1.86072E+01 -1.68325E+01 -2.74125E+01
  -2.01534E+01 -2.01736E+01 -1.73855E+01 -1.65423E+01 -1.69325E+01 -2.25340E+01 -2.36689E+01 -2.01410E+01 -2.37514E+01 -1.81653E+01
  -2.12953E+01 -2.02717E+01 -2.09714E+01 -1.81562E+01 -1.44335E+01 -1.95366E+01 -2.04762E+01 -2.64644E+01 -2.30298E+01 -1.62275E+01
  -2.25396E+01 -2.46518E+01 -1.22775E+01 -1.03499E+01 -6.13995E+00 -8.33788E+00 -8.45996E+00 -2.50446E+00  6.00130E-01  7.75152E-01
  -7.61556E+00 -7.83028E+00 -6.57183E+00 -5.93975E+00 -2.38921E+00 -5.98879E-01 -3.23340E+00  3.22768E+00  8.30361E+00  6.28601E+00
   1.53339E+01  1.13711E+01  7.99960E+00  1.02233E+01  1.19622E+01  1.41068E+01  1.39455E+01  1.00346E+01  1.40455E+01  1.11131E+01
   4.21783E+00  1.00248E+01  6.84112E+00  3.69081E+00  4.29123E+00  5.43916E+00  4.60444E+00  1.68695E+00  2.70472E+00 -5.61493E+00
   2.06551E+00 -7.60238E+00 -7.33854E+00 -1.57034E+01 -1.90082E+01 -1.15664E+01 -9.28797E-02  2.42850E+01  3.30696E+01  3.89336E+01
   4.12630E+01  4.52087E+01  3.84985E+01  4.15148E+01  3.44327E+01  3.77560E+01  3.08169E+01  2.71986E+01  1.83907E+01  2.71564E+01
   1.86015E+01  2.03454E+01  1.43076E+01  1.32816E+01  1.65293E+01  1.57057E+01  1.94908E+01  2.10536E+01  1.87837E+01  2.03274E+01
   1.88366E+01  1.49766E+01  1.17916E+01  1.46274E+01  1.16273E+01  1.13416E+01  1.50525E+01  1.05838E+01  1.14494E+01  1.68791E+01
   1.12700E+01  1.48135E+01  1.54734E+01  2.04379E+01  8.04755E+00  1.72378E+01  1.50722E+01  1.95968E+01  2.35747E+01  1.84997E+01
   2.67266E+01  2.39330E+01  2.84951E+01  2.96692E+01  3.76297E+01  5.08263E+01  4.61163E+01  5.62366E+01  6.34445E+01  7.23919E+01
   7.99220E+01  8.85739E+01  9.77292E+01  1.05489E+02  1.11016E+02  1.27491E+02  1.43506E+02  1.52394E+02  1.57557E+02  1.71372E+02
   1.76831E+02  1.86085E+02  2.02569E+02  2.06969E+02  2.05725E+02  2.17985E+02  2.10904E+02  2.12981E+02  2.16668E+02  2.10146E+02
   2.00931E+02  1.97566E+02  1.93886E+02  1.85349E+02  1.79033E+02  1.74340E+02  1.66789E+02  1.66534E+02  1.51633E+02  1.45298E+02
   1.36049E+02  1.38031E+02  1.30149E+02  1.20170E+02  1.16464E+02  1.15183E+02  1.12354E+02  1.07298E+02  1.05194E+02  1.01835E+02
   9.51351E+01  1.01722E+02  9.54002E+01  9.18695E+01  9.10429E+01  9.18211E+01  8.44363E+01  8.43563E+01  8.72877E+01  8.30342E+01
   8.81636E+01  8.95525E+01  7.76689E+01  8.65722E+01  8.76442E+01  8.09525E+01  8.64540E+01  8.41769E+01  8.46321E+01  8.86802E+01
   8.29350E+01  8.53546E+01  8.71364E+01  8.89762E+01  8.67196E+01  8.15277E+01  8.76244E+01  8.42534E+01  8.65735E+01  8.08418E+01
   8.15731E+01  8.84885E+01  8.56409E+01  9.05912E+01  8.92182E+01  8.57504E+01  9.56160E+01  9.44454E+01  9.16572E+01  9.11251E+01
   9.06037E+01  8.94625E+01  9.29533E+01  9.05813E+01  9.65807E+01  9.33017E+01  9.74627E+01  9.80832E+01  9.49431E+01  9.62134E+01
   9.46903E+01  9.15996E+01  9.56565E+01  8.53808E+01  9.36221E+01  9.47436E+01  8.28288E+01  9.12783E+01  8.46427E+01  8.77512E+01
   8.88383E+01  8.85518E+01  8.65921E+01  8.67707E+01  8.74966E+01  7.72698E+01  8.15073E+01  7.71758E+01  7.57654E+01  7.58051E+01
   7.36819E+01  7.41693E+01  7.41844E+01  7.28932E+01  7.02301E+01  7.25047E+01  6.67801E+01  5.89926E+01  6.41823E+01  6.35136E+01
   5.89903E+01  6.33083E+01  5.29625E+01  5.56868E+01  5.02062E+01  5.23215E+01  5.36802E+01  4.57833E+01  4.27116E+01  4.06387E+01
   4.68054E+01  4.13877E+01  4.07129E+01  3.69426E+01  3.89930E+01  3.14667E+01  2.65972E+01  2.84321E+01  2.31093E+01  2.68185E+01
   2.82542E+01  1.93097E+01  2.13588E+01  1.85096E+01  1.82835E+01  1.54162E+01  1.73698E+01  1.51881E+01  8.44600E+00  1.02925E+01
   9.73088E+00  5.85968E+00  7.71702E+00  8.03278E+00  1.10270E+01  2.85305E+00  9.27578E+00  5.48718E+00 -2.13875E-01 -5.29399E-01
  -2.12152E+00 -1.76669E+00 -6.95090E+00 -6.36348E+00 -4.79056E+00 -3.62406E+00 -3.97079E+00 -7.57912E+00 -2.08047E+00 -5.78610E+00
  -6.41567E+00  6.62373E-01 -1.04196E+01 -1.01224E+01 -6.66208E+00 -9.24572E+00 -1.26635E+01 -9.18156E+00 -4.16814E+00 -1.01606E+01
  -1.09484E+01 -9.07372E+00 -1.55333E+01 -1.19177E+01 -1.08110E+01 -1.15445E+01 -1.08628E+01 -1.55863E+01
 NY points of the fit to the data follow
   3.70257E+01  3.62780E+01  3.46599E+01  3.32826E+01  3.02723E+01  2.79532E+01  2.70257E+01  2.63984E+01  3.05876E+01  3.20820E+01
   3.67920E+01  3.82193E+01  3.99520E+01  3.95039E+01  3.86188E+01  3.80355E+01  3.66693E+01  3.60040E+01  3.53334E+01  3.50305E+01
   3.51703E+01  3.48204E+01  3.42121E+01  3.30643E+01  3.00221E+01  2.92717E+01  2.73154E+01  2.88850E+01  2.92366E+01  3.17777E+01
   3.20055E+01  3.24723E+01  3.03267E+01  2.92266E+01  2.88327E+01  2.80255E+01  2.72989E+01  2.62497E+01  2.51570E+01  2.35754E+01
   2.16035E+01  2.02628E+01  1.92444E+01  1.99685E+01  2.18072E+01  2.42997E+01  2.70100E+01  2.84543E+01  2.94573E+01  2.87206E+01
   2.76122E+01  2.54143E+01  2.35969E+01  2.19624E+01  2.02479E+01  1.96081E+01  1.96451E+01  2.00934E+01  2.10082E+01  2.11731E+01
   2.12950E+01  2.08535E+01  2.03396E+01  1.97864E+01  1.91473E+01  1.83745E+01  1.77775E+01  1.64030E+01  1.52728E+01  1.43840E+01
   1.48246E+01  1.53534E+01  1.57538E+01  1.60549E+01  1.59879E+01  1.59538E+01  1.56842E+01  1.54422E+01  1.50779E+01  1.49031E+01
   1.45776E+01  1.44514E+01  1.47323E+01  1.42937E+01  1.41009E+01  1.27902E+01  1.14952E+01  9.81354E+00  8.72243E+00  7.34016E+00
   6.81063E+00  5.92349E+00  5.19918E+00  4.39059E+00  3.19881E+00  2.05832E+00 -8.29163E-01 -2.20845E+00 -3.43278E+00 -3.40809E+00
   2.85717E-01  2.08655E+00  6.14553E+00  7.73846E+00  8.88516E+00  9.39549E+00  8.57536E+00  8.71228E+00  8.00270E+00  7.79340E+00
   5.78665E+00  5.19365E+00  3.37655E+00  2.92228E+00  1.66356E+00  1.03292E+00 -1.42002E+00 -2.47827E+00 -4.97737E+00 -6.29893E+00
  -1.05495E+01 -1.12669E+01 -1.29937E+01 -1.13731E+01 -7.27609E+00 -4.25937E+00  2.91620E+00  5.24764E+00  8.47024E+00  9.00519E+00
   9.41555E+00  8.88794E+00  8.50631E+00  7.40528E+00  6.13054E+00  5.05582E+00  3.98281E+00  3.46478E+00  3.52835E+00  3.14077E+00
   2.67020E+00  2.49790E+00  3.23871E+00  3.40632E+00  4.28452E+00  4.13885E+00  4.02654E+00  2.89285E+00 -6.84638E-02 -8.15657E-01
  -9.60593E-01 -1.01629E+00 -1.02639E+00 -9.33596E-01 -1.03948E+00 -1.11371E+00 -1.49611E+00 -2.32081E+00 -2.55827E+00 -3.56589E+00
  -3.58123E+00 -4.08434E+00 -4.28136E+00 -4.51276E+00 -5.11233E+00 -5.52345E+00 -6.31283E+00 -6.73736E+00 -7.45738E+00 -7.90762E+00
  -9.10568E+00 -9.76747E+00 -1.12889E+01 -1.16894E+01 -1.28362E+01 -1.32202E+01 -1.40146E+01 -1.48389E+01 -1.52690E+01 -1.60188E+01
  -1.63358E+01 -1.68698E+01 -1.73788E+01 -1.83723E+01 -1.86207E+01 -1.93860E+01 -1.89192E+01 -1.90814E+01 -1.82812E+01 -1.88457E+01
  -1.82295E+01 -1.91462E+01 -1.90304E+01 -1.99714E+01 -2.04838E+01 -2.07679E+01 -2.11104E+01 -2.01192E+01 -1.96282E+01 -1.72076E+01
  -1.51510E+01 -1.23141E+01 -1.03829E+01 -1.02617E+01 -1.02268E+01 -1.26720E+01 -1.48088E+01 -1.66112E+01 -1.95013E+01 -1.91381E+01
  -1.98541E+01 -1.72596E+01 -1.51686E+01 -1.21415E+01 -9.13212E+00 -7.19093E+00 -5.77249E+00 -5.98642E+00 -6.16484E+00 -7.49040E+00
  -7.69478E+00 -8.24312E+00 -7.63773E+00 -7.06591E+00 -6.11220E+00 -4.76698E+00 -3.45380E+00 -1.86283E+00 -6.29671E-01  7.52635E-01
   1.72147E+00  6.25144E-01  1.08449E+00  6.98569E-01  2.03828E+00  2.86674E+00  4.13901E+00  5.98115E+00  6.64793E+00  7.99514E+00
   7.69026E+00  8.48323E+00  6.96276E+00  7.08110E+00  6.07664E+00  5.57185E+00  5.45686E+00  4.95394E+00  4.41172E+00  3.16380E+00
   1.58860E+00 -1.22211E+00 -7.09726E+00 -1.09016E+01 -1.00456E+01 -8.50226E+00  7.37225E+00  1.45050E+01  2.97959E+01  3.65231E+01
   4.08569E+01  4.37724E+01  4.18802E+01  4.26513E+01  3.89896E+01  3.85766E+01  3.31368E+01  3.19185E+01  2.69749E+01  2.62545E+01
   2.40366E+01  2.39365E+01  2.05341E+01  2.04602E+01  1.98392E+01  2.07923E+01  2.06552E+01  2.14716E+01  1.97928E+01  1.87699E+01
   1.12870E+01  9.27075E+00  8.99240E+00  9.08996E+00  9.24359E+00  9.64313E+00  1.00635E+01  1.05452E+01  1.11145E+01  1.17661E+01
   1.24919E+01  1.32662E+01  1.41235E+01  1.50053E+01  1.59649E+01  1.70509E+01  1.82815E+01  1.96901E+01  2.13352E+01  2.32432E+01
   2.54808E+01  2.80948E+01  3.11266E+01  3.46624E+01  3.87520E+01  4.34634E+01  4.88448E+01  5.49506E+01  6.17798E+01  6.93327E+01
   7.77985E+01  8.69247E+01  9.67781E+01  1.07080E+02  1.17850E+02  1.28721E+02  1.39835E+02  1.50425E+02  1.60975E+02  1.70635E+02
   1.80555E+02  1.89407E+02  1.97767E+02  2.05054E+02  2.09817E+02  2.13514E+02  2.14235E+02  2.13504E+02  2.10556E+02  2.07027E+02
   2.01775E+02  1.97549E+02  1.91890E+02  1.86857E+02  1.81179E+02  1.75007E+02  1.68842E+02  1.61949E+02  1.55252E+02  1.48148E+02
   1.41813E+02  1.35256E+02  1.29295E+02  1.23413E+02  1.18047E+02  1.13076E+02  1.08693E+02  1.04327E+02  1.01410E+02  9.88535E+01
   9.68917E+01  9.52435E+01  9.41422E+01  9.31291E+01  9.25669E+01  9.13673E+01  9.04741E+01  8.98540E+01  8.93536E+01  8.89332E+01
   8.85491E+01  8.81818E+01  8.78038E+01  8.74142E+01  8.70005E+01  8.65739E+01  8.61250E+01  8.56581E+01  8.52157E+01  8.47940E+01
   8.43838E+01  8.40183E+01  8.36905E+01  8.34304E+01  8.32340E+01  8.31037E+01  8.30784E+01  8.31653E+01  8.33675E+01  8.36909E+01
   8.41353E+01  8.47008E+01  8.53803E+01  8.61661E+01  8.70428E+01  8.79943E+01  8.89974E+01  9.00290E+01  9.10599E+01  9.20626E+01
   9.30061E+01  9.38630E+01  9.46049E+01  9.52102E+01  9.56583E+01  9.59374E+01  9.60385E+01  9.59623E+01  9.57126E+01  9.53026E+01
   9.47476E+01  9.40703E+01  9.32927E+01  9.24415E+01  9.15399E+01  9.06128E+01  8.96789E+01  8.87564E+01  8.78554E+01  8.69843E+01
   8.61433E+01  8.53307E+01  8.45369E+01  8.37522E+01  8.29604E+01  8.21465E+01  8.12919E+01  8.03807E+01  7.93953E+01  7.83229E+01
   7.71499E+01  7.58695E+01  7.44745E+01  7.29647E+01  7.13402E+01  6.96075E+01  6.77728E+01  6.58482E+01  6.38445E+01  6.17772E+01
   5.96595E+01  5.75080E+01  5.53362E+01  5.31601E+01  5.09914E+01  4.88439E+01  4.67265E+01  4.46500E+01  4.26202E+01  4.06446E+01
   3.87259E+01  3.68684E+01  3.50722E+01  3.33394E+01  3.16678E+01  3.00579E+01  2.85062E+01  2.70119E+01  2.55709E+01  2.41817E+01
   2.28401E+01  2.15444E+01  2.02903E+01  1.90764E+01  1.78983E+01  1.67552E+01  1.56429E+01  1.45608E+01  1.35053E+01  1.24759E+01
   1.14694E+01  1.04858E+01  9.52217E+00  8.57865E+00  7.65256E+00  6.74441E+00  5.85176E+00  4.97534E+00  4.11287E+00  3.26525E+00
   2.43034E+00  1.60921E+00  7.99908E-01  3.60618E-03 -7.81553E-01 -1.55435E+00 -2.31653E+00 -3.06674E+00 -3.80664E+00 -4.53483E+00
  -5.25295E+00 -5.95955E+00 -6.65619E+00 -7.34134E+00 -8.01652E+00 -8.68019E+00 -9.33386E+00 -9.97597E+00 -1.06079E+01 -1.12282E+01
  -1.18381E+01 -1.24362E+01 -1.30237E+01 -1.35992E+01 -1.41640E+01 -1.47164E+01 -1.52580E+01 -1.57871E+01
 NY background values follow
     3.561E+01    3.541E+01    3.520E+01    3.499E+01    3.478E+01    3.456E+01    3.434E+01    3.411E+01    3.388E+01    3.365E+01
     3.342E+01    3.318E+01    3.294E+01    3.269E+01    3.244E+01    3.219E+01    3.194E+01    3.168E+01    3.142E+01    3.116E+01
     3.089E+01    3.062E+01    3.035E+01    3.008E+01    2.980E+01    2.952E+01    2.924E+01    2.895E+01    2.866E+01    2.837E+01
     2.808E+01    2.778E+01    2.749E+01    2.719E+01    2.688E+01    2.658E+01    2.627E+01    2.596E+01    2.565E+01    2.534E+01
     2.502E+01    2.470E+01    2.438E+01    2.406E+01    2.374E+01    2.341E+01    2.308E+01    2.275E+01    2.242E+01    2.209E+01
     2.176E+01    2.142E+01    2.108E+01    2.074E+01    2.040E+01    2.006E+01    1.971E+01    1.937E+01    1.902E+01    1.867E+01
     1.832E+01    1.797E+01    1.762E+01    1.727E+01    1.692E+01    1.656E+01    1.620E+01    1.585E+01    1.549E+01    1.513E+01
     1.477E+01    1.441E+01    1.405E+01    1.368E+01    1.332E+01    1.296E+01    1.259E+01    1.223E+01    1.186E+01    1.149E+01
     1.113E+01    1.076E+01    1.039E+01    1.002E+01    9.656E+00    9.288E+00    8.919E+00    8.550E+00    8.181E+00    7.811E+00
     7.442E+00    7.072E+00    6.703E+00    6.334E+00    5.964E+00    5.595E+00    5.226E+00    4.857E+00    4.489E+00    4.121E+00
     3.753E+00    3.385E+00    3.018E+00    2.651E+00    2.285E+00    1.920E+00    1.555E+00    1.191E+00    8.282E-01    4.659E-01
     1.045E-01   -2.559E-01   -6.152E-01   -9.734E-01   -1.330E+00   -1.686E+00   -2.041E+00   -2.394E+00   -2.746E+00   -3.096E+00
    -3.445E+00   -3.792E+00   -4.137E+00   -4.481E+00   -4.823E+00   -5.163E+00   -5.501E+00   -5.837E+00   -6.171E+00   -6.503E+00
    -6.833E+00   -7.161E+00   -7.486E+00   -7.810E+00   -8.130E+00   -8.449E+00   -8.764E+00   -9.077E+00   -9.388E+00   -9.696E+00
    -1.000E+01   -1.030E+01   -1.060E+01   -1.090E+01   -1.119E+01   -1.148E+01   -1.177E+01   -1.205E+01   -1.233E+01   -1.261E+01
    -1.289E+01   -1.316E+01   -1.342E+01   -1.369E+01   -1.395E+01   -1.420E+01   -1.446E+01   -1.471E+01   -1.495E+01   -1.519E+01
    -1.543E+01   -1.566E+01   -1.589E+01   -1.611E+01   -1.633E+01   -1.655E+01   -1.676E+01   -1.697E+01   -1.717E+01   -1.737E+01
    -1.757E+01   -1.775E+01   -1.794E+01   -1.812E+01   -1.829E+01   -1.846E+01   -1.863E+01   -1.879E+01   -1.894E+01   -1.909E+01
    -1.924E+01   -1.938E+01   -1.951E+01   -1.964E+01   -1.976E+01   -1.988E+01   -1.999E+01   -2.010E+01   -2.020E+01   -2.029E+01
    -2.038E+01   -2.047E+01   -2.054E+01   -2.061E+01   -2.068E+01   -2.074E+01   -2.079E+01   -2.084E+01   -2.088E+01   -2.091E+01
    -2.094E+01   -2.096E+01   -2.098E+01   -2.099E+01   -2.099E+01   -2.098E+01   -2.097E+01   -2.096E+01   -2.093E+01   -2.091E+01
    -2.087E+01   -2.083E+01   -2.078E+01   -2.073E+01   -2.067E+01   -2.060E+01   -2.053E+01   -2.046E+01   -2.037E+01   -2.028E+01
    -2.019E+01   -2.009E+01   -1.998E+01   -1.987E+01   -1.975E+01   -1.962E+01   -1.949E+01   -1.936E+01   -1.922E+01   -1.907E+01
    -1.892E+01   -1.876E+01   -1.860E+01   -1.843E+01   -1.825E+01   -1.807E+01   -1.788E+01   -1.769E+01   -1.750E+01   -1.729E+01
    -1.709E+01   -1.687E+01   -1.665E+01   -1.643E+01   -1.620E+01   -1.597E+01   -1.573E+01   -1.548E+01   -1.523E+01   -1.498E+01
    -1.472E+01   -1.445E+01   -1.418E+01   -1.391E+01   -1.363E+01   -1.334E+01   -1.305E+01   -1.275E+01   -1.245E+01   -1.215E+01
    -1.184E+01   -1.152E+01   -1.120E+01   -1.088E+01   -1.055E+01   -1.021E+01   -9.875E+00   -9.531E+00   -9.183E+00   -8.830E+00
    -8.473E+00   -8.110E+00   -7.744E+00   -7.372E+00   -6.996E+00   -6.616E+00   -6.231E+00   -5.842E+00   -5.448E+00   -5.050E+00
    -4.648E+00   -4.241E+00   -3.830E+00   -3.414E+00   -2.995E+00   -2.571E+00   -2.143E+00   -1.710E+00   -1.274E+00   -8.332E-01
    -3.884E-01    6.038E-02    5.133E-01    9.702E-01    1.431E+00    1.896E+00    2.365E+00    2.838E+00    3.314E+00    3.795E+00
     4.279E+00    4.767E+00    5.258E+00    5.752E+00    6.249E+00    6.749E+00    7.251E+00    7.756E+00    8.263E+00    8.771E+00
     9.281E+00    9.792E+00    1.031E+01    1.082E+01    1.133E+01    1.185E+01    1.236E+01    1.288E+01    1.340E+01    1.391E+01
     1.443E+01    1.494E+01    1.545E+01    1.597E+01    1.648E+01    1.699E+01    1.750E+01    1.800E+01    1.851E+01    1.901E+01
     1.951E+01    2.001E+01    2.050E+01    2.099E+01    2.148E+01    2.196E+01    2.244E+01    2.292E+01    2.339E+01    2.386E+01
     2.432E+01    2.478E+01    2.524E+01    2.568E+01    2.613E+01    2.656E+01    2.700E+01    2.742E+01    2.784E+01    2.825E+01
     2.866E+01    2.906E+01    2.945E+01    2.984E+01    3.022E+01    3.059E+01    3.095E+01    3.131E+01    3.165E+01    3.199E+01
     3.232E+01    3.264E+01    3.295E+01    3.325E+01    3.354E+01    3.383E+01    3.410E+01    3.436E+01    3.461E+01    3.486E+01
     3.509E+01    3.531E+01    3.552E+01    3.571E+01    3.590E+01    3.607E+01    3.624E+01    3.639E+01    3.653E+01    3.665E+01
     3.676E+01    3.686E+01    3.695E+01    3.702E+01    3.708E+01    3.713E+01    3.716E+01    3.718E+01    3.718E+01    3.717E+01
     3.714E+01    3.710E+01    3.704E+01    3.697E+01    3.688E+01    3.678E+01    3.666E+01    3.652E+01    3.637E+01    3.620E+01
     3.601E+01    3.581E+01    3.560E+01    3.536E+01    3.512E+01    3.485E+01    3.458E+01    3.429E+01    3.398E+01    3.366E+01
     3.333E+01    3.298E+01    3.262E+01    3.225E+01    3.187E+01    3.147E+01    3.106E+01    3.064E+01    3.021E+01    2.977E+01
     2.932E+01    2.885E+01    2.838E+01    2.790E+01    2.740E+01    2.690E+01    2.639E+01    2.587E+01    2.534E+01    2.480E+01
     2.425E+01    2.370E+01    2.314E+01    2.257E+01    2.199E+01    2.141E+01    2.082E+01    2.023E+01    1.963E+01    1.902E+01
     1.841E+01    1.779E+01    1.717E+01    1.654E+01    1.591E+01    1.528E+01    1.464E+01    1.400E+01    1.335E+01    1.270E+01
     1.205E+01    1.140E+01    1.074E+01    1.008E+01    9.424E+00    8.763E+00    8.102E+00    7.439E+00    6.776E+00    6.113E+00
     5.450E+00    4.787E+00    4.124E+00    3.463E+00    2.802E+00    2.143E+00    1.485E+00    8.297E-01    1.762E-01   -4.749E-01
    -1.123E+00   -1.769E+00   -2.411E+00   -3.049E+00   -3.684E+00   -4.315E+00   -4.941E+00   -5.563E+00   -6.180E+00   -6.792E+00
    -7.399E+00   -8.000E+00   -8.595E+00   -9.183E+00   -9.766E+00   -1.034E+01   -1.091E+01   -1.147E+01   -1.202E+01   -1.257E+01
    -1.311E+01   -1.364E+01   -1.416E+01   -1.467E+01   -1.517E+01   -1.567E+01   -1.615E+01   -1.662E+01
 Ala      Conc. = 1.14E+02
