 LCModel (Version 6.3-1L) Copyright: S.W. Provencher.          Ref.: Magn. Reson. Med. 30:672-679 (1993).                
 Slice#3 Row#2 Col#9  PD_05_press_2_raw_act
 36 lines in following concentration table = NCONC+1
    Conc.  %SD /Cr+PCr  Metabolite                                         
 4.23E+03  25%  22.859 Ala                                                 
   50.753  37%   0.274 Asp                                                 
  184.914  85%   1.000 Cr                                                  
    0.000 999%   0.000 PCr                                                 
   30.366  37%   0.164 GABA                                                
   30.304  37%   0.164 Glc                                                 
  854.006 165%   4.618 Gln                                                 
    0.000 999%   0.000 Glu                                                 
    0.000 999%   0.000 GPC                                                 
   30.301 180%   0.164 PCh                                                 
  524.888  50%   2.839 GSH                                                 
    0.000 999%   0.000 Ins                                                 
 3.62E+03  22%  19.581 Lac                                                 
  306.843 131%   1.659 NAA                                                 
  430.627  96%   2.329 NAAG                                                
   10.071  37% 5.4E-02 Scyllo                                              
   50.457  37%   0.273 Tau                                                 
   19.534 117%   0.106 -CrCH2                                              
   30.301 180%   0.164 GPC+PCh                                             
  737.470  25%   3.988 NAA+NAAG                                            
  184.914  85%   1.000 Cr+PCr                                              
  854.006 165%   4.618 Glu+Gln                                             
    0.000 999%   0.000 Lip13a                                              
  369.026  66%   1.996 Lip13b                                              
    0.000 999%   0.000 Lip09                                               
  109.918 225%   0.594 MM09                                                
   85.225 241%   0.461 Lip20                                               
  166.060 226%   0.898 MM20                                                
   33.309 228%   0.180 MM12                                                
   98.055 203%   0.530 MM14                                                
   35.280 295%   0.191 MM17                                                
  369.026  66%   1.996 Lip13a+Lip13b                                       
  500.390  75%   2.706 MM14+Lip13a+Lip13b+MM12                             
  109.918 225%   0.594 MM09+Lip09                                          
  251.285 164%   1.359 MM20+Lip20                                          
   6 lines in following misc. output table
  FWHM = 0.138 ppm    S/N =   1                                            
  Data shift =-0.008 ppm                                                   
  Ph:  17 deg      -1.9 deg/ppm                                            
  alphaB,S = 8.5E+01,   1.0E+02                                            
   14 spline knots.   Ns = 7(2)                                            
   2 inflections.     1 extrema                                            
  498 points on ppm-axis = NY
      4.000000     3.992357     3.984714     3.977070     3.969427     3.961784     3.954141     3.946497     3.938854     3.931211
      3.923568     3.915925     3.908281     3.900638     3.892995     3.885352     3.877708     3.870065     3.862422     3.854779
      3.847136     3.839492     3.831849     3.824206     3.816563     3.808919     3.801276     3.793633     3.785990     3.778347
      3.770703     3.763060     3.755417     3.747774     3.740130     3.732487     3.724844     3.717201     3.709558     3.701914
      3.694271     3.686628     3.678985     3.671341     3.663698     3.656055     3.648412     3.640769     3.633125     3.625482
      3.617839     3.610196     3.602552     3.594909     3.587266     3.579623     3.571980     3.564336     3.556693     3.549050
      3.541407     3.533763     3.526120     3.518477     3.510834     3.503191     3.495547     3.487904     3.480261     3.472618
      3.464974     3.457331     3.449688     3.442045     3.434402     3.426758     3.419115     3.411472     3.403829     3.396185
      3.388542     3.380899     3.373256     3.365613     3.357969     3.350326     3.342683     3.335040     3.327396     3.319753
      3.312110     3.304467     3.296824     3.289180     3.281537     3.273894     3.266251     3.258607     3.250964     3.243321
      3.235678     3.228034     3.220391     3.212748     3.205105     3.197462     3.189818     3.182175     3.174532     3.166889
      3.159245     3.151602     3.143959     3.136316     3.128673     3.121029     3.113386     3.105743     3.098100     3.090456
      3.082813     3.075170     3.067527     3.059884     3.052240     3.044597     3.036954     3.029311     3.021667     3.014024
      3.006381     2.998738     2.991095     2.983451     2.975808     2.968165     2.960522     2.952878     2.945235     2.937592
      2.929949     2.922306     2.914662     2.907019     2.899376     2.891733     2.884089     2.876446     2.868803     2.861160
      2.853517     2.845873     2.838230     2.830587     2.822944     2.815300     2.807657     2.800014     2.792371     2.784728
      2.777084     2.769441     2.761798     2.754155     2.746511     2.738868     2.731225     2.723582     2.715939     2.708295
      2.700652     2.693009     2.685366     2.677722     2.670079     2.662436     2.654793     2.647150     2.639506     2.631863
      2.624220     2.616577     2.608933     2.601290     2.593647     2.586004     2.578361     2.570717     2.563074     2.555431
      2.547788     2.540144     2.532501     2.524858     2.517215     2.509572     2.501928     2.494285     2.486642     2.478999
      2.471355     2.463712     2.456069     2.448426     2.440783     2.433139     2.425496     2.417853     2.410210     2.402566
      2.394923     2.387280     2.379637     2.371994     2.364350     2.356707     2.349064     2.341421     2.333777     2.326134
      2.318491     2.310848     2.303205     2.295561     2.287918     2.280275     2.272632     2.264988     2.257345     2.249702
      2.242059     2.234416     2.226772     2.219129     2.211486     2.203843     2.196199     2.188556     2.180913     2.173270
      2.165627     2.157983     2.150340     2.142697     2.135054     2.127410     2.119767     2.112124     2.104481     2.096838
      2.089194     2.081551     2.073908     2.066265     2.058621     2.050978     2.043335     2.035692     2.028049     2.020405
      2.012762     2.005119     1.997476     1.989833     1.982190     1.974546     1.966903     1.959260     1.951617     1.943974
      1.936331     1.928688     1.921045     1.913402     1.905759     1.898115     1.890472     1.882829     1.875186     1.867543
      1.859900     1.852257     1.844614     1.836971     1.829327     1.821684     1.814041     1.806398     1.798755     1.791112
      1.783469     1.775826     1.768183     1.760540     1.752896     1.745253     1.737610     1.729967     1.722324     1.714681
      1.707038     1.699395     1.691752     1.684108     1.676465     1.668822     1.661179     1.653536     1.645893     1.638250
      1.630607     1.622964     1.615321     1.607677     1.600034     1.592391     1.584748     1.577105     1.569462     1.561819
      1.554176     1.546533     1.538890     1.531246     1.523603     1.515960     1.508317     1.500674     1.493031     1.485388
      1.477745     1.470102     1.462458     1.454815     1.447172     1.439529     1.431886     1.424243     1.416600     1.408957
      1.401314     1.393671     1.386027     1.378384     1.370741     1.363098     1.355455     1.347812     1.340169     1.332526
      1.324883     1.317240     1.309596     1.301953     1.294310     1.286667     1.279024     1.271381     1.263738     1.256095
      1.248452     1.240808     1.233165     1.225522     1.217879     1.210236     1.202593     1.194950     1.187307     1.179664
      1.172021     1.164377     1.156734     1.149091     1.141448     1.133805     1.126162     1.118519     1.110876     1.103233
      1.095590     1.087946     1.080303     1.072660     1.065017     1.057374     1.049731     1.042088     1.034445     1.026802
      1.019158     1.011515     1.003872     0.996229     0.988586     0.980943     0.973300     0.965657     0.958014     0.950371
      0.942727     0.935084     0.927441     0.919798     0.912155     0.904512     0.896869     0.889226     0.881583     0.873940
      0.866296     0.858653     0.851010     0.843367     0.835724     0.828081     0.820438     0.812795     0.805152     0.797508
      0.789865     0.782222     0.774579     0.766936     0.759293     0.751650     0.744007     0.736364     0.728721     0.721077
      0.713434     0.705791     0.698148     0.690505     0.682862     0.675219     0.667576     0.659933     0.652290     0.644646
      0.637003     0.629360     0.621717     0.614074     0.606431     0.598788     0.591145     0.583502     0.575858     0.568215
      0.560572     0.552929     0.545286     0.537643     0.530000     0.522357     0.514714     0.507071     0.499427     0.491784
      0.484141     0.476498     0.468855     0.461212     0.453569     0.445925     0.438282     0.430639     0.422996     0.415353
      0.407710     0.400067     0.392424     0.384780     0.377137     0.369494     0.361851     0.354208     0.346565     0.338922
      0.331278     0.323635     0.315992     0.308349     0.300706     0.293063     0.285420     0.277777     0.270133     0.262490
      0.254847     0.247204     0.239561     0.231918     0.224275     0.216631     0.208988     0.201345
 NY phased data points follow
  -2.03456E+01  4.13835E+00 -6.39109E+00 -4.23111E+00 -6.66711E+00 -1.19644E+01  1.13150E+01  1.96154E+00 -6.44274E+00 -1.44756E+01
  -1.88229E+01 -6.65117E+00 -7.87287E-01  1.38278E+01  9.93556E+00  2.48684E+00 -1.42201E+01 -5.31055E+00 -1.41806E+01  1.10464E+01
   1.45306E+00  2.46244E-01 -1.52855E-01 -5.89406E-01  1.04045E+01  3.45233E+00 -4.90169E+00  1.49683E+00 -1.09395E-01 -5.99265E-01
   1.65519E+01  4.29746E+00  1.36391E+01 -2.80788E+00  5.43696E-01  1.29818E+00 -1.00215E+01 -2.98381E+00 -1.98784E+01  6.57755E+00
   1.01101E+01  7.21560E+00 -1.18617E+01 -9.65567E+00  1.00304E+01  7.19460E+00 -9.85720E+00 -4.69348E-01 -2.94512E+00 -4.79045E+00
  -7.01085E+00 -1.22550E+01 -5.01533E+00  8.00334E+00 -2.45246E+00 -1.17829E+01 -6.79594E+00 -2.24056E+00  1.47459E+01 -5.33290E+00
  -1.85974E+00 -6.11684E+00 -8.36299E+00  8.15091E+00  2.30995E-01  8.13864E-01  8.08011E+00  7.34913E+00 -4.90796E+00  7.36819E+00
  -6.91826E+00 -8.27026E+00 -1.67759E+01 -2.77123E+00 -6.97800E-01 -8.14602E+00  4.21194E+00 -1.14663E+01 -1.09869E+01 -8.39713E+00
  -4.94735E+00 -7.41124E+00  3.77080E+00 -1.60158E-01 -3.03494E+00 -7.90947E+00 -3.64045E+00 -1.07446E+01  8.63925E-01 -1.18802E+00
  -1.54298E+01 -7.57602E+00  7.51642E+00 -1.12363E+01  1.55135E-01  7.78853E-01  5.01415E+00  2.81073E+00 -7.28051E+00 -2.73303E+00
  -5.46080E+00 -3.36024E+00  1.43696E+00 -1.26062E+00  6.24404E+00 -7.55267E+00  3.91691E-01  1.13285E+01  1.21010E+01 -1.48644E+01
   4.96467E+00 -1.15031E+00 -7.29270E+00 -7.59871E+00 -3.62479E+00 -3.42399E+00  7.20647E+00 -6.48678E+00 -3.35842E+00 -9.93713E-01
   6.19711E+00 -1.01449E+01  1.76278E+00  6.36293E+00  1.84945E+00 -5.44670E+00 -4.33792E+00  7.22916E+00  9.26512E+00  1.07472E+01
   1.84005E+01  2.22018E+00  5.81792E+00  5.25360E-01 -2.70194E+00  6.89945E+00 -2.60432E-01 -8.86828E+00 -4.80132E+00  2.37468E+00
  -8.88186E+00 -2.04439E+00  1.66831E+00  6.04947E+00 -1.47677E+01  1.44114E-01  1.05393E+01  1.62578E-01  2.24973E+00  4.46532E+00
   1.67534E+00 -6.69471E+00 -1.14895E+01 -5.59878E-01  2.53963E+00 -3.62059E+00 -1.87064E+00 -1.36697E+01 -4.85961E+00 -1.77705E+01
  -5.50159E+00  2.63435E+00 -5.89609E+00 -4.52158E+00  4.32438E+00  7.30598E+00  3.02439E+00 -1.14157E+01  2.08840E-01 -1.43322E+00
   1.84942E+00  4.66170E-01 -1.05956E+01 -1.61654E+01 -1.07279E+01  1.70837E+00 -8.19073E-02  1.26049E+00 -5.39478E+00 -5.27615E+00
  -9.37405E+00 -3.38677E+00 -7.64426E+00  8.68126E+00 -4.52139E+00  7.40815E+00  1.71222E+00 -5.64585E+00  1.46640E+00 -1.01476E+00
  -1.05345E+01  4.75908E+00  7.66138E+00  2.56412E+00  5.06847E+00  2.20737E+00  3.29933E+00  8.82083E+00  1.13345E+01  7.68258E+00
   2.09911E+00  1.20464E+00 -4.85683E+00  7.02842E+00  6.37752E+00 -2.54715E+00 -1.07010E+00 -2.24322E+00  9.74517E+00  6.28130E+00
   3.72557E+00  1.31722E-01 -1.42147E+00  8.04323E+00 -7.70727E-01 -3.07533E+00  5.68107E-02  3.50588E+00  2.32706E+00  1.75741E+00
   3.84672E+00  5.48284E+00 -9.45798E+00  1.18787E+01 -7.99200E+00  9.87282E+00  3.59515E+00  4.21440E+00  5.79384E-01  1.50312E+01
   6.33272E+00  7.92917E+00  1.17782E+01  9.69077E-01  3.81638E-02  1.82323E+01  1.10455E+01  1.51276E+01  3.05403E+00  1.22321E+01
  -9.45598E+00  7.27844E-01 -2.17193E+00 -5.87178E+00  9.85150E+00 -1.00327E+01 -6.40017E+00  1.33475E+01 -2.77688E+00 -5.25874E+00
  -2.58860E+00  9.03368E+00  2.26899E-01  8.15043E+00 -4.38060E+00  6.51449E+00  9.14155E+00  1.44081E+01  2.70293E+01  1.31983E+01
  -3.92699E-01  9.36809E+00  1.62611E+01  1.28574E+01  8.65932E+00  1.06958E+01  1.17852E+01  1.60221E+01  6.35645E+00  1.14110E+01
  -5.70371E+00  1.08966E+00  2.80016E+00  3.18463E-01 -5.84284E-01 -1.40595E+01  9.42452E-01  3.91348E+00 -1.14043E+01 -3.29730E-01
  -1.41967E+00 -2.97264E+00 -1.25227E-01 -1.04422E+01  1.42504E+00 -1.85562E+00  9.48215E-01 -5.46483E+00  2.27216E+00  3.35770E+00
  -1.47001E+01  1.25635E+00  1.05850E+01 -5.78632E+00 -5.60892E+00 -1.10405E+01  1.08057E+01 -6.73662E+00  7.26356E-01  4.25684E+00
  -6.46184E+00  5.26070E-01  1.53561E+01  2.35815E+00  4.18277E+00 -2.60897E+00  2.12617E+00 -1.49116E+00 -1.05627E+01  3.33231E+00
  -5.89810E+00  3.68343E+00  6.07797E+00 -4.74050E-02  6.85499E+00  2.25262E+01  1.50339E+01  1.41115E+01  8.01144E+00  1.45662E+01
   1.09113E+01  1.83424E+01  2.29139E+01  3.09496E+01  2.01528E+01  2.21865E+01  2.73831E+01  1.79012E+01  2.45777E+01  1.11963E+01
   2.33407E+01  1.46634E+01  4.50391E-01  2.11316E+01  1.59435E+01  2.82898E+00  4.81564E+00  2.08600E+01  3.66120E+00  6.76370E+00
   1.16081E+01  3.81800E+00  8.01559E+00  1.66864E+01  9.89725E+00  8.05876E+00  1.06876E+01  1.58701E+01  6.86805E+00  1.79221E+01
   3.24488E+01  1.65496E+01  7.06698E+00  1.50688E+01  2.65617E+01  3.22615E+01  1.05411E+01  2.57165E+00  1.31040E+01  1.20575E+01
   2.77500E+00  3.34011E-01  8.33739E+00  1.86792E+01  2.69737E+01  3.71505E+00  4.41177E+00  1.60862E+01  2.66664E+01  2.20320E+01
   1.20952E+01  1.64358E+01  4.67898E+00  1.29861E+01  1.01903E+01  1.18682E+01  1.75483E+01  1.14726E+01 -3.50123E+00 -9.76893E-01
  -8.73285E+00 -2.03904E+00  9.04503E-01  5.09826E+00 -1.58914E+00  3.31583E+00  5.65450E+00  2.59477E+00  6.19627E+00 -8.77808E+00
   9.00731E+00  2.59267E+00 -2.22416E+00 -7.43371E+00 -6.65909E+00  1.06356E+01  4.46594E+00 -8.96645E-01  1.13685E+01 -5.80100E+00
   7.66213E+00  9.70089E+00  1.63648E+00  5.59751E+00  3.00194E+00 -5.34369E+00 -6.29447E-01  5.86887E+00  1.41985E+01  3.34352E+00
   1.51852E-01  1.39043E+01 -7.00434E+00 -8.73894E+00 -1.36842E+00 -1.37884E+01 -5.24530E-01 -7.63974E+00  5.66913E+00 -1.18352E+00
   1.42225E+00 -4.58762E+00  7.65595E+00  6.15820E+00  4.74854E+00  1.61653E+00 -7.28280E+00  7.06225E+00  1.85052E+00  6.20701E+00
   1.29975E+01 -4.25851E-01  4.03945E+00  3.02930E+00  1.10309E+01  1.84438E+00 -4.95886E+00  7.10317E-01  7.67865E-01 -2.15667E+00
  -2.85712E+00 -2.25871E+00  4.72879E+00  1.05427E+00  3.01233E+00  4.45480E+00 -4.78033E+00 -2.48456E+00 -6.12125E+00  7.03606E+00
   1.93214E+00  4.27447E-01 -2.57336E-01 -1.51141E+01  1.42168E+00  1.04193E+01  7.17370E-01 -5.80320E+00  5.93012E+00  5.54542E-01
   1.41839E+01  6.63008E+00  2.68093E+00  2.48494E+00  7.37182E-01  1.14390E+01 -5.68383E-01  1.48403E+01 -6.06076E+00 -9.98189E+00
   3.12821E+00  4.44966E+00 -1.83831E+00 -8.69396E+00  8.99560E+00 -3.95426E-01 -1.43630E+00 -5.87476E+00  1.68286E+01  3.29732E+00
   1.27639E+01 -3.94426E-01 -8.77147E+00 -8.05411E-01  4.10471E-01  6.50574E+00  9.57105E-01  1.08883E+01 -4.95240E-01 -6.86255E+00
   6.23989E+00 -4.77438E+00 -6.70606E+00 -3.14234E+00  1.85651E-01 -1.46025E+00  9.00679E+00 -7.31783E-01
 NY points of the fit to the data follow
  -3.02908E+00 -1.28932E+00 -1.97277E+00 -9.26295E-01 -1.80611E+00 -1.37149E+00 -2.28205E+00 -2.19461E+00 -2.83714E+00 -2.19701E+00
  -2.37856E+00 -1.48751E+00 -1.63229E+00 -7.58132E-01 -1.05061E+00 -2.87217E-01 -7.61919E-01  2.54973E-02 -4.98362E-01  4.16815E-01
  -1.55279E-01  7.09710E-01  9.90407E-02  8.62510E-01  3.67543E-01  1.02583E+00  7.25776E-01  1.33745E+00  1.33091E+00  1.88262E+00
   2.05707E+00  2.24613E+00  2.49105E+00  2.07775E+00  2.32658E+00  1.34158E+00  1.67959E+00  4.89774E-01  1.11448E+00 -8.65390E-02
   8.93555E-01 -1.06350E-01  9.59944E-01  1.90429E-01  3.57731E-01 -6.85449E-01 -9.57301E-01 -1.93642E+00 -1.98568E+00 -2.90185E+00
  -2.98872E+00 -3.31619E+00 -3.04752E+00 -3.19396E+00 -2.86385E+00 -2.85770E+00 -2.57242E+00 -2.43999E+00 -2.41427E+00 -2.39201E+00
  -2.39974E+00 -2.37848E+00 -2.38987E+00 -2.36448E+00 -2.37968E+00 -2.35078E+00 -2.36923E+00 -2.33727E+00 -2.35311E+00 -2.31834E+00
  -2.32866E+00 -2.28830E+00 -2.28488E+00 -2.24441E+00 -2.23365E+00 -2.19927E+00 -2.18401E+00 -2.15500E+00 -2.12988E+00 -2.10870E+00
  -2.07386E+00 -2.06326E+00 -2.02175E+00 -2.02554E+00 -1.97774E+00 -1.99106E+00 -1.95148E+00 -1.96560E+00 -1.92696E+00 -1.90549E+00
  -1.83872E+00 -1.79842E+00 -1.70592E+00 -1.65225E+00 -1.53733E+00 -1.49891E+00 -1.37608E+00 -1.35034E+00 -1.21071E+00 -1.21288E+00
  -1.05358E+00 -1.09051E+00 -9.11702E-01 -9.82167E-01 -7.67892E-01 -8.62399E-01 -6.52338E-01 -7.80022E-01 -5.83763E-01 -7.41482E-01
  -5.63532E-01 -7.65129E-01 -6.10250E-01 -7.50810E-01 -6.42411E-01 -7.06288E-01 -6.53565E-01 -6.13546E-01 -6.16722E-01 -3.89324E-01
  -3.75159E-01  8.74546E-02  1.24014E-01  6.09477E-01  5.76240E-01  1.04011E+00  9.60282E-01  1.38654E+00  1.31181E+00  1.67415E+00
   1.59936E+00  1.85028E+00  1.77121E+00  1.89837E+00  1.81853E+00  1.77060E+00  1.70641E+00  1.42154E+00  1.36679E+00  8.63124E-01
   8.24149E-01  1.16545E-01  1.44294E-01 -5.61565E-01 -3.74075E-01 -7.78774E-01 -5.28199E-01 -8.73979E-01 -6.17746E-01 -8.79251E-01
  -6.20244E-01 -7.63508E-01 -5.52264E-01 -7.75474E-01 -7.65636E-01 -1.03143E+00 -1.19613E+00 -1.38196E+00 -1.55470E+00 -1.62720E+00
  -1.73734E+00 -1.78339E+00 -1.87859E+00 -1.91058E+00 -1.99025E+00 -2.00678E+00 -2.07899E+00 -2.08294E+00 -2.16049E+00 -2.17151E+00
  -2.24760E+00 -2.28448E+00 -2.36767E+00 -2.44119E+00 -2.47155E+00 -2.53826E+00 -2.48583E+00 -2.52284E+00 -2.39633E+00 -2.44750E+00
  -2.27619E+00 -2.33651E+00 -2.16456E+00 -2.23950E+00 -2.10394E+00 -2.14344E+00 -2.01749E+00 -1.99134E+00 -1.88571E+00 -1.76627E+00
  -1.67267E+00 -1.45985E+00 -1.43233E+00 -1.14073E+00 -1.21305E+00 -8.54232E-01 -1.05814E+00 -6.07169E-01 -9.44406E-01 -4.71789E-01
  -9.73229E-01 -5.07892E-01 -1.10138E+00 -6.73463E-01 -1.31867E+00 -8.50210E-01 -1.39452E+00 -8.11319E-01 -1.13601E+00 -4.77127E-01
  -6.38976E-01 -9.02867E-02 -3.01354E-01  5.92454E-02 -2.54853E-01 -9.93541E-02 -4.53341E-01 -2.53339E-01 -4.07396E-01 -8.45044E-02
   2.00089E-02  3.85390E-01  6.00175E-01  1.01792E+00  1.25079E+00  1.51431E+00  1.59128E+00  1.63707E+00  1.41874E+00  1.47094E+00
   1.22336E+00  1.28541E+00  1.02323E+00  1.08436E+00  8.22094E-01  8.68823E-01  6.20963E-01  6.32189E-01  4.12014E-01  4.34652E-01
   3.12319E-01  4.42277E-01  6.63813E-01  8.57582E-01  1.36714E+00  1.53949E+00  2.40777E+00  2.54155E+00  3.61338E+00  3.62507E+00
   4.88605E+00  4.84625E+00  6.26364E+00  6.20302E+00  7.62997E+00  7.68528E+00  9.05760E+00  9.12068E+00  1.02849E+01  1.03090E+01
   1.10445E+01  1.08281E+01  1.12262E+01  1.08141E+01  1.07647E+01  1.01668E+01  9.60699E+00  8.90501E+00  7.85844E+00  7.14259E+00
   5.66285E+00  5.03640E+00  3.53800E+00  3.21439E+00  2.33479E+00  2.03314E+00  1.43287E+00  1.17832E+00  1.15169E+00  1.09922E+00
   1.13009E+00  1.09853E+00  1.14957E+00  1.12564E+00  1.19056E+00  1.17147E+00  1.24403E+00  1.23389E+00  1.31654E+00  1.32637E+00
   1.42933E+00  1.46088E+00  1.57801E+00  1.62753E+00  1.74986E+00  1.80367E+00  1.92809E+00  1.99598E+00  2.12847E+00  2.21816E+00
   2.36258E+00  2.48507E+00  2.65105E+00  2.80629E+00  3.00306E+00  3.20248E+00  3.44395E+00  3.71178E+00  4.03350E+00  4.42095E+00
   4.91589E+00  5.57572E+00  6.57287E+00  8.00997E+00  8.71319E+00  1.02222E+01  1.03418E+01  1.16718E+01  1.10672E+01  1.20195E+01
   1.05469E+01  1.20399E+01  1.01742E+01  1.17709E+01  9.54645E+00  1.09103E+01  8.48502E+00  9.52617E+00  7.34189E+00  8.68255E+00
   7.14413E+00  8.64118E+00  8.09294E+00  9.91034E+00  9.46440E+00  1.00833E+01  9.65472E+00  9.22139E+00  9.59717E+00  8.56118E+00
   1.01161E+01  1.01312E+01  1.37315E+01  1.49262E+01  1.98023E+01  2.18784E+01  2.42487E+01  2.42165E+01  2.44966E+01  2.34298E+01
   2.15467E+01  2.01091E+01  1.66821E+01  1.73253E+01  1.48118E+01  1.50774E+01  1.24754E+01  1.22416E+01  9.91539E+00  9.72894E+00
   8.07909E+00  8.61571E+00  8.41501E+00  1.01760E+01  1.14092E+01  1.42513E+01  1.45618E+01  1.51006E+01  1.45759E+01  1.29357E+01
   1.15655E+01  8.64766E+00  6.97949E+00  5.96564E+00  5.25903E+00  4.73201E+00  4.32110E+00  3.99224E+00  3.72280E+00  3.49998E+00
   3.31324E+00  3.15688E+00  3.02475E+00  2.91407E+00  2.82092E+00  2.74428E+00  2.68143E+00  2.63197E+00  2.59353E+00  2.56598E+00
   2.54728E+00  2.53757E+00  2.53480E+00  2.53893E+00  2.54767E+00  2.56082E+00  2.57610E+00  2.59328E+00  2.60998E+00  2.62588E+00
   2.63859E+00  2.64801E+00  2.65216E+00  2.65133E+00  2.64391E+00  2.63058E+00  2.61023E+00  2.58414E+00  2.55178E+00  2.51489E+00
   2.47322E+00  2.42871E+00  2.38133E+00  2.33318E+00  2.28424E+00  2.23647E+00  2.18959E+00  2.14529E+00  2.10308E+00  2.06444E+00
   2.02860E+00  1.99672E+00  1.96776E+00  1.94267E+00  1.92030E+00  1.90155E+00  1.88515E+00  1.87189E+00  1.86044E+00  1.85161E+00
   1.84416E+00  1.83894E+00  1.83470E+00  1.83228E+00  1.83046E+00  1.83017E+00  1.83026E+00  1.83170E+00  1.83331E+00  1.83605E+00
   1.83880E+00  1.84257E+00  1.84629E+00  1.85097E+00  1.85547E+00  1.86083E+00  1.86594E+00  1.87189E+00  1.87759E+00  1.88407E+00
   1.89022E+00  1.89710E+00  1.90364E+00  1.91092E+00  1.91785E+00  1.92547E+00  1.93269E+00  1.94057E+00  1.94807E+00  1.95625E+00
   1.96402E+00  1.97243E+00  1.98041E+00  1.98901E+00  1.99720E+00  2.00603E+00  2.01443E+00  2.02342E+00  2.03196E+00  2.04112E+00
   2.04984E+00  2.05917E+00  2.06804E+00  2.07749E+00  2.08648E+00  2.09607E+00  2.10521E+00  2.11494E+00  2.12420E+00  2.13403E+00
   2.14339E+00  2.15335E+00  2.16286E+00  2.17294E+00  2.18253E+00  2.19271E+00  2.20242E+00  2.21273E+00  2.22258E+00  2.23301E+00
   2.24297E+00  2.25352E+00  2.26363E+00  2.27435E+00  2.28464E+00  2.29553E+00  2.30599E+00  2.31711E+00
 NY background values follow
    -3.556E+00   -3.544E+00   -3.532E+00   -3.521E+00   -3.509E+00   -3.498E+00   -3.486E+00   -3.474E+00   -3.463E+00   -3.451E+00
    -3.440E+00   -3.428E+00   -3.416E+00   -3.405E+00   -3.393E+00   -3.381E+00   -3.370E+00   -3.358E+00   -3.347E+00   -3.335E+00
    -3.323E+00   -3.312E+00   -3.300E+00   -3.289E+00   -3.277E+00   -3.265E+00   -3.254E+00   -3.242E+00   -3.231E+00   -3.219E+00
    -3.207E+00   -3.196E+00   -3.184E+00   -3.172E+00   -3.161E+00   -3.149E+00   -3.138E+00   -3.126E+00   -3.114E+00   -3.103E+00
    -3.091E+00   -3.080E+00   -3.068E+00   -3.056E+00   -3.045E+00   -3.033E+00   -3.022E+00   -3.010E+00   -2.998E+00   -2.987E+00
    -2.975E+00   -2.963E+00   -2.952E+00   -2.940E+00   -2.929E+00   -2.917E+00   -2.905E+00   -2.894E+00   -2.882E+00   -2.871E+00
    -2.859E+00   -2.847E+00   -2.836E+00   -2.824E+00   -2.812E+00   -2.801E+00   -2.789E+00   -2.778E+00   -2.766E+00   -2.754E+00
    -2.743E+00   -2.731E+00   -2.720E+00   -2.708E+00   -2.696E+00   -2.685E+00   -2.673E+00   -2.662E+00   -2.650E+00   -2.638E+00
    -2.627E+00   -2.615E+00   -2.603E+00   -2.592E+00   -2.580E+00   -2.569E+00   -2.557E+00   -2.545E+00   -2.534E+00   -2.522E+00
    -2.511E+00   -2.499E+00   -2.487E+00   -2.476E+00   -2.464E+00   -2.453E+00   -2.441E+00   -2.429E+00   -2.418E+00   -2.406E+00
    -2.394E+00   -2.383E+00   -2.371E+00   -2.360E+00   -2.348E+00   -2.336E+00   -2.325E+00   -2.313E+00   -2.302E+00   -2.290E+00
    -2.278E+00   -2.267E+00   -2.255E+00   -2.244E+00   -2.232E+00   -2.220E+00   -2.209E+00   -2.197E+00   -2.185E+00   -2.174E+00
    -2.162E+00   -2.151E+00   -2.139E+00   -2.127E+00   -2.116E+00   -2.104E+00   -2.093E+00   -2.081E+00   -2.069E+00   -2.058E+00
    -2.046E+00   -2.034E+00   -2.023E+00   -2.011E+00   -2.000E+00   -1.988E+00   -1.976E+00   -1.965E+00   -1.953E+00   -1.942E+00
    -1.930E+00   -1.918E+00   -1.907E+00   -1.895E+00   -1.884E+00   -1.872E+00   -1.860E+00   -1.849E+00   -1.837E+00   -1.825E+00
    -1.814E+00   -1.802E+00   -1.791E+00   -1.779E+00   -1.767E+00   -1.756E+00   -1.744E+00   -1.733E+00   -1.721E+00   -1.709E+00
    -1.698E+00   -1.686E+00   -1.675E+00   -1.663E+00   -1.651E+00   -1.640E+00   -1.628E+00   -1.616E+00   -1.605E+00   -1.593E+00
    -1.582E+00   -1.570E+00   -1.558E+00   -1.547E+00   -1.535E+00   -1.524E+00   -1.512E+00   -1.500E+00   -1.489E+00   -1.477E+00
    -1.466E+00   -1.454E+00   -1.442E+00   -1.431E+00   -1.419E+00   -1.407E+00   -1.396E+00   -1.384E+00   -1.373E+00   -1.361E+00
    -1.349E+00   -1.338E+00   -1.326E+00   -1.315E+00   -1.303E+00   -1.291E+00   -1.280E+00   -1.268E+00   -1.257E+00   -1.245E+00
    -1.233E+00   -1.222E+00   -1.210E+00   -1.198E+00   -1.187E+00   -1.175E+00   -1.164E+00   -1.152E+00   -1.140E+00   -1.129E+00
    -1.117E+00   -1.106E+00   -1.094E+00   -1.082E+00   -1.071E+00   -1.059E+00   -1.048E+00   -1.036E+00   -1.024E+00   -1.013E+00
    -1.001E+00   -9.895E-01   -9.779E-01   -9.662E-01   -9.546E-01   -9.430E-01   -9.314E-01   -9.198E-01   -9.082E-01   -8.966E-01
    -8.850E-01   -8.734E-01   -8.617E-01   -8.501E-01   -8.385E-01   -8.269E-01   -8.153E-01   -8.037E-01   -7.921E-01   -7.805E-01
    -7.689E-01   -7.573E-01   -7.456E-01   -7.340E-01   -7.224E-01   -7.108E-01   -6.992E-01   -6.876E-01   -6.760E-01   -6.644E-01
    -6.528E-01   -6.411E-01   -6.295E-01   -6.179E-01   -6.063E-01   -5.947E-01   -5.831E-01   -5.715E-01   -5.599E-01   -5.483E-01
    -5.367E-01   -5.250E-01   -5.134E-01   -5.018E-01   -4.902E-01   -4.786E-01   -4.670E-01   -4.554E-01   -4.438E-01   -4.322E-01
    -4.205E-01   -4.089E-01   -3.973E-01   -3.857E-01   -3.741E-01   -3.625E-01   -3.509E-01   -3.393E-01   -3.277E-01   -3.161E-01
    -3.044E-01   -2.928E-01   -2.812E-01   -2.696E-01   -2.580E-01   -2.464E-01   -2.348E-01   -2.232E-01   -2.116E-01   -2.000E-01
    -1.883E-01   -1.767E-01   -1.651E-01   -1.535E-01   -1.419E-01   -1.303E-01   -1.187E-01   -1.071E-01   -9.546E-02   -8.385E-02
    -7.224E-02   -6.063E-02   -4.902E-02   -3.741E-02   -2.580E-02   -1.419E-02   -2.584E-03    9.026E-03    2.064E-02    3.225E-02
     4.386E-02    5.547E-02    6.708E-02    7.869E-02    9.030E-02    1.019E-01    1.135E-01    1.251E-01    1.367E-01    1.483E-01
     1.600E-01    1.716E-01    1.832E-01    1.948E-01    2.064E-01    2.180E-01    2.296E-01    2.412E-01    2.528E-01    2.644E-01
     2.761E-01    2.877E-01    2.993E-01    3.109E-01    3.225E-01    3.341E-01    3.457E-01    3.573E-01    3.689E-01    3.805E-01
     3.921E-01    4.038E-01    4.154E-01    4.270E-01    4.386E-01    4.502E-01    4.618E-01    4.734E-01    4.850E-01    4.966E-01
     5.082E-01    5.199E-01    5.315E-01    5.431E-01    5.547E-01    5.663E-01    5.779E-01    5.895E-01    6.011E-01    6.127E-01
     6.243E-01    6.360E-01    6.476E-01    6.592E-01    6.708E-01    6.824E-01    6.940E-01    7.056E-01    7.172E-01    7.288E-01
     7.404E-01    7.520E-01    7.637E-01    7.753E-01    7.869E-01    7.985E-01    8.101E-01    8.217E-01    8.333E-01    8.449E-01
     8.565E-01    8.681E-01    8.797E-01    8.914E-01    9.030E-01    9.146E-01    9.262E-01    9.378E-01    9.494E-01    9.610E-01
     9.726E-01    9.842E-01    9.958E-01    1.007E+00    1.019E+00    1.031E+00    1.042E+00    1.054E+00    1.065E+00    1.077E+00
     1.089E+00    1.100E+00    1.112E+00    1.124E+00    1.135E+00    1.147E+00    1.158E+00    1.170E+00    1.182E+00    1.193E+00
     1.205E+00    1.216E+00    1.228E+00    1.240E+00    1.251E+00    1.263E+00    1.274E+00    1.286E+00    1.298E+00    1.309E+00
     1.321E+00    1.333E+00    1.344E+00    1.356E+00    1.367E+00    1.379E+00    1.391E+00    1.402E+00    1.414E+00    1.425E+00
     1.437E+00    1.449E+00    1.460E+00    1.472E+00    1.483E+00    1.495E+00    1.507E+00    1.518E+00    1.530E+00    1.541E+00
     1.553E+00    1.565E+00    1.576E+00    1.588E+00    1.600E+00    1.611E+00    1.623E+00    1.634E+00    1.646E+00    1.658E+00
     1.669E+00    1.681E+00    1.692E+00    1.704E+00    1.716E+00    1.727E+00    1.739E+00    1.750E+00    1.762E+00    1.774E+00
     1.785E+00    1.797E+00    1.808E+00    1.820E+00    1.832E+00    1.843E+00    1.855E+00    1.867E+00    1.878E+00    1.890E+00
     1.901E+00    1.913E+00    1.925E+00    1.936E+00    1.948E+00    1.959E+00    1.971E+00    1.983E+00    1.994E+00    2.006E+00
     2.017E+00    2.029E+00    2.041E+00    2.052E+00    2.064E+00    2.075E+00    2.087E+00    2.099E+00    2.110E+00    2.122E+00
     2.134E+00    2.145E+00    2.157E+00    2.168E+00    2.180E+00    2.192E+00    2.203E+00    2.215E+00
 Ala      Conc. = 4.23E+03
