 LCModel (Version 6.3-1L) Copyright: S.W. Provencher.          Ref.: Magn. Reson. Med. 30:672-679 (1993).                
 Slice#2 Row#3 Col#4  PD_05_press_2_raw_act
 36 lines in following concentration table = NCONC+1
    Conc.  %SD /Cr+PCr  Metabolite                                         
    0.000 999%   0.000 Ala                                                 
  324.661 129%   0.141 Asp                                                 
    0.000 999%   0.000 Cr                                                  
 2.30E+03   7%   1.000 PCr                                                 
   76.014 356% 3.3E-02 GABA                                                
  362.447  72%   0.158 Glc                                                 
 1.15E+03  63%   0.500 Gln                                                 
 1.48E+03  55%   0.646 Glu                                                 
    0.000 999%   0.000 GPC                                                 
  884.707   7%   0.385 PCh                                                 
  340.086  62%   0.148 GSH                                                 
 2.69E+03  27%   1.171 Ins                                                 
    0.000 999%   0.000 Lac                                                 
 3.45E+03   8%   1.502 NAA                                                 
   42.299 671% 1.8E-02 NAAG                                                
  284.710  22%   0.124 Scyllo                                              
 1.37E+03  29%   0.595 Tau                                                 
 1.25E+03  22%   0.545 -CrCH2                                              
  884.707   7%   0.385 GPC+PCh                                             
 3.49E+03   6%   1.521 NAA+NAAG                                            
 2.30E+03   7%   1.000 Cr+PCr                                              
 2.63E+03  46%   1.146 Glu+Gln                                             
  382.612 181%   0.167 Lip13a                                              
    0.000 999%   0.000 Lip13b                                              
   67.664 320% 2.9E-02 Lip09                                               
 2.18E+03  18%   0.948 MM09                                                
   59.321 221% 2.6E-02 Lip20                                               
 3.14E+03  24%   1.369 MM20                                                
  683.401  39%   0.297 MM12                                                
 3.44E+03  16%   1.496 MM14                                                
 2.12E+03  18%   0.923 MM17                                                
  382.612 181%   0.167 Lip13a+Lip13b                                       
 4.50E+03  16%   1.960 MM14+Lip13a+Lip13b+MM12                             
 2.25E+03  17%   0.977 MM09+Lip09                                          
 3.20E+03  24%   1.394 MM20+Lip20                                          
   6 lines in following misc. output table
  FWHM = 0.054 ppm    S/N =   6                                            
  Data shift = 0.038 ppm                                                   
  Ph: -61 deg     -25.3 deg/ppm                                            
  alphaB,S = 1.7E+00,   4.2E+01                                            
   14 spline knots.   Ns = 8(1)                                            
  (13) 5 infls.   (15) 3 extrs.                                            
  498 points on ppm-axis = NY
      4.000000     3.992357     3.984714     3.977070     3.969427     3.961784     3.954141     3.946497     3.938854     3.931211
      3.923568     3.915925     3.908281     3.900638     3.892995     3.885352     3.877708     3.870065     3.862422     3.854779
      3.847136     3.839492     3.831849     3.824206     3.816563     3.808919     3.801276     3.793633     3.785990     3.778347
      3.770703     3.763060     3.755417     3.747774     3.740130     3.732487     3.724844     3.717201     3.709558     3.701914
      3.694271     3.686628     3.678985     3.671341     3.663698     3.656055     3.648412     3.640769     3.633125     3.625482
      3.617839     3.610196     3.602552     3.594909     3.587266     3.579623     3.571980     3.564336     3.556693     3.549050
      3.541407     3.533763     3.526120     3.518477     3.510834     3.503191     3.495547     3.487904     3.480261     3.472618
      3.464974     3.457331     3.449688     3.442045     3.434402     3.426758     3.419115     3.411472     3.403829     3.396185
      3.388542     3.380899     3.373256     3.365613     3.357969     3.350326     3.342683     3.335040     3.327396     3.319753
      3.312110     3.304467     3.296824     3.289180     3.281537     3.273894     3.266251     3.258607     3.250964     3.243321
      3.235678     3.228034     3.220391     3.212748     3.205105     3.197462     3.189818     3.182175     3.174532     3.166889
      3.159245     3.151602     3.143959     3.136316     3.128673     3.121029     3.113386     3.105743     3.098100     3.090456
      3.082813     3.075170     3.067527     3.059884     3.052240     3.044597     3.036954     3.029311     3.021667     3.014024
      3.006381     2.998738     2.991095     2.983451     2.975808     2.968165     2.960522     2.952878     2.945235     2.937592
      2.929949     2.922306     2.914662     2.907019     2.899376     2.891733     2.884089     2.876446     2.868803     2.861160
      2.853517     2.845873     2.838230     2.830587     2.822944     2.815300     2.807657     2.800014     2.792371     2.784728
      2.777084     2.769441     2.761798     2.754155     2.746511     2.738868     2.731225     2.723582     2.715939     2.708295
      2.700652     2.693009     2.685366     2.677722     2.670079     2.662436     2.654793     2.647150     2.639506     2.631863
      2.624220     2.616577     2.608933     2.601290     2.593647     2.586004     2.578361     2.570717     2.563074     2.555431
      2.547788     2.540144     2.532501     2.524858     2.517215     2.509572     2.501928     2.494285     2.486642     2.478999
      2.471355     2.463712     2.456069     2.448426     2.440783     2.433139     2.425496     2.417853     2.410210     2.402566
      2.394923     2.387280     2.379637     2.371994     2.364350     2.356707     2.349064     2.341421     2.333777     2.326134
      2.318491     2.310848     2.303205     2.295561     2.287918     2.280275     2.272632     2.264988     2.257345     2.249702
      2.242059     2.234416     2.226772     2.219129     2.211486     2.203843     2.196199     2.188556     2.180913     2.173270
      2.165627     2.157983     2.150340     2.142697     2.135054     2.127410     2.119767     2.112124     2.104481     2.096838
      2.089194     2.081551     2.073908     2.066265     2.058621     2.050978     2.043335     2.035692     2.028049     2.020405
      2.012762     2.005119     1.997476     1.989833     1.982190     1.974546     1.966903     1.959260     1.951617     1.943974
      1.936331     1.928688     1.921045     1.913402     1.905759     1.898115     1.890472     1.882829     1.875186     1.867543
      1.859900     1.852257     1.844614     1.836971     1.829327     1.821684     1.814041     1.806398     1.798755     1.791112
      1.783469     1.775826     1.768183     1.760540     1.752896     1.745253     1.737610     1.729967     1.722324     1.714681
      1.707038     1.699395     1.691752     1.684108     1.676465     1.668822     1.661179     1.653536     1.645893     1.638250
      1.630607     1.622964     1.615321     1.607677     1.600034     1.592391     1.584748     1.577105     1.569462     1.561819
      1.554176     1.546533     1.538890     1.531246     1.523603     1.515960     1.508317     1.500674     1.493031     1.485388
      1.477745     1.470102     1.462458     1.454815     1.447172     1.439529     1.431886     1.424243     1.416600     1.408957
      1.401314     1.393671     1.386027     1.378384     1.370741     1.363098     1.355455     1.347812     1.340169     1.332526
      1.324883     1.317240     1.309596     1.301953     1.294310     1.286667     1.279024     1.271381     1.263738     1.256095
      1.248452     1.240808     1.233165     1.225522     1.217879     1.210236     1.202593     1.194950     1.187307     1.179664
      1.172021     1.164377     1.156734     1.149091     1.141448     1.133805     1.126162     1.118519     1.110876     1.103233
      1.095590     1.087946     1.080303     1.072660     1.065017     1.057374     1.049731     1.042088     1.034445     1.026802
      1.019158     1.011515     1.003872     0.996229     0.988586     0.980943     0.973300     0.965657     0.958014     0.950371
      0.942727     0.935084     0.927441     0.919798     0.912155     0.904512     0.896869     0.889226     0.881583     0.873940
      0.866296     0.858653     0.851010     0.843367     0.835724     0.828081     0.820438     0.812795     0.805152     0.797508
      0.789865     0.782222     0.774579     0.766936     0.759293     0.751650     0.744007     0.736364     0.728721     0.721077
      0.713434     0.705791     0.698148     0.690505     0.682862     0.675219     0.667576     0.659933     0.652290     0.644646
      0.637003     0.629360     0.621717     0.614074     0.606431     0.598788     0.591145     0.583502     0.575858     0.568215
      0.560572     0.552929     0.545286     0.537643     0.530000     0.522357     0.514714     0.507071     0.499427     0.491784
      0.484141     0.476498     0.468855     0.461212     0.453569     0.445925     0.438282     0.430639     0.422996     0.415353
      0.407710     0.400067     0.392424     0.384780     0.377137     0.369494     0.361851     0.354208     0.346565     0.338922
      0.331278     0.323635     0.315992     0.308349     0.300706     0.293063     0.285420     0.277777     0.270133     0.262490
      0.254847     0.247204     0.239561     0.231918     0.224275     0.216631     0.208988     0.201345
 NY phased data points follow
  -1.18278E+02 -9.18671E+01 -8.16376E+01 -9.31470E+01 -9.21664E+01 -1.02109E+02 -8.57877E+01 -7.82324E+01 -6.01673E+01 -3.35555E+01
  -5.76894E+01 -6.83143E+01 -7.46415E+01 -9.22501E+01 -9.59827E+01 -1.01678E+02 -7.91691E+01 -7.85477E+01 -8.66703E+01 -9.17725E+01
  -8.41689E+01 -9.07529E+01 -8.76754E+01 -8.43192E+01 -6.74790E+01 -8.47688E+01 -6.04376E+01 -7.88191E+01 -7.10443E+01 -5.73462E+01
  -6.03853E+01 -6.01466E+01 -7.76508E+01 -7.61513E+01 -6.51514E+01 -6.05968E+01 -5.67349E+01 -6.55509E+01 -6.20017E+01 -6.96500E+01
  -6.32604E+01 -7.27222E+01 -6.79602E+01 -5.83409E+01 -5.48930E+01 -5.10344E+01 -4.89639E+01 -5.12569E+01 -4.24229E+01 -3.98397E+01
  -5.11003E+01 -6.83438E+01 -4.77618E+01 -5.42985E+01 -5.23776E+01 -6.22752E+01 -4.90365E+01 -4.07965E+01 -5.67961E+01 -4.60331E+01
  -3.95489E+01 -4.71330E+01 -4.66429E+01 -5.38210E+01 -5.90243E+01 -5.91553E+01 -3.96790E+01 -4.61291E+01 -4.78175E+01 -4.69572E+01
  -4.49063E+01 -3.98492E+01 -4.16696E+01 -3.48573E+01 -4.35905E+01 -3.05896E+01 -3.20419E+01 -3.27849E+01 -3.91944E+01 -3.18817E+01
  -3.88932E+01 -4.49814E+01 -3.11287E+01 -3.97924E+01 -2.77843E+01 -3.39686E+01 -2.10561E+01 -2.91504E+01 -2.09058E+01 -4.14668E+01
  -2.53472E+01 -2.60289E+01 -2.46887E+01 -2.40943E+01 -2.87129E+01 -1.02609E+01 -2.15348E+01 -1.89346E+01  1.16957E+01  1.14186E+00
   2.27701E+01  2.10924E+01  2.92261E+01  3.51339E+01  3.65233E+01  2.86086E+01  1.84758E+01  1.43945E-03 -4.71515E+00 -2.56542E+01
  -4.48445E+00 -2.71522E+01 -8.91368E+00 -2.48217E+01 -1.67248E+01 -2.19232E+01 -7.07651E+00 -2.90883E+01 -1.85382E+01 -1.14945E+01
  -8.54766E+00 -1.29794E+01 -7.64681E+00 -5.39103E+00  1.67788E+01  2.63618E+01  4.61198E+01  3.57807E+01  5.17756E+01  3.25299E+01
   2.41569E+01  1.51677E+01  1.33837E+01  4.85734E+00 -9.81628E+00 -1.29587E+01 -3.78422E+00 -1.96030E+01 -1.46695E+01 -1.59914E+01
  -3.21517E+00 -1.86559E+01 -1.49641E+01 -9.27320E+00 -8.99856E+00 -9.00516E+00 -5.70149E-01 -2.45106E+01 -1.92526E+01 -1.56151E+01
  -1.05820E+01 -1.69978E+01 -3.87909E+00 -3.47738E+01 -1.20828E+01 -1.87972E+01 -1.60449E+01 -2.52295E+00 -1.91252E+01 -2.44109E+01
  -1.18940E+01 -1.69143E+01 -1.52703E+01 -1.36365E+01 -1.24931E+01 -1.00012E+01 -3.88956E+00 -1.99840E+01 -1.01836E+01 -1.10153E+01
   1.76645E+00 -1.83401E+01 -1.18173E+01 -1.70852E+01 -1.22884E+01 -1.76815E+01 -3.65943E+00 -2.56530E+01 -1.59502E+01 -1.80498E+01
  -3.60676E+00 -2.87693E+01 -1.29640E+01 -2.77292E+00 -8.90239E+00 -1.25712E+01 -7.13848E+00 -7.53159E-01  1.85917E-01 -5.78165E+00
   4.42249E+00 -1.04556E+01  1.41037E+01  1.12282E+01 -6.26202E+00 -4.21953E+00  5.83723E+00  5.28402E+00 -5.68913E+00 -1.66586E+01
  -3.45892E+00  2.80611E+00  7.49595E+00  1.46477E+00  1.33709E+01  6.12670E+00 -5.20950E+00 -1.43739E+01 -3.69585E+00 -2.92789E+00
   7.19896E+00 -5.34019E+00  6.66959E+00  6.64159E+00  1.47122E+01  7.71374E+00  1.36906E+01  2.19245E+01  6.30280E+00  1.67671E+01
   2.35023E+01  1.69831E+01 -2.12777E+00  2.66471E-01  7.72991E+00  5.61802E+00  9.00159E+00  2.05098E+01  2.54735E+01  1.76374E+01
   2.25913E+01  1.32927E+01  2.69598E+01  1.65116E+01  1.62933E+01  2.60814E+01  3.45657E+01 -1.27268E+00  2.00305E+01  2.11087E+01
   1.54118E+01  2.05568E+01  1.30599E+01  8.91679E+00  1.75541E+01  1.56461E+01  2.03597E+01  2.91679E+01  2.29503E+01  2.32945E+01
   2.23062E+01  1.59532E+01  5.48758E+01  6.03707E+01  5.45532E+01  5.42025E+01  6.95379E+01  9.16851E+01  9.69275E+01  1.11080E+02
   1.26796E+02  1.22681E+02  1.17462E+02  9.73814E+01  9.57627E+01  6.39843E+01  5.87732E+01  5.88505E+01  4.66014E+01  2.60810E+01
   3.08073E+01  2.42024E+01  2.59149E+01  2.23483E+01  3.87040E+01  3.35344E+01  1.88228E+01  2.16609E+01  3.15620E+01  1.27961E+01
   3.46266E+01  3.18508E+01  2.94174E+01  1.23284E+01  2.89191E+01  2.09198E+01  3.82661E+01  3.03477E+01  2.14868E+01  1.79325E+01
   2.25844E+01  1.18374E+01  1.87193E+01  3.99356E+01  3.60182E+01  3.29614E+01  3.62065E+01  3.25603E+01  3.45988E+01  2.66073E+01
   2.97789E+01  2.97985E+01  4.06937E+01  3.24090E+01  4.53233E+01  2.31885E+01  4.00491E+01  5.27841E+01  4.42007E+01  4.19004E+01
   4.71951E+01  5.10998E+01  5.54090E+01  5.52999E+01  4.68599E+01  3.90788E+01  4.36728E+01  5.24422E+01  4.59358E+01  4.07573E+01
   4.33241E+01  4.77180E+01  5.49203E+01  4.97893E+01  4.03351E+01  5.50882E+01  4.78373E+01  3.03853E+01  5.37331E+01  4.47353E+01
   5.12554E+01  5.63275E+01  5.87997E+01  4.98105E+01  4.91286E+01  5.50181E+01  4.28368E+01  4.61218E+01  4.07586E+01  2.32447E+01
   3.60577E+01  4.73710E+01  3.78627E+01  3.55405E+01  5.93895E+01  4.78476E+01  3.70956E+01  4.43956E+01  5.69850E+01  5.08196E+01
   5.04122E+01  4.51953E+01  4.76206E+01  3.58864E+01  3.67956E+01  3.12270E+01  3.70868E+01  2.65809E+01  3.19330E+01  4.19185E+01
   4.47645E+01  2.87639E+01  5.30811E+01  3.00669E+01  3.78173E+01  3.49723E+01  4.49624E+01  4.32229E+01  3.73597E+01  3.18963E+01
   3.99023E+01  2.53269E+01  4.83720E+01  3.44972E+01  4.47769E+01  3.72595E+01  4.47671E+01  2.66057E+01  3.99899E+01  3.39111E+01
   5.17374E+01  5.27415E+01  3.52218E+01  4.31339E+01  5.20145E+01  3.97489E+01  4.52703E+01  4.10595E+01  4.11418E+01  3.95832E+01
   5.24398E+01  4.56297E+01  5.36955E+01  4.92914E+01  5.15721E+01  3.56620E+01  4.51319E+01  6.07149E+01  4.86452E+01  4.08394E+01
   4.04013E+01  4.70361E+01  4.18606E+01  4.86275E+01  3.73341E+01  4.89900E+01  3.98584E+01  4.04207E+01  4.63166E+01  4.99747E+01
   4.99736E+01  3.57669E+01  3.47502E+01  4.37831E+01  4.97871E+01  4.16594E+01  2.11418E+01  3.25959E+01  3.58822E+01  5.11263E+01
   4.49979E+01  4.13879E+01  4.45869E+01  3.94093E+01  3.18618E+01  3.98724E+01  3.73788E+01  2.49673E+01  5.02954E+01  3.51009E+01
   5.02522E+01  4.15936E+01  3.30496E+01  2.97553E+01  3.73259E+01  2.90743E+01  3.87979E+01  3.46343E+01  3.55462E+01  2.68568E+01
   2.52587E+01  3.40230E+01  2.45277E+01  3.90213E+01  3.51826E+01  2.96651E+01  2.77751E+01  3.22432E+01  3.54246E+01  2.88366E+01
   3.37415E+01  3.65376E+01  3.21043E+01  3.80691E+01  3.97861E+01  4.18714E+01  4.11939E+01  2.81384E+01  3.78990E+01  3.40294E+01
   4.56151E+01  3.46212E+01  3.22155E+01  3.58018E+01  3.56625E+01  3.25487E+01  2.36321E+01  3.61435E+01  3.64909E+01  4.74871E+01
   4.61487E+01  4.28487E+01  3.54336E+01  2.60228E+01  3.79788E+01  2.82633E+01  3.89370E+01  2.21934E+01  4.20963E+01  3.97400E+01
   2.34578E+01  2.43605E+01  4.08739E+01  4.02239E+01  3.34434E+01  3.10582E+01  3.74886E+01  3.31309E+01  3.40564E+01  2.92751E+01
   2.69969E+01  2.74454E+01  3.20345E+01  4.06178E+01  3.28955E+01  2.91800E+01  3.50121E+01  2.61269E+01
 NY points of the fit to the data follow
  -8.66741E+01 -8.44657E+01 -8.35484E+01 -8.40014E+01 -8.28814E+01 -7.97325E+01 -7.58890E+01 -7.20318E+01 -6.83871E+01 -6.60748E+01
  -6.62635E+01 -6.86960E+01 -7.18574E+01 -7.47975E+01 -7.69191E+01 -7.80432E+01 -7.87396E+01 -7.96886E+01 -8.05678E+01 -8.03824E+01
  -7.97894E+01 -7.89196E+01 -7.71956E+01 -7.55837E+01 -7.44543E+01 -7.33645E+01 -7.22340E+01 -7.08401E+01 -6.91358E+01 -6.68683E+01
  -6.43341E+01 -6.24012E+01 -6.12104E+01 -6.07256E+01 -6.14031E+01 -6.28276E+01 -6.43605E+01 -6.56601E+01 -6.62740E+01 -6.56352E+01
  -6.44713E+01 -6.39538E+01 -6.35581E+01 -6.18342E+01 -5.86494E+01 -5.50539E+01 -5.18293E+01 -4.94537E+01 -4.86655E+01 -5.00382E+01
  -5.27510E+01 -5.51322E+01 -5.66061E+01 -5.71809E+01 -5.71048E+01 -5.68065E+01 -5.62543E+01 -5.50738E+01 -5.31456E+01 -5.09047E+01
  -4.93963E+01 -4.85633E+01 -4.84500E+01 -4.87830E+01 -4.87968E+01 -4.84462E+01 -4.79214E+01 -4.67892E+01 -4.50669E+01 -4.39763E+01
  -4.34688E+01 -4.26651E+01 -4.14543E+01 -4.01791E+01 -3.88619E+01 -3.78359E+01 -3.76723E+01 -3.82765E+01 -3.85366E+01 -3.81736E+01
  -3.88185E+01 -3.91762E+01 -3.76496E+01 -3.50177E+01 -3.25628E+01 -3.07422E+01 -2.97269E+01 -2.98201E+01 -3.08118E+01 -3.24853E+01
  -3.40756E+01 -3.48986E+01 -3.54694E+01 -3.52386E+01 -3.02487E+01 -2.21012E+01 -1.90692E+01 -1.68157E+01 -9.23733E+00  2.39471E+00
   1.49621E+01  2.67577E+01  3.62651E+01  4.00896E+01  3.62061E+01  2.65662E+01  1.50116E+01  3.93601E+00 -4.55309E+00 -1.01588E+01
  -1.51152E+01 -2.06970E+01 -2.48592E+01 -2.63828E+01 -2.69589E+01 -2.72124E+01 -2.72637E+01 -2.69093E+01 -2.39937E+01 -1.53453E+01
  -1.00783E+01 -9.38266E+00 -5.42808E+00  3.79840E+00  1.54196E+01  2.71851E+01  3.80057E+01  4.45516E+01  4.38490E+01  3.62623E+01
   2.55871E+01  1.47359E+01  5.86112E+00 -1.64595E-01 -4.74988E+00 -1.00505E+01 -1.50607E+01 -1.71748E+01 -1.75165E+01 -1.73091E+01
  -1.68884E+01 -1.64080E+01 -1.60180E+01 -1.57364E+01 -1.55116E+01 -1.53269E+01 -1.51925E+01 -1.51176E+01 -1.50883E+01 -1.50641E+01
  -1.50266E+01 -1.49520E+01 -1.49074E+01 -1.50685E+01 -1.51081E+01 -1.48544E+01 -1.45446E+01 -1.42836E+01 -1.44180E+01 -1.48017E+01
  -1.50198E+01 -1.49409E+01 -1.45632E+01 -1.39195E+01 -1.31835E+01 -1.26269E+01 -1.24502E+01 -1.26742E+01 -1.31774E+01 -1.35108E+01
  -1.32985E+01 -1.31209E+01 -1.33610E+01 -1.39525E+01 -1.43179E+01 -1.41356E+01 -1.37233E+01 -1.32459E+01 -1.27631E+01 -1.24197E+01
  -1.19266E+01 -1.11635E+01 -1.04742E+01 -9.80669E+00 -8.96841E+00 -8.02757E+00 -7.12815E+00 -6.02750E+00 -4.55934E+00 -2.84440E+00
  -1.47809E+00 -5.74958E-01 -1.31415E-02  2.63108E-01  4.10621E-01  6.79892E-01  1.20284E+00  1.73518E+00  2.32103E+00  3.14676E+00
   4.28423E+00  5.59002E+00  6.42628E+00  7.22536E+00  7.83864E+00  7.10340E+00  5.39601E+00  3.63743E+00  2.20253E+00  9.77881E-01
  -1.34673E-02  2.27358E-01  1.97297E+00  4.45973E+00  6.90974E+00  8.99031E+00  1.07363E+01  1.18105E+01  1.15157E+01  1.00554E+01
   8.20825E+00  6.76947E+00  6.18888E+00  6.45170E+00  7.56143E+00  9.47014E+00  1.17329E+01  1.36023E+01  1.46238E+01  1.54051E+01
   1.61886E+01  1.66683E+01  1.69278E+01  1.72653E+01  1.76827E+01  1.79251E+01  1.85309E+01  1.96973E+01  2.08559E+01  2.15081E+01
   2.17761E+01  2.17189E+01  2.12972E+01  2.09339E+01  2.10719E+01  2.17991E+01  2.28019E+01  2.39603E+01  2.52352E+01  2.64680E+01
   2.78409E+01  3.09277E+01  4.12822E+01  5.33952E+01  5.68418E+01  5.95049E+01  6.93895E+01  8.42872E+01  9.98560E+01  1.14434E+02
   1.25267E+02  1.27244E+02  1.18279E+02  1.02201E+02  8.44487E+01  6.84523E+01  5.67350E+01  4.88256E+01  4.15295E+01  3.36789E+01
   2.85282E+01  2.68747E+01  2.62475E+01  2.59285E+01  2.58091E+01  2.57874E+01  2.57309E+01  2.56283E+01  2.54971E+01  2.53531E+01
   2.52191E+01  2.51246E+01  2.50759E+01  2.50776E+01  2.51377E+01  2.52606E+01  2.54341E+01  2.56509E+01  2.59100E+01  2.62210E+01
   2.65868E+01  2.70063E+01  2.74875E+01  2.80391E+01  2.86617E+01  2.93605E+01  3.01397E+01  3.09989E+01  3.19321E+01  3.29343E+01
   3.39955E+01  3.51030E+01  3.62392E+01  3.73868E+01  3.85226E+01  3.96253E+01  4.06721E+01  4.16440E+01  4.25226E+01  4.32944E+01
   4.39490E+01  4.44823E+01  4.48939E+01  4.51909E+01  4.53834E+01  4.54876E+01  4.55209E+01  4.55044E+01  4.54580E+01  4.54028E+01
   4.53558E+01  4.53329E+01  4.53442E+01  4.53973E+01  4.54934E+01  4.56312E+01  4.58033E+01  4.60011E+01  4.62115E+01  4.64217E+01
   4.66163E+01  4.67822E+01  4.69055E+01  4.69761E+01  4.69841E+01  4.69245E+01  4.67934E+01  4.65917E+01  4.63212E+01  4.59881E+01
   4.55990E+01  4.51640E+01  4.46927E+01  4.41968E+01  4.36868E+01  4.31742E+01  4.26682E+01  4.21787E+01  4.17125E+01  4.12764E+01
   4.08740E+01  4.05090E+01  4.01818E+01  3.98931E+01  3.96408E+01  3.94231E+01  3.92362E+01  3.90772E+01  3.89412E+01  3.88250E+01
   3.87238E+01  3.86350E+01  3.85545E+01  3.84807E+01  3.84110E+01  3.83452E+01  3.82822E+01  3.82234E+01  3.81692E+01  3.81225E+01
   3.80849E+01  3.80606E+01  3.80522E+01  3.80646E+01  3.81012E+01  3.81672E+01  3.82663E+01  3.84037E+01  3.85828E+01  3.88083E+01
   3.90826E+01  3.94095E+01  3.97899E+01  4.02255E+01  4.07151E+01  4.12574E+01  4.18482E+01  4.24828E+01  4.31529E+01  4.38499E+01
   4.45618E+01  4.52762E+01  4.59779E+01  4.66520E+01  4.72815E+01  4.78511E+01  4.83446E+01  4.87489E+01  4.90511E+01  4.92427E+01
   4.93167E+01  4.92708E+01  4.91050E+01  4.88244E+01  4.84355E+01  4.79496E+01  4.73786E+01  4.67377E+01  4.60417E+01  4.53075E+01
   4.45497E+01  4.37841E+01  4.30234E+01  4.22801E+01  4.15634E+01  4.08820E+01  4.02410E+01  3.96452E+01  3.90960E+01  3.85950E+01
   3.81409E+01  3.77329E+01  3.73679E+01  3.70439E+01  3.67569E+01  3.65045E+01  3.62826E+01  3.60888E+01  3.59191E+01  3.57715E+01
   3.56428E+01  3.55312E+01  3.54340E+01  3.53500E+01  3.52769E+01  3.52139E+01  3.51592E+01  3.51124E+01  3.50718E+01  3.50374E+01
   3.50077E+01  3.49828E+01  3.49616E+01  3.49443E+01  3.49297E+01  3.49183E+01  3.49090E+01  3.49023E+01  3.48972E+01  3.48943E+01
   3.48926E+01  3.48928E+01  3.48939E+01  3.48965E+01  3.48999E+01  3.49047E+01  3.49100E+01  3.49164E+01  3.49233E+01  3.49311E+01
   3.49393E+01  3.49484E+01  3.49577E+01  3.49678E+01  3.49780E+01  3.49890E+01  3.50001E+01  3.50118E+01  3.50235E+01  3.50359E+01
   3.50483E+01  3.50613E+01  3.50742E+01  3.50877E+01  3.51012E+01  3.51152E+01  3.51291E+01  3.51436E+01  3.51579E+01  3.51729E+01
   3.51877E+01  3.52030E+01  3.52183E+01  3.52341E+01  3.52499E+01  3.52661E+01  3.52824E+01  3.52992E+01  3.53160E+01  3.53333E+01
   3.53507E+01  3.53687E+01  3.53867E+01  3.54055E+01  3.54244E+01  3.54440E+01  3.54638E+01  3.54845E+01
 NY background values follow
    -9.302E+01   -9.246E+01   -9.190E+01   -9.134E+01   -9.078E+01   -9.022E+01   -8.966E+01   -8.910E+01   -8.854E+01   -8.798E+01
    -8.742E+01   -8.686E+01   -8.630E+01   -8.574E+01   -8.518E+01   -8.463E+01   -8.407E+01   -8.351E+01   -8.295E+01   -8.239E+01
    -8.183E+01   -8.127E+01   -8.071E+01   -8.015E+01   -7.959E+01   -7.904E+01   -7.848E+01   -7.792E+01   -7.736E+01   -7.681E+01
    -7.625E+01   -7.569E+01   -7.514E+01   -7.458E+01   -7.403E+01   -7.347E+01   -7.292E+01   -7.236E+01   -7.181E+01   -7.126E+01
    -7.071E+01   -7.015E+01   -6.960E+01   -6.905E+01   -6.850E+01   -6.795E+01   -6.741E+01   -6.686E+01   -6.631E+01   -6.576E+01
    -6.522E+01   -6.467E+01   -6.413E+01   -6.359E+01   -6.305E+01   -6.250E+01   -6.196E+01   -6.142E+01   -6.088E+01   -6.035E+01
    -5.981E+01   -5.927E+01   -5.874E+01   -5.821E+01   -5.767E+01   -5.714E+01   -5.661E+01   -5.608E+01   -5.555E+01   -5.503E+01
    -5.450E+01   -5.397E+01   -5.345E+01   -5.293E+01   -5.241E+01   -5.189E+01   -5.137E+01   -5.085E+01   -5.034E+01   -4.982E+01
    -4.931E+01   -4.880E+01   -4.829E+01   -4.778E+01   -4.727E+01   -4.677E+01   -4.626E+01   -4.576E+01   -4.526E+01   -4.476E+01
    -4.426E+01   -4.376E+01   -4.327E+01   -4.278E+01   -4.228E+01   -4.179E+01   -4.131E+01   -4.082E+01   -4.034E+01   -3.985E+01
    -3.937E+01   -3.889E+01   -3.841E+01   -3.794E+01   -3.746E+01   -3.699E+01   -3.652E+01   -3.605E+01   -3.558E+01   -3.511E+01
    -3.465E+01   -3.419E+01   -3.373E+01   -3.327E+01   -3.281E+01   -3.235E+01   -3.190E+01   -3.145E+01   -3.100E+01   -3.055E+01
    -3.010E+01   -2.966E+01   -2.921E+01   -2.877E+01   -2.833E+01   -2.789E+01   -2.746E+01   -2.702E+01   -2.659E+01   -2.616E+01
    -2.573E+01   -2.530E+01   -2.488E+01   -2.446E+01   -2.403E+01   -2.361E+01   -2.320E+01   -2.278E+01   -2.237E+01   -2.195E+01
    -2.154E+01   -2.113E+01   -2.073E+01   -2.032E+01   -1.992E+01   -1.952E+01   -1.912E+01   -1.872E+01   -1.832E+01   -1.793E+01
    -1.754E+01   -1.715E+01   -1.676E+01   -1.637E+01   -1.599E+01   -1.560E+01   -1.522E+01   -1.484E+01   -1.446E+01   -1.408E+01
    -1.371E+01   -1.334E+01   -1.296E+01   -1.259E+01   -1.223E+01   -1.186E+01   -1.150E+01   -1.113E+01   -1.077E+01   -1.041E+01
    -1.005E+01   -9.697E+00   -9.342E+00   -8.989E+00   -8.638E+00   -8.288E+00   -7.940E+00   -7.593E+00   -7.248E+00   -6.905E+00
    -6.564E+00   -6.224E+00   -5.885E+00   -5.548E+00   -5.213E+00   -4.879E+00   -4.547E+00   -4.217E+00   -3.888E+00   -3.561E+00
    -3.235E+00   -2.911E+00   -2.588E+00   -2.267E+00   -1.948E+00   -1.630E+00   -1.314E+00   -9.992E-01   -6.861E-01   -3.746E-01
    -6.458E-02    2.438E-01    5.507E-01    8.560E-01    1.160E+00    1.462E+00    1.763E+00    2.062E+00    2.359E+00    2.655E+00
     2.950E+00    3.243E+00    3.534E+00    3.824E+00    4.113E+00    4.399E+00    4.685E+00    4.969E+00    5.251E+00    5.532E+00
     5.811E+00    6.089E+00    6.365E+00    6.640E+00    6.913E+00    7.185E+00    7.455E+00    7.723E+00    7.991E+00    8.256E+00
     8.521E+00    8.783E+00    9.045E+00    9.304E+00    9.563E+00    9.820E+00    1.007E+01    1.033E+01    1.058E+01    1.083E+01
     1.108E+01    1.133E+01    1.158E+01    1.182E+01    1.206E+01    1.231E+01    1.255E+01    1.279E+01    1.302E+01    1.326E+01
     1.349E+01    1.373E+01    1.396E+01    1.419E+01    1.442E+01    1.464E+01    1.487E+01    1.509E+01    1.532E+01    1.554E+01
     1.576E+01    1.598E+01    1.619E+01    1.641E+01    1.662E+01    1.684E+01    1.705E+01    1.726E+01    1.747E+01    1.767E+01
     1.788E+01    1.808E+01    1.828E+01    1.849E+01    1.869E+01    1.888E+01    1.908E+01    1.928E+01    1.947E+01    1.966E+01
     1.985E+01    2.004E+01    2.023E+01    2.042E+01    2.060E+01    2.079E+01    2.097E+01    2.115E+01    2.133E+01    2.151E+01
     2.168E+01    2.186E+01    2.203E+01    2.220E+01    2.238E+01    2.254E+01    2.271E+01    2.288E+01    2.304E+01    2.321E+01
     2.337E+01    2.353E+01    2.369E+01    2.385E+01    2.401E+01    2.416E+01    2.431E+01    2.447E+01    2.462E+01    2.477E+01
     2.492E+01    2.506E+01    2.521E+01    2.535E+01    2.549E+01    2.563E+01    2.577E+01    2.591E+01    2.605E+01    2.618E+01
     2.632E+01    2.645E+01    2.658E+01    2.671E+01    2.684E+01    2.697E+01    2.709E+01    2.722E+01    2.734E+01    2.746E+01
     2.758E+01    2.770E+01    2.782E+01    2.794E+01    2.805E+01    2.816E+01    2.828E+01    2.839E+01    2.850E+01    2.861E+01
     2.871E+01    2.882E+01    2.893E+01    2.903E+01    2.913E+01    2.923E+01    2.933E+01    2.943E+01    2.953E+01    2.963E+01
     2.972E+01    2.982E+01    2.991E+01    3.000E+01    3.009E+01    3.018E+01    3.027E+01    3.036E+01    3.045E+01    3.053E+01
     3.062E+01    3.070E+01    3.078E+01    3.086E+01    3.094E+01    3.102E+01    3.110E+01    3.118E+01    3.125E+01    3.133E+01
     3.140E+01    3.147E+01    3.154E+01    3.162E+01    3.168E+01    3.175E+01    3.182E+01    3.189E+01    3.195E+01    3.202E+01
     3.208E+01    3.215E+01    3.221E+01    3.227E+01    3.233E+01    3.239E+01    3.245E+01    3.251E+01    3.257E+01    3.262E+01
     3.268E+01    3.274E+01    3.279E+01    3.284E+01    3.290E+01    3.295E+01    3.300E+01    3.305E+01    3.310E+01    3.315E+01
     3.320E+01    3.325E+01    3.329E+01    3.334E+01    3.339E+01    3.343E+01    3.348E+01    3.352E+01    3.356E+01    3.361E+01
     3.365E+01    3.369E+01    3.373E+01    3.377E+01    3.381E+01    3.385E+01    3.389E+01    3.393E+01    3.397E+01    3.401E+01
     3.404E+01    3.408E+01    3.411E+01    3.415E+01    3.419E+01    3.422E+01    3.425E+01    3.429E+01    3.432E+01    3.435E+01
     3.439E+01    3.442E+01    3.445E+01    3.448E+01    3.451E+01    3.454E+01    3.457E+01    3.460E+01    3.463E+01    3.466E+01
     3.468E+01    3.471E+01    3.474E+01    3.477E+01    3.479E+01    3.482E+01    3.485E+01    3.487E+01    3.490E+01    3.492E+01
     3.495E+01    3.497E+01    3.500E+01    3.502E+01    3.505E+01    3.507E+01    3.509E+01    3.512E+01    3.514E+01    3.516E+01
     3.518E+01    3.521E+01    3.523E+01    3.525E+01    3.527E+01    3.529E+01    3.531E+01    3.534E+01    3.536E+01    3.538E+01
     3.540E+01    3.542E+01    3.544E+01    3.546E+01    3.548E+01    3.550E+01    3.552E+01    3.554E+01    3.556E+01    3.558E+01
     3.560E+01    3.562E+01    3.563E+01    3.565E+01    3.567E+01    3.569E+01    3.571E+01    3.573E+01    3.575E+01    3.577E+01
     3.578E+01    3.580E+01    3.582E+01    3.584E+01    3.586E+01    3.588E+01    3.590E+01    3.591E+01
 Asp      Conc. = 3.25E+02
