 LCModel (Version 6.3-1L) Copyright: S.W. Provencher.          Ref.: Magn. Reson. Med. 30:672-679 (1993).                
 Slice#3 Row#11 Col#11  PD_05_press_2_raw_act
 36 lines in following concentration table = NCONC+1
    Conc.  %SD /Cr+PCr  Metabolite                                         
   37.294 107%   0.382 Ala                                                 
    9.637 128% 9.9E-02 Asp                                                 
    0.000 999%   0.000 Cr                                                  
   97.644  23%   1.000 PCr                                                 
    5.101 144% 5.2E-02 GABA                                                
    7.775  95% 8.0E-02 Glc                                                 
  117.846  68%   1.207 Gln                                                 
    0.000 999%   0.000 Glu                                                 
   16.920 248%   0.173 GPC                                                 
    0.000 999%   0.000 PCh                                                 
   30.600  94%   0.313 GSH                                                 
  174.949  52%   1.792 Ins                                                 
   30.562 141%   0.313 Lac                                                 
   49.246  46%   0.504 NAA                                                 
    0.000 999%   0.000 NAAG                                                
    2.734  89% 2.8E-02 Scyllo                                              
   11.406 107%   0.117 Tau                                                 
    0.000 999%   0.000 -CrCH2                                              
   16.920  48%   0.173 GPC+PCh                                             
   49.246  46%   0.504 NAA+NAAG                                            
   97.644  23%   1.000 Cr+PCr                                              
  117.846  68%   1.207 Glu+Gln                                             
  678.129  18%   6.945 Lip13a                                              
    0.000 999%   0.000 Lip13b                                              
  177.349  20%   1.816 Lip09                                               
    0.000 999%   0.000 MM09                                                
  100.672  20%   1.031 Lip20                                               
    0.000 999%   0.000 MM20                                                
 8.72E-05 999% 8.9E-07 MM12                                                
 2.03E-03 999% 2.1E-05 MM14                                                
    0.000 999%   0.000 MM17                                                
  678.129  18%   6.945 Lip13a+Lip13b                                       
  678.132  18%   6.945 MM14+Lip13a+Lip13b+MM12                             
  177.349  20%   1.816 MM09+Lip09                                          
  100.672  20%   1.031 MM20+Lip20                                          
   6 lines in following misc. output table
  FWHM = 0.046 ppm    S/N =   1                                            
  Data shift = 0.000 ppm                                                   
  Ph:-139 deg       0.2 deg/ppm                                            
  alphaB,S = 2.1E+01,   1.5E+01                                            
   14 spline knots.   Ns = 5(1)                                            
   1 inflections.     1 extrema                                            
  498 points on ppm-axis = NY
      4.000000     3.992357     3.984714     3.977070     3.969427     3.961784     3.954141     3.946497     3.938854     3.931211
      3.923568     3.915925     3.908281     3.900638     3.892995     3.885352     3.877708     3.870065     3.862422     3.854779
      3.847136     3.839492     3.831849     3.824206     3.816563     3.808919     3.801276     3.793633     3.785990     3.778347
      3.770703     3.763060     3.755417     3.747774     3.740130     3.732487     3.724844     3.717201     3.709558     3.701914
      3.694271     3.686628     3.678985     3.671341     3.663698     3.656055     3.648412     3.640769     3.633125     3.625482
      3.617839     3.610196     3.602552     3.594909     3.587266     3.579623     3.571980     3.564336     3.556693     3.549050
      3.541407     3.533763     3.526120     3.518477     3.510834     3.503191     3.495547     3.487904     3.480261     3.472618
      3.464974     3.457331     3.449688     3.442045     3.434402     3.426758     3.419115     3.411472     3.403829     3.396185
      3.388542     3.380899     3.373256     3.365613     3.357969     3.350326     3.342683     3.335040     3.327396     3.319753
      3.312110     3.304467     3.296824     3.289180     3.281537     3.273894     3.266251     3.258607     3.250964     3.243321
      3.235678     3.228034     3.220391     3.212748     3.205105     3.197462     3.189818     3.182175     3.174532     3.166889
      3.159245     3.151602     3.143959     3.136316     3.128673     3.121029     3.113386     3.105743     3.098100     3.090456
      3.082813     3.075170     3.067527     3.059884     3.052240     3.044597     3.036954     3.029311     3.021667     3.014024
      3.006381     2.998738     2.991095     2.983451     2.975808     2.968165     2.960522     2.952878     2.945235     2.937592
      2.929949     2.922306     2.914662     2.907019     2.899376     2.891733     2.884089     2.876446     2.868803     2.861160
      2.853517     2.845873     2.838230     2.830587     2.822944     2.815300     2.807657     2.800014     2.792371     2.784728
      2.777084     2.769441     2.761798     2.754155     2.746511     2.738868     2.731225     2.723582     2.715939     2.708295
      2.700652     2.693009     2.685366     2.677722     2.670079     2.662436     2.654793     2.647150     2.639506     2.631863
      2.624220     2.616577     2.608933     2.601290     2.593647     2.586004     2.578361     2.570717     2.563074     2.555431
      2.547788     2.540144     2.532501     2.524858     2.517215     2.509572     2.501928     2.494285     2.486642     2.478999
      2.471355     2.463712     2.456069     2.448426     2.440783     2.433139     2.425496     2.417853     2.410210     2.402566
      2.394923     2.387280     2.379637     2.371994     2.364350     2.356707     2.349064     2.341421     2.333777     2.326134
      2.318491     2.310848     2.303205     2.295561     2.287918     2.280275     2.272632     2.264988     2.257345     2.249702
      2.242059     2.234416     2.226772     2.219129     2.211486     2.203843     2.196199     2.188556     2.180913     2.173270
      2.165627     2.157983     2.150340     2.142697     2.135054     2.127410     2.119767     2.112124     2.104481     2.096838
      2.089194     2.081551     2.073908     2.066265     2.058621     2.050978     2.043335     2.035692     2.028049     2.020405
      2.012762     2.005119     1.997476     1.989833     1.982190     1.974546     1.966903     1.959260     1.951617     1.943974
      1.936331     1.928688     1.921045     1.913402     1.905759     1.898115     1.890472     1.882829     1.875186     1.867543
      1.859900     1.852257     1.844614     1.836971     1.829327     1.821684     1.814041     1.806398     1.798755     1.791112
      1.783469     1.775826     1.768183     1.760540     1.752896     1.745253     1.737610     1.729967     1.722324     1.714681
      1.707038     1.699395     1.691752     1.684108     1.676465     1.668822     1.661179     1.653536     1.645893     1.638250
      1.630607     1.622964     1.615321     1.607677     1.600034     1.592391     1.584748     1.577105     1.569462     1.561819
      1.554176     1.546533     1.538890     1.531246     1.523603     1.515960     1.508317     1.500674     1.493031     1.485388
      1.477745     1.470102     1.462458     1.454815     1.447172     1.439529     1.431886     1.424243     1.416600     1.408957
      1.401314     1.393671     1.386027     1.378384     1.370741     1.363098     1.355455     1.347812     1.340169     1.332526
      1.324883     1.317240     1.309596     1.301953     1.294310     1.286667     1.279024     1.271381     1.263738     1.256095
      1.248452     1.240808     1.233165     1.225522     1.217879     1.210236     1.202593     1.194950     1.187307     1.179664
      1.172021     1.164377     1.156734     1.149091     1.141448     1.133805     1.126162     1.118519     1.110876     1.103233
      1.095590     1.087946     1.080303     1.072660     1.065017     1.057374     1.049731     1.042088     1.034445     1.026802
      1.019158     1.011515     1.003872     0.996229     0.988586     0.980943     0.973300     0.965657     0.958014     0.950371
      0.942727     0.935084     0.927441     0.919798     0.912155     0.904512     0.896869     0.889226     0.881583     0.873940
      0.866296     0.858653     0.851010     0.843367     0.835724     0.828081     0.820438     0.812795     0.805152     0.797508
      0.789865     0.782222     0.774579     0.766936     0.759293     0.751650     0.744007     0.736364     0.728721     0.721077
      0.713434     0.705791     0.698148     0.690505     0.682862     0.675219     0.667576     0.659933     0.652290     0.644646
      0.637003     0.629360     0.621717     0.614074     0.606431     0.598788     0.591145     0.583502     0.575858     0.568215
      0.560572     0.552929     0.545286     0.537643     0.530000     0.522357     0.514714     0.507071     0.499427     0.491784
      0.484141     0.476498     0.468855     0.461212     0.453569     0.445925     0.438282     0.430639     0.422996     0.415353
      0.407710     0.400067     0.392424     0.384780     0.377137     0.369494     0.361851     0.354208     0.346565     0.338922
      0.331278     0.323635     0.315992     0.308349     0.300706     0.293063     0.285420     0.277777     0.270133     0.262490
      0.254847     0.247204     0.239561     0.231918     0.224275     0.216631     0.208988     0.201345
 NY phased data points follow
   4.91572E+00  2.06470E+00  3.19957E+00  2.65060E+00  3.18994E+00  2.21062E+00  5.82079E+00  2.91618E+00  4.53666E+00  3.41969E+00
   4.00504E+00  3.95791E+00  4.40273E+00  4.35998E+00  2.95504E+00 -7.45747E-01  2.74876E-01 -1.46683E+00 -1.35301E+00  1.08076E+00
  -1.17868E-01  2.95621E+00  2.64766E+00  2.19679E+00  2.72407E+00  1.78398E+00  1.12137E+00 -4.31914E-01  2.24876E+00  2.34785E+00
   2.55994E+00  2.21593E+00  1.34592E+00  1.17262E+00  2.75402E+00  3.72508E+00 -1.89958E+00  1.24915E+00  2.92398E+00  5.59273E-01
   3.94020E-01  2.45422E+00  2.89305E+00  5.87281E-01 -2.93400E+00  1.16997E+00  1.49024E-01  1.27983E+00  5.74838E-01  1.44954E+00
   1.82401E+00  5.48973E-01  1.36722E+00  1.74459E+00  1.93671E-01  2.19760E+00  3.10599E+00 -7.43004E-01  2.48799E+00  3.76576E+00
   6.87850E-01 -9.60906E-01  3.47832E+00  1.73778E+00  2.15989E+00  2.26772E+00  6.03240E-01 -9.22789E-01 -1.46328E+00 -3.55366E-01
   1.39550E+00  9.17409E-01  1.15790E+00  5.08501E+00  3.02713E+00  3.65889E+00  8.96920E-01  8.66843E-01  2.46708E+00  2.79559E+00
   2.56073E+00  2.47419E+00  2.49349E+00  3.16775E+00  1.70754E+00  2.39637E+00  1.30595E+00 -3.76206E-01  3.39878E+00  1.37851E+00
   3.08251E+00 -3.14332E+00 -1.31425E+00  1.26022E+00  2.73003E+00  2.27526E+00 -7.23995E-01 -9.30517E-01 -1.37015E+00  5.62162E-01
   1.21411E+00  2.66194E-01  2.74122E+00  2.77663E+00  1.08568E+00  3.54369E+00  2.69875E+00 -1.74448E+00 -6.88285E-01  5.40399E+00
   3.23647E-01  2.69148E-02  1.65855E+00  1.85373E+00 -8.03142E-01  1.83250E+00  2.08825E+00  6.87897E-01  4.68789E-01  1.29100E+00
  -2.14635E+00 -7.76661E-01 -4.25146E-01  8.09021E-01  3.38936E+00  7.49994E-01  1.81135E+00  3.96564E+00  5.89768E+00  1.98036E+00
   4.91707E+00  6.02347E-01  8.82385E-02  2.92843E+00  8.19751E-01  2.04968E-01  9.47741E-01  2.22671E-01  3.95376E-01  1.75917E-01
  -2.36939E+00  1.02040E-01  7.90527E-01 -1.16262E+00  1.50626E+00 -8.44776E-01 -1.07236E+00 -9.09517E-01  2.70199E-01  1.88715E+00
   1.78103E+00  9.02170E-01  1.39963E+00 -2.53680E+00  9.87900E-01 -2.10596E-01  5.95268E-01  1.83621E-02  1.46623E+00  1.59030E+00
  -8.39461E-02  7.72954E-01  1.68514E+00 -5.42067E-01  4.82436E-01  4.82404E-01 -6.06625E-01 -5.21295E-01 -1.37282E+00 -9.34420E-01
  -1.70810E+00 -3.83351E-01  1.89503E+00 -6.45168E-01  1.75127E+00  1.80766E+00  1.34422E+00 -2.54660E-02  2.57893E-01  2.78027E+00
   9.95736E-01  1.65165E+00 -6.74238E-01 -2.87532E+00  2.96295E-01  4.44076E-01  5.91604E-02  1.83944E+00 -2.01699E+00  4.60586E-01
   3.95410E-01  3.95051E+00 -2.12392E+00  1.69611E+00  8.10828E-01  8.73899E-01 -2.06720E+00 -5.69181E-01  2.32955E+00  3.00849E+00
   5.77048E-01  3.82728E+00  1.42414E+00  3.62485E-01  1.11561E+00 -2.31115E-01  5.50409E-01 -1.21799E+00  1.20635E+00  6.26971E-01
  -5.92762E+00 -9.70484E-01  1.69168E+00 -6.74777E-01  2.78384E+00 -4.71405E-01  1.25637E+00  3.69618E-01 -9.54825E-01  2.72220E+00
   9.66893E-01  1.06022E+00  7.30158E-01 -1.04471E+00 -1.52496E+00  1.26227E+00 -1.61760E+00 -9.26597E-01 -5.17395E-02 -2.64617E+00
   2.40289E+00 -9.53184E-01 -3.07051E-01  6.37993E-01 -1.46548E+00  1.87169E+00 -1.29570E+00  8.36343E-01  1.00568E+00  1.18249E+00
   9.01430E-01 -1.28412E-01 -1.93763E+00  5.46471E-01 -8.45046E-01 -3.94053E-01  1.90986E-01 -3.03499E-01  9.69581E-01 -3.27670E+00
  -9.30235E-01 -9.38620E-01  8.94608E-01  1.19067E+00  1.86515E-01 -2.82799E+00 -3.34629E+00 -5.12607E+00  1.94594E+00  2.24434E+00
   1.62403E+00  2.68324E+00  3.14979E+00  1.60959E+00 -1.05951E+00  4.38226E-01 -3.14545E-01 -9.44183E-01  2.09612E+00  1.21016E+00
   1.01990E+00  5.19331E-01 -1.32817E+00 -2.22049E+00  2.38303E+00 -2.06837E+00 -2.54804E+00  4.06569E-02  1.89996E+00 -2.59921E+00
  -2.26828E+00 -2.03738E+00 -1.04276E+00 -1.24240E+00  1.68386E+00 -4.16082E-02  6.15967E-01 -1.53113E+00 -3.09367E-01  1.50723E+00
  -2.83661E+00 -1.27865E+00  1.38526E-01 -5.06197E+00 -1.46239E+00 -3.41632E+00 -4.46248E+00 -2.77051E+00 -3.39235E+00  3.96206E-01
  -3.10427E-01 -2.74298E-01 -4.99108E+00 -1.65067E+00  7.60190E-01 -2.20376E+00 -1.63880E+00 -1.99282E+00 -4.50951E-01 -5.15473E+00
  -2.30445E+00 -4.72460E+00 -2.92329E+00 -4.15003E+00 -4.94548E-02 -4.51190E+00  2.70392E-01 -4.69201E+00 -2.05145E+00 -6.60614E+00
  -3.88152E+00 -3.35283E+00 -2.56572E+00 -1.76049E+00 -2.37797E+00  1.00273E+00  5.59091E-01  3.63122E-01 -3.82036E-01 -2.77650E-01
  -1.74498E+00  3.92343E-01 -1.09900E+00  2.98701E+00 -1.27658E-01  5.06309E-01  2.22503E+00  1.50723E+00  3.44199E+00  6.34679E+00
   4.00140E+00  2.88559E+00  1.60094E+00  2.22739E+00  3.26426E+00  4.85990E+00  1.28979E+00  4.00542E+00  4.42893E-01  4.01415E+00
   1.64969E+00  2.22377E+00  2.73251E+00  5.56962E+00  3.90630E+00  3.53771E+00  5.01465E+00  2.19188E+00  1.65913E+00  6.15542E+00
   1.23940E+00  3.29957E+00  3.13316E+00  2.40694E+00  4.05697E+00 -5.20654E-01  1.58889E-01  1.80245E+00  1.28504E+00  2.36763E+00
   2.53226E+00  1.24921E+00  2.27028E+00  4.67757E-01 -4.99839E-01  1.75746E-01 -6.83920E-02 -2.81135E+00 -1.10478E+00  8.04685E-01
  -1.16425E+00 -8.09078E-01 -1.06740E-01 -2.67459E+00  1.15718E+00  9.65793E-01 -7.03800E-01 -2.09493E-02 -6.94910E-01  1.09039E+00
   2.32200E+00 -2.49401E+00  8.17348E-01 -4.67731E+00  7.24375E-01 -8.99961E-01 -5.24306E-01 -3.23721E-01  2.97029E-01 -2.36937E+00
  -8.01664E-01 -2.88829E+00 -1.44521E+00  6.42637E-01 -1.44917E+00  2.13717E+00 -1.45804E+00  3.65527E-01  2.04486E+00 -9.62570E-01
  -2.70854E+00  1.62220E+00 -5.07200E-01 -6.40086E-01 -1.81745E+00 -5.23692E-01 -1.45834E+00 -1.52129E+00  9.42978E-02 -8.55465E-01
   1.55455E+00 -2.85448E+00  2.66072E-01 -5.41452E+00 -1.55193E+00  2.60780E-01 -4.39381E-01 -2.82360E+00 -1.20717E+00  9.46299E-01
  -2.93197E+00 -2.95474E+00 -1.33189E+00  1.05502E+00 -2.20261E+00  1.11917E+00 -1.55249E+00 -5.47128E+00 -2.48939E-01 -2.16026E-01
   1.40216E-01 -2.51659E+00 -7.90977E-01 -2.91134E+00 -2.54100E+00 -1.22159E+00  1.11891E+00  2.56801E+00 -9.04121E-01 -5.61191E-01
  -1.67390E+00  3.28214E+00 -8.13174E-01 -4.40966E-01 -7.78113E-01  2.03772E+00 -2.54006E+00 -4.27693E+00 -1.06329E+00 -1.43099E+00
  -3.09971E+00 -1.33704E+00  2.92618E+00 -4.03343E+00  2.89514E+00  1.43470E-01 -1.27391E+00  1.03628E+00 -1.17286E+00 -2.69682E+00
   1.03377E+00 -1.20650E+00  1.17311E+00 -8.79681E-01  2.37316E+00  3.07504E+00 -2.07227E+00  6.78959E-01  3.73434E+00  8.24316E-01
  -1.17363E-01  7.60695E-01 -1.17216E+00  6.02662E-01 -5.14049E-02  1.34807E+00  4.00826E-01 -3.49832E+00 -1.69939E-01 -7.22042E-01
   8.63539E-01  6.43426E-01  8.25449E-01  1.96472E+00 -1.12481E+00  1.05660E+00 -5.31365E-01  2.60037E+00
 NY points of the fit to the data follow
   1.44902E+00  1.31975E+00  1.24869E+00  1.21484E+00  1.19645E+00  1.45424E+00  2.05780E+00  2.73906E+00  3.33167E+00  3.76871E+00
   3.91294E+00  3.66648E+00  3.07296E+00  2.31203E+00  1.68114E+00  1.34592E+00  1.21748E+00  1.16554E+00  1.14374E+00  1.14645E+00
   1.17135E+00  1.23692E+00  1.29796E+00  1.28736E+00  1.19555E+00  1.04377E+00  9.49651E-01  9.99458E-01  1.20904E+00  1.54027E+00
   1.92266E+00  2.23299E+00  2.33942E+00  2.18618E+00  1.85009E+00  1.52336E+00  1.30403E+00  1.17818E+00  1.12319E+00  1.11219E+00
   1.09452E+00  1.03108E+00  9.29351E-01  8.72179E-01  1.02178E+00  1.41394E+00  1.88927E+00  2.28319E+00  2.52355E+00  2.55172E+00
   2.31700E+00  1.85151E+00  1.29821E+00  8.62685E-01  6.51988E-01  6.24558E-01  7.17827E-01  8.81124E-01  1.07953E+00  1.27985E+00
   1.43815E+00  1.51738E+00  1.49625E+00  1.36896E+00  1.16893E+00  9.71225E-01  8.46280E-01  8.07371E-01  8.53862E-01  9.70069E-01
   1.10006E+00  1.20235E+00  1.27376E+00  1.31266E+00  1.31203E+00  1.27375E+00  1.20087E+00  1.10990E+00  1.03024E+00  9.71608E-01
   9.28503E-01  9.00101E-01  9.09714E-01  9.44720E-01  9.48401E-01  8.84115E-01  7.59034E-01  5.97959E-01  4.31212E-01  2.92563E-01
   2.20354E-01  2.49507E-01  3.68307E-01  5.30772E-01  6.71812E-01  7.53975E-01  7.71697E-01  7.23078E-01  6.40035E-01  7.63675E-01
   1.13519E+00  1.56339E+00  1.96128E+00  2.27849E+00  2.39309E+00  2.21895E+00  1.78270E+00  1.22806E+00  7.94345E-01  5.88974E-01
   5.24053E-01  5.03221E-01  4.94162E-01  4.90618E-01  4.89897E-01  4.88923E-01  4.82428E-01  4.70045E-01  4.56952E-01  4.45688E-01
   4.35944E-01  4.05895E-01  4.07310E-01  8.84093E-01  1.84908E+00  2.88360E+00  3.77202E+00  4.40479E+00  4.56906E+00  4.14709E+00
   3.24178E+00  2.13677E+00  1.27257E+00  8.37560E-01  6.46068E-01  5.05688E-01  3.76571E-01  2.76622E-01  2.39793E-01  2.80014E-01
   3.72002E-01  4.73503E-01  5.52778E-01  5.89920E-01  5.81729E-01  5.47036E-01  5.06772E-01  4.73947E-01  4.50583E-01  4.32046E-01
   4.14690E-01  3.96900E-01  3.80197E-01  3.67172E-01  3.59123E-01  3.56247E-01  3.56413E-01  3.51502E-01  3.36913E-01  3.15996E-01
   2.91639E-01  2.72321E-01  2.63198E-01  2.63012E-01  2.70490E-01  2.80517E-01  2.82702E-01  2.71367E-01  2.50373E-01  2.27413E-01
   2.09402E-01  1.96654E-01  1.80397E-01  1.53688E-01  1.25209E-01  1.02395E-01  8.54339E-02  7.04329E-02  5.68764E-02  4.81739E-02
   4.63712E-02  4.29293E-02  2.89246E-02  7.00118E-03 -1.39405E-02 -2.52281E-02 -2.19262E-02  2.60321E-03  5.76780E-02  1.35858E-01
   2.02396E-01  2.36998E-01  2.11460E-01  1.11236E-01 -5.40930E-02 -2.38862E-01 -3.85218E-01 -4.33136E-01 -3.48856E-01 -1.56749E-01
   9.60901E-02  3.76302E-01  6.20684E-01  7.52540E-01  7.46822E-01  5.91732E-01  2.41987E-01 -1.92703E-01 -5.49269E-01 -7.82336E-01
  -8.66854E-01 -7.60969E-01 -4.89383E-01 -1.41379E-01  1.68270E-01  3.39098E-01  3.79051E-01  3.71100E-01  3.59454E-01  3.47719E-01
   3.39376E-01  3.37126E-01  3.38474E-01  3.40438E-01  3.39576E-01  3.33555E-01  3.21608E-01  2.94808E-01  2.38916E-01  1.69675E-01
   1.18260E-01  7.12870E-02 -2.42035E-02 -1.25599E-01 -1.54831E-01 -1.16198E-01 -3.28530E-02  1.25785E-01  3.30463E-01  4.89139E-01
   5.40162E-01  4.42268E-01  2.11902E-01 -6.48213E-02 -3.06835E-01 -4.72464E-01 -5.17717E-01 -4.31746E-01 -2.73673E-01 -1.03116E-01
   5.45233E-02  1.87376E-01  2.77978E-01  3.14295E-01  2.92482E-01  2.00272E-01  1.85558E-01  4.69503E-01  9.36847E-01  1.39618E+00
   1.78585E+00  2.02368E+00  1.99389E+00  1.66660E+00  1.12172E+00  5.60506E-01  1.96160E-01  3.90107E-02 -2.53555E-02 -6.58166E-02
  -9.78805E-02 -1.24131E-01 -1.44913E-01 -1.59694E-01 -1.70196E-01 -1.79856E-01 -1.90064E-01 -2.01278E-01 -2.14455E-01 -2.29753E-01
  -2.46684E-01 -2.63772E-01 -2.78587E-01 -2.90122E-01 -2.99040E-01 -3.05582E-01 -3.09782E-01 -3.12749E-01 -3.15771E-01 -3.19400E-01
  -3.23925E-01 -3.29178E-01 -3.34751E-01 -3.40493E-01 -3.46241E-01 -3.51616E-01 -3.56426E-01 -3.60681E-01 -3.64340E-01 -3.67476E-01
  -3.70281E-01 -3.72833E-01 -3.75075E-01 -3.76967E-01 -3.78490E-01 -3.79594E-01 -3.80229E-01 -3.80373E-01 -3.80012E-01 -3.79124E-01
  -3.77643E-01 -3.75440E-01 -3.72369E-01 -3.68279E-01 -3.62978E-01 -3.56209E-01 -3.47622E-01 -3.36751E-01 -3.22951E-01 -3.05320E-01
  -2.82626E-01 -2.53627E-01 -2.10736E-01 -1.03781E-01  4.97250E-02  1.49645E-01  1.60686E-01  9.34658E-02 -5.69116E-02 -2.81578E-01
  -5.57026E-01 -7.88101E-01 -8.10442E-01 -6.08617E-01 -2.89371E-01  8.12279E-02  4.70605E-01  8.28002E-01  1.10250E+00  1.26720E+00
   1.35684E+00  1.45801E+00  1.62402E+00  1.88904E+00  2.21573E+00  2.50796E+00  2.72869E+00  2.87751E+00  2.94088E+00  2.91375E+00
   2.81252E+00  2.74845E+00  2.83106E+00  3.03699E+00  3.27883E+00  3.50107E+00  3.66450E+00  3.72697E+00  3.65749E+00  3.45437E+00
   3.17453E+00  2.88755E+00  2.61562E+00  2.35178E+00  2.09166E+00  1.83654E+00  1.58938E+00  1.35329E+00  1.13102E+00  9.24728E-01
   7.35889E-01  5.65300E-01  4.13148E-01  2.79106E-01  1.62445E-01  6.21445E-02 -2.30074E-02 -9.43252E-02 -1.53147E-01 -2.00768E-01
  -2.38397E-01 -2.67128E-01 -2.87930E-01 -3.01645E-01 -3.08993E-01 -3.10585E-01 -3.06934E-01 -2.98483E-01 -2.85626E-01 -2.68732E-01
  -2.48167E-01 -2.24309E-01 -1.97568E-01 -1.68399E-01 -1.37317E-01 -1.04902E-01 -7.17958E-02 -3.86993E-02 -6.36032E-03  2.44389E-02
   5.29007E-02  7.82372E-02  9.96965E-02  1.16592E-01  1.28325E-01  1.34413E-01  1.34501E-01  1.28387E-01  1.16021E-01  9.75167E-02
   7.31350E-02  4.32778E-02  8.46451E-03 -3.06869E-02 -7.34865E-02 -1.19202E-01 -1.67084E-01 -2.16398E-01 -2.66442E-01 -3.16568E-01
  -3.66195E-01 -4.14821E-01 -4.62029E-01 -5.07489E-01 -5.50951E-01 -5.92246E-01 -6.31272E-01 -6.67990E-01 -7.02409E-01 -7.34584E-01
  -7.64599E-01 -7.92562E-01 -8.18593E-01 -8.42827E-01 -8.65398E-01 -8.86443E-01 -9.06092E-01 -9.24470E-01 -9.41696E-01 -9.57879E-01
  -9.73119E-01 -9.87508E-01 -1.00113E+00 -1.01406E+00 -1.02636E+00 -1.03810E+00 -1.04933E+00 -1.06009E+00 -1.07043E+00 -1.08039E+00
  -1.09001E+00 -1.09931E+00 -1.10832E+00 -1.11706E+00 -1.12556E+00 -1.13384E+00 -1.14192E+00 -1.14980E+00 -1.15751E+00 -1.16506E+00
  -1.17246E+00 -1.17972E+00 -1.18686E+00 -1.19387E+00 -1.20077E+00 -1.20757E+00 -1.21427E+00 -1.22088E+00 -1.22740E+00 -1.23384E+00
  -1.24021E+00 -1.24651E+00 -1.25275E+00 -1.25892E+00 -1.26503E+00 -1.27109E+00 -1.27709E+00 -1.28305E+00 -1.28896E+00 -1.29482E+00
  -1.30065E+00 -1.30643E+00 -1.31217E+00 -1.31788E+00 -1.32356E+00 -1.32920E+00 -1.33481E+00 -1.34039E+00 -1.34594E+00 -1.35146E+00
  -1.35696E+00 -1.36243E+00 -1.36788E+00 -1.37330E+00 -1.37870E+00 -1.38408E+00 -1.38943E+00 -1.39476E+00
 NY background values follow
     9.516E-01    9.468E-01    9.420E-01    9.372E-01    9.324E-01    9.275E-01    9.227E-01    9.179E-01    9.131E-01    9.083E-01
     9.035E-01    8.987E-01    8.939E-01    8.891E-01    8.843E-01    8.795E-01    8.747E-01    8.699E-01    8.651E-01    8.602E-01
     8.554E-01    8.506E-01    8.458E-01    8.410E-01    8.362E-01    8.314E-01    8.266E-01    8.218E-01    8.170E-01    8.122E-01
     8.074E-01    8.026E-01    7.978E-01    7.930E-01    7.882E-01    7.833E-01    7.785E-01    7.737E-01    7.689E-01    7.641E-01
     7.593E-01    7.545E-01    7.497E-01    7.449E-01    7.401E-01    7.353E-01    7.305E-01    7.257E-01    7.209E-01    7.161E-01
     7.112E-01    7.064E-01    7.016E-01    6.968E-01    6.920E-01    6.872E-01    6.824E-01    6.776E-01    6.728E-01    6.680E-01
     6.632E-01    6.584E-01    6.536E-01    6.488E-01    6.440E-01    6.392E-01    6.343E-01    6.295E-01    6.247E-01    6.199E-01
     6.151E-01    6.103E-01    6.055E-01    6.007E-01    5.959E-01    5.911E-01    5.863E-01    5.815E-01    5.767E-01    5.719E-01
     5.671E-01    5.623E-01    5.575E-01    5.527E-01    5.478E-01    5.430E-01    5.382E-01    5.334E-01    5.286E-01    5.238E-01
     5.190E-01    5.142E-01    5.094E-01    5.046E-01    4.998E-01    4.950E-01    4.902E-01    4.854E-01    4.806E-01    4.758E-01
     4.710E-01    4.662E-01    4.614E-01    4.565E-01    4.517E-01    4.469E-01    4.421E-01    4.373E-01    4.325E-01    4.277E-01
     4.229E-01    4.181E-01    4.133E-01    4.085E-01    4.037E-01    3.989E-01    3.941E-01    3.893E-01    3.845E-01    3.797E-01
     3.749E-01    3.701E-01    3.653E-01    3.605E-01    3.557E-01    3.509E-01    3.461E-01    3.412E-01    3.364E-01    3.316E-01
     3.268E-01    3.220E-01    3.172E-01    3.124E-01    3.076E-01    3.028E-01    2.980E-01    2.932E-01    2.884E-01    2.836E-01
     2.788E-01    2.740E-01    2.692E-01    2.644E-01    2.596E-01    2.548E-01    2.500E-01    2.452E-01    2.404E-01    2.356E-01
     2.308E-01    2.260E-01    2.212E-01    2.164E-01    2.116E-01    2.068E-01    2.020E-01    1.972E-01    1.924E-01    1.876E-01
     1.828E-01    1.780E-01    1.732E-01    1.684E-01    1.636E-01    1.588E-01    1.540E-01    1.492E-01    1.444E-01    1.396E-01
     1.348E-01    1.300E-01    1.252E-01    1.204E-01    1.156E-01    1.108E-01    1.060E-01    1.012E-01    9.637E-02    9.157E-02
     8.677E-02    8.197E-02    7.717E-02    7.238E-02    6.758E-02    6.278E-02    5.798E-02    5.318E-02    4.838E-02    4.358E-02
     3.879E-02    3.399E-02    2.919E-02    2.439E-02    1.959E-02    1.480E-02    9.999E-03    5.202E-03    4.042E-04   -4.393E-03
    -9.190E-03   -1.399E-02   -1.878E-02   -2.358E-02   -2.838E-02   -3.317E-02   -3.797E-02   -4.277E-02   -4.756E-02   -5.236E-02
    -5.715E-02   -6.195E-02   -6.675E-02   -7.154E-02   -7.634E-02   -8.113E-02   -8.593E-02   -9.072E-02   -9.552E-02   -1.003E-01
    -1.051E-01   -1.099E-01   -1.147E-01   -1.195E-01   -1.243E-01   -1.291E-01   -1.339E-01   -1.387E-01   -1.435E-01   -1.483E-01
    -1.530E-01   -1.578E-01   -1.626E-01   -1.674E-01   -1.722E-01   -1.770E-01   -1.818E-01   -1.866E-01   -1.914E-01   -1.962E-01
    -2.010E-01   -2.058E-01   -2.106E-01   -2.153E-01   -2.201E-01   -2.249E-01   -2.297E-01   -2.345E-01   -2.393E-01   -2.441E-01
    -2.489E-01   -2.537E-01   -2.585E-01   -2.632E-01   -2.680E-01   -2.728E-01   -2.776E-01   -2.824E-01   -2.872E-01   -2.920E-01
    -2.968E-01   -3.016E-01   -3.063E-01   -3.111E-01   -3.159E-01   -3.207E-01   -3.255E-01   -3.303E-01   -3.351E-01   -3.399E-01
    -3.446E-01   -3.494E-01   -3.542E-01   -3.590E-01   -3.638E-01   -3.686E-01   -3.734E-01   -3.781E-01   -3.829E-01   -3.877E-01
    -3.925E-01   -3.973E-01   -4.021E-01   -4.069E-01   -4.116E-01   -4.164E-01   -4.212E-01   -4.260E-01   -4.308E-01   -4.356E-01
    -4.403E-01   -4.451E-01   -4.499E-01   -4.547E-01   -4.595E-01   -4.643E-01   -4.690E-01   -4.738E-01   -4.786E-01   -4.834E-01
    -4.882E-01   -4.929E-01   -4.977E-01   -5.025E-01   -5.073E-01   -5.121E-01   -5.168E-01   -5.216E-01   -5.264E-01   -5.312E-01
    -5.360E-01   -5.407E-01   -5.455E-01   -5.503E-01   -5.551E-01   -5.599E-01   -5.646E-01   -5.694E-01   -5.742E-01   -5.790E-01
    -5.837E-01   -5.885E-01   -5.933E-01   -5.981E-01   -6.029E-01   -6.076E-01   -6.124E-01   -6.172E-01   -6.220E-01   -6.267E-01
    -6.315E-01   -6.363E-01   -6.411E-01   -6.458E-01   -6.506E-01   -6.554E-01   -6.602E-01   -6.649E-01   -6.697E-01   -6.745E-01
    -6.793E-01   -6.840E-01   -6.888E-01   -6.936E-01   -6.983E-01   -7.031E-01   -7.079E-01   -7.127E-01   -7.174E-01   -7.222E-01
    -7.270E-01   -7.318E-01   -7.365E-01   -7.413E-01   -7.461E-01   -7.508E-01   -7.556E-01   -7.604E-01   -7.652E-01   -7.699E-01
    -7.747E-01   -7.795E-01   -7.842E-01   -7.890E-01   -7.938E-01   -7.986E-01   -8.033E-01   -8.081E-01   -8.129E-01   -8.176E-01
    -8.224E-01   -8.272E-01   -8.319E-01   -8.367E-01   -8.415E-01   -8.462E-01   -8.510E-01   -8.558E-01   -8.606E-01   -8.653E-01
    -8.701E-01   -8.749E-01   -8.796E-01   -8.844E-01   -8.892E-01   -8.939E-01   -8.987E-01   -9.035E-01   -9.082E-01   -9.130E-01
    -9.178E-01   -9.225E-01   -9.273E-01   -9.321E-01   -9.368E-01   -9.416E-01   -9.464E-01   -9.511E-01   -9.559E-01   -9.607E-01
    -9.654E-01   -9.702E-01   -9.750E-01   -9.797E-01   -9.845E-01   -9.893E-01   -9.940E-01   -9.988E-01   -1.004E+00   -1.008E+00
    -1.013E+00   -1.018E+00   -1.023E+00   -1.027E+00   -1.032E+00   -1.037E+00   -1.042E+00   -1.046E+00   -1.051E+00   -1.056E+00
    -1.061E+00   -1.065E+00   -1.070E+00   -1.075E+00   -1.080E+00   -1.085E+00   -1.089E+00   -1.094E+00   -1.099E+00   -1.104E+00
    -1.108E+00   -1.113E+00   -1.118E+00   -1.123E+00   -1.127E+00   -1.132E+00   -1.137E+00   -1.142E+00   -1.146E+00   -1.151E+00
    -1.156E+00   -1.161E+00   -1.166E+00   -1.170E+00   -1.175E+00   -1.180E+00   -1.185E+00   -1.189E+00   -1.194E+00   -1.199E+00
    -1.204E+00   -1.208E+00   -1.213E+00   -1.218E+00   -1.223E+00   -1.227E+00   -1.232E+00   -1.237E+00   -1.242E+00   -1.246E+00
    -1.251E+00   -1.256E+00   -1.261E+00   -1.266E+00   -1.270E+00   -1.275E+00   -1.280E+00   -1.285E+00   -1.289E+00   -1.294E+00
    -1.299E+00   -1.304E+00   -1.308E+00   -1.313E+00   -1.318E+00   -1.323E+00   -1.327E+00   -1.332E+00   -1.337E+00   -1.342E+00
    -1.346E+00   -1.351E+00   -1.356E+00   -1.361E+00   -1.366E+00   -1.370E+00   -1.375E+00   -1.380E+00   -1.385E+00   -1.389E+00
    -1.394E+00   -1.399E+00   -1.404E+00   -1.408E+00   -1.413E+00   -1.418E+00   -1.423E+00   -1.427E+00
 Ala      Conc. = 3.73E+01
