 LCModel (Version 6.3-1L) Copyright: S.W. Provencher.          Ref.: Magn. Reson. Med. 30:672-679 (1993).                
 Slice#1 Row#10 Col#4  PD_05_press_2_raw_act
 36 lines in following concentration table = NCONC+1
    Conc.  %SD /Cr+PCr  Metabolite                                         
  309.646  41%   0.274 Ala                                                 
  159.705 139%   0.142 Asp                                                 
  105.960 265% 9.4E-02 Cr                                                  
 1.02E+03  28%   0.906 PCr                                                 
    0.000 999%   0.000 GABA                                                
   10.900 999% 9.7E-03 Glc                                                 
  482.415  50%   0.428 Gln                                                 
 1.59E+03  17%   1.406 Glu                                                 
  310.319   8%   0.275 GPC                                                 
    0.000 999%   0.000 PCh                                                 
  460.239  19%   0.408 GSH                                                 
 1.12E+03  27%   0.993 Ins                                                 
    0.000 999%   0.000 Lac                                                 
 2.56E+03   3%   2.273 NAA                                                 
    0.000 999%   0.000 NAAG                                                
  107.539  28% 9.5E-02 Scyllo                                              
   32.706 667% 2.9E-02 Tau                                                 
  618.779  22%   0.548 -CrCH2                                              
  310.319   8%   0.275 GPC+PCh                                             
 2.56E+03   3%   2.273 NAA+NAAG                                            
 1.13E+03   6%   1.000 Cr+PCr                                              
 2.07E+03  19%   1.834 Glu+Gln                                             
  386.747 120%   0.343 Lip13a                                              
    0.000 999%   0.000 Lip13b                                              
   24.669 617% 2.2E-02 Lip09                                               
 1.69E+03  16%   1.497 MM09                                                
   52.379 174% 4.6E-02 Lip20                                               
 2.39E+03  18%   2.119 MM20                                                
  515.556  27%   0.457 MM12                                                
 3.63E+03  11%   3.218+MM14                                                
 1.86E+03  13%   1.650+MM17                                                
  386.747 120%   0.343 Lip13a+Lip13b                                       
 4.53E+03  13%   4.018 MM14+Lip13a+Lip13b+MM12                             
 1.71E+03  16%   1.519 MM09+Lip09                                          
 2.44E+03  17%   2.166 MM20+Lip20                                          
   6 lines in following misc. output table
  FWHM = 0.046 ppm    S/N =  12                                            
  Data shift = 0.031 ppm                                                   
  Ph: -31 deg     -12.0 deg/ppm                                            
  alphaB,S = 5.3E-01,   9.2E+01                                            
   14 spline knots.   Ns = 7(1)                                            
  (10) 2 infls.   ( 7) 1 extrs.                                            
  498 points on ppm-axis = NY
      4.000000     3.992357     3.984714     3.977070     3.969427     3.961784     3.954141     3.946497     3.938854     3.931211
      3.923568     3.915925     3.908281     3.900638     3.892995     3.885352     3.877708     3.870065     3.862422     3.854779
      3.847136     3.839492     3.831849     3.824206     3.816563     3.808919     3.801276     3.793633     3.785990     3.778347
      3.770703     3.763060     3.755417     3.747774     3.740130     3.732487     3.724844     3.717201     3.709558     3.701914
      3.694271     3.686628     3.678985     3.671341     3.663698     3.656055     3.648412     3.640769     3.633125     3.625482
      3.617839     3.610196     3.602552     3.594909     3.587266     3.579623     3.571980     3.564336     3.556693     3.549050
      3.541407     3.533763     3.526120     3.518477     3.510834     3.503191     3.495547     3.487904     3.480261     3.472618
      3.464974     3.457331     3.449688     3.442045     3.434402     3.426758     3.419115     3.411472     3.403829     3.396185
      3.388542     3.380899     3.373256     3.365613     3.357969     3.350326     3.342683     3.335040     3.327396     3.319753
      3.312110     3.304467     3.296824     3.289180     3.281537     3.273894     3.266251     3.258607     3.250964     3.243321
      3.235678     3.228034     3.220391     3.212748     3.205105     3.197462     3.189818     3.182175     3.174532     3.166889
      3.159245     3.151602     3.143959     3.136316     3.128673     3.121029     3.113386     3.105743     3.098100     3.090456
      3.082813     3.075170     3.067527     3.059884     3.052240     3.044597     3.036954     3.029311     3.021667     3.014024
      3.006381     2.998738     2.991095     2.983451     2.975808     2.968165     2.960522     2.952878     2.945235     2.937592
      2.929949     2.922306     2.914662     2.907019     2.899376     2.891733     2.884089     2.876446     2.868803     2.861160
      2.853517     2.845873     2.838230     2.830587     2.822944     2.815300     2.807657     2.800014     2.792371     2.784728
      2.777084     2.769441     2.761798     2.754155     2.746511     2.738868     2.731225     2.723582     2.715939     2.708295
      2.700652     2.693009     2.685366     2.677722     2.670079     2.662436     2.654793     2.647150     2.639506     2.631863
      2.624220     2.616577     2.608933     2.601290     2.593647     2.586004     2.578361     2.570717     2.563074     2.555431
      2.547788     2.540144     2.532501     2.524858     2.517215     2.509572     2.501928     2.494285     2.486642     2.478999
      2.471355     2.463712     2.456069     2.448426     2.440783     2.433139     2.425496     2.417853     2.410210     2.402566
      2.394923     2.387280     2.379637     2.371994     2.364350     2.356707     2.349064     2.341421     2.333777     2.326134
      2.318491     2.310848     2.303205     2.295561     2.287918     2.280275     2.272632     2.264988     2.257345     2.249702
      2.242059     2.234416     2.226772     2.219129     2.211486     2.203843     2.196199     2.188556     2.180913     2.173270
      2.165627     2.157983     2.150340     2.142697     2.135054     2.127410     2.119767     2.112124     2.104481     2.096838
      2.089194     2.081551     2.073908     2.066265     2.058621     2.050978     2.043335     2.035692     2.028049     2.020405
      2.012762     2.005119     1.997476     1.989833     1.982190     1.974546     1.966903     1.959260     1.951617     1.943974
      1.936331     1.928688     1.921045     1.913402     1.905759     1.898115     1.890472     1.882829     1.875186     1.867543
      1.859900     1.852257     1.844614     1.836971     1.829327     1.821684     1.814041     1.806398     1.798755     1.791112
      1.783469     1.775826     1.768183     1.760540     1.752896     1.745253     1.737610     1.729967     1.722324     1.714681
      1.707038     1.699395     1.691752     1.684108     1.676465     1.668822     1.661179     1.653536     1.645893     1.638250
      1.630607     1.622964     1.615321     1.607677     1.600034     1.592391     1.584748     1.577105     1.569462     1.561819
      1.554176     1.546533     1.538890     1.531246     1.523603     1.515960     1.508317     1.500674     1.493031     1.485388
      1.477745     1.470102     1.462458     1.454815     1.447172     1.439529     1.431886     1.424243     1.416600     1.408957
      1.401314     1.393671     1.386027     1.378384     1.370741     1.363098     1.355455     1.347812     1.340169     1.332526
      1.324883     1.317240     1.309596     1.301953     1.294310     1.286667     1.279024     1.271381     1.263738     1.256095
      1.248452     1.240808     1.233165     1.225522     1.217879     1.210236     1.202593     1.194950     1.187307     1.179664
      1.172021     1.164377     1.156734     1.149091     1.141448     1.133805     1.126162     1.118519     1.110876     1.103233
      1.095590     1.087946     1.080303     1.072660     1.065017     1.057374     1.049731     1.042088     1.034445     1.026802
      1.019158     1.011515     1.003872     0.996229     0.988586     0.980943     0.973300     0.965657     0.958014     0.950371
      0.942727     0.935084     0.927441     0.919798     0.912155     0.904512     0.896869     0.889226     0.881583     0.873940
      0.866296     0.858653     0.851010     0.843367     0.835724     0.828081     0.820438     0.812795     0.805152     0.797508
      0.789865     0.782222     0.774579     0.766936     0.759293     0.751650     0.744007     0.736364     0.728721     0.721077
      0.713434     0.705791     0.698148     0.690505     0.682862     0.675219     0.667576     0.659933     0.652290     0.644646
      0.637003     0.629360     0.621717     0.614074     0.606431     0.598788     0.591145     0.583502     0.575858     0.568215
      0.560572     0.552929     0.545286     0.537643     0.530000     0.522357     0.514714     0.507071     0.499427     0.491784
      0.484141     0.476498     0.468855     0.461212     0.453569     0.445925     0.438282     0.430639     0.422996     0.415353
      0.407710     0.400067     0.392424     0.384780     0.377137     0.369494     0.361851     0.354208     0.346565     0.338922
      0.331278     0.323635     0.315992     0.308349     0.300706     0.293063     0.285420     0.277777     0.270133     0.262490
      0.254847     0.247204     0.239561     0.231918     0.224275     0.216631     0.208988     0.201345
 NY phased data points follow
  -8.05834E+01 -8.12573E+01 -7.95348E+01 -7.75919E+01 -7.37180E+01 -7.76648E+01 -6.48333E+01 -6.66495E+01 -6.17802E+01 -5.54714E+01
  -5.67953E+01 -5.65377E+01 -5.84382E+01 -6.12759E+01 -5.70190E+01 -6.41719E+01 -6.04587E+01 -6.69158E+01 -6.61183E+01 -6.49061E+01
  -6.53956E+01 -6.37671E+01 -6.53215E+01 -6.14309E+01 -6.08436E+01 -6.31087E+01 -5.42192E+01 -5.14472E+01 -4.98126E+01 -4.85283E+01
  -4.44557E+01 -4.59283E+01 -5.04865E+01 -4.35218E+01 -4.51270E+01 -4.30025E+01 -4.74001E+01 -4.57614E+01 -4.63209E+01 -4.19044E+01
  -4.09730E+01 -5.11131E+01 -4.11140E+01 -4.17058E+01 -3.88955E+01 -3.16794E+01 -3.76013E+01 -4.00887E+01 -3.95874E+01 -3.84222E+01
  -4.04554E+01 -4.32547E+01 -3.98433E+01 -4.10239E+01 -3.48346E+01 -3.50939E+01 -3.83614E+01 -3.62642E+01 -3.31845E+01 -3.45261E+01
  -3.73730E+01 -3.81034E+01 -3.64345E+01 -4.55801E+01 -3.86839E+01 -4.05684E+01 -3.67398E+01 -4.26015E+01 -3.77326E+01 -4.16201E+01
  -3.64776E+01 -3.88914E+01 -3.71279E+01 -3.13372E+01 -3.03246E+01 -3.39634E+01 -3.55897E+01 -3.09933E+01 -3.54099E+01 -3.66019E+01
  -3.12435E+01 -2.96858E+01 -2.95707E+01 -2.46670E+01 -2.33843E+01 -2.41638E+01 -2.56081E+01 -2.19290E+01 -3.11534E+01 -2.22205E+01
  -2.63860E+01 -2.61457E+01 -2.13357E+01 -1.80328E+01 -2.06185E+01 -2.54571E+01 -1.99863E+01 -2.23928E+01 -1.94121E+01 -1.47919E+01
  -1.06081E+01  2.57545E+00  2.26986E+00  7.84990E+00  3.63545E+00 -5.93474E-01 -4.32763E+00 -1.34172E+01 -8.41767E+00 -2.20158E+01
  -1.68735E+01 -1.87686E+01 -1.33627E+01 -1.38526E+01 -1.63071E+01 -1.74993E+01 -9.81045E+00 -1.38293E+01 -1.57759E+01 -1.80137E+01
  -1.45866E+01 -1.49461E+01 -6.80100E+00 -3.38367E+00  2.23788E+00  1.81192E+01  2.20094E+01  2.54370E+01  2.01840E+01  1.37822E+01
   5.65366E+00  3.21717E+00 -4.36375E-01 -9.22869E+00 -7.19086E+00 -6.17696E+00 -1.40150E+01 -1.55119E+01 -9.85398E+00 -1.84337E+01
  -1.59539E+01 -1.36137E+01 -1.40932E+01 -1.62439E+01 -1.56605E+01 -1.26729E+01 -1.04465E+01 -1.35325E+01 -1.44738E+01 -1.29099E+01
  -1.18163E+01 -1.35415E+01 -1.73692E+01 -1.23639E+01 -8.14677E+00 -1.31610E+01 -1.27271E+01 -1.67353E+01 -1.49078E+01 -1.33973E+01
  -1.42069E+01 -1.04513E+01 -1.45728E+01 -8.52079E+00 -1.78889E+01 -1.42909E+01 -2.22954E+01 -1.20498E+01 -1.22450E+01 -1.73778E+01
  -1.48893E+01 -2.20607E+01 -1.87887E+01 -1.77484E+01 -2.23897E+01 -2.40269E+01 -2.31079E+01 -1.47017E+01 -2.33967E+01 -1.86897E+01
  -1.99501E+01 -1.45692E+01 -1.23330E+01 -1.13750E+01 -1.74060E+01 -1.21094E+01 -1.44192E+01 -9.73349E+00 -1.29756E+01 -1.20382E+01
  -8.41800E+00 -8.34466E+00 -8.29187E+00 -9.31684E+00 -5.42816E+00 -9.89490E+00 -1.49441E+01 -1.12830E+01 -1.53510E+01 -1.65064E+01
  -1.42970E+01 -8.17880E+00 -2.62027E+00 -4.29841E+00 -4.11396E+00 -8.32813E-01 -4.01225E+00 -8.71928E+00 -9.31044E+00 -1.19375E+01
  -6.40853E+00 -4.65919E+00 -2.13601E+00  2.51375E+00  2.93533E+00  1.36080E+01  7.24687E+00  6.50702E+00  3.57924E+00 -3.76358E+00
  -1.09033E+01 -9.40013E+00 -3.86921E+00 -7.58395E+00 -6.43996E+00 -5.79913E+00 -4.20683E+00  1.58595E+00 -2.82242E-01  5.99540E+00
   8.59818E-01 -9.23746E-01  3.23921E+00  2.58049E+00 -1.10781E+00 -1.80187E-01  7.66050E+00 -1.48773E+00 -1.85674E+00 -7.85259E-01
   2.11059E+00  1.60119E+00 -3.46584E+00  2.05038E+00  1.07808E+00  1.27236E+00  1.97694E+00  9.40169E+00  5.77550E+00  7.67972E+00
   1.31135E+01  7.65696E+00  9.89016E+00  1.09269E+01  9.99196E+00  2.12057E+01  3.49742E+01  4.85432E+01  8.00427E+01  9.08525E+01
   9.85036E+01  8.99178E+01  7.68908E+01  6.05656E+01  5.09273E+01  3.16011E+01  2.13345E+01  1.68582E+01  1.11859E+01  5.55483E+00
   7.58902E+00  8.07185E+00  5.68127E+00 -3.19602E-01  6.68576E+00 -2.99886E+00 -5.47003E-02 -2.79778E+00 -3.29360E-01  2.79520E-01
  -3.39406E+00  6.26137E+00  3.45318E+00  1.88251E+00  2.91729E+00  4.25981E+00 -1.09554E+00  4.30365E+00  1.06094E+00  6.55327E+00
  -2.80810E+00  2.02292E+00  1.44462E+00  5.83151E+00  3.70501E-01  6.60610E+00  5.45402E+00  4.90105E+00  5.21238E+00  1.03431E+01
   9.13128E+00  1.23524E+01  9.79659E+00  1.45889E+01  1.35799E+01  1.65048E+01  1.88525E+01  1.74811E+01  2.05902E+01  1.98041E+01
   2.57831E+01  2.53673E+01  3.32123E+01  2.94951E+01  2.89404E+01  2.42367E+01  3.17242E+01  3.34949E+01  3.14864E+01  3.54989E+01
   3.58592E+01  3.25152E+01  3.14599E+01  4.05871E+01  3.21232E+01  3.67576E+01  3.71208E+01  4.01094E+01  3.37930E+01  2.95074E+01
   3.19856E+01  2.96266E+01  2.06845E+01  2.38516E+01  2.22556E+01  2.32036E+01  1.72262E+01  1.54393E+01  1.52507E+01  1.74514E+01
   1.62552E+01  1.29793E+01  1.81419E+01  1.31584E+01  1.63173E+01  1.38607E+01  7.01390E+00  1.42537E+01  1.25490E+01  7.29033E+00
   4.56180E+00  1.08334E+01  6.10825E+00  2.84232E+00  5.55241E+00  8.23812E+00 -3.80440E+00 -1.53963E+00  8.30876E+00  6.32383E-01
  -2.59666E+00  5.08980E+00  3.18765E+00  1.49169E+00  1.08526E+01  5.61599E+00  6.25870E+00 -7.05380E-01  7.79407E+00  2.06547E+00
   2.05524E+00  2.70810E+00  4.76994E+00  6.85897E+00  3.37567E+00  3.97604E+00  7.64210E+00  3.57742E+00 -1.07865E+00  3.24181E+00
   4.03206E+00 -2.02709E+00  1.68454E+00 -1.10269E+00 -2.40476E+00 -1.36017E+00 -4.29410E+00  1.30181E+00 -2.55406E+00 -6.07561E+00
  -2.01564E+00  2.77756E-01 -3.50325E+00 -1.65015E+00  6.87118E+00  2.54795E+00  4.33189E+00  6.16578E+00  1.04416E+01  4.41376E+00
   5.26394E+00  1.17304E+01  1.23267E+01  4.39950E+00  1.18700E+01  1.36205E+01  1.11947E+01  1.16719E+01  1.24112E+01  1.08213E+01
   1.10909E+01  1.01164E+01  4.91453E+00  1.04942E+01  8.02782E+00  9.99528E+00  6.32702E+00  8.12145E+00  6.66115E+00  6.32506E+00
   7.66777E+00  1.08968E-01  2.99474E+00  6.82261E+00  7.18456E-01  1.39162E+00  2.71086E+00  3.55463E+00 -6.63785E-02  1.89400E+00
  -2.97098E+00  3.60852E+00  1.67366E+00  9.07167E-01  2.09406E+00  2.54318E-01 -2.73789E-01  1.34586E+00  4.53989E-01  3.70556E+00
   4.91769E+00 -2.41671E+00  2.94603E+00  4.93841E+00  3.38673E+00  2.73948E+00  2.40514E+00  3.69236E+00 -3.81618E+00 -4.42104E-01
  -1.25909E+00 -3.11432E+00  5.27604E+00  5.71199E+00 -1.54589E-01  6.73638E+00  3.17067E+00 -8.89455E-01  4.78852E+00  4.49846E+00
   5.40249E+00  2.82492E+00  9.19157E-01  4.63746E+00  4.15730E+00  8.31315E+00  4.59429E+00  1.16475E+00  2.85838E+00 -9.30770E-01
   4.47141E+00  8.62803E+00  4.26819E+00  6.83891E-01  8.09847E+00  7.30141E+00  7.16381E+00  2.69748E+00  3.93692E+00  5.79723E+00
   2.53316E+00  9.09508E-01  2.09063E+00 -1.49548E+00  5.51060E+00  6.85577E+00  3.36636E+00  4.22667E+00  3.05512E+00  8.48019E-01
   8.87499E+00  5.03702E+00  5.25211E+00  2.86544E+00  4.58447E+00  1.01564E+01  1.42879E+00  8.27288E+00
 NY points of the fit to the data follow
  -7.59425E+01 -7.56330E+01 -7.51463E+01 -7.44854E+01 -7.33806E+01 -7.15162E+01 -6.85542E+01 -6.46030E+01 -6.06287E+01 -5.77707E+01
  -5.65744E+01 -5.68143E+01 -5.78100E+01 -5.90589E+01 -6.03065E+01 -6.13238E+01 -6.19370E+01 -6.24261E+01 -6.26134E+01 -6.21652E+01
  -6.14319E+01 -6.06006E+01 -5.98621E+01 -5.92792E+01 -5.87659E+01 -5.80433E+01 -5.66677E+01 -5.42561E+01 -5.10084E+01 -4.76824E+01
  -4.50553E+01 -4.35118E+01 -4.30874E+01 -4.37255E+01 -4.52512E+01 -4.72200E+01 -4.90419E+01 -5.03795E+01 -5.11357E+01 -5.10808E+01
  -5.02456E+01 -4.88231E+01 -4.68546E+01 -4.43553E+01 -4.15789E+01 -3.92211E+01 -3.78961E+01 -3.78215E+01 -3.87514E+01 -4.00838E+01
  -4.13776E+01 -4.24205E+01 -4.30261E+01 -4.31142E+01 -4.27821E+01 -4.20634E+01 -4.09309E+01 -3.96027E+01 -3.84530E+01 -3.77299E+01
  -3.74920E+01 -3.76130E+01 -3.78717E+01 -3.80530E+01 -3.79924E+01 -3.76242E+01 -3.70108E+01 -3.62334E+01 -3.53454E+01 -3.44530E+01
  -3.36607E+01 -3.30527E+01 -3.26346E+01 -3.23443E+01 -3.21268E+01 -3.19428E+01 -3.17592E+01 -3.15461E+01 -3.12709E+01 -3.09090E+01
  -3.03500E+01 -2.94875E+01 -2.83006E+01 -2.68928E+01 -2.55815E+01 -2.47871E+01 -2.46908E+01 -2.51034E+01 -2.56581E+01 -2.60637E+01
  -2.62320E+01 -2.61926E+01 -2.59974E+01 -2.57602E+01 -2.56210E+01 -2.54489E+01 -2.48404E+01 -2.32390E+01 -1.98986E+01 -1.43787E+01
  -7.07889E+00  1.91549E-01  5.02556E+00  6.11265E+00  3.85541E+00 -2.79262E-01 -4.94106E+00 -9.39104E+00 -1.31752E+01 -1.59680E+01
  -1.79401E+01 -1.94505E+01 -2.01098E+01 -2.00676E+01 -1.98470E+01 -1.95784E+01 -1.92918E+01 -1.89850E+01 -1.86234E+01 -1.80873E+01
  -1.69888E+01 -1.45802E+01 -1.00182E+01 -2.83616E+00  6.44957E+00  1.55777E+01  2.15335E+01  2.27522E+01  1.98464E+01  1.46863E+01
   8.94908E+00  3.38635E+00 -1.70837E+00 -6.06467E+00 -9.76542E+00 -1.29659E+01 -1.48045E+01 -1.52341E+01 -1.49565E+01 -1.42923E+01
  -1.35261E+01 -1.29058E+01 -1.25228E+01 -1.23238E+01 -1.22951E+01 -1.24164E+01 -1.26229E+01 -1.28743E+01 -1.31388E+01 -1.33769E+01
  -1.35887E+01 -1.37300E+01 -1.38037E+01 -1.38097E+01 -1.37729E+01 -1.37598E+01 -1.38753E+01 -1.42007E+01 -1.46985E+01 -1.51629E+01
  -1.53319E+01 -1.50810E+01 -1.45193E+01 -1.39547E+01 -1.36629E+01 -1.36937E+01 -1.39414E+01 -1.42792E+01 -1.46094E+01 -1.49076E+01
  -1.52615E+01 -1.56993E+01 -1.62130E+01 -1.67320E+01 -1.70289E+01 -1.69812E+01 -1.66617E+01 -1.62781E+01 -1.60346E+01 -1.59371E+01
  -1.58428E+01 -1.56863E+01 -1.55424E+01 -1.54526E+01 -1.52809E+01 -1.47824E+01 -1.37510E+01 -1.21587E+01 -1.03004E+01 -8.56316E+00
  -7.30571E+00 -6.65429E+00 -6.54458E+00 -6.84553E+00 -7.38121E+00 -7.99827E+00 -8.53402E+00 -8.69198E+00 -8.24251E+00 -7.20274E+00
  -5.74019E+00 -4.11671E+00 -2.69504E+00 -1.88378E+00 -1.97710E+00 -3.01392E+00 -4.73974E+00 -6.87264E+00 -8.90817E+00 -1.02703E+01
  -1.05373E+01 -9.48190E+00 -7.13972E+00 -3.89605E+00 -6.44631E-01  1.52869E+00  1.91017E+00  4.58961E-01 -2.32956E+00 -5.86889E+00
  -9.25669E+00 -1.14640E+01 -1.18739E+01 -1.05229E+01 -8.06327E+00 -5.19296E+00 -2.48825E+00 -4.58854E-01  7.08457E-01  1.09432E+00
   1.07815E+00  1.03551E+00  1.12895E+00  1.50123E+00  2.25631E+00  3.21220E+00  4.01889E+00  4.33247E+00  4.00373E+00  3.20296E+00
   2.24724E+00  1.48397E+00  1.28353E+00  1.82100E+00  2.91285E+00  4.15018E+00  5.24308E+00  6.06239E+00  6.56078E+00  6.82399E+00
   7.07678E+00  7.55049E+00  8.31934E+00  9.86771E+00  1.36099E+01  2.15610E+01  3.52665E+01  5.45675E+01  7.55078E+01  9.09515E+01
   9.57978E+01  9.00247E+01  7.74742E+01  6.25469E+01  4.78445E+01  3.47201E+01  2.43460E+01  1.66938E+01  1.04475E+01  6.25241E+00
   4.79546E+00  4.22999E+00  3.97093E+00  3.87591E+00  3.85010E+00  3.78469E+00  3.66635E+00  3.49772E+00  3.28374E+00  3.05079E+00
   2.83668E+00  2.65534E+00  2.50901E+00  2.40319E+00  2.33581E+00  2.29852E+00  2.28523E+00  2.29565E+00  2.33583E+00  2.41362E+00
   2.53195E+00  2.70170E+00  2.93480E+00  3.24175E+00  3.63213E+00  4.11615E+00  4.70446E+00  5.40665E+00  6.22892E+00  7.17630E+00
   8.25003E+00  9.44649E+00  1.07566E+01  1.21664E+01  1.36568E+01  1.52056E+01  1.67881E+01  1.83788E+01  1.99518E+01  2.14828E+01
   2.29505E+01  2.43382E+01  2.56341E+01  2.68328E+01  2.79332E+01  2.89388E+01  2.98563E+01  3.06953E+01  3.14671E+01  3.21860E+01
   3.28743E+01  3.35718E+01  3.43102E+01  3.50587E+01  3.56810E+01  3.59185E+01  3.54348E+01  3.40624E+01  3.19563E+01  2.94781E+01
   2.70092E+01  2.48351E+01  2.31661E+01  2.21817E+01  2.18280E+01  2.17053E+01  2.13856E+01  2.07045E+01  1.95862E+01  1.81158E+01
   1.64514E+01  1.47239E+01  1.30704E+01  1.15592E+01  1.01555E+01  8.93784E+00  7.96385E+00  7.17616E+00  6.53823E+00  6.02660E+00
   5.62173E+00  5.30643E+00  5.06468E+00  4.88188E+00  4.74442E+00  4.64028E+00  4.55880E+00  4.49112E+00  4.42961E+00  4.36815E+00
   4.30160E+00  4.22632E+00  4.13963E+00  4.04020E+00  3.92728E+00  3.80104E+00  3.66204E+00  3.51173E+00  3.35191E+00  3.18499E+00
   3.01336E+00  2.83975E+00  2.66678E+00  2.49748E+00  2.33473E+00  2.18157E+00  2.04066E+00  1.91474E+00  1.80636E+00  1.71831E+00
   1.65317E+00  1.61368E+00  1.60230E+00  1.62175E+00  1.67472E+00  1.76423E+00  1.89310E+00  2.06425E+00  2.28018E+00  2.54335E+00
   2.85564E+00  3.21849E+00  3.63211E+00  4.09562E+00  4.60646E+00  5.16062E+00  5.75205E+00  6.37294E+00  7.01312E+00  7.66072E+00
   8.30201E+00  8.92231E+00  9.50605E+00  1.00377E+01  1.05020E+01  1.08853E+01  1.11757E+01  1.13642E+01  1.14448E+01  1.14148E+01
   1.12752E+01  1.10304E+01  1.06883E+01  1.02597E+01  9.75752E+00  9.19638E+00  8.59156E+00  7.95869E+00  7.31278E+00  6.66794E+00
   6.03649E+00  5.42902E+00  4.85389E+00  4.31764E+00  3.82463E+00  3.37758E+00  2.97728E+00  2.62333E+00  2.31408E+00  2.04735E+00
   1.82021E+00  1.62958E+00  1.47194E+00  1.34398E+00  1.24237E+00  1.16420E+00  1.10663E+00  1.06719E+00  1.04347E+00  1.03351E+00
   1.03549E+00  1.04804E+00  1.06976E+00  1.09956E+00  1.13628E+00  1.17914E+00  1.22737E+00  1.28046E+00  1.33773E+00  1.39874E+00
   1.46289E+00  1.52992E+00  1.59945E+00  1.67131E+00  1.74516E+00  1.82083E+00  1.89808E+00  1.97686E+00  2.05702E+00  2.13854E+00
   2.22116E+00  2.30483E+00  2.38941E+00  2.47495E+00  2.56133E+00  2.64855E+00  2.73641E+00  2.82491E+00  2.91397E+00  3.00366E+00
   3.09389E+00  3.18464E+00  3.27576E+00  3.36729E+00  3.45919E+00  3.55154E+00  3.64422E+00  3.73722E+00  3.83041E+00  3.92388E+00
   4.01758E+00  4.11160E+00  4.20579E+00  4.30016E+00  4.39462E+00  4.48928E+00  4.58410E+00  4.67912E+00  4.77421E+00  4.86939E+00
   4.96460E+00  5.05997E+00  5.15543E+00  5.25102E+00  5.34660E+00  5.44224E+00  5.53791E+00  5.63372E+00
 NY background values follow
    -7.858E+01   -7.793E+01   -7.728E+01   -7.663E+01   -7.597E+01   -7.532E+01   -7.467E+01   -7.401E+01   -7.336E+01   -7.271E+01
    -7.206E+01   -7.141E+01   -7.076E+01   -7.011E+01   -6.946E+01   -6.881E+01   -6.816E+01   -6.751E+01   -6.687E+01   -6.623E+01
    -6.558E+01   -6.494E+01   -6.431E+01   -6.367E+01   -6.303E+01   -6.240E+01   -6.177E+01   -6.114E+01   -6.051E+01   -5.989E+01
    -5.927E+01   -5.865E+01   -5.803E+01   -5.742E+01   -5.680E+01   -5.620E+01   -5.559E+01   -5.499E+01   -5.439E+01   -5.379E+01
    -5.320E+01   -5.261E+01   -5.203E+01   -5.144E+01   -5.087E+01   -5.029E+01   -4.972E+01   -4.916E+01   -4.860E+01   -4.804E+01
    -4.749E+01   -4.694E+01   -4.639E+01   -4.585E+01   -4.531E+01   -4.478E+01   -4.425E+01   -4.373E+01   -4.321E+01   -4.269E+01
    -4.218E+01   -4.168E+01   -4.117E+01   -4.068E+01   -4.018E+01   -3.969E+01   -3.921E+01   -3.873E+01   -3.825E+01   -3.778E+01
    -3.732E+01   -3.685E+01   -3.640E+01   -3.595E+01   -3.550E+01   -3.505E+01   -3.462E+01   -3.418E+01   -3.375E+01   -3.333E+01
    -3.291E+01   -3.249E+01   -3.208E+01   -3.168E+01   -3.128E+01   -3.088E+01   -3.049E+01   -3.011E+01   -2.973E+01   -2.935E+01
    -2.898E+01   -2.862E+01   -2.826E+01   -2.790E+01   -2.755E+01   -2.720E+01   -2.686E+01   -2.653E+01   -2.620E+01   -2.587E+01
    -2.555E+01   -2.523E+01   -2.492E+01   -2.461E+01   -2.431E+01   -2.401E+01   -2.372E+01   -2.343E+01   -2.315E+01   -2.287E+01
    -2.259E+01   -2.232E+01   -2.206E+01   -2.180E+01   -2.154E+01   -2.129E+01   -2.104E+01   -2.079E+01   -2.055E+01   -2.032E+01
    -2.009E+01   -1.986E+01   -1.964E+01   -1.942E+01   -1.920E+01   -1.899E+01   -1.879E+01   -1.858E+01   -1.838E+01   -1.819E+01
    -1.800E+01   -1.781E+01   -1.763E+01   -1.745E+01   -1.728E+01   -1.710E+01   -1.694E+01   -1.677E+01   -1.661E+01   -1.646E+01
    -1.630E+01   -1.615E+01   -1.600E+01   -1.586E+01   -1.572E+01   -1.558E+01   -1.544E+01   -1.531E+01   -1.518E+01   -1.505E+01
    -1.493E+01   -1.480E+01   -1.468E+01   -1.456E+01   -1.444E+01   -1.433E+01   -1.421E+01   -1.410E+01   -1.398E+01   -1.387E+01
    -1.376E+01   -1.365E+01   -1.355E+01   -1.344E+01   -1.333E+01   -1.322E+01   -1.312E+01   -1.301E+01   -1.291E+01   -1.280E+01
    -1.270E+01   -1.259E+01   -1.249E+01   -1.238E+01   -1.227E+01   -1.217E+01   -1.206E+01   -1.195E+01   -1.184E+01   -1.173E+01
    -1.162E+01   -1.150E+01   -1.139E+01   -1.127E+01   -1.116E+01   -1.104E+01   -1.092E+01   -1.080E+01   -1.068E+01   -1.056E+01
    -1.043E+01   -1.031E+01   -1.018E+01   -1.006E+01   -9.932E+00   -9.806E+00   -9.678E+00   -9.550E+00   -9.422E+00   -9.293E+00
    -9.164E+00   -9.035E+00   -8.906E+00   -8.776E+00   -8.646E+00   -8.516E+00   -8.387E+00   -8.257E+00   -8.127E+00   -7.998E+00
    -7.869E+00   -7.740E+00   -7.611E+00   -7.483E+00   -7.355E+00   -7.228E+00   -7.101E+00   -6.975E+00   -6.850E+00   -6.726E+00
    -6.602E+00   -6.479E+00   -6.357E+00   -6.236E+00   -6.116E+00   -5.997E+00   -5.879E+00   -5.763E+00   -5.647E+00   -5.533E+00
    -5.420E+00   -5.308E+00   -5.197E+00   -5.087E+00   -4.978E+00   -4.870E+00   -4.763E+00   -4.657E+00   -4.552E+00   -4.448E+00
    -4.345E+00   -4.243E+00   -4.141E+00   -4.041E+00   -3.941E+00   -3.842E+00   -3.743E+00   -3.646E+00   -3.549E+00   -3.453E+00
    -3.357E+00   -3.263E+00   -3.168E+00   -3.075E+00   -2.982E+00   -2.889E+00   -2.797E+00   -2.706E+00   -2.615E+00   -2.525E+00
    -2.435E+00   -2.345E+00   -2.256E+00   -2.167E+00   -2.078E+00   -1.990E+00   -1.902E+00   -1.815E+00   -1.728E+00   -1.641E+00
    -1.554E+00   -1.467E+00   -1.381E+00   -1.295E+00   -1.209E+00   -1.123E+00   -1.038E+00   -9.535E-01   -8.695E-01   -7.861E-01
    -7.034E-01   -6.215E-01   -5.404E-01   -4.603E-01   -3.811E-01   -3.029E-01   -2.258E-01   -1.500E-01   -7.532E-02   -1.987E-03
     6.997E-02    1.405E-01    2.095E-01    2.769E-01    3.427E-01    4.068E-01    4.691E-01    5.296E-01    5.881E-01    6.447E-01
     6.992E-01    7.516E-01    8.018E-01    8.498E-01    8.955E-01    9.387E-01    9.796E-01    1.018E+00    1.054E+00    1.087E+00
     1.117E+00    1.145E+00    1.169E+00    1.191E+00    1.210E+00    1.226E+00    1.238E+00    1.248E+00    1.254E+00    1.257E+00
     1.258E+00    1.255E+00    1.249E+00    1.241E+00    1.230E+00    1.216E+00    1.199E+00    1.181E+00    1.159E+00    1.135E+00
     1.109E+00    1.081E+00    1.050E+00    1.018E+00    9.828E-01    9.461E-01    9.075E-01    8.670E-01    8.248E-01    7.809E-01
     7.354E-01    6.883E-01    6.397E-01    5.897E-01    5.384E-01    4.858E-01    4.319E-01    3.770E-01    3.209E-01    2.639E-01
     2.059E-01    1.470E-01    8.738E-02    2.702E-02   -3.400E-02   -9.561E-02   -1.577E-01   -2.203E-01   -2.832E-01   -3.465E-01
    -4.100E-01   -4.736E-01   -5.374E-01   -6.012E-01   -6.649E-01   -7.285E-01   -7.919E-01   -8.549E-01   -9.176E-01   -9.798E-01
    -1.042E+00   -1.103E+00   -1.163E+00   -1.223E+00   -1.281E+00   -1.339E+00   -1.396E+00   -1.451E+00   -1.506E+00   -1.559E+00
    -1.611E+00   -1.661E+00   -1.710E+00   -1.757E+00   -1.803E+00   -1.847E+00   -1.889E+00   -1.929E+00   -1.967E+00   -2.003E+00
    -2.037E+00   -2.069E+00   -2.098E+00   -2.125E+00   -2.149E+00   -2.171E+00   -2.190E+00   -2.207E+00   -2.220E+00   -2.231E+00
    -2.239E+00   -2.244E+00   -2.246E+00   -2.244E+00   -2.239E+00   -2.231E+00   -2.219E+00   -2.204E+00   -2.185E+00   -2.163E+00
    -2.138E+00   -2.109E+00   -2.077E+00   -2.041E+00   -2.003E+00   -1.961E+00   -1.917E+00   -1.870E+00   -1.820E+00   -1.767E+00
    -1.711E+00   -1.653E+00   -1.593E+00   -1.530E+00   -1.465E+00   -1.398E+00   -1.328E+00   -1.256E+00   -1.183E+00   -1.107E+00
    -1.030E+00   -9.503E-01   -8.693E-01   -7.867E-01   -7.025E-01   -6.168E-01   -5.297E-01   -4.413E-01   -3.517E-01   -2.608E-01
    -1.689E-01   -7.597E-02    1.792E-02    1.127E-01    2.082E-01    3.045E-01    4.014E-01    4.988E-01    5.967E-01    6.951E-01
     7.937E-01    8.926E-01    9.917E-01    1.091E+00    1.190E+00    1.290E+00    1.389E+00    1.489E+00    1.588E+00    1.688E+00
     1.788E+00    1.888E+00    1.988E+00    2.088E+00    2.188E+00    2.288E+00    2.388E+00    2.488E+00    2.589E+00    2.689E+00
     2.789E+00    2.889E+00    2.990E+00    3.090E+00    3.190E+00    3.290E+00    3.391E+00    3.491E+00    3.591E+00    3.691E+00
     3.791E+00    3.891E+00    3.991E+00    4.091E+00    4.191E+00    4.291E+00    4.391E+00    4.491E+00    4.590E+00    4.690E+00
     4.789E+00    4.889E+00    4.988E+00    5.087E+00    5.186E+00    5.285E+00    5.384E+00    5.483E+00
 Ala      Conc. = 3.10E+02
