 LCModel (Version 6.3-1L) Copyright: S.W. Provencher.          Ref.: Magn. Reson. Med. 30:672-679 (1993).                
 Slice#1 Row#5 Col#5  PD_05_press_2_raw_act
 36 lines in following concentration table = NCONC+1
    Conc.  %SD /Cr+PCr  Metabolite                                         
 1.56E+03  27%   0.805 Ala                                                 
  332.832 140%   0.171 Asp                                                 
 1.17E+03  52%   0.604 Cr                                                  
  769.187  82%   0.396 PCr                                                 
   28.798 999% 1.5E-02 GABA                                                
  227.356 127%   0.117 Glc                                                 
 1.08E+03  78%   0.554 Gln                                                 
 1.55E+03  60%   0.797 Glu                                                 
  696.981  11%   0.359 GPC                                                 
    0.000 999%   0.000 PCh                                                 
  210.146 128%   0.108 GSH                                                 
 2.55E+03  34%   1.315 Ins                                                 
  165.739 271% 8.5E-02 Lac                                                 
 3.40E+03  10%   1.751 NAA                                                 
  106.071 373% 5.5E-02 NAAG                                                
   82.083  90% 4.2E-02 Scyllo                                              
  163.128 273% 8.4E-02 Tau                                                 
  233.806 142%   0.120 -CrCH2                                              
  696.981  11%   0.359 GPC+PCh                                             
 3.51E+03   9%   1.806 NAA+NAAG                                            
 1.94E+03  11%   1.000 Cr+PCr                                              
 2.62E+03  49%   1.351 Glu+Gln                                             
    0.000 999%   0.000 Lip13a                                              
 3.62E+03  11%   1.864 Lip13b                                              
    0.000 999%   0.000 Lip09                                               
 3.59E+03  17%   1.848 MM09                                                
  973.814  60%   0.502 Lip20                                               
 7.97E+03  15%   4.105 MM20                                                
 1.53E+03  30%   0.790 MM12                                                
    0.000 999%   0.000 MM14                                                
 2.63E+03  25%   1.354 MM17                                                
 3.62E+03  11%   1.864 Lip13a+Lip13b                                       
 5.15E+03  11%   2.654 MM14+Lip13a+Lip13b+MM12                             
 3.59E+03  17%   1.848 MM09+Lip09                                          
 8.95E+03  14%   4.607 MM20+Lip20                                          
   6 lines in following misc. output table
  FWHM = 0.054 ppm    S/N =   5                                            
  Data shift = 0.008 ppm                                                   
  Ph: -19 deg       3.7 deg/ppm                                            
  alphaB,S = 2.1E+00,   6.7E+01                                            
   14 spline knots.   Ns = 6(1)                                            
  (12) 2 infls.   (13) 1 extrs.                                            
  498 points on ppm-axis = NY
      4.000000     3.992357     3.984714     3.977070     3.969427     3.961784     3.954141     3.946497     3.938854     3.931211
      3.923568     3.915925     3.908281     3.900638     3.892995     3.885352     3.877708     3.870065     3.862422     3.854779
      3.847136     3.839492     3.831849     3.824206     3.816563     3.808919     3.801276     3.793633     3.785990     3.778347
      3.770703     3.763060     3.755417     3.747774     3.740130     3.732487     3.724844     3.717201     3.709558     3.701914
      3.694271     3.686628     3.678985     3.671341     3.663698     3.656055     3.648412     3.640769     3.633125     3.625482
      3.617839     3.610196     3.602552     3.594909     3.587266     3.579623     3.571980     3.564336     3.556693     3.549050
      3.541407     3.533763     3.526120     3.518477     3.510834     3.503191     3.495547     3.487904     3.480261     3.472618
      3.464974     3.457331     3.449688     3.442045     3.434402     3.426758     3.419115     3.411472     3.403829     3.396185
      3.388542     3.380899     3.373256     3.365613     3.357969     3.350326     3.342683     3.335040     3.327396     3.319753
      3.312110     3.304467     3.296824     3.289180     3.281537     3.273894     3.266251     3.258607     3.250964     3.243321
      3.235678     3.228034     3.220391     3.212748     3.205105     3.197462     3.189818     3.182175     3.174532     3.166889
      3.159245     3.151602     3.143959     3.136316     3.128673     3.121029     3.113386     3.105743     3.098100     3.090456
      3.082813     3.075170     3.067527     3.059884     3.052240     3.044597     3.036954     3.029311     3.021667     3.014024
      3.006381     2.998738     2.991095     2.983451     2.975808     2.968165     2.960522     2.952878     2.945235     2.937592
      2.929949     2.922306     2.914662     2.907019     2.899376     2.891733     2.884089     2.876446     2.868803     2.861160
      2.853517     2.845873     2.838230     2.830587     2.822944     2.815300     2.807657     2.800014     2.792371     2.784728
      2.777084     2.769441     2.761798     2.754155     2.746511     2.738868     2.731225     2.723582     2.715939     2.708295
      2.700652     2.693009     2.685366     2.677722     2.670079     2.662436     2.654793     2.647150     2.639506     2.631863
      2.624220     2.616577     2.608933     2.601290     2.593647     2.586004     2.578361     2.570717     2.563074     2.555431
      2.547788     2.540144     2.532501     2.524858     2.517215     2.509572     2.501928     2.494285     2.486642     2.478999
      2.471355     2.463712     2.456069     2.448426     2.440783     2.433139     2.425496     2.417853     2.410210     2.402566
      2.394923     2.387280     2.379637     2.371994     2.364350     2.356707     2.349064     2.341421     2.333777     2.326134
      2.318491     2.310848     2.303205     2.295561     2.287918     2.280275     2.272632     2.264988     2.257345     2.249702
      2.242059     2.234416     2.226772     2.219129     2.211486     2.203843     2.196199     2.188556     2.180913     2.173270
      2.165627     2.157983     2.150340     2.142697     2.135054     2.127410     2.119767     2.112124     2.104481     2.096838
      2.089194     2.081551     2.073908     2.066265     2.058621     2.050978     2.043335     2.035692     2.028049     2.020405
      2.012762     2.005119     1.997476     1.989833     1.982190     1.974546     1.966903     1.959260     1.951617     1.943974
      1.936331     1.928688     1.921045     1.913402     1.905759     1.898115     1.890472     1.882829     1.875186     1.867543
      1.859900     1.852257     1.844614     1.836971     1.829327     1.821684     1.814041     1.806398     1.798755     1.791112
      1.783469     1.775826     1.768183     1.760540     1.752896     1.745253     1.737610     1.729967     1.722324     1.714681
      1.707038     1.699395     1.691752     1.684108     1.676465     1.668822     1.661179     1.653536     1.645893     1.638250
      1.630607     1.622964     1.615321     1.607677     1.600034     1.592391     1.584748     1.577105     1.569462     1.561819
      1.554176     1.546533     1.538890     1.531246     1.523603     1.515960     1.508317     1.500674     1.493031     1.485388
      1.477745     1.470102     1.462458     1.454815     1.447172     1.439529     1.431886     1.424243     1.416600     1.408957
      1.401314     1.393671     1.386027     1.378384     1.370741     1.363098     1.355455     1.347812     1.340169     1.332526
      1.324883     1.317240     1.309596     1.301953     1.294310     1.286667     1.279024     1.271381     1.263738     1.256095
      1.248452     1.240808     1.233165     1.225522     1.217879     1.210236     1.202593     1.194950     1.187307     1.179664
      1.172021     1.164377     1.156734     1.149091     1.141448     1.133805     1.126162     1.118519     1.110876     1.103233
      1.095590     1.087946     1.080303     1.072660     1.065017     1.057374     1.049731     1.042088     1.034445     1.026802
      1.019158     1.011515     1.003872     0.996229     0.988586     0.980943     0.973300     0.965657     0.958014     0.950371
      0.942727     0.935084     0.927441     0.919798     0.912155     0.904512     0.896869     0.889226     0.881583     0.873940
      0.866296     0.858653     0.851010     0.843367     0.835724     0.828081     0.820438     0.812795     0.805152     0.797508
      0.789865     0.782222     0.774579     0.766936     0.759293     0.751650     0.744007     0.736364     0.728721     0.721077
      0.713434     0.705791     0.698148     0.690505     0.682862     0.675219     0.667576     0.659933     0.652290     0.644646
      0.637003     0.629360     0.621717     0.614074     0.606431     0.598788     0.591145     0.583502     0.575858     0.568215
      0.560572     0.552929     0.545286     0.537643     0.530000     0.522357     0.514714     0.507071     0.499427     0.491784
      0.484141     0.476498     0.468855     0.461212     0.453569     0.445925     0.438282     0.430639     0.422996     0.415353
      0.407710     0.400067     0.392424     0.384780     0.377137     0.369494     0.361851     0.354208     0.346565     0.338922
      0.331278     0.323635     0.315992     0.308349     0.300706     0.293063     0.285420     0.277777     0.270133     0.262490
      0.254847     0.247204     0.239561     0.231918     0.224275     0.216631     0.208988     0.201345
 NY phased data points follow
  -3.57979E+00  2.60615E+01  1.11246E+01  3.75081E+01  2.88080E+01  3.98922E+01  3.36051E+01  3.49895E+01  4.08685E+01  5.45723E+01
   3.70047E+01  4.92940E+01  2.56596E+01  5.71712E+01  3.35559E+01  5.05856E+01  2.50833E+01  3.81962E+01  1.65588E+01  3.60286E+01
   1.27702E+01  1.98336E+01  1.21573E+01  2.73693E+01  2.57689E+01  3.27327E+01  1.21676E+01  1.50289E+01  7.97518E-01  1.33940E+01
   1.44759E+01  1.63521E+01  2.40132E+01  2.08858E+01  1.23162E+01  3.11045E+01  1.31330E+01  6.86547E+00  1.48396E+01  3.06442E+01
   6.35030E+00  2.21078E+01  1.08532E+01  3.21857E+01  1.75790E+01  3.52904E+01  3.74021E+01  3.22661E+01  2.37968E+01  3.27125E+01
   2.59555E+01  2.90155E+01  3.12505E+01  2.52605E+01  1.64373E+01  1.44037E+01  2.68371E+00  3.02109E+01  2.30685E+01  1.83928E+01
   6.08913E+00  2.81689E+01  7.82721E+00  8.35475E+00 -2.88057E+00  1.85890E+01 -4.10727E+00  8.86350E+00  8.73874E+00  2.49724E+00
  -3.97421E+00  1.33765E+01  1.98166E+00  1.32666E+01  1.04908E+01  2.29941E+01  1.30335E+01  2.38796E+01  4.78603E+00  9.69774E+00
   7.53687E+00 -4.66630E+00 -1.42584E+01  2.76037E+01  8.14553E-01  1.70827E+01  1.15163E+01  1.02017E+01  4.43878E+00  9.01001E+00
  -6.38392E+00  1.68227E+01 -8.55740E-01  1.25363E+00  1.41573E+01  1.06911E+01  1.10800E+01  1.73603E+01  2.42345E+01  2.65362E+01
   2.48210E+01  6.25660E+01  5.74527E+01  7.68723E+01  6.17915E+01  6.45174E+01  5.46202E+01  4.23715E+01  2.62208E+01  2.02525E+01
   1.09998E+01  1.33204E+01 -1.07054E+00  1.52444E+01  2.73956E+00  9.91886E-01 -4.14489E+00  7.06158E+00  1.25491E+01  1.00204E+01
   1.86614E+01  1.82937E+01  1.53788E+01  1.13014E+01  2.33463E+01  5.28334E+01  8.01152E+01  8.11551E+01  6.99542E+01  7.34420E+01
   4.49209E+01  4.76698E+01  1.59477E+01  3.59717E+01  2.30885E+01  2.06942E+01  1.45942E+01  1.19316E+01  4.16576E+00 -1.99241E+00
   1.05122E+01  5.62773E+00  2.72736E+00 -1.51532E+00  6.47456E+00  7.04772E+00  7.20422E+00  3.15461E+00  8.87569E+00 -1.43540E+00
   4.58860E+00  2.89989E+01 -1.03885E+01  1.09902E+00 -7.23273E+00  7.53589E+00 -5.38379E+00  4.58061E+00  7.32365E-02  1.07606E+01
  -1.08539E+01 -9.97021E-01  1.56898E+00  7.54970E+00 -5.19105E+00  2.81686E+00  4.56109E+00  1.32442E+01 -5.37207E+00 -2.08063E+00
   2.31835E+00 -1.72582E+00 -1.18315E+01 -5.54393E+00 -1.58347E+01 -4.37983E+00 -1.27621E+01 -9.29339E+00 -1.64980E+01 -1.42323E+01
  -1.38937E+01 -2.20398E+01 -1.07659E+01  3.72090E+00 -1.74954E+01 -3.91713E+00 -1.04325E+01 -1.79232E+00 -3.79367E-01 -3.47994E+00
  -4.93020E+00  7.50197E+00 -2.17568E+00  6.57261E-01 -7.61937E+00 -1.41064E+00 -9.11614E+00  5.66809E-02 -2.72646E+00  7.50888E+00
  -1.86722E+01 -7.62424E+00  3.49142E+00  1.39558E+01 -5.75826E+00  1.30283E+01  2.36396E+00 -1.05902E+01  2.74291E+00 -9.67638E+00
  -1.41835E+00  1.57503E+01 -3.15880E-01  1.15102E+01 -6.20892E+00  6.46336E+00  1.79946E+01  1.20629E+01  2.24572E+01  1.20999E+01
   1.49836E+01  4.67956E+00 -3.89826E+00  5.03702E+00 -2.79994E+00  8.11916E+00  5.96158E+00  3.08343E+01  2.62317E+01  2.27619E+01
   2.10087E+01  2.35232E+01  1.12944E+01  1.92247E+01  1.01141E+01  1.07820E+01  3.52898E+00  1.36327E+01  9.84309E+00  1.94352E+01
   1.96152E+01  1.03210E+00 -5.41252E-01  9.84609E+00  1.77589E+01  1.70587E+01  1.13500E+01  1.91520E+01  3.10498E+01  3.05305E+01
   2.38721E+01  3.34003E+01  3.66578E+01  3.67054E+01  4.94088E+01  5.86918E+01  6.71505E+01  8.19032E+01  7.50944E+01  1.35395E+02
   1.48781E+02  1.52011E+02  1.27686E+02  9.22596E+01  7.48388E+01  6.49039E+01  3.82329E+01  2.79917E+01  9.99715E+00  2.41669E+01
   2.17464E+01  2.41864E+01  2.92641E+01  2.07899E+01  9.22522E+00  1.58608E+01  1.29202E+00  1.36935E+01  1.77175E+01  1.66382E+01
   2.92996E+01  1.08787E+01  7.13213E+00  1.85309E+01  9.31641E+00  8.44713E+00  5.50802E+00  2.29876E+01  1.13571E+00  1.31009E+01
   1.72200E+01  6.24669E+00  2.44023E+01  1.18326E+01  1.06387E+01  7.27003E+00  1.03472E+01  1.39961E+01  5.73544E+00  2.39486E+01
   3.97514E+00  1.60038E+01  1.39616E+01  1.54649E+01  2.25002E+01  5.94197E+00  1.39010E+01  2.42558E+01  2.50890E+01  8.30721E+00
  -3.09981E+00  2.09425E+01  1.27635E+01  2.55128E+01  1.64475E+01  1.92862E+01  1.04198E+01  5.02252E+00 -2.51328E+00 -6.64575E+00
  -2.76409E+01 -1.02449E+01 -3.09738E+01 -5.66440E+01 -7.13141E+01 -6.48543E+01 -8.04238E+01 -7.58667E+01 -6.83564E+01 -6.01196E+01
  -5.59244E+01 -5.59766E+01 -4.59977E+01 -3.33995E+01 -2.96920E+01 -9.82137E-01 -2.80095E+00 -8.34542E+00  1.17449E+01 -5.80889E+00
   6.40978E+00  1.82893E+01  4.78197E+00  1.67013E+01  1.82338E+01  3.46913E+01  2.95331E+01  2.84880E+01  3.99961E+01  2.88998E+01
   3.14423E+01  6.09680E+01  4.70220E+01  4.63921E+01  3.49420E+01  5.57984E+01  2.65838E+01  2.28844E+01  1.09984E+01  2.04364E+01
   4.58519E+00  9.65781E+00  1.15562E+01  2.04661E+01  1.76617E+01  3.79166E+00  1.08046E+01  9.45121E+00 -2.96639E-01  1.81065E+01
   1.71133E+01  8.31664E+00  6.15300E-01  2.50303E+01 -1.39867E+01  1.72908E+01  1.21632E+01  5.54503E+00  2.60818E+01 -3.67131E+00
  -2.61688E+00  9.14322E+00  7.84406E+00  1.27439E+01  1.52616E+01  1.43267E+01  1.94813E+01  2.11430E+00  7.72390E+00 -7.10808E+00
   3.61157E+00 -1.32213E+01 -1.37334E+01  8.70581E+00  1.28988E+01  8.37567E+00  3.08360E+01  2.09897E+01  7.63185E+00  1.10430E+01
   8.75714E+00  1.40312E+01  1.81493E+01  2.56367E+00 -2.30847E+00  1.78395E+01  6.73838E+00  2.58616E+01  1.65291E+01  3.78049E+00
   1.34180E+01  1.84746E+01  2.57339E+01  1.19020E+01  6.36971E+00  9.56396E+00  1.18410E+01 -2.10589E-01  3.25701E+00  1.09461E+01
  -5.34483E+00  4.41216E+00 -3.49472E+00  4.89657E-01  2.34806E-01 -3.74686E+00 -1.20494E+00 -1.10192E+01 -1.15828E+01 -1.03255E+01
  -1.26017E+01  3.25313E+00  1.53475E+00 -1.25017E+01  6.70819E+00 -2.10515E+00 -4.76890E+00 -5.19366E+00 -4.01401E-02  7.73059E+00
   6.79261E-02  1.47435E+01  1.28437E+00 -8.65217E-01 -7.44271E-01  2.06831E+00 -1.41447E+01  5.36275E+00 -1.08852E+00  1.31539E+01
  -1.01354E+01 -4.95610E+00 -5.92499E+00  9.97146E-01 -7.01176E+00  1.71160E+01 -1.60886E+01 -1.56572E+01 -9.06269E+00 -9.81355E+00
  -7.98250E+00  2.50249E+00 -2.25867E+01  1.09405E+01 -1.18624E+01 -2.03912E+01 -6.06524E+00 -2.77229E+00 -2.78260E+00 -5.09641E+00
  -2.04314E+01 -7.73257E+00  1.97825E+01  1.22206E+01  4.44655E+00 -6.77989E-01 -6.76263E+00 -2.43145E+00 -2.67969E-01 -4.01113E+00
  -5.47663E+00 -1.15421E+01  5.68368E-01  5.98556E+00 -3.90042E+00  9.99264E+00 -9.88046E+00  4.24278E+00  1.14090E+00  1.69563E+01
   4.50330E+00 -5.05606E+00 -2.37226E+00  1.71233E+01 -1.28996E+01  2.34665E+00 -3.33667E+00 -5.15872E+00
 NY points of the fit to the data follow
   1.84805E+01  1.78658E+01  1.79920E+01  1.92718E+01  2.15380E+01  2.47968E+01  2.99452E+01  3.58923E+01  4.14896E+01  4.63582E+01
   4.99730E+01  5.13166E+01  4.94984E+01  4.47120E+01  3.82316E+01  3.17457E+01  2.64653E+01  2.28216E+01  2.02887E+01  1.87549E+01
   1.84384E+01  1.83668E+01  1.75541E+01  1.57988E+01  1.35357E+01  1.14321E+01  1.03107E+01  1.04639E+01  1.20028E+01  1.49427E+01
   1.87926E+01  2.26146E+01  2.51803E+01  2.57503E+01  2.45849E+01  2.21906E+01  1.91540E+01  1.62254E+01  1.39320E+01  1.24246E+01
   1.20958E+01  1.33667E+01  1.60446E+01  1.92922E+01  2.26559E+01  2.61839E+01  2.93753E+01  3.10745E+01  3.04198E+01  2.74731E+01
   2.32570E+01  1.89633E+01  1.52570E+01  1.25287E+01  1.11112E+01  1.10770E+01  1.21503E+01  1.36803E+01  1.52012E+01  1.63654E+01
   1.68009E+01  1.63270E+01  1.50410E+01  1.33898E+01  1.18477E+01  1.07468E+01  1.03631E+01  1.06504E+01  1.13849E+01  1.23716E+01
   1.34679E+01  1.43799E+01  1.48800E+01  1.49182E+01  1.45626E+01  1.39532E+01  1.32099E+01  1.24149E+01  1.16277E+01  1.09988E+01
   1.08092E+01  1.07934E+01  1.06182E+01  1.03024E+01  9.90576E+00  9.21727E+00  8.03064E+00  6.48918E+00  5.07563E+00  4.24629E+00
   4.21072E+00  4.79079E+00  5.61797E+00  6.53922E+00  7.50685E+00  8.41046E+00  9.68095E+00  1.39333E+01  2.17663E+01  3.06203E+01
   4.09012E+01  5.31746E+01  6.50427E+01  7.18696E+01  7.07659E+01  6.25774E+01  5.06255E+01  3.83048E+01  2.72744E+01  1.79478E+01
   1.08934E+01  7.26215E+00  6.42781E+00  6.33119E+00  6.40309E+00  6.53813E+00  6.72986E+00  6.98270E+00  7.35282E+00  8.00685E+00
   9.63405E+00  1.42351E+01  2.22974E+01  3.16973E+01  4.22216E+01  5.41781E+01  6.55306E+01  7.23252E+01  7.18553E+01  6.46129E+01
   5.35125E+01  4.16982E+01  3.08428E+01  2.14261E+01  1.39927E+01  9.50394E+00  7.66360E+00  6.87308E+00  6.49196E+00  6.35276E+00
   6.33937E+00  6.33911E+00  6.27491E+00  6.12931E+00  5.90806E+00  5.60042E+00  5.19027E+00  4.70984E+00  4.21349E+00  3.74164E+00
   3.32204E+00  2.95049E+00  2.63141E+00  2.36642E+00  2.10225E+00  1.66885E+00  1.09147E+00  4.61788E-01 -2.35679E-01 -9.09251E-01
  -1.52312E+00 -1.89540E+00 -1.83002E+00 -1.42799E+00 -1.04312E+00 -9.85304E-01 -1.29943E+00 -1.85295E+00 -2.52650E+00 -3.31490E+00
  -4.25166E+00 -5.23078E+00 -5.96825E+00 -6.48967E+00 -6.98094E+00 -7.47193E+00 -7.68586E+00 -7.47493E+00 -7.08663E+00 -6.84180E+00
  -6.85024E+00 -6.98793E+00 -6.91714E+00 -6.52478E+00 -6.09609E+00 -5.68337E+00 -4.98068E+00 -3.84585E+00 -2.43184E+00 -1.07471E+00
  -7.41204E-02  5.01510E-01  5.82903E-01  3.06839E-01 -1.34125E-01 -5.92458E-01 -8.92392E-01 -8.63453E-01 -3.11476E-01  8.26008E-01
   2.42739E+00  4.15406E+00  5.62035E+00  6.39785E+00  5.85054E+00  4.11683E+00  1.52394E+00 -1.78864E+00 -5.13303E+00 -7.45778E+00
  -7.86517E+00 -6.44166E+00 -3.70449E+00 -7.53233E-02  3.82674E+00  7.03400E+00  8.49354E+00  7.81739E+00  5.54610E+00  2.71892E+00
  -4.53466E-02 -2.22759E+00 -3.07821E+00 -2.13732E+00  3.92122E-01  3.57297E+00  6.51277E+00  8.87993E+00  1.05833E+01  1.15061E+01
   1.15431E+01  1.11749E+01  1.09958E+01  1.11715E+01  1.16500E+01  1.25644E+01  1.39396E+01  1.54077E+01  1.68325E+01  1.80034E+01
   1.86771E+01  1.88431E+01  1.88300E+01  1.89472E+01  1.93124E+01  2.00514E+01  2.11140E+01  2.23666E+01  2.37147E+01  2.51666E+01
   2.67862E+01  2.84151E+01  3.01096E+01  3.26530E+01  4.00736E+01  5.38840E+01  6.91413E+01  8.58751E+01  1.05694E+02  1.25631E+02
   1.38187E+02  1.37782E+02  1.24876E+02  1.04588E+02  8.27548E+01  6.24847E+01  4.45587E+01  2.99353E+01  2.07938E+01  1.68016E+01
   1.44975E+01  1.27850E+01  1.14612E+01  1.03949E+01  9.45394E+00  8.57006E+00  7.70678E+00  6.86442E+00  6.06064E+00  5.31992E+00
   4.67635E+00  4.18081E+00  3.87164E+00  3.75530E+00  3.82301E+00  4.06522E+00  4.47790E+00  5.05663E+00  5.78897E+00  6.65933E+00
   7.65484E+00  8.75298E+00  9.91821E+00  1.11064E+01  1.22723E+01  1.33688E+01  1.43484E+01  1.51682E+01  1.57918E+01  1.61893E+01
   1.63410E+01  1.62367E+01  1.58755E+01  1.52678E+01  1.44342E+01  1.34053E+01  1.22186E+01  1.09173E+01  9.54799E+00  8.15770E+00
   6.79089E+00  5.48951E+00  4.29186E+00  3.23383E+00  2.35102E+00  1.68406E+00  1.28981E+00  1.27296E+00  1.89157E+00  3.64078E+00
   5.73388E+00  7.04295E+00  7.78059E+00  7.70912E+00  5.61755E+00  4.14559E-01 -7.62358E+00 -1.60823E+01 -2.21667E+01 -2.55226E+01
  -2.62138E+01 -2.37571E+01 -1.79164E+01 -9.86589E+00 -2.25699E+00  2.85838E+00  5.34124E+00  5.97569E+00  5.59081E+00  4.67367E+00
   3.66912E+00  3.55049E+00  5.03620E+00  7.83557E+00  1.18208E+01  1.68497E+01  2.25724E+01  2.85001E+01  3.41708E+01  3.93048E+01
   4.35504E+01  4.64412E+01  4.76718E+01  4.71892E+01  4.51191E+01  4.16670E+01  3.70742E+01  3.17174E+01  2.61404E+01  2.08489E+01
   1.61814E+01  1.22905E+01  9.21138E+00  6.94445E+00  5.37771E+00  4.32204E+00  3.61864E+00  3.14399E+00  2.80707E+00  2.54607E+00
   2.32224E+00  2.11433E+00  1.91290E+00  1.71680E+00  1.52972E+00  1.35863E+00  1.21180E+00  1.09848E+00  1.02791E+00  1.00962E+00
   1.05257E+00  1.16535E+00  1.35541E+00  1.62944E+00  1.99272E+00  2.44951E+00  3.00215E+00  3.65122E+00  4.39469E+00  5.22821E+00
   6.14449E+00  7.13358E+00  8.18216E+00  9.27398E+00  1.03896E+01  1.15073E+01  1.26034E+01  1.36529E+01  1.46305E+01  1.55113E+01
   1.62717E+01  1.68911E+01  1.73523E+01  1.76426E+01  1.77537E+01  1.76830E+01  1.74328E+01  1.70108E+01  1.64295E+01  1.57052E+01
   1.48572E+01  1.39072E+01  1.28778E+01  1.17923E+01  1.06729E+01  9.54068E+00  8.41422E+00  7.30991E+00  6.24126E+00  5.21923E+00
   4.25174E+00  3.34425E+00  2.49963E+00  1.71903E+00  1.00180E+00  3.46231E-01 -2.50664E-01 -7.92398E-01 -1.28312E+00 -1.72684E+00
  -2.12779E+00 -2.48985E+00 -2.81705E+00 -3.11297E+00 -3.38110E+00 -3.62428E+00 -3.84527E+00 -4.04634E+00 -4.22985E+00 -4.39764E+00
  -4.55150E+00 -4.69271E+00 -4.82262E+00 -4.94227E+00 -5.05286E+00 -5.15520E+00 -5.25015E+00 -5.33819E+00 -5.42003E+00 -5.49616E+00
  -5.56723E+00 -5.63358E+00 -5.69562E+00 -5.75353E+00 -5.80774E+00 -5.85848E+00 -5.90619E+00 -5.95094E+00 -5.99298E+00 -6.03235E+00
  -6.06939E+00 -6.10421E+00 -6.13709E+00 -6.16798E+00 -6.19706E+00 -6.22432E+00 -6.25006E+00 -6.27431E+00 -6.29727E+00 -6.31882E+00
  -6.33911E+00 -6.35814E+00 -6.37616E+00 -6.39315E+00 -6.40924E+00 -6.42428E+00 -6.43844E+00 -6.45172E+00 -6.46435E+00 -6.47624E+00
  -6.48750E+00 -6.49799E+00 -6.50788E+00 -6.51719E+00 -6.52609E+00 -6.53447E+00 -6.54241E+00 -6.54979E+00 -6.55683E+00 -6.56351E+00
  -6.57000E+00 -6.57613E+00 -6.58201E+00 -6.58756E+00 -6.59301E+00 -6.59833E+00 -6.60365E+00 -6.60882E+00
 NY background values follow
     9.395E+00    9.322E+00    9.249E+00    9.176E+00    9.104E+00    9.031E+00    8.958E+00    8.885E+00    8.812E+00    8.739E+00
     8.666E+00    8.594E+00    8.521E+00    8.448E+00    8.375E+00    8.302E+00    8.229E+00    8.156E+00    8.083E+00    8.010E+00
     7.937E+00    7.864E+00    7.791E+00    7.718E+00    7.645E+00    7.572E+00    7.499E+00    7.426E+00    7.354E+00    7.281E+00
     7.208E+00    7.135E+00    7.062E+00    6.989E+00    6.916E+00    6.843E+00    6.770E+00    6.697E+00    6.625E+00    6.552E+00
     6.479E+00    6.406E+00    6.333E+00    6.260E+00    6.188E+00    6.115E+00    6.042E+00    5.969E+00    5.897E+00    5.824E+00
     5.751E+00    5.679E+00    5.606E+00    5.534E+00    5.461E+00    5.388E+00    5.316E+00    5.244E+00    5.171E+00    5.099E+00
     5.026E+00    4.954E+00    4.882E+00    4.810E+00    4.737E+00    4.665E+00    4.593E+00    4.521E+00    4.449E+00    4.377E+00
     4.305E+00    4.233E+00    4.162E+00    4.090E+00    4.018E+00    3.947E+00    3.875E+00    3.804E+00    3.732E+00    3.661E+00
     3.590E+00    3.518E+00    3.447E+00    3.376E+00    3.305E+00    3.234E+00    3.163E+00    3.093E+00    3.022E+00    2.951E+00
     2.881E+00    2.810E+00    2.740E+00    2.670E+00    2.599E+00    2.529E+00    2.459E+00    2.389E+00    2.320E+00    2.250E+00
     2.180E+00    2.111E+00    2.041E+00    1.972E+00    1.902E+00    1.833E+00    1.764E+00    1.695E+00    1.626E+00    1.557E+00
     1.488E+00    1.420E+00    1.351E+00    1.283E+00    1.214E+00    1.146E+00    1.078E+00    1.010E+00    9.421E-01    8.742E-01
     8.065E-01    7.388E-01    6.713E-01    6.039E-01    5.365E-01    4.693E-01    4.022E-01    3.352E-01    2.683E-01    2.015E-01
     1.348E-01    6.818E-02    1.705E-03   -6.466E-02   -1.309E-01   -1.971E-01   -2.631E-01   -3.290E-01   -3.948E-01   -4.605E-01
    -5.261E-01   -5.915E-01   -6.568E-01   -7.221E-01   -7.871E-01   -8.521E-01   -9.170E-01   -9.817E-01   -1.046E+00   -1.111E+00
    -1.175E+00   -1.239E+00   -1.303E+00   -1.367E+00   -1.431E+00   -1.495E+00   -1.558E+00   -1.622E+00   -1.685E+00   -1.748E+00
    -1.811E+00   -1.874E+00   -1.937E+00   -1.999E+00   -2.062E+00   -2.124E+00   -2.186E+00   -2.248E+00   -2.310E+00   -2.372E+00
    -2.433E+00   -2.495E+00   -2.556E+00   -2.617E+00   -2.678E+00   -2.739E+00   -2.800E+00   -2.860E+00   -2.920E+00   -2.981E+00
    -3.041E+00   -3.100E+00   -3.160E+00   -3.220E+00   -3.279E+00   -3.338E+00   -3.397E+00   -3.456E+00   -3.515E+00   -3.573E+00
    -3.632E+00   -3.690E+00   -3.748E+00   -3.806E+00   -3.863E+00   -3.921E+00   -3.978E+00   -4.035E+00   -4.092E+00   -4.149E+00
    -4.205E+00   -4.262E+00   -4.318E+00   -4.374E+00   -4.430E+00   -4.486E+00   -4.541E+00   -4.597E+00   -4.652E+00   -4.707E+00
    -4.762E+00   -4.816E+00   -4.871E+00   -4.925E+00   -4.979E+00   -5.033E+00   -5.086E+00   -5.140E+00   -5.193E+00   -5.246E+00
    -5.299E+00   -5.352E+00   -5.404E+00   -5.457E+00   -5.509E+00   -5.561E+00   -5.612E+00   -5.664E+00   -5.715E+00   -5.766E+00
    -5.817E+00   -5.868E+00   -5.918E+00   -5.969E+00   -6.019E+00   -6.069E+00   -6.118E+00   -6.168E+00   -6.217E+00   -6.266E+00
    -6.315E+00   -6.363E+00   -6.412E+00   -6.460E+00   -6.508E+00   -6.556E+00   -6.603E+00   -6.650E+00   -6.697E+00   -6.744E+00
    -6.790E+00   -6.837E+00   -6.883E+00   -6.929E+00   -6.974E+00   -7.019E+00   -7.065E+00   -7.109E+00   -7.154E+00   -7.198E+00
    -7.242E+00   -7.286E+00   -7.330E+00   -7.373E+00   -7.416E+00   -7.459E+00   -7.502E+00   -7.544E+00   -7.586E+00   -7.628E+00
    -7.669E+00   -7.710E+00   -7.751E+00   -7.792E+00   -7.832E+00   -7.872E+00   -7.912E+00   -7.952E+00   -7.991E+00   -8.030E+00
    -8.069E+00   -8.107E+00   -8.145E+00   -8.183E+00   -8.220E+00   -8.257E+00   -8.294E+00   -8.330E+00   -8.366E+00   -8.402E+00
    -8.437E+00   -8.472E+00   -8.507E+00   -8.541E+00   -8.575E+00   -8.609E+00   -8.642E+00   -8.675E+00   -8.707E+00   -8.739E+00
    -8.771E+00   -8.802E+00   -8.833E+00   -8.863E+00   -8.893E+00   -8.923E+00   -8.952E+00   -8.981E+00   -9.009E+00   -9.037E+00
    -9.064E+00   -9.091E+00   -9.118E+00   -9.144E+00   -9.170E+00   -9.195E+00   -9.220E+00   -9.244E+00   -9.268E+00   -9.291E+00
    -9.314E+00   -9.336E+00   -9.358E+00   -9.380E+00   -9.401E+00   -9.421E+00   -9.442E+00   -9.461E+00   -9.481E+00   -9.499E+00
    -9.518E+00   -9.536E+00   -9.553E+00   -9.570E+00   -9.587E+00   -9.603E+00   -9.619E+00   -9.635E+00   -9.650E+00   -9.664E+00
    -9.678E+00   -9.692E+00   -9.705E+00   -9.718E+00   -9.731E+00   -9.743E+00   -9.755E+00   -9.766E+00   -9.777E+00   -9.788E+00
    -9.798E+00   -9.807E+00   -9.817E+00   -9.826E+00   -9.834E+00   -9.843E+00   -9.851E+00   -9.858E+00   -9.865E+00   -9.872E+00
    -9.878E+00   -9.884E+00   -9.890E+00   -9.895E+00   -9.900E+00   -9.905E+00   -9.909E+00   -9.913E+00   -9.917E+00   -9.920E+00
    -9.923E+00   -9.925E+00   -9.927E+00   -9.929E+00   -9.931E+00   -9.932E+00   -9.933E+00   -9.934E+00   -9.934E+00   -9.934E+00
    -9.934E+00   -9.933E+00   -9.932E+00   -9.931E+00   -9.930E+00   -9.928E+00   -9.926E+00   -9.923E+00   -9.921E+00   -9.918E+00
    -9.915E+00   -9.911E+00   -9.908E+00   -9.904E+00   -9.899E+00   -9.895E+00   -9.890E+00   -9.885E+00   -9.880E+00   -9.875E+00
    -9.869E+00   -9.863E+00   -9.857E+00   -9.850E+00   -9.844E+00   -9.837E+00   -9.830E+00   -9.822E+00   -9.815E+00   -9.807E+00
    -9.799E+00   -9.791E+00   -9.782E+00   -9.774E+00   -9.765E+00   -9.756E+00   -9.747E+00   -9.738E+00   -9.728E+00   -9.718E+00
    -9.708E+00   -9.698E+00   -9.688E+00   -9.678E+00   -9.667E+00   -9.656E+00   -9.645E+00   -9.634E+00   -9.623E+00   -9.612E+00
    -9.600E+00   -9.589E+00   -9.577E+00   -9.565E+00   -9.553E+00   -9.541E+00   -9.528E+00   -9.516E+00   -9.503E+00   -9.490E+00
    -9.478E+00   -9.465E+00   -9.452E+00   -9.438E+00   -9.425E+00   -9.412E+00   -9.398E+00   -9.385E+00   -9.371E+00   -9.357E+00
    -9.344E+00   -9.330E+00   -9.316E+00   -9.301E+00   -9.287E+00   -9.273E+00   -9.259E+00   -9.244E+00   -9.230E+00   -9.215E+00
    -9.201E+00   -9.186E+00   -9.172E+00   -9.157E+00   -9.142E+00   -9.127E+00   -9.112E+00   -9.097E+00   -9.082E+00   -9.067E+00
    -9.052E+00   -9.037E+00   -9.022E+00   -9.007E+00   -8.991E+00   -8.976E+00   -8.961E+00   -8.945E+00   -8.930E+00   -8.915E+00
    -8.899E+00   -8.884E+00   -8.868E+00   -8.853E+00   -8.837E+00   -8.822E+00   -8.806E+00   -8.791E+00   -8.775E+00   -8.760E+00
    -8.744E+00   -8.729E+00   -8.713E+00   -8.698E+00   -8.682E+00   -8.667E+00   -8.651E+00   -8.636E+00
 Ala      Conc. = 1.56E+03
