 LCModel (Version 6.3-1L) Copyright: S.W. Provencher.          Ref.: Magn. Reson. Med. 30:672-679 (1993).                
 Slice#1 Row#10 Col#5  PD_05_press_2_raw_act
 36 lines in following concentration table = NCONC+1
    Conc.  %SD /Cr+PCr  Metabolite                                         
    8.632 999% 7.0E-03 Ala                                                 
    0.000 999%   0.000 Asp                                                 
  111.654 295% 9.1E-02 Cr                                                  
 1.12E+03  31%   0.909 PCr                                                 
    0.000 999%   0.000 GABA                                                
    0.000 999%   0.000 Glc                                                 
  658.822  44%   0.534 Gln                                                 
 2.02E+03  16%   1.634 Glu                                                 
  331.316   8%   0.269 GPC                                                 
    0.000 999%   0.000 PCh                                                 
  455.198  20%   0.369 GSH                                                 
  959.098  33%   0.778 Ins                                                 
    0.000 999%   0.000 Lac                                                 
 3.03E+03   5%   2.459 NAA                                                 
  158.399 108%   0.128 NAAG                                                
  113.452  28% 9.2E-02 Scyllo                                              
  478.854  48%   0.388 Tau                                                 
  779.947  19%   0.633 -CrCH2                                              
  331.316   8%   0.269 GPC+PCh                                             
 3.19E+03   4%   2.588 NAA+NAAG                                            
 1.23E+03   6%   1.000 Cr+PCr                                              
 2.67E+03  17%   2.169 Glu+Gln                                             
 3.32E+03  31%   2.691 Lip13a                                              
    0.000 999%   0.000 Lip13b                                              
  158.088 286%   0.128 Lip09                                               
 2.59E+03  21%   2.104 MM09                                                
  646.821  47%   0.525 Lip20                                               
 6.59E+03  10%   5.345 MM20                                                
 1.09E+03  31%   0.888 MM12                                                
 2.48E+03  25%   2.014 MM14                                                
  690.426  46%   0.560 MM17                                                
 3.32E+03  31%   2.691 Lip13a+Lip13b                                       
 6.90E+03  11%   5.592 MM14+Lip13a+Lip13b+MM12                             
 2.75E+03  12%   2.232 MM09+Lip09                                          
 7.24E+03   9%   5.870 MM20+Lip20                                          
   6 lines in following misc. output table
  FWHM = 0.054 ppm    S/N =  14                                            
  Data shift = 0.023 ppm                                                   
  Ph: -31 deg      -7.2 deg/ppm                                            
  alphaB,S = 6.6E-01,   1.5E+02                                            
   14 spline knots.   Ns = 7(1)                                            
  (11) 2 infls.   ( 7) 1 extrs.                                            
  498 points on ppm-axis = NY
      4.000000     3.992357     3.984714     3.977070     3.969427     3.961784     3.954141     3.946497     3.938854     3.931211
      3.923568     3.915925     3.908281     3.900638     3.892995     3.885352     3.877708     3.870065     3.862422     3.854779
      3.847136     3.839492     3.831849     3.824206     3.816563     3.808919     3.801276     3.793633     3.785990     3.778347
      3.770703     3.763060     3.755417     3.747774     3.740130     3.732487     3.724844     3.717201     3.709558     3.701914
      3.694271     3.686628     3.678985     3.671341     3.663698     3.656055     3.648412     3.640769     3.633125     3.625482
      3.617839     3.610196     3.602552     3.594909     3.587266     3.579623     3.571980     3.564336     3.556693     3.549050
      3.541407     3.533763     3.526120     3.518477     3.510834     3.503191     3.495547     3.487904     3.480261     3.472618
      3.464974     3.457331     3.449688     3.442045     3.434402     3.426758     3.419115     3.411472     3.403829     3.396185
      3.388542     3.380899     3.373256     3.365613     3.357969     3.350326     3.342683     3.335040     3.327396     3.319753
      3.312110     3.304467     3.296824     3.289180     3.281537     3.273894     3.266251     3.258607     3.250964     3.243321
      3.235678     3.228034     3.220391     3.212748     3.205105     3.197462     3.189818     3.182175     3.174532     3.166889
      3.159245     3.151602     3.143959     3.136316     3.128673     3.121029     3.113386     3.105743     3.098100     3.090456
      3.082813     3.075170     3.067527     3.059884     3.052240     3.044597     3.036954     3.029311     3.021667     3.014024
      3.006381     2.998738     2.991095     2.983451     2.975808     2.968165     2.960522     2.952878     2.945235     2.937592
      2.929949     2.922306     2.914662     2.907019     2.899376     2.891733     2.884089     2.876446     2.868803     2.861160
      2.853517     2.845873     2.838230     2.830587     2.822944     2.815300     2.807657     2.800014     2.792371     2.784728
      2.777084     2.769441     2.761798     2.754155     2.746511     2.738868     2.731225     2.723582     2.715939     2.708295
      2.700652     2.693009     2.685366     2.677722     2.670079     2.662436     2.654793     2.647150     2.639506     2.631863
      2.624220     2.616577     2.608933     2.601290     2.593647     2.586004     2.578361     2.570717     2.563074     2.555431
      2.547788     2.540144     2.532501     2.524858     2.517215     2.509572     2.501928     2.494285     2.486642     2.478999
      2.471355     2.463712     2.456069     2.448426     2.440783     2.433139     2.425496     2.417853     2.410210     2.402566
      2.394923     2.387280     2.379637     2.371994     2.364350     2.356707     2.349064     2.341421     2.333777     2.326134
      2.318491     2.310848     2.303205     2.295561     2.287918     2.280275     2.272632     2.264988     2.257345     2.249702
      2.242059     2.234416     2.226772     2.219129     2.211486     2.203843     2.196199     2.188556     2.180913     2.173270
      2.165627     2.157983     2.150340     2.142697     2.135054     2.127410     2.119767     2.112124     2.104481     2.096838
      2.089194     2.081551     2.073908     2.066265     2.058621     2.050978     2.043335     2.035692     2.028049     2.020405
      2.012762     2.005119     1.997476     1.989833     1.982190     1.974546     1.966903     1.959260     1.951617     1.943974
      1.936331     1.928688     1.921045     1.913402     1.905759     1.898115     1.890472     1.882829     1.875186     1.867543
      1.859900     1.852257     1.844614     1.836971     1.829327     1.821684     1.814041     1.806398     1.798755     1.791112
      1.783469     1.775826     1.768183     1.760540     1.752896     1.745253     1.737610     1.729967     1.722324     1.714681
      1.707038     1.699395     1.691752     1.684108     1.676465     1.668822     1.661179     1.653536     1.645893     1.638250
      1.630607     1.622964     1.615321     1.607677     1.600034     1.592391     1.584748     1.577105     1.569462     1.561819
      1.554176     1.546533     1.538890     1.531246     1.523603     1.515960     1.508317     1.500674     1.493031     1.485388
      1.477745     1.470102     1.462458     1.454815     1.447172     1.439529     1.431886     1.424243     1.416600     1.408957
      1.401314     1.393671     1.386027     1.378384     1.370741     1.363098     1.355455     1.347812     1.340169     1.332526
      1.324883     1.317240     1.309596     1.301953     1.294310     1.286667     1.279024     1.271381     1.263738     1.256095
      1.248452     1.240808     1.233165     1.225522     1.217879     1.210236     1.202593     1.194950     1.187307     1.179664
      1.172021     1.164377     1.156734     1.149091     1.141448     1.133805     1.126162     1.118519     1.110876     1.103233
      1.095590     1.087946     1.080303     1.072660     1.065017     1.057374     1.049731     1.042088     1.034445     1.026802
      1.019158     1.011515     1.003872     0.996229     0.988586     0.980943     0.973300     0.965657     0.958014     0.950371
      0.942727     0.935084     0.927441     0.919798     0.912155     0.904512     0.896869     0.889226     0.881583     0.873940
      0.866296     0.858653     0.851010     0.843367     0.835724     0.828081     0.820438     0.812795     0.805152     0.797508
      0.789865     0.782222     0.774579     0.766936     0.759293     0.751650     0.744007     0.736364     0.728721     0.721077
      0.713434     0.705791     0.698148     0.690505     0.682862     0.675219     0.667576     0.659933     0.652290     0.644646
      0.637003     0.629360     0.621717     0.614074     0.606431     0.598788     0.591145     0.583502     0.575858     0.568215
      0.560572     0.552929     0.545286     0.537643     0.530000     0.522357     0.514714     0.507071     0.499427     0.491784
      0.484141     0.476498     0.468855     0.461212     0.453569     0.445925     0.438282     0.430639     0.422996     0.415353
      0.407710     0.400067     0.392424     0.384780     0.377137     0.369494     0.361851     0.354208     0.346565     0.338922
      0.331278     0.323635     0.315992     0.308349     0.300706     0.293063     0.285420     0.277777     0.270133     0.262490
      0.254847     0.247204     0.239561     0.231918     0.224275     0.216631     0.208988     0.201345
 NY phased data points follow
  -3.82564E+01 -4.28836E+01 -3.85288E+01 -3.42343E+01 -3.80605E+01 -3.11459E+01 -2.95377E+01 -2.83666E+01 -2.33321E+01 -2.20711E+01
  -1.75072E+01 -1.95040E+01 -1.74042E+01 -2.64194E+01 -2.97105E+01 -2.67459E+01 -2.79712E+01 -2.67399E+01 -3.11544E+01 -3.29853E+01
  -3.30653E+01 -3.61854E+01 -2.54847E+01 -3.12531E+01 -2.90019E+01 -3.22361E+01 -2.71308E+01 -1.98313E+01 -2.12865E+01 -2.19894E+01
  -1.53527E+01 -1.55956E+01 -2.31492E+01 -1.95423E+01 -2.21222E+01 -2.17772E+01 -1.89605E+01 -2.18771E+01 -2.19088E+01 -1.87535E+01
  -1.87851E+01 -2.13668E+01 -2.12811E+01 -1.34841E+01 -1.87575E+01 -1.59881E+01 -1.22398E+01 -2.11386E+01 -2.09551E+01 -2.07849E+01
  -1.90946E+01 -1.98956E+01 -2.26428E+01 -2.08903E+01 -2.05304E+01 -1.87350E+01 -1.95820E+01 -1.96372E+01 -1.92309E+01 -1.88872E+01
  -2.52634E+01 -1.53227E+01 -2.05620E+01 -2.38868E+01 -2.60232E+01 -2.36996E+01 -2.19615E+01 -2.22367E+01 -2.31842E+01 -2.30898E+01
  -2.45910E+01 -2.20416E+01 -2.04634E+01 -2.24673E+01 -1.66810E+01 -1.68374E+01 -1.95281E+01 -2.00476E+01 -2.04652E+01 -2.04996E+01
  -2.25708E+01 -1.66855E+01 -2.40548E+01 -2.17747E+01 -1.99409E+01 -1.33961E+01 -1.20486E+01 -1.30044E+01 -1.55826E+01 -1.75714E+01
  -6.44558E+00 -1.92736E+01 -1.34583E+01 -1.40608E+01 -5.14884E+00 -1.48945E+01 -1.33702E+01 -8.56867E+00 -1.07130E+01 -4.84587E+00
   3.84926E+00  7.41557E+00  1.29130E+01  9.02234E+00  1.10280E+01  5.57046E+00  4.61552E+00 -2.82615E+00 -9.89495E+00 -3.28031E+00
  -1.17230E+01 -1.31118E+01 -1.07327E+01 -1.12560E+01 -1.18174E+01 -1.14933E+01 -8.39252E+00 -8.91217E+00 -7.31382E+00 -8.37506E+00
  -9.05662E+00  4.26565E-01 -2.23805E+00  3.15315E+00  1.60050E+01  2.04538E+01  2.87860E+01  2.50676E+01  2.48098E+01  1.82227E+01
   1.34528E+01  8.69020E+00  4.06957E+00 -2.86414E+00 -2.54604E+00 -5.43229E+00 -6.97735E+00 -9.45012E+00 -1.15735E+01 -1.31844E+01
  -1.85517E+01 -9.39514E+00 -1.21447E+01 -1.71889E+01 -7.18530E+00 -1.27207E+01 -6.13645E+00 -1.14933E+01 -1.31438E+01 -1.09173E+01
  -1.31725E+01 -1.19891E+01 -1.20279E+01 -1.24205E+01 -1.33404E+01 -1.00795E+01 -8.27234E+00 -1.06826E+01 -1.24706E+01 -1.37929E+01
  -7.42419E+00 -1.25316E+01 -9.50969E+00 -2.16666E+01 -1.11445E+01 -1.66677E+01 -2.03351E+01 -1.58974E+01 -1.83141E+01 -2.07916E+01
  -2.22027E+01 -2.26738E+01 -2.39390E+01 -2.79444E+01 -2.78606E+01 -3.22646E+01 -3.20014E+01 -2.70298E+01 -2.99248E+01 -2.97879E+01
  -2.86701E+01 -2.56443E+01 -1.84046E+01 -2.29345E+01 -1.38648E+01 -1.98522E+01 -1.83424E+01 -1.71533E+01 -1.60693E+01 -1.66498E+01
  -1.89408E+01 -1.02055E+01 -1.54464E+01 -1.94967E+01 -1.67467E+01 -1.58988E+01 -1.88750E+01 -2.04036E+01 -1.81040E+01 -1.60352E+01
  -1.87667E+01 -6.88084E+00 -5.59209E+00 -8.67419E+00 -7.74548E+00 -4.21171E+00 -2.18309E+00 -4.33159E+00 -1.34153E+01 -9.26475E+00
  -7.24948E+00 -6.22678E+00 -1.13329E+00  5.16882E+00  7.23819E+00  7.97802E+00  8.04664E+00  5.38857E-01 -6.90797E-01  2.20928E-01
  -1.53378E+01 -9.26107E+00 -1.47647E+01 -7.05917E+00 -5.90303E+00 -4.54666E+00  1.67104E+00 -1.22452E+00 -1.72024E-01  2.00665E+00
   4.67221E+00  6.46511E+00  4.47717E+00  6.24840E+00  6.54813E+00  3.79460E+00  9.99928E+00  7.85047E+00 -8.34337E-01  7.36756E+00
   5.50240E+00  5.81603E+00  6.97591E+00  3.47682E+00  6.27506E+00  7.73007E+00  8.97974E+00  1.34680E+01  1.12007E+01  1.68496E+01
   2.12275E+01  2.63768E+01  2.63748E+01  2.83094E+01  3.68063E+01  4.33948E+01  5.83511E+01  7.33472E+01  1.00149E+02  1.20092E+02
   1.21348E+02  1.07627E+02  9.04346E+01  6.56543E+01  5.56355E+01  3.68772E+01  2.62666E+01  2.22909E+01  1.49929E+01  1.01167E+01
   8.14127E+00  5.30734E+00  8.75884E+00  4.32182E+00  2.39688E+00  1.78435E+00  9.78911E-01 -1.65289E+00  2.01083E+00  3.07703E+00
  -4.55002E-01 -5.00715E+00 -1.42370E+00 -3.45515E+00  1.37253E+00 -8.47757E-01 -4.23158E+00 -4.96279E+00 -1.14089E+00 -2.34111E+00
  -5.24605E+00 -4.15105E+00 -3.53104E+00  3.93412E-01 -2.49883E+00 -3.40926E+00  2.10563E+00 -7.28460E+00  3.14691E-01 -4.07263E+00
   1.79293E+00 -2.33966E+00 -4.57483E+00 -1.28558E+00  1.96685E+00 -6.47238E+00 -2.83789E+00  1.78966E-01 -1.36206E+00  5.35381E-01
   2.42796E-01  3.68253E-02 -1.80373E+00  1.92435E+00 -3.81729E+00 -7.66539E+00 -6.12769E+00 -7.55052E+00 -7.30120E+00 -6.49197E+00
  -2.38823E+00 -2.43495E+00 -3.46299E+00 -4.27763E+00 -3.25581E+00  1.66390E+00  6.55947E+00  2.11330E+00  5.48007E-01  1.58392E+00
   4.76815E+00  5.64494E+00  8.71852E+00  1.47807E+01  1.05793E+01  1.40241E+01  2.00562E+01  1.32175E+01  1.80419E+01  2.29152E+01
   1.85819E+01  1.69334E+01  1.38408E+01  2.20396E+01  2.11419E+01  2.28705E+01  2.12928E+01  1.81213E+01  2.64238E+01  2.00146E+01
   2.06304E+01  2.11039E+01  1.94187E+01  1.84032E+01  2.22480E+01  2.12644E+01  1.65720E+01  1.49398E+01  1.47882E+01  1.43447E+01
   1.08435E+01  1.49978E+01  1.15145E+01  1.42413E+01  1.83509E+01  2.38162E+01  1.37533E+01  1.80767E+01  2.06504E+01  1.56014E+01
   1.44767E+01  1.12905E+01  1.35343E+01  9.72790E+00  1.45241E+01  8.13604E+00  1.21036E+01  9.14613E+00  5.32896E+00  7.02148E+00
   1.10235E+01  4.95388E+00  4.51552E+00  1.03588E+01  4.41455E+00  4.25984E-01  1.08620E+01  8.81450E+00 -1.50983E+00  6.68228E+00
   3.63679E+00  9.46573E+00  8.63288E+00  6.66241E+00  1.06260E+01  1.44329E+01  5.64690E+00  1.18418E+01  1.18873E+01  1.22794E+01
   9.42560E+00  1.53611E+01  1.84572E+01  1.79475E+01  1.53519E+01  2.19434E+01  1.88288E+01  1.63671E+01  1.99079E+01  1.65610E+01
   1.42656E+01  1.40380E+01  1.46612E+01  1.24257E+01  1.43763E+01  1.35064E+01  1.24912E+01  1.37460E+01  1.55522E+01  1.52525E+01
   8.85062E+00  1.06854E+01  8.48145E+00  8.93103E+00  1.60090E+01  5.94705E+00  3.85480E+00  7.37156E+00  6.17422E+00  1.19088E+00
   2.71992E+00  5.68371E+00  1.00925E+01  1.83827E+00  4.20560E+00  2.38804E+00  2.98575E+00  6.04811E+00  1.87840E+00  3.61231E-01
   2.77171E+00  1.11489E+00  3.77181E+00  2.42082E+00  6.29142E+00  8.44377E+00  1.59735E+00  3.11861E+00  1.23188E+00  2.67773E+00
   4.92335E+00 -3.83577E-01  3.11346E+00  6.96643E+00  3.65841E+00  3.24083E+00  7.36278E+00  3.53470E+00  3.33544E+00  5.60050E+00
   1.21663E+00  7.56304E-01  4.40492E+00  7.42645E+00  5.65509E+00  3.52876E+00  5.56761E+00  4.21555E+00  6.90630E-01  6.91056E+00
  -6.34677E-01  5.64823E+00  7.99546E+00  4.60781E+00 -3.64888E-02  9.30659E+00  5.71812E+00  4.13079E+00  3.72907E+00  6.55315E+00
   2.93539E+00  2.85952E-01 -2.94317E+00 -6.02983E-02  4.34347E+00  6.10243E+00  5.12028E+00  2.39071E-01  3.98840E+00  2.13277E+00
   5.54095E+00  6.70608E+00  6.65111E+00  1.77027E+00  2.96065E+00  7.15939E+00  6.86232E+00  1.64541E+00
 NY points of the fit to the data follow
  -3.40469E+01 -3.44013E+01 -3.45682E+01 -3.41231E+01 -3.33147E+01 -3.20229E+01 -2.98772E+01 -2.67797E+01 -2.33750E+01 -2.07716E+01
  -1.97066E+01 -2.01597E+01 -2.15556E+01 -2.32258E+01 -2.46809E+01 -2.56949E+01 -2.63855E+01 -2.72046E+01 -2.78873E+01 -2.80144E+01
  -2.79388E+01 -2.79207E+01 -2.80234E+01 -2.79594E+01 -2.76524E+01 -2.70172E+01 -2.57194E+01 -2.35018E+01 -2.05632E+01 -1.76402E+01
  -1.55182E+01 -1.47016E+01 -1.53481E+01 -1.71754E+01 -1.96946E+01 -2.22988E+01 -2.44257E+01 -2.58803E+01 -2.65864E+01 -2.63678E+01
  -2.53963E+01 -2.40555E+01 -2.25678E+01 -2.09568E+01 -1.93075E+01 -1.79886E+01 -1.73916E+01 -1.77332E+01 -1.88708E+01 -2.03227E+01
  -2.17166E+01 -2.28190E+01 -2.34796E+01 -2.37429E+01 -2.37447E+01 -2.34930E+01 -2.29417E+01 -2.22293E+01 -2.16201E+01 -2.12670E+01
  -2.11958E+01 -2.13579E+01 -2.15855E+01 -2.17439E+01 -2.17358E+01 -2.15407E+01 -2.12640E+01 -2.09953E+01 -2.06879E+01 -2.02863E+01
  -1.98389E+01 -1.93902E+01 -1.89708E+01 -1.86542E+01 -1.85562E+01 -1.87327E+01 -1.91556E+01 -1.96981E+01 -2.01217E+01 -2.02320E+01
  -1.98268E+01 -1.90272E+01 -1.80382E+01 -1.69561E+01 -1.58486E+01 -1.49116E+01 -1.44713E+01 -1.46367E+01 -1.52315E+01 -1.59903E+01
  -1.67497E+01 -1.73937E+01 -1.78432E+01 -1.81215E+01 -1.81921E+01 -1.77327E+01 -1.59016E+01 -1.26797E+01 -8.52097E+00 -3.31777E+00
   2.76319E+00  8.63092E+00  1.24976E+01  1.30942E+01  1.05690E+01  6.14880E+00  1.21409E+00 -3.23779E+00 -6.76593E+00 -9.48879E+00
  -1.17805E+01 -1.37057E+01 -1.47404E+01 -1.49578E+01 -1.49200E+01 -1.47862E+01 -1.45966E+01 -1.43178E+01 -1.38904E+01 -1.30383E+01
  -1.07752E+01 -6.77007E+00 -1.36365E+00  5.62508E+00  1.38810E+01  2.17954E+01  2.70052E+01  2.79361E+01  2.47755E+01  1.91045E+01
   1.27632E+01  6.92488E+00  1.96656E+00 -2.26530E+00 -6.15867E+00 -9.57971E+00 -1.15929E+01 -1.21379E+01 -1.19826E+01 -1.14985E+01
  -1.09849E+01 -1.06640E+01 -1.05852E+01 -1.06810E+01 -1.09136E+01 -1.12276E+01 -1.15650E+01 -1.19189E+01 -1.22888E+01 -1.26472E+01
  -1.29785E+01 -1.32364E+01 -1.34193E+01 -1.35400E+01 -1.36893E+01 -1.38938E+01 -1.41743E+01 -1.45763E+01 -1.50441E+01 -1.55045E+01
  -1.57888E+01 -1.57280E+01 -1.53928E+01 -1.50751E+01 -1.50673E+01 -1.54527E+01 -1.61059E+01 -1.68167E+01 -1.74286E+01 -1.79659E+01
  -1.85474E+01 -1.91322E+01 -1.97365E+01 -2.03045E+01 -2.06785E+01 -2.07391E+01 -2.04776E+01 -2.00799E+01 -1.98034E+01 -1.97438E+01
  -1.98302E+01 -1.98614E+01 -1.97210E+01 -1.94311E+01 -1.89686E+01 -1.82273E+01 -1.70477E+01 -1.53740E+01 -1.34521E+01 -1.16848E+01
  -1.04476E+01 -9.94868E+00 -1.00480E+01 -1.04668E+01 -1.09835E+01 -1.14738E+01 -1.18181E+01 -1.17151E+01 -1.10056E+01 -9.76731E+00
  -8.21110E+00 -6.64909E+00 -5.46040E+00 -5.14441E+00 -5.82453E+00 -7.38492E+00 -9.61603E+00 -1.20645E+01 -1.40223E+01 -1.47608E+01
  -1.40365E+01 -1.20463E+01 -8.99773E+00 -5.35518E+00 -2.07695E+00 -2.93989E-01 -6.57227E-01 -2.88429E+00 -6.20251E+00 -9.91702E+00
  -1.30153E+01 -1.45723E+01 -1.42162E+01 -1.21274E+01 -8.99508E+00 -5.54549E+00 -2.44031E+00 -1.73509E-01  1.18227E+00  1.84484E+00
   2.24568E+00  2.63668E+00  3.08763E+00  3.77294E+00  4.80943E+00  6.00887E+00  7.01291E+00  7.60045E+00  7.72716E+00  7.52867E+00
   7.19967E+00  7.07620E+00  7.53535E+00  8.67317E+00  1.02323E+01  1.18270E+01  1.32582E+01  1.44278E+01  1.53516E+01  1.62812E+01
   1.74346E+01  1.89429E+01  2.11388E+01  2.62067E+01  3.54309E+01  4.73742E+01  6.25026E+01  8.10276E+01  9.98669E+01  1.13023E+02
   1.15550E+02  1.07043E+02  9.12158E+01  7.29343E+01  5.59047E+01  4.19440E+01  3.10368E+01  2.18808E+01  1.37072E+01  8.21720E+00
   5.98207E+00  4.77706E+00  3.93415E+00  3.29228E+00  2.71675E+00  2.10362E+00  1.46279E+00  8.10368E-01  1.67601E-01 -4.32173E-01
  -9.63180E-01 -1.42588E+00 -1.82147E+00 -2.14418E+00 -2.40170E+00 -2.60792E+00 -2.77145E+00 -2.88930E+00 -2.95552E+00 -2.97062E+00
  -2.94394E+00 -2.87908E+00 -2.78317E+00 -2.66537E+00 -2.53645E+00 -2.40380E+00 -2.27297E+00 -2.14759E+00 -2.03213E+00 -1.93037E+00
  -1.84751E+00 -1.78715E+00 -1.75375E+00 -1.75015E+00 -1.77787E+00 -1.83528E+00 -1.91892E+00 -2.02333E+00 -2.14307E+00 -2.27018E+00
  -2.39723E+00 -2.51617E+00 -2.61868E+00 -2.69533E+00 -2.73764E+00 -2.73667E+00 -2.68445E+00 -2.57241E+00 -2.39242E+00 -2.13535E+00
  -1.79254E+00 -1.35949E+00 -8.34291E-01 -2.13605E-01  5.01285E-01  1.30530E+00  2.19201E+00  3.15902E+00  4.20918E+00  5.34469E+00
   6.55773E+00  7.83601E+00  9.16254E+00  1.05147E+01  1.18624E+01  1.31747E+01  1.44241E+01  1.55863E+01  1.66431E+01  1.75843E+01
   1.84024E+01  1.90933E+01  1.96544E+01  2.00863E+01  2.03966E+01  2.05968E+01  2.06971E+01  2.07105E+01  2.06506E+01  2.05313E+01
   2.03653E+01  2.01641E+01  1.99368E+01  1.96905E+01  1.94289E+01  1.91538E+01  1.88643E+01  1.85581E+01  1.82314E+01  1.78804E+01
   1.75000E+01  1.70864E+01  1.66363E+01  1.61480E+01  1.56212E+01  1.50575E+01  1.44596E+01  1.38323E+01  1.31813E+01  1.25144E+01
   1.18394E+01  1.11653E+01  1.05006E+01  9.85450E+00  9.23550E+00  8.65215E+00  8.11175E+00  7.62126E+00  7.18630E+00  6.81234E+00
   6.50363E+00  6.26420E+00  6.09680E+00  6.00402E+00  5.98747E+00  6.04886E+00  6.18896E+00  6.40841E+00  6.70657E+00  7.08249E+00
   7.53388E+00  8.05787E+00  8.64974E+00  9.30359E+00  1.00112E+01  1.07631E+01  1.15474E+01  1.23513E+01  1.31593E+01  1.39554E+01
   1.47221E+01  1.54418E+01  1.60972E+01  1.66719E+01  1.71509E+01  1.75217E+01  1.77739E+01  1.79013E+01  1.79005E+01  1.77723E+01
   1.75207E+01  1.71532E+01  1.66800E+01  1.61145E+01  1.54711E+01  1.47661E+01  1.40154E+01  1.32353E+01  1.24411E+01  1.16473E+01
   1.08660E+01  1.01084E+01  9.38261E+00  8.69569E+00  8.05220E+00  7.45547E+00  6.90677E+00  6.40638E+00  5.95306E+00  5.54524E+00
   5.18040E+00  4.85602E+00  4.56882E+00  4.31582E+00  4.09365E+00  3.89957E+00  3.73060E+00  3.58435E+00  3.45816E+00  3.34995E+00
   3.25754E+00  3.17944E+00  3.11396E+00  3.05991E+00  3.01580E+00  2.98070E+00  2.95349E+00  2.93361E+00  2.92018E+00  2.91271E+00
   2.91035E+00  2.91278E+00  2.91941E+00  2.93012E+00  2.94436E+00  2.96197E+00  2.98241E+00  3.00563E+00  3.03130E+00  3.05945E+00
   3.08968E+00  3.12195E+00  3.15589E+00  3.19161E+00  3.22886E+00  3.26774E+00  3.30789E+00  3.34935E+00  3.39185E+00  3.43557E+00
   3.48030E+00  3.52615E+00  3.57280E+00  3.62035E+00  3.66859E+00  3.71774E+00  3.76758E+00  3.81821E+00  3.86934E+00  3.92112E+00
   3.97338E+00  4.02635E+00  4.07979E+00  4.13380E+00  4.18813E+00  4.24296E+00  4.29817E+00  4.35394E+00  4.41003E+00  4.46654E+00
   4.52325E+00  4.58040E+00  4.63784E+00  4.69574E+00  4.75386E+00  4.81229E+00  4.87089E+00  4.92989E+00
 NY background values follow
    -3.675E+01   -3.656E+01   -3.637E+01   -3.619E+01   -3.600E+01   -3.581E+01   -3.563E+01   -3.544E+01   -3.525E+01   -3.507E+01
    -3.488E+01   -3.470E+01   -3.451E+01   -3.432E+01   -3.414E+01   -3.395E+01   -3.377E+01   -3.358E+01   -3.340E+01   -3.321E+01
    -3.303E+01   -3.284E+01   -3.266E+01   -3.247E+01   -3.229E+01   -3.211E+01   -3.193E+01   -3.174E+01   -3.156E+01   -3.138E+01
    -3.120E+01   -3.102E+01   -3.084E+01   -3.066E+01   -3.048E+01   -3.030E+01   -3.013E+01   -2.995E+01   -2.978E+01   -2.960E+01
    -2.943E+01   -2.925E+01   -2.908E+01   -2.891E+01   -2.873E+01   -2.856E+01   -2.839E+01   -2.822E+01   -2.806E+01   -2.789E+01
    -2.772E+01   -2.756E+01   -2.739E+01   -2.723E+01   -2.707E+01   -2.690E+01   -2.674E+01   -2.658E+01   -2.642E+01   -2.627E+01
    -2.611E+01   -2.595E+01   -2.580E+01   -2.564E+01   -2.549E+01   -2.534E+01   -2.519E+01   -2.504E+01   -2.489E+01   -2.474E+01
    -2.460E+01   -2.445E+01   -2.431E+01   -2.417E+01   -2.403E+01   -2.389E+01   -2.375E+01   -2.361E+01   -2.347E+01   -2.334E+01
    -2.320E+01   -2.307E+01   -2.294E+01   -2.281E+01   -2.268E+01   -2.255E+01   -2.243E+01   -2.230E+01   -2.218E+01   -2.206E+01
    -2.194E+01   -2.182E+01   -2.170E+01   -2.158E+01   -2.147E+01   -2.136E+01   -2.124E+01   -2.113E+01   -2.102E+01   -2.092E+01
    -2.081E+01   -2.070E+01   -2.060E+01   -2.050E+01   -2.040E+01   -2.030E+01   -2.020E+01   -2.010E+01   -2.000E+01   -1.991E+01
    -1.982E+01   -1.972E+01   -1.963E+01   -1.954E+01   -1.945E+01   -1.937E+01   -1.928E+01   -1.920E+01   -1.911E+01   -1.903E+01
    -1.895E+01   -1.887E+01   -1.879E+01   -1.872E+01   -1.864E+01   -1.856E+01   -1.849E+01   -1.842E+01   -1.835E+01   -1.828E+01
    -1.821E+01   -1.814E+01   -1.807E+01   -1.801E+01   -1.794E+01   -1.788E+01   -1.782E+01   -1.775E+01   -1.769E+01   -1.763E+01
    -1.758E+01   -1.752E+01   -1.746E+01   -1.741E+01   -1.735E+01   -1.730E+01   -1.724E+01   -1.719E+01   -1.714E+01   -1.709E+01
    -1.704E+01   -1.699E+01   -1.694E+01   -1.689E+01   -1.684E+01   -1.679E+01   -1.674E+01   -1.669E+01   -1.665E+01   -1.660E+01
    -1.655E+01   -1.651E+01   -1.646E+01   -1.641E+01   -1.637E+01   -1.632E+01   -1.627E+01   -1.623E+01   -1.618E+01   -1.613E+01
    -1.609E+01   -1.604E+01   -1.599E+01   -1.595E+01   -1.590E+01   -1.585E+01   -1.580E+01   -1.575E+01   -1.570E+01   -1.565E+01
    -1.560E+01   -1.555E+01   -1.550E+01   -1.545E+01   -1.539E+01   -1.534E+01   -1.529E+01   -1.523E+01   -1.518E+01   -1.512E+01
    -1.507E+01   -1.501E+01   -1.495E+01   -1.490E+01   -1.484E+01   -1.478E+01   -1.473E+01   -1.467E+01   -1.461E+01   -1.455E+01
    -1.449E+01   -1.443E+01   -1.438E+01   -1.432E+01   -1.426E+01   -1.420E+01   -1.414E+01   -1.408E+01   -1.402E+01   -1.396E+01
    -1.390E+01   -1.384E+01   -1.378E+01   -1.372E+01   -1.366E+01   -1.360E+01   -1.355E+01   -1.349E+01   -1.343E+01   -1.337E+01
    -1.331E+01   -1.325E+01   -1.320E+01   -1.314E+01   -1.308E+01   -1.302E+01   -1.297E+01   -1.291E+01   -1.286E+01   -1.280E+01
    -1.275E+01   -1.269E+01   -1.264E+01   -1.258E+01   -1.253E+01   -1.247E+01   -1.242E+01   -1.237E+01   -1.232E+01   -1.226E+01
    -1.221E+01   -1.216E+01   -1.211E+01   -1.206E+01   -1.201E+01   -1.195E+01   -1.190E+01   -1.185E+01   -1.180E+01   -1.175E+01
    -1.170E+01   -1.165E+01   -1.160E+01   -1.155E+01   -1.150E+01   -1.145E+01   -1.140E+01   -1.135E+01   -1.130E+01   -1.125E+01
    -1.121E+01   -1.116E+01   -1.111E+01   -1.106E+01   -1.101E+01   -1.096E+01   -1.091E+01   -1.086E+01   -1.081E+01   -1.076E+01
    -1.071E+01   -1.067E+01   -1.062E+01   -1.057E+01   -1.052E+01   -1.047E+01   -1.042E+01   -1.037E+01   -1.032E+01   -1.027E+01
    -1.022E+01   -1.017E+01   -1.012E+01   -1.007E+01   -1.002E+01   -9.970E+00   -9.919E+00   -9.869E+00   -9.818E+00   -9.767E+00
    -9.716E+00   -9.665E+00   -9.613E+00   -9.562E+00   -9.510E+00   -9.458E+00   -9.406E+00   -9.354E+00   -9.302E+00   -9.249E+00
    -9.196E+00   -9.143E+00   -9.090E+00   -9.037E+00   -8.983E+00   -8.929E+00   -8.875E+00   -8.821E+00   -8.766E+00   -8.711E+00
    -8.656E+00   -8.601E+00   -8.545E+00   -8.490E+00   -8.433E+00   -8.377E+00   -8.320E+00   -8.263E+00   -8.206E+00   -8.149E+00
    -8.091E+00   -8.033E+00   -7.974E+00   -7.916E+00   -7.857E+00   -7.798E+00   -7.738E+00   -7.679E+00   -7.619E+00   -7.559E+00
    -7.498E+00   -7.438E+00   -7.377E+00   -7.316E+00   -7.255E+00   -7.193E+00   -7.132E+00   -7.070E+00   -7.008E+00   -6.946E+00
    -6.883E+00   -6.821E+00   -6.758E+00   -6.695E+00   -6.632E+00   -6.568E+00   -6.505E+00   -6.441E+00   -6.377E+00   -6.313E+00
    -6.249E+00   -6.185E+00   -6.121E+00   -6.056E+00   -5.991E+00   -5.927E+00   -5.862E+00   -5.797E+00   -5.732E+00   -5.666E+00
    -5.601E+00   -5.535E+00   -5.470E+00   -5.404E+00   -5.339E+00   -5.273E+00   -5.207E+00   -5.141E+00   -5.075E+00   -5.008E+00
    -4.942E+00   -4.875E+00   -4.809E+00   -4.742E+00   -4.675E+00   -4.609E+00   -4.542E+00   -4.474E+00   -4.407E+00   -4.340E+00
    -4.272E+00   -4.205E+00   -4.137E+00   -4.069E+00   -4.001E+00   -3.933E+00   -3.865E+00   -3.796E+00   -3.728E+00   -3.659E+00
    -3.590E+00   -3.521E+00   -3.452E+00   -3.383E+00   -3.314E+00   -3.244E+00   -3.175E+00   -3.105E+00   -3.035E+00   -2.965E+00
    -2.895E+00   -2.824E+00   -2.754E+00   -2.683E+00   -2.612E+00   -2.541E+00   -2.470E+00   -2.399E+00   -2.327E+00   -2.256E+00
    -2.184E+00   -2.112E+00   -2.040E+00   -1.968E+00   -1.895E+00   -1.823E+00   -1.750E+00   -1.678E+00   -1.605E+00   -1.532E+00
    -1.459E+00   -1.386E+00   -1.313E+00   -1.240E+00   -1.167E+00   -1.093E+00   -1.020E+00   -9.468E-01   -8.733E-01   -7.999E-01
    -7.264E-01   -6.528E-01   -5.793E-01   -5.058E-01   -4.322E-01   -3.586E-01   -2.851E-01   -2.116E-01   -1.380E-01   -6.453E-02
     8.942E-03    8.238E-02    1.558E-01    2.291E-01    3.024E-01    3.756E-01    4.488E-01    5.219E-01    5.949E-01    6.679E-01
     7.407E-01    8.135E-01    8.862E-01    9.587E-01    1.031E+00    1.104E+00    1.176E+00    1.248E+00    1.320E+00    1.392E+00
     1.464E+00    1.536E+00    1.607E+00    1.679E+00    1.751E+00    1.822E+00    1.893E+00    1.965E+00    2.036E+00    2.107E+00
     2.178E+00    2.249E+00    2.320E+00    2.391E+00    2.462E+00    2.533E+00    2.604E+00    2.675E+00    2.745E+00    2.816E+00
     2.886E+00    2.957E+00    3.028E+00    3.098E+00    3.168E+00    3.239E+00    3.309E+00    3.380E+00    3.450E+00    3.520E+00
     3.590E+00    3.661E+00    3.731E+00    3.801E+00    3.871E+00    3.942E+00    4.012E+00    4.082E+00
 Ala      Conc. = 8.63E+00
