 LCModel (Version 6.3-1L) Copyright: S.W. Provencher.          Ref.: Magn. Reson. Med. 30:672-679 (1993).                
 Slice#1 Row#9 Col#5  PD_05_press_2_raw_act
 36 lines in following concentration table = NCONC+1
    Conc.  %SD /Cr+PCr  Metabolite                                         
  313.035  69%   0.135 Ala                                                 
    0.000 999%   0.000 Asp                                                 
 1.06E+03  30%   0.455 Cr                                                  
 1.27E+03  26%   0.545 PCr                                                 
    0.000 999%   0.000 GABA                                                
    0.000 999%   0.000 Glc                                                 
 1.63E+03  27%   0.702 Gln                                                 
 3.81E+03  13%   1.640 Glu                                                 
  616.257   6%   0.265 GPC                                                 
    0.000 999%   0.000 PCh                                                 
 1.00E+03  14%   0.432 GSH                                                 
 1.85E+03  25%   0.795 Ins                                                 
  236.956  99%   0.102 Lac                                                 
 5.34E+03   5%   2.296 NAA                                                 
  188.718 158% 8.1E-02 NAAG                                                
  108.346  44% 4.7E-02 Scyllo                                              
  360.526  98%   0.155 Tau                                                 
  378.392  50%   0.163 -CrCH2                                              
  616.257   6%   0.265 GPC+PCh                                             
 5.53E+03   3%   2.378 NAA+NAAG                                            
 2.32E+03   5%   1.000 Cr+PCr                                              
 5.44E+03  14%   2.342 Glu+Gln                                             
 4.49E+03  32%   1.930 Lip13a                                              
    0.000 999%   0.000 Lip13b                                              
  708.349  89%   0.305 Lip09                                               
 3.62E+03  20%   1.558 MM09                                                
  975.512  43%   0.420 Lip20                                               
 7.92E+03  11%   3.410 MM20                                                
 1.48E+03  36%   0.639 MM12                                                
 3.20E+03  26%   1.377 MM14                                                
 1.55E+03  26%   0.669 MM17                                                
 4.49E+03  32%   1.930 Lip13a+Lip13b                                       
 9.17E+03   9%   3.945 MM14+Lip13a+Lip13b+MM12                             
 4.33E+03   9%   1.863 MM09+Lip09                                          
 8.90E+03   9%   3.830 MM20+Lip20                                          
   6 lines in following misc. output table
  FWHM = 0.046 ppm    S/N =  17                                            
  Data shift = 0.015 ppm                                                   
  Ph:  -8 deg       1.0 deg/ppm                                            
  alphaB,S = 1.7E+00,   5.4E+01                                            
   14 spline knots.   Ns = 7(1)                                            
  (14) 6 infls.   (13) 1 extrs.                                            
  498 points on ppm-axis = NY
      4.000000     3.992357     3.984714     3.977070     3.969427     3.961784     3.954141     3.946497     3.938854     3.931211
      3.923568     3.915925     3.908281     3.900638     3.892995     3.885352     3.877708     3.870065     3.862422     3.854779
      3.847136     3.839492     3.831849     3.824206     3.816563     3.808919     3.801276     3.793633     3.785990     3.778347
      3.770703     3.763060     3.755417     3.747774     3.740130     3.732487     3.724844     3.717201     3.709558     3.701914
      3.694271     3.686628     3.678985     3.671341     3.663698     3.656055     3.648412     3.640769     3.633125     3.625482
      3.617839     3.610196     3.602552     3.594909     3.587266     3.579623     3.571980     3.564336     3.556693     3.549050
      3.541407     3.533763     3.526120     3.518477     3.510834     3.503191     3.495547     3.487904     3.480261     3.472618
      3.464974     3.457331     3.449688     3.442045     3.434402     3.426758     3.419115     3.411472     3.403829     3.396185
      3.388542     3.380899     3.373256     3.365613     3.357969     3.350326     3.342683     3.335040     3.327396     3.319753
      3.312110     3.304467     3.296824     3.289180     3.281537     3.273894     3.266251     3.258607     3.250964     3.243321
      3.235678     3.228034     3.220391     3.212748     3.205105     3.197462     3.189818     3.182175     3.174532     3.166889
      3.159245     3.151602     3.143959     3.136316     3.128673     3.121029     3.113386     3.105743     3.098100     3.090456
      3.082813     3.075170     3.067527     3.059884     3.052240     3.044597     3.036954     3.029311     3.021667     3.014024
      3.006381     2.998738     2.991095     2.983451     2.975808     2.968165     2.960522     2.952878     2.945235     2.937592
      2.929949     2.922306     2.914662     2.907019     2.899376     2.891733     2.884089     2.876446     2.868803     2.861160
      2.853517     2.845873     2.838230     2.830587     2.822944     2.815300     2.807657     2.800014     2.792371     2.784728
      2.777084     2.769441     2.761798     2.754155     2.746511     2.738868     2.731225     2.723582     2.715939     2.708295
      2.700652     2.693009     2.685366     2.677722     2.670079     2.662436     2.654793     2.647150     2.639506     2.631863
      2.624220     2.616577     2.608933     2.601290     2.593647     2.586004     2.578361     2.570717     2.563074     2.555431
      2.547788     2.540144     2.532501     2.524858     2.517215     2.509572     2.501928     2.494285     2.486642     2.478999
      2.471355     2.463712     2.456069     2.448426     2.440783     2.433139     2.425496     2.417853     2.410210     2.402566
      2.394923     2.387280     2.379637     2.371994     2.364350     2.356707     2.349064     2.341421     2.333777     2.326134
      2.318491     2.310848     2.303205     2.295561     2.287918     2.280275     2.272632     2.264988     2.257345     2.249702
      2.242059     2.234416     2.226772     2.219129     2.211486     2.203843     2.196199     2.188556     2.180913     2.173270
      2.165627     2.157983     2.150340     2.142697     2.135054     2.127410     2.119767     2.112124     2.104481     2.096838
      2.089194     2.081551     2.073908     2.066265     2.058621     2.050978     2.043335     2.035692     2.028049     2.020405
      2.012762     2.005119     1.997476     1.989833     1.982190     1.974546     1.966903     1.959260     1.951617     1.943974
      1.936331     1.928688     1.921045     1.913402     1.905759     1.898115     1.890472     1.882829     1.875186     1.867543
      1.859900     1.852257     1.844614     1.836971     1.829327     1.821684     1.814041     1.806398     1.798755     1.791112
      1.783469     1.775826     1.768183     1.760540     1.752896     1.745253     1.737610     1.729967     1.722324     1.714681
      1.707038     1.699395     1.691752     1.684108     1.676465     1.668822     1.661179     1.653536     1.645893     1.638250
      1.630607     1.622964     1.615321     1.607677     1.600034     1.592391     1.584748     1.577105     1.569462     1.561819
      1.554176     1.546533     1.538890     1.531246     1.523603     1.515960     1.508317     1.500674     1.493031     1.485388
      1.477745     1.470102     1.462458     1.454815     1.447172     1.439529     1.431886     1.424243     1.416600     1.408957
      1.401314     1.393671     1.386027     1.378384     1.370741     1.363098     1.355455     1.347812     1.340169     1.332526
      1.324883     1.317240     1.309596     1.301953     1.294310     1.286667     1.279024     1.271381     1.263738     1.256095
      1.248452     1.240808     1.233165     1.225522     1.217879     1.210236     1.202593     1.194950     1.187307     1.179664
      1.172021     1.164377     1.156734     1.149091     1.141448     1.133805     1.126162     1.118519     1.110876     1.103233
      1.095590     1.087946     1.080303     1.072660     1.065017     1.057374     1.049731     1.042088     1.034445     1.026802
      1.019158     1.011515     1.003872     0.996229     0.988586     0.980943     0.973300     0.965657     0.958014     0.950371
      0.942727     0.935084     0.927441     0.919798     0.912155     0.904512     0.896869     0.889226     0.881583     0.873940
      0.866296     0.858653     0.851010     0.843367     0.835724     0.828081     0.820438     0.812795     0.805152     0.797508
      0.789865     0.782222     0.774579     0.766936     0.759293     0.751650     0.744007     0.736364     0.728721     0.721077
      0.713434     0.705791     0.698148     0.690505     0.682862     0.675219     0.667576     0.659933     0.652290     0.644646
      0.637003     0.629360     0.621717     0.614074     0.606431     0.598788     0.591145     0.583502     0.575858     0.568215
      0.560572     0.552929     0.545286     0.537643     0.530000     0.522357     0.514714     0.507071     0.499427     0.491784
      0.484141     0.476498     0.468855     0.461212     0.453569     0.445925     0.438282     0.430639     0.422996     0.415353
      0.407710     0.400067     0.392424     0.384780     0.377137     0.369494     0.361851     0.354208     0.346565     0.338922
      0.331278     0.323635     0.315992     0.308349     0.300706     0.293063     0.285420     0.277777     0.270133     0.262490
      0.254847     0.247204     0.239561     0.231918     0.224275     0.216631     0.208988     0.201345
 NY phased data points follow
   4.58310E+00  8.48700E+00  1.98870E+01  1.76510E+01  1.52742E+01  2.59665E+01  2.38903E+01  3.52452E+01  4.19655E+01  4.38445E+01
   4.13380E+01  3.99098E+01  4.71288E+01  3.98830E+01  3.68954E+01  2.84724E+01  2.56061E+01  2.12527E+01  1.95807E+01  1.45903E+01
   1.25623E+01  1.24697E+01  2.01356E+01  1.00485E+01  2.06601E+01  1.60075E+01  2.13774E+01  1.96271E+01  2.25791E+01  3.03044E+01
   2.82697E+01  2.68260E+01  2.92148E+01  2.04663E+01  2.15568E+01  1.85304E+01  2.06303E+01  1.01698E+01  2.05852E+01  1.55379E+01
   1.82032E+01  1.72395E+01  1.65639E+01  2.33387E+01  1.38340E+01  3.05571E+01  2.60791E+01  2.43955E+01  2.16177E+01  1.23547E+01
   1.29271E+01  1.85226E+01  1.42486E+01  1.69407E+01  1.23960E+01  1.83247E+01  1.01564E+01  1.30504E+01  1.60938E+01  1.22490E+01
   6.85848E+00  1.07336E+01  4.12266E-01  1.25701E+01  7.76671E+00 -3.14469E-01  6.29867E+00  5.43279E+00  5.43032E+00  5.56577E+00
   2.55744E+00  7.13918E+00  4.23257E+00  8.24487E+00  3.62505E+00  2.35958E+00  9.86412E-01  1.34527E+01  5.29387E+00  2.44688E+00
  -3.21626E-02  3.40319E+00  5.72600E+00  2.72291E+00  5.21082E+00 -4.83721E-01  4.47788E+00  8.72911E+00  6.34028E+00  9.75591E+00
   8.75181E+00  7.28741E+00  6.45029E+00 -2.03746E+00  1.08983E+01  1.94057E+00  1.35152E+01  1.45276E+01  2.19269E+01  3.13418E+01
   3.13777E+01  3.62401E+01  5.30746E+01  5.39096E+01  5.60284E+01  4.62960E+01  4.05357E+01  3.07972E+01  2.38395E+01  2.53926E+01
   1.49511E+01  1.72017E+01  4.72210E+00  1.00688E+01  8.82913E+00  7.16201E+00  9.81477E+00  9.83877E+00  8.42380E+00  7.11956E+00
   2.13763E+01  1.28114E+01  2.48316E+01  4.05741E+01  4.40816E+01  5.76852E+01  8.07604E+01  7.59877E+01  7.93588E+01  6.31491E+01
   5.43868E+01  4.72793E+01  2.75376E+01  3.53556E+01  2.80711E+01  1.86762E+01  2.43839E+01  1.35212E+01  9.50447E+00  1.08399E+01
   1.44335E+01  5.85627E+00  5.15568E+00  3.51830E+00  1.00957E+01  3.47156E+00  8.36671E+00  4.19533E-02  6.37375E+00  2.69836E+00
   6.90237E+00  6.18927E+00 -2.38734E+00  6.31358E+00  2.81159E+00  2.52449E+00  2.88023E+00  8.31823E+00  2.67851E+00  1.07873E+00
  -1.60007E-01  8.27098E+00  1.03344E+01 -6.00430E-01  6.21535E+00 -6.23891E+00 -6.54081E-01 -5.98721E+00 -9.98973E+00 -1.64876E+01
  -1.33916E+01 -1.37395E+01 -1.57372E+01 -2.14228E+01 -1.78056E+01 -2.85460E+01 -2.90931E+01 -3.20329E+01 -3.24139E+01 -2.75201E+01
  -3.24687E+01 -1.96900E+01 -2.54467E+01 -1.64887E+01 -1.18642E+01 -9.39086E+00 -1.02553E+01 -9.40064E-01 -2.84605E+00 -8.06276E+00
  -7.79862E-01 -4.99176E+00 -6.28478E+00  3.53525E+00 -1.43029E+01 -1.04338E+01 -1.09177E+01 -1.10814E+01 -1.42244E+01 -1.39228E+01
  -5.90335E+00  6.32337E-01 -8.71352E-01  7.20918E+00  1.36019E+00  5.09214E+00  9.81842E+00  5.38815E+00  1.55512E+00 -8.19450E-01
  -8.30547E-01  9.82500E+00  1.56276E+01  1.53076E+01  2.36799E+01  3.41881E+01  3.02152E+01  2.29591E+01  1.42892E+01  6.24567E+00
   2.75906E+00 -3.33798E+00 -1.24705E+01 -1.96562E-01  7.57231E+00  1.16221E+01  1.78466E+01  1.44003E+01  2.13978E+01  1.82680E+01
   1.82181E+01  1.82259E+01  2.60667E+01  2.04306E+01  2.00945E+01  2.37256E+01  2.35937E+01  2.05348E+01  1.87709E+01  1.70972E+01
   1.36974E+01  1.27995E+01  1.22228E+01  1.33683E+01  1.78605E+01  1.46187E+01  1.57812E+01  2.66694E+01  2.04401E+01  2.72550E+01
   2.64858E+01  3.11040E+01  4.83465E+01  5.35288E+01  5.80321E+01  7.84796E+01  1.10815E+02  1.24171E+02  1.53303E+02  1.82888E+02
   2.02499E+02  2.01677E+02  1.64007E+02  1.25403E+02  9.89954E+01  7.60266E+01  6.13295E+01  4.72762E+01  3.32811E+01  2.67870E+01
   2.10691E+01  2.00084E+01  1.21340E+01  1.58572E+01  9.85541E+00  1.19367E+01  4.85511E+00  7.89813E+00  7.38101E+00  8.82915E+00
   7.36990E+00  4.69393E+00  1.31987E+00 -1.07255E+00  6.20518E+00 -3.35540E-01  3.26273E+00 -1.36908E+00 -4.02978E+00  8.70208E+00
   5.80889E+00  8.78944E+00  5.37890E-01  4.08161E+00 -6.47917E-01 -4.77691E-02  3.11205E+00  1.08685E+00  3.97992E+00  4.56145E+00
   1.96564E+01  8.85750E+00  1.08689E+01  6.69427E+00  1.20876E+01  7.20378E+00  1.63431E+01  1.19919E+01  2.02313E+01  1.33182E+01
   1.43551E+01  1.48931E+01  1.99796E+01  1.33998E+01  1.29934E+01  2.14249E+01  5.05263E+00  1.51422E+00  5.90912E+00  8.50879E+00
   1.02122E+01  8.33719E+00  1.16771E+01  1.50359E+01  9.02789E+00  1.09489E+01  8.90550E+00  1.48236E+01  1.35800E+01  1.35367E+01
   1.00354E+01  1.43546E+01  2.16321E+01  1.32726E+01  2.08319E+01  1.99177E+01  1.99562E+01  2.78601E+01  2.88346E+01  2.75236E+01
   3.23115E+01  3.33504E+01  3.03342E+01  2.66743E+01  2.98404E+01  3.67262E+01  2.73229E+01  2.66559E+01  2.63522E+01  2.27885E+01
   2.89441E+01  2.03368E+01  2.70782E+01  2.26466E+01  2.56068E+01  2.76619E+01  2.61999E+01  2.76855E+01  2.15422E+01  2.04782E+01
   2.31267E+01  2.08739E+01  1.78482E+01  2.48356E+01  2.35830E+01  2.58282E+01  3.02825E+01  2.82676E+01  1.42126E+01  2.19445E+01
   2.44012E+01  1.96719E+01  2.36497E+01  2.38485E+01  2.46666E+01  1.76901E+01  1.62976E+01  1.43840E+01  7.73912E+00  1.19534E+01
   1.50606E+01  1.21176E+01  1.39287E+01  1.28497E+01  1.31621E+01  1.48023E+01  1.55726E+01  1.27629E+01  1.33359E+01  1.11730E+01
   8.33231E+00  1.55619E+01  1.23210E+01  1.65401E+01  2.17182E+01  2.34071E+01  2.34631E+01  2.33303E+01  2.47136E+01  3.40952E+01
   2.63651E+01  2.64484E+01  3.21355E+01  3.44590E+01  2.99274E+01  3.13709E+01  3.35232E+01  3.50964E+01  2.45489E+01  3.34238E+01
   2.91068E+01  2.72147E+01  2.45940E+01  2.24000E+01  2.59127E+01  2.55199E+01  1.85291E+01  1.51456E+01  1.85298E+01  1.41864E+01
   1.13887E+01  1.25712E+01  6.61093E+00  1.02351E+01  1.37071E+01  5.68381E+00  6.97669E+00  6.99591E+00  7.43630E+00  1.53080E+01
   7.52203E+00 -6.94085E-01  5.87832E+00  1.55391E+01  2.80982E+00  2.41101E+00  3.32430E+00  4.61910E+00  6.23509E+00  3.41069E+00
   2.89908E+00  8.92625E+00  5.02350E-01  5.21198E+00 -5.56629E-01  4.30491E+00 -2.13275E+00 -3.53511E-01  8.61019E-01  3.63894E+00
   3.27515E+00 -5.79533E+00  7.16291E+00  4.77760E+00  2.76373E+00  1.53922E+00  3.62506E+00  3.16738E+00 -4.61383E-01  1.93025E+00
   1.52170E+00  1.43630E+00  3.67940E-01  3.69663E+00  8.81158E+00  3.29544E+00  9.94830E-01  1.47328E+00  4.79154E+00  1.48945E+00
   4.55647E+00  3.48563E+00  2.60856E+00  1.30290E+00  6.29262E+00 -4.87651E+00  7.00809E+00  8.69474E+00  4.04434E+00  4.92445E+00
  -5.75162E+00  1.06215E+01 -3.22649E+00  2.54991E+00 -1.05743E+00  6.58519E+00  3.77605E+00  6.07569E+00 -1.90632E+00 -5.00230E+00
  -1.15614E+00  1.36108E+01  1.08054E+00  2.11026E+00 -1.69901E+00  2.77196E+00  2.08083E+00  4.78243E+00
 NY points of the fit to the data follow
   1.02745E+01  1.04572E+01  1.20658E+01  1.41667E+01  1.72143E+01  2.16285E+01  2.70625E+01  3.35677E+01  3.96744E+01  4.33356E+01
   4.47940E+01  4.50374E+01  4.37677E+01  4.01118E+01  3.47906E+01  2.96943E+01  2.53408E+01  2.17478E+01  1.98144E+01  1.82171E+01
   1.61305E+01  1.44308E+01  1.40265E+01  1.45491E+01  1.54110E+01  1.70849E+01  1.89099E+01  2.16497E+01  2.61966E+01  3.12132E+01
   3.45072E+01  3.47144E+01  3.25484E+01  2.91258E+01  2.46609E+01  1.98927E+01  1.57826E+01  1.19813E+01  9.50330E+00  9.82993E+00
   1.15066E+01  1.34679E+01  1.52656E+01  1.70013E+01  1.88490E+01  2.08544E+01  2.27694E+01  2.30512E+01  2.07141E+01  1.71116E+01
   1.38168E+01  1.15008E+01  1.02163E+01  9.64645E+00  9.24605E+00  8.76842E+00  8.77741E+00  9.38972E+00  1.00966E+01  1.05106E+01
   1.03991E+01  9.65342E+00  8.59869E+00  7.51646E+00  6.88100E+00  6.84857E+00  7.11756E+00  7.39017E+00  7.65111E+00  7.90704E+00
   8.23482E+00  8.56371E+00  8.65448E+00  8.46256E+00  8.14862E+00  7.78627E+00  7.29393E+00  6.58477E+00  5.90141E+00  5.41366E+00
   5.38050E+00  5.61432E+00  6.00810E+00  6.17439E+00  6.19910E+00  6.38834E+00  6.40394E+00  5.87012E+00  4.94479E+00  4.15151E+00
   3.76779E+00  3.76490E+00  3.86311E+00  3.80625E+00  3.64600E+00  3.94938E+00  6.82241E+00  1.20754E+01  1.84494E+01  2.58028E+01
   3.32274E+01  4.21540E+01  5.23784E+01  5.90569E+01  5.75320E+01  4.86526E+01  3.77081E+01  2.89554E+01  2.31345E+01  1.92499E+01
   1.56360E+01  1.06631E+01  6.46318E+00  5.10917E+00  4.71685E+00  4.58598E+00  4.58125E+00  4.76013E+00  5.27770E+00  7.10793E+00
   1.16574E+01  1.87688E+01  2.77508E+01  3.76965E+01  4.85292E+01  6.08791E+01  7.31815E+01  8.02165E+01  7.77208E+01  6.71494E+01
   5.40549E+01  4.30281E+01  3.50944E+01  2.86027E+01  2.15687E+01  1.37289E+01  7.94491E+00  5.75684E+00  6.01470E+00  7.11724E+00
   8.13192E+00  8.46146E+00  8.24824E+00  7.76623E+00  7.12752E+00  6.52847E+00  5.98246E+00  5.33032E+00  4.63688E+00  3.83471E+00
   3.10913E+00  2.58616E+00  2.21197E+00  1.88870E+00  1.42898E+00  9.53988E-01  4.17291E-01 -1.07600E-01 -5.12364E-01 -1.26655E+00
  -2.25064E+00 -2.94014E+00 -2.85812E+00 -2.07741E+00 -1.49503E+00 -1.90159E+00 -3.32299E+00 -5.10065E+00 -6.49431E+00 -7.40874E+00
  -8.30731E+00 -9.19803E+00 -1.02128E+01 -1.13089E+01 -1.23846E+01 -1.32590E+01 -1.34468E+01 -1.27358E+01 -1.17592E+01 -1.15701E+01
  -1.24369E+01 -1.32250E+01 -1.31202E+01 -1.21322E+01 -1.06717E+01 -9.40349E+00 -8.17024E+00 -5.96272E+00 -2.71294E+00  6.32765E-01
   2.73699E+00  2.98201E+00  2.01314E+00  5.15150E-01 -6.88834E-01 -1.16238E+00 -1.20272E+00 -5.63087E-01  1.04193E+00  3.51969E+00
   6.27826E+00  8.74546E+00  1.03839E+01  1.04470E+01  9.18979E+00  6.17294E+00  1.82603E+00 -2.85225E+00 -6.96556E+00 -8.68871E+00
  -7.37129E+00 -3.56910E+00  1.36035E+00  6.54356E+00  1.18960E+01  1.58091E+01  1.58365E+01  1.17704E+01  5.64474E+00 -9.08961E-01
  -6.10828E+00 -9.42881E+00 -1.02363E+01 -7.57685E+00 -2.54556E+00  3.50817E+00  8.66770E+00  1.18836E+01  1.35994E+01  1.43687E+01
   1.51454E+01  1.59488E+01  1.66890E+01  1.75820E+01  1.86965E+01  1.97023E+01  2.04967E+01  2.09723E+01  2.07036E+01  1.99897E+01
   1.90477E+01  1.79556E+01  1.73157E+01  1.81117E+01  2.03073E+01  2.26344E+01  2.46378E+01  2.61742E+01  2.73590E+01  2.84963E+01
   2.99640E+01  3.22217E+01  3.60889E+01  4.69956E+01  6.47421E+01  8.50129E+01  1.07093E+02  1.28111E+02  1.53358E+02  1.83020E+02
   2.01898E+02  1.94840E+02  1.64600E+02  1.28447E+02  9.94643E+01  7.95515E+01  6.60648E+01  5.37156E+01  3.67174E+01  2.22416E+01
   1.71717E+01  1.48991E+01  1.34435E+01  1.25822E+01  1.19920E+01  1.12047E+01  1.02669E+01  9.29036E+00  8.34772E+00  7.46759E+00
   6.68043E+00  5.95347E+00  5.30166E+00  4.76640E+00  4.32653E+00  3.95289E+00  3.63558E+00  3.38769E+00  3.24136E+00  3.20465E+00
   3.25186E+00  3.39495E+00  3.64235E+00  3.99357E+00  4.43778E+00  4.97036E+00  5.59204E+00  6.29183E+00  7.05543E+00  7.86961E+00
   8.71125E+00  9.55445E+00  1.03725E+01  1.11355E+01  1.18153E+01  1.23866E+01  1.28328E+01  1.31432E+01  1.33117E+01  1.33406E+01
   1.32408E+01  1.30257E+01  1.27187E+01  1.23485E+01  1.19483E+01  1.15529E+01  1.11992E+01  1.09240E+01  1.07706E+01  1.08011E+01
   1.11093E+01  1.15796E+01  1.20867E+01  1.26322E+01  1.31449E+01  1.36887E+01  1.40774E+01  1.39182E+01  1.33199E+01  1.29034E+01
   1.31123E+01  1.40785E+01  1.54701E+01  1.71709E+01  1.92710E+01  2.15757E+01  2.37774E+01  2.54677E+01  2.64658E+01  2.71572E+01
   2.78569E+01  2.85432E+01  2.91211E+01  2.93700E+01  2.92376E+01  2.90979E+01  2.87612E+01  2.79152E+01  2.67360E+01  2.56171E+01
   2.49659E+01  2.48197E+01  2.49699E+01  2.54275E+01  2.61588E+01  2.68727E+01  2.73610E+01  2.74479E+01  2.71427E+01  2.66880E+01
   2.62081E+01  2.57358E+01  2.51907E+01  2.44120E+01  2.35724E+01  2.27918E+01  2.20180E+01  2.12305E+01  2.04272E+01  1.96121E+01
   1.87932E+01  1.79796E+01  1.71818E+01  1.64099E+01  1.56753E+01  1.49889E+01  1.43620E+01  1.38039E+01  1.33245E+01  1.29320E+01
   1.26351E+01  1.24415E+01  1.23586E+01  1.23919E+01  1.25473E+01  1.28285E+01  1.32398E+01  1.37829E+01  1.44582E+01  1.52629E+01
   1.61924E+01  1.72382E+01  1.83896E+01  1.96309E+01  2.09429E+01  2.23015E+01  2.36799E+01  2.50475E+01  2.63726E+01  2.76205E+01
   2.87575E+01  2.97499E+01  3.05683E+01  3.11865E+01  3.15846E+01  3.17476E+01  3.16686E+01  3.13473E+01  3.07922E+01  3.00174E+01
   2.90443E+01  2.78977E+01  2.66073E+01  2.52042E+01  2.37216E+01  2.21912E+01  2.06434E+01  1.91049E+01  1.76000E+01  1.61483E+01
   1.47666E+01  1.34662E+01  1.22551E+01  1.11371E+01  1.01140E+01  9.18435E+00  8.34551E+00  7.59235E+00  6.91939E+00  6.31977E+00
   5.78753E+00  5.31592E+00  4.89922E+00  4.53085E+00  4.20552E+00  3.91771E+00  3.66356E+00  3.43879E+00  3.24031E+00  3.06433E+00
   2.90842E+00  2.76983E+00  2.64721E+00  2.53842E+00  2.44227E+00  2.35672E+00  2.28099E+00  2.21377E+00  2.15483E+00  2.10296E+00
   2.05775E+00  2.01796E+00  1.98355E+00  1.95382E+00  1.92894E+00  1.90801E+00  1.89093E+00  1.87686E+00  1.86610E+00  1.85817E+00
   1.85334E+00  1.85083E+00  1.85070E+00  1.85236E+00  1.85629E+00  1.86207E+00  1.86996E+00  1.87922E+00  1.89004E+00  1.90200E+00
   1.91566E+00  1.93058E+00  1.94699E+00  1.96419E+00  1.98253E+00  2.00167E+00  2.02218E+00  2.04354E+00  2.06595E+00  2.08879E+00
   2.11253E+00  2.13690E+00  2.16239E+00  2.18843E+00  2.21522E+00  2.24227E+00  2.27011E+00  2.29848E+00  2.32780E+00  2.35745E+00
   2.38768E+00  2.41810E+00  2.44930E+00  2.48099E+00  2.51350E+00  2.54622E+00  2.57949E+00  2.61301E+00
 NY background values follow
     5.778E+00    5.721E+00    5.664E+00    5.606E+00    5.549E+00    5.492E+00    5.434E+00    5.377E+00    5.320E+00    5.262E+00
     5.205E+00    5.148E+00    5.090E+00    5.033E+00    4.976E+00    4.919E+00    4.861E+00    4.804E+00    4.747E+00    4.689E+00
     4.632E+00    4.575E+00    4.517E+00    4.460E+00    4.403E+00    4.345E+00    4.288E+00    4.231E+00    4.173E+00    4.116E+00
     4.059E+00    4.001E+00    3.944E+00    3.886E+00    3.829E+00    3.772E+00    3.714E+00    3.657E+00    3.599E+00    3.542E+00
     3.485E+00    3.427E+00    3.370E+00    3.312E+00    3.255E+00    3.197E+00    3.140E+00    3.082E+00    3.024E+00    2.967E+00
     2.909E+00    2.852E+00    2.794E+00    2.737E+00    2.679E+00    2.621E+00    2.564E+00    2.506E+00    2.449E+00    2.391E+00
     2.333E+00    2.276E+00    2.218E+00    2.161E+00    2.103E+00    2.046E+00    1.988E+00    1.931E+00    1.873E+00    1.816E+00
     1.758E+00    1.701E+00    1.644E+00    1.586E+00    1.529E+00    1.472E+00    1.414E+00    1.357E+00    1.300E+00    1.243E+00
     1.186E+00    1.129E+00    1.072E+00    1.015E+00    9.576E-01    9.007E-01    8.438E-01    7.870E-01    7.302E-01    6.734E-01
     6.168E-01    5.602E-01    5.036E-01    4.471E-01    3.906E-01    3.342E-01    2.779E-01    2.217E-01    1.655E-01    1.093E-01
     5.330E-02   -2.673E-03   -5.857E-02   -1.144E-01   -1.701E-01   -2.258E-01   -2.814E-01   -3.368E-01   -3.922E-01   -4.475E-01
    -5.027E-01   -5.579E-01   -6.129E-01   -6.678E-01   -7.226E-01   -7.773E-01   -8.319E-01   -8.864E-01   -9.408E-01   -9.951E-01
    -1.049E+00   -1.103E+00   -1.157E+00   -1.211E+00   -1.265E+00   -1.318E+00   -1.372E+00   -1.425E+00   -1.478E+00   -1.531E+00
    -1.584E+00   -1.637E+00   -1.689E+00   -1.742E+00   -1.794E+00   -1.846E+00   -1.898E+00   -1.950E+00   -2.002E+00   -2.053E+00
    -2.105E+00   -2.156E+00   -2.207E+00   -2.258E+00   -2.308E+00   -2.358E+00   -2.408E+00   -2.458E+00   -2.508E+00   -2.557E+00
    -2.606E+00   -2.655E+00   -2.703E+00   -2.751E+00   -2.799E+00   -2.846E+00   -2.893E+00   -2.940E+00   -2.986E+00   -3.032E+00
    -3.077E+00   -3.122E+00   -3.167E+00   -3.211E+00   -3.255E+00   -3.299E+00   -3.341E+00   -3.384E+00   -3.426E+00   -3.468E+00
    -3.509E+00   -3.549E+00   -3.589E+00   -3.629E+00   -3.668E+00   -3.706E+00   -3.744E+00   -3.781E+00   -3.818E+00   -3.854E+00
    -3.890E+00   -3.925E+00   -3.959E+00   -3.993E+00   -4.026E+00   -4.059E+00   -4.091E+00   -4.122E+00   -4.153E+00   -4.183E+00
    -4.213E+00   -4.242E+00   -4.271E+00   -4.299E+00   -4.326E+00   -4.354E+00   -4.380E+00   -4.406E+00   -4.432E+00   -4.457E+00
    -4.482E+00   -4.506E+00   -4.530E+00   -4.553E+00   -4.576E+00   -4.598E+00   -4.620E+00   -4.641E+00   -4.663E+00   -4.683E+00
    -4.703E+00   -4.723E+00   -4.743E+00   -4.762E+00   -4.781E+00   -4.799E+00   -4.817E+00   -4.835E+00   -4.852E+00   -4.869E+00
    -4.886E+00   -4.902E+00   -4.918E+00   -4.934E+00   -4.949E+00   -4.965E+00   -4.979E+00   -4.994E+00   -5.008E+00   -5.022E+00
    -5.036E+00   -5.049E+00   -5.063E+00   -5.075E+00   -5.088E+00   -5.100E+00   -5.112E+00   -5.124E+00   -5.135E+00   -5.146E+00
    -5.157E+00   -5.167E+00   -5.177E+00   -5.187E+00   -5.196E+00   -5.205E+00   -5.214E+00   -5.222E+00   -5.230E+00   -5.238E+00
    -5.245E+00   -5.252E+00   -5.258E+00   -5.265E+00   -5.270E+00   -5.276E+00   -5.281E+00   -5.286E+00   -5.290E+00   -5.294E+00
    -5.297E+00   -5.300E+00   -5.303E+00   -5.306E+00   -5.307E+00   -5.309E+00   -5.310E+00   -5.311E+00   -5.311E+00   -5.311E+00
    -5.311E+00   -5.310E+00   -5.308E+00   -5.306E+00   -5.304E+00   -5.302E+00   -5.298E+00   -5.295E+00   -5.291E+00   -5.287E+00
    -5.282E+00   -5.277E+00   -5.271E+00   -5.265E+00   -5.259E+00   -5.252E+00   -5.245E+00   -5.237E+00   -5.229E+00   -5.221E+00
    -5.212E+00   -5.203E+00   -5.193E+00   -5.183E+00   -5.172E+00   -5.162E+00   -5.150E+00   -5.139E+00   -5.127E+00   -5.114E+00
    -5.102E+00   -5.088E+00   -5.075E+00   -5.061E+00   -5.047E+00   -5.032E+00   -5.017E+00   -5.001E+00   -4.986E+00   -4.969E+00
    -4.953E+00   -4.936E+00   -4.919E+00   -4.901E+00   -4.883E+00   -4.865E+00   -4.846E+00   -4.827E+00   -4.807E+00   -4.787E+00
    -4.767E+00   -4.747E+00   -4.726E+00   -4.705E+00   -4.683E+00   -4.661E+00   -4.639E+00   -4.616E+00   -4.594E+00   -4.570E+00
    -4.547E+00   -4.523E+00   -4.499E+00   -4.474E+00   -4.449E+00   -4.424E+00   -4.399E+00   -4.373E+00   -4.347E+00   -4.321E+00
    -4.294E+00   -4.267E+00   -4.240E+00   -4.213E+00   -4.185E+00   -4.157E+00   -4.129E+00   -4.100E+00   -4.071E+00   -4.042E+00
    -4.013E+00   -3.983E+00   -3.953E+00   -3.923E+00   -3.893E+00   -3.862E+00   -3.831E+00   -3.800E+00   -3.769E+00   -3.737E+00
    -3.705E+00   -3.673E+00   -3.641E+00   -3.608E+00   -3.576E+00   -3.543E+00   -3.509E+00   -3.476E+00   -3.442E+00   -3.409E+00
    -3.374E+00   -3.340E+00   -3.306E+00   -3.271E+00   -3.236E+00   -3.201E+00   -3.166E+00   -3.130E+00   -3.095E+00   -3.059E+00
    -3.023E+00   -2.986E+00   -2.950E+00   -2.913E+00   -2.876E+00   -2.839E+00   -2.802E+00   -2.765E+00   -2.727E+00   -2.689E+00
    -2.651E+00   -2.613E+00   -2.575E+00   -2.537E+00   -2.498E+00   -2.459E+00   -2.420E+00   -2.381E+00   -2.342E+00   -2.302E+00
    -2.263E+00   -2.223E+00   -2.183E+00   -2.143E+00   -2.103E+00   -2.062E+00   -2.022E+00   -1.981E+00   -1.940E+00   -1.899E+00
    -1.858E+00   -1.817E+00   -1.775E+00   -1.734E+00   -1.692E+00   -1.650E+00   -1.608E+00   -1.566E+00   -1.524E+00   -1.482E+00
    -1.440E+00   -1.397E+00   -1.354E+00   -1.312E+00   -1.269E+00   -1.226E+00   -1.183E+00   -1.140E+00   -1.097E+00   -1.053E+00
    -1.010E+00   -9.666E-01   -9.231E-01   -8.795E-01   -8.358E-01   -7.920E-01   -7.482E-01   -7.043E-01   -6.603E-01   -6.163E-01
    -5.722E-01   -5.280E-01   -4.838E-01   -4.396E-01   -3.953E-01   -3.509E-01   -3.065E-01   -2.621E-01   -2.176E-01   -1.731E-01
    -1.286E-01   -8.401E-02   -3.941E-02    5.209E-03    4.986E-02    9.452E-02    1.392E-01    1.839E-01    2.287E-01    2.734E-01
     3.182E-01    3.630E-01    4.078E-01    4.526E-01    4.975E-01    5.423E-01    5.872E-01    6.321E-01    6.770E-01    7.219E-01
     7.668E-01    8.118E-01    8.567E-01    9.017E-01    9.466E-01    9.916E-01    1.037E+00    1.082E+00    1.127E+00    1.172E+00
     1.217E+00    1.262E+00    1.307E+00    1.352E+00    1.397E+00    1.442E+00    1.487E+00    1.532E+00    1.577E+00    1.622E+00
     1.667E+00    1.711E+00    1.756E+00    1.801E+00    1.846E+00    1.891E+00    1.936E+00    1.981E+00
 Ala      Conc. = 3.13E+02
