 LCModel (Version 6.3-1L) Copyright: S.W. Provencher.          Ref.: Magn. Reson. Med. 30:672-679 (1993).                
 Slice#3 Row#6 Col#4  PD_05_press_2_raw_act
 36 lines in following concentration table = NCONC+1
    Conc.  %SD /Cr+PCr  Metabolite                                         
  288.278  90% 9.9E-02 Ala                                                 
  365.960 136%   0.126 Asp                                                 
    0.000 999%   0.000 Cr                                                  
 2.90E+03   5%   1.000 PCr                                                 
   28.800 999% 9.9E-03 GABA                                                
  310.009 109%   0.107 Glc                                                 
  319.862 165%   0.110 Gln                                                 
 2.77E+03  23%   0.957 Glu                                                 
  963.662  34%   0.333 GPC                                                 
  356.035  94%   0.123 PCh                                                 
  870.446  20%   0.300 GSH                                                 
 1.69E+03  36%   0.584 Ins                                                 
   61.196 501% 2.1E-02 Lac                                                 
 4.41E+03   6%   1.520 NAA                                                 
  338.613  92%   0.117 NAAG                                                
  337.269  20%   0.116 Scyllo                                              
  812.767  59%   0.280 Tau                                                 
  455.707  54%   0.157 -CrCH2                                              
 1.32E+03   5%   0.455 GPC+PCh                                             
 4.74E+03   4%   1.637 NAA+NAAG                                            
 2.90E+03   5%   1.000 Cr+PCr                                              
 3.09E+03  28%   1.068 Glu+Gln                                             
 1.16E+03 212%   0.402 Lip13a                                              
 1.40E+03 132%   0.483 Lip13b                                              
  124.541 392% 4.3E-02 Lip09                                               
 1.66E+03  33%   0.572 MM09                                                
  526.630  68%   0.182 Lip20                                               
 3.80E+03  21%   1.312 MM20                                                
  547.644  58%   0.189 MM12                                                
  107.866 610% 3.7E-02 MM14                                                
 2.47E+03  19%   0.851 MM17                                                
 2.56E+03  38%   0.885 Lip13a+Lip13b                                       
 3.22E+03  22%   1.111 MM14+Lip13a+Lip13b+MM12                             
 1.78E+03  20%   0.614 MM09+Lip09                                          
 4.33E+03  18%   1.494 MM20+Lip20                                          
   6 lines in following misc. output table
  FWHM = 0.054 ppm    S/N =   9                                            
  Data shift = 0.008 ppm                                                   
  Ph: -52 deg     -17.5 deg/ppm                                            
  alphaB,S = 4.2E+00,   1.0E+02                                            
   14 spline knots.   Ns = 7(1)                                            
  (10) 2 infls.   ( 5) 1 extrs.                                            
  498 points on ppm-axis = NY
      4.000000     3.992357     3.984714     3.977070     3.969427     3.961784     3.954141     3.946497     3.938854     3.931211
      3.923568     3.915925     3.908281     3.900638     3.892995     3.885352     3.877708     3.870065     3.862422     3.854779
      3.847136     3.839492     3.831849     3.824206     3.816563     3.808919     3.801276     3.793633     3.785990     3.778347
      3.770703     3.763060     3.755417     3.747774     3.740130     3.732487     3.724844     3.717201     3.709558     3.701914
      3.694271     3.686628     3.678985     3.671341     3.663698     3.656055     3.648412     3.640769     3.633125     3.625482
      3.617839     3.610196     3.602552     3.594909     3.587266     3.579623     3.571980     3.564336     3.556693     3.549050
      3.541407     3.533763     3.526120     3.518477     3.510834     3.503191     3.495547     3.487904     3.480261     3.472618
      3.464974     3.457331     3.449688     3.442045     3.434402     3.426758     3.419115     3.411472     3.403829     3.396185
      3.388542     3.380899     3.373256     3.365613     3.357969     3.350326     3.342683     3.335040     3.327396     3.319753
      3.312110     3.304467     3.296824     3.289180     3.281537     3.273894     3.266251     3.258607     3.250964     3.243321
      3.235678     3.228034     3.220391     3.212748     3.205105     3.197462     3.189818     3.182175     3.174532     3.166889
      3.159245     3.151602     3.143959     3.136316     3.128673     3.121029     3.113386     3.105743     3.098100     3.090456
      3.082813     3.075170     3.067527     3.059884     3.052240     3.044597     3.036954     3.029311     3.021667     3.014024
      3.006381     2.998738     2.991095     2.983451     2.975808     2.968165     2.960522     2.952878     2.945235     2.937592
      2.929949     2.922306     2.914662     2.907019     2.899376     2.891733     2.884089     2.876446     2.868803     2.861160
      2.853517     2.845873     2.838230     2.830587     2.822944     2.815300     2.807657     2.800014     2.792371     2.784728
      2.777084     2.769441     2.761798     2.754155     2.746511     2.738868     2.731225     2.723582     2.715939     2.708295
      2.700652     2.693009     2.685366     2.677722     2.670079     2.662436     2.654793     2.647150     2.639506     2.631863
      2.624220     2.616577     2.608933     2.601290     2.593647     2.586004     2.578361     2.570717     2.563074     2.555431
      2.547788     2.540144     2.532501     2.524858     2.517215     2.509572     2.501928     2.494285     2.486642     2.478999
      2.471355     2.463712     2.456069     2.448426     2.440783     2.433139     2.425496     2.417853     2.410210     2.402566
      2.394923     2.387280     2.379637     2.371994     2.364350     2.356707     2.349064     2.341421     2.333777     2.326134
      2.318491     2.310848     2.303205     2.295561     2.287918     2.280275     2.272632     2.264988     2.257345     2.249702
      2.242059     2.234416     2.226772     2.219129     2.211486     2.203843     2.196199     2.188556     2.180913     2.173270
      2.165627     2.157983     2.150340     2.142697     2.135054     2.127410     2.119767     2.112124     2.104481     2.096838
      2.089194     2.081551     2.073908     2.066265     2.058621     2.050978     2.043335     2.035692     2.028049     2.020405
      2.012762     2.005119     1.997476     1.989833     1.982190     1.974546     1.966903     1.959260     1.951617     1.943974
      1.936331     1.928688     1.921045     1.913402     1.905759     1.898115     1.890472     1.882829     1.875186     1.867543
      1.859900     1.852257     1.844614     1.836971     1.829327     1.821684     1.814041     1.806398     1.798755     1.791112
      1.783469     1.775826     1.768183     1.760540     1.752896     1.745253     1.737610     1.729967     1.722324     1.714681
      1.707038     1.699395     1.691752     1.684108     1.676465     1.668822     1.661179     1.653536     1.645893     1.638250
      1.630607     1.622964     1.615321     1.607677     1.600034     1.592391     1.584748     1.577105     1.569462     1.561819
      1.554176     1.546533     1.538890     1.531246     1.523603     1.515960     1.508317     1.500674     1.493031     1.485388
      1.477745     1.470102     1.462458     1.454815     1.447172     1.439529     1.431886     1.424243     1.416600     1.408957
      1.401314     1.393671     1.386027     1.378384     1.370741     1.363098     1.355455     1.347812     1.340169     1.332526
      1.324883     1.317240     1.309596     1.301953     1.294310     1.286667     1.279024     1.271381     1.263738     1.256095
      1.248452     1.240808     1.233165     1.225522     1.217879     1.210236     1.202593     1.194950     1.187307     1.179664
      1.172021     1.164377     1.156734     1.149091     1.141448     1.133805     1.126162     1.118519     1.110876     1.103233
      1.095590     1.087946     1.080303     1.072660     1.065017     1.057374     1.049731     1.042088     1.034445     1.026802
      1.019158     1.011515     1.003872     0.996229     0.988586     0.980943     0.973300     0.965657     0.958014     0.950371
      0.942727     0.935084     0.927441     0.919798     0.912155     0.904512     0.896869     0.889226     0.881583     0.873940
      0.866296     0.858653     0.851010     0.843367     0.835724     0.828081     0.820438     0.812795     0.805152     0.797508
      0.789865     0.782222     0.774579     0.766936     0.759293     0.751650     0.744007     0.736364     0.728721     0.721077
      0.713434     0.705791     0.698148     0.690505     0.682862     0.675219     0.667576     0.659933     0.652290     0.644646
      0.637003     0.629360     0.621717     0.614074     0.606431     0.598788     0.591145     0.583502     0.575858     0.568215
      0.560572     0.552929     0.545286     0.537643     0.530000     0.522357     0.514714     0.507071     0.499427     0.491784
      0.484141     0.476498     0.468855     0.461212     0.453569     0.445925     0.438282     0.430639     0.422996     0.415353
      0.407710     0.400067     0.392424     0.384780     0.377137     0.369494     0.361851     0.354208     0.346565     0.338922
      0.331278     0.323635     0.315992     0.308349     0.300706     0.293063     0.285420     0.277777     0.270133     0.262490
      0.254847     0.247204     0.239561     0.231918     0.224275     0.216631     0.208988     0.201345
 NY phased data points follow
  -8.80133E+01 -7.29955E+01 -8.31212E+01 -7.14949E+01 -7.01807E+01 -4.93684E+01 -2.68829E+01 -1.33862E+01 -2.17106E+01 -3.92294E+00
  -1.27809E+01 -8.42276E+00 -9.11111E+00 -1.57862E+01 -3.24889E+01 -4.05610E+01 -5.25332E+01 -6.06330E+01 -7.44043E+01 -5.99725E+01
  -6.68180E+01 -5.83601E+01 -7.28079E+01 -6.17946E+01 -6.18999E+01 -4.37442E+01 -3.51007E+01 -4.51957E+01 -5.32499E+01 -2.76697E+01
  -4.06324E+01 -3.66383E+01 -3.56887E+01 -4.06689E+01 -4.39565E+01 -5.13843E+01 -5.61398E+01 -3.76470E+01 -3.83669E+01 -5.09580E+01
  -4.31498E+01 -3.48110E+01 -5.90295E+01 -5.80632E+01 -5.09540E+01 -3.55330E+01 -2.40271E+01 -3.02818E+01 -2.89646E+01 -3.37292E+01
  -4.28290E+01 -3.70497E+01 -5.19051E+01 -4.77725E+01 -4.13721E+01 -4.27980E+01 -5.30737E+01 -5.00790E+01 -3.63915E+01 -3.74881E+01
  -3.84150E+01 -5.49053E+01 -4.15633E+01 -5.76683E+01 -5.81323E+01 -6.25267E+01 -6.43272E+01 -5.76720E+01 -5.34866E+01 -5.01488E+01
  -6.41757E+01 -4.38384E+01 -5.49341E+01 -3.19896E+01 -4.40897E+01 -3.22723E+01 -4.47973E+01 -3.83830E+01 -4.77817E+01 -4.16714E+01
  -3.75404E+01 -4.25979E+01 -3.98327E+01 -4.48929E+01 -3.44037E+01 -2.60656E+01 -3.23813E+01 -3.24247E+01 -3.74542E+01 -2.73453E+01
  -2.33939E+01 -2.70661E+01 -2.44189E+01 -2.69487E+01 -2.58149E+01 -3.27003E+01 -2.60909E+01 -1.53175E+01 -6.72274E+00  6.11860E+00
   2.55575E+01  6.15827E+01  8.21755E+01  8.69395E+01  6.54678E+01  5.70739E+01  3.99155E+01  2.48435E+01  5.63680E+00 -8.69861E+00
  -2.51332E+01 -2.08669E+01 -2.22553E+01 -3.02427E+01 -3.78330E+01 -3.09183E+01 -3.18027E+01 -3.77814E+01 -3.76901E+01 -3.18781E+01
  -3.80444E+01 -1.37699E+01 -2.83108E+01 -1.25571E+01  1.55401E+01  2.91368E+01  5.61242E+01  5.85607E+01  6.91542E+01  5.08540E+01
   3.36992E+01  1.71968E+01  3.14778E+00 -1.59809E+00 -1.66626E+01 -2.71291E+01 -3.39042E+01 -5.22477E+01 -4.21101E+01 -3.70269E+01
  -3.71653E+01 -3.57160E+01 -3.43509E+01 -3.61843E+01 -3.60679E+01 -3.09164E+01 -4.01117E+01 -3.86348E+01 -2.58895E+01 -3.52348E+01
  -2.88718E+01 -2.56876E+01 -3.84242E+01 -3.55361E+01 -4.22487E+01 -3.90263E+01 -4.11711E+01 -4.71916E+01 -3.23874E+01 -3.40901E+01
  -3.52710E+01 -3.36048E+01 -3.58915E+01 -2.83354E+01 -4.23184E+01 -3.50599E+01 -2.48728E+01 -2.76117E+01 -3.69713E+01 -3.76046E+01
  -2.80300E+01 -3.63538E+01 -4.13584E+01 -4.42586E+01 -4.35768E+01 -4.51967E+01 -3.57283E+01 -3.90708E+01 -4.67164E+01 -3.44599E+01
  -4.27892E+01 -4.98560E+01 -3.96056E+01 -4.60340E+01 -4.56994E+01 -3.88609E+01 -3.87922E+01 -3.31357E+01 -1.33333E+01 -3.69896E+01
  -2.00160E+01 -1.09580E+01  1.08912E+00  1.20393E+00 -1.03440E+01 -1.86183E+01 -8.09311E+00  6.57030E-02 -2.66449E+01 -3.15482E+01
  -2.08187E+01 -1.55239E+01 -1.74310E+01 -1.91065E+01 -2.04137E+01 -1.39760E+01 -1.40490E+01 -2.00555E+01 -2.15180E+01 -5.76652E+00
  -3.10395E+01 -2.84163E+01 -3.30349E+01 -3.10004E+01 -1.56319E+01  3.21259E+00 -4.58253E+00  1.20278E+01 -4.99824E+00 -1.22910E+00
  -2.15608E+01 -2.45205E+01 -2.96447E+01 -1.84153E+01 -1.41835E+01 -2.56429E+01 -1.65448E+01 -3.69461E+00 -4.37961E+00  1.13958E+00
  -1.19854E+01 -4.91766E+00  6.60825E+00  4.40099E+00 -9.02988E+00 -1.05609E+01 -6.73226E+00  1.72349E+00 -3.77534E+00  5.01644E+00
  -9.28042E+00 -9.33569E+00 -2.33607E+01 -1.43883E+01 -9.45284E+00 -1.37461E+01 -4.10248E+00 -7.54469E+00 -5.48754E-01  6.73322E+00
   9.39502E+00 -6.82109E-01 -5.73463E+00  5.44446E+00  2.66112E+01  3.90721E+01  6.07453E+01  7.38738E+01  8.84381E+01  1.27167E+02
   1.32180E+02  1.58898E+02  1.40973E+02  1.23089E+02  8.68453E+01  5.36745E+01  2.74861E+01  1.69424E+01  1.61434E+01  4.98321E+00
   1.15214E+01  6.73763E+00  8.52793E+00  8.08565E+00  1.38712E+00  4.90333E+00  4.39301E+00  8.04484E-01  1.76260E+00 -9.28084E+00
   4.59753E-01 -4.00536E+00 -5.12626E+00  6.15128E+00 -1.09154E+01  1.42129E+00 -1.43699E+01 -2.00372E+00 -3.72816E+00  4.76762E+00
   2.27686E-01  2.97033E+00 -3.08637E+00  8.84291E+00  5.77842E-01  6.49206E+00  7.85729E+00 -2.28745E-01 -3.72738E+00  3.47390E+00
  -7.59414E+00  6.02108E+00  5.68296E+00  7.14295E+00  1.66268E+00  1.22097E+01  1.41324E+01  1.20156E+01  6.40681E+00  9.01763E+00
   8.26727E+00  1.03077E+00  8.78332E+00  4.55599E+00  1.48303E+01  6.97904E+00  1.07957E+01  7.51250E+00  1.74152E+01  1.08816E+01
   4.34874E+00  1.16453E+01  6.08868E-01  1.17246E+01 -1.02652E+01 -7.16390E+00 -3.84677E+00 -8.72776E+00 -4.05641E+00 -3.14646E+00
  -1.71530E+01 -7.61363E+00 -3.74690E+00 -4.25649E-01 -2.98981E+00  4.90917E+00 -2.49947E+00 -9.91825E-01 -2.79107E+00 -2.97957E+00
   8.63950E+00  1.47107E+01  6.77058E+00 -7.01448E+00  9.18253E+00  3.43794E+00  7.00566E+00  1.45222E+01  2.01483E+01  9.81897E+00
   5.07845E+00  2.82279E+01  6.90850E+00  1.60651E+01  2.29052E+01  1.85507E+01  1.74838E+01  2.86739E+01  1.34030E+01  1.81307E+01
   1.57832E+01  1.58095E+01  1.19546E+01  1.42286E+01  1.20934E+01  1.62400E+01  1.40928E+01  1.29505E+01  1.09664E+01  1.05585E+01
   1.42905E+01  5.11139E+00  7.71041E+00  1.84003E+01 -9.28969E-01  1.26411E+01 -1.02981E+01  4.14301E+00  7.25099E+00  1.66003E+00
   6.41483E+00  9.47324E+00  5.13255E+00  4.68187E+00 -1.25453E+00  8.07446E+00  1.78801E+01  7.46144E+00  7.65507E+00  4.74545E+00
   9.48270E+00  1.01291E+01  8.93905E+00  5.94115E+00  1.81581E+01  9.94351E+00  6.45943E+00  1.26646E+01  1.91344E+00  5.28003E+00
   8.84429E+00  2.09257E+01  2.14646E+01  1.70500E+01  1.54285E+01  6.63131E+00  2.09777E+01  2.35089E+01  8.48431E+00  1.94141E+01
   1.04842E+01  6.79427E+00  1.99077E+01  4.67275E+00  1.74072E+01  1.33213E+01  1.77603E+01  1.01389E+01  1.37661E+01  1.55600E+01
   1.63233E+01  1.41826E+01  3.59134E+00  1.24398E+01  1.68884E+01  9.81657E+00  1.35137E+01  1.25686E+01  1.07660E+01  4.17038E+00
   5.05108E-01  4.15474E+00  4.87651E+00  2.28109E+01  8.87005E+00  1.61451E+01  9.76519E+00  1.44642E+01  1.10671E+01  3.36383E+00
   1.73751E+01  5.80523E+00  3.55082E+00  9.17971E+00 -6.28055E+00  1.63743E+01  5.24802E+00  2.51341E+01  6.43027E+00  1.68020E+01
   7.88813E+00  8.02176E+00  1.23566E+01  1.32225E+01  7.41828E+00  4.44020E+00  1.51061E+01  1.30423E+01  5.72477E+00  3.11347E+00
   8.79739E+00  7.09307E+00  3.36511E+00  1.25747E+01  1.59885E+01  2.02504E+01  6.05039E+00  6.80242E+00 -3.58520E+00  1.72770E+01
   6.63598E+00  1.29999E+01 -2.31385E+00 -1.75158E-01  1.57503E+01  3.89459E+00  8.35389E+00  1.13792E+01  7.00821E+00  7.21940E+00
   1.09422E+01  3.84874E+00  1.65664E+01  1.60008E+01 -3.57357E+00  1.17863E+01  2.04773E+01 -4.13906E+00  8.66218E+00  5.30870E+00
   4.01765E+00  2.40415E+01  1.69017E+01  1.89461E+01  7.75895E+00  9.63851E-01  1.14440E+01  8.37315E+00
 NY points of the fit to the data follow
  -6.40180E+01 -6.38907E+01 -6.20413E+01 -5.83258E+01 -5.31730E+01 -4.61081E+01 -3.65868E+01 -2.51941E+01 -1.41130E+01 -6.28647E+00
  -3.90029E+00 -7.31333E+00 -1.50583E+01 -2.47584E+01 -3.40117E+01 -4.14086E+01 -4.70947E+01 -5.16466E+01 -5.42947E+01 -5.53280E+01
  -5.57673E+01 -5.58828E+01 -5.57825E+01 -5.51609E+01 -5.41183E+01 -5.27560E+01 -5.07474E+01 -4.77828E+01 -4.39734E+01 -4.00386E+01
  -3.67631E+01 -3.46681E+01 -3.40687E+01 -3.50238E+01 -3.71569E+01 -3.99308E+01 -4.29989E+01 -4.63338E+01 -4.94461E+01 -5.12388E+01
  -5.16371E+01 -5.09585E+01 -4.94296E+01 -4.72527E+01 -4.46125E+01 -4.19030E+01 -3.95211E+01 -3.79435E+01 -3.77115E+01 -3.89851E+01
  -4.13030E+01 -4.39452E+01 -4.62830E+01 -4.80047E+01 -4.90113E+01 -4.93514E+01 -4.90925E+01 -4.83693E+01 -4.74160E+01 -4.65323E+01
  -4.59696E+01 -4.59059E+01 -4.62901E+01 -4.69257E+01 -4.75254E+01 -4.78087E+01 -4.77397E+01 -4.74377E+01 -4.69286E+01 -4.62262E+01
  -4.54289E+01 -4.46195E+01 -4.37937E+01 -4.29629E+01 -4.22488E+01 -4.18210E+01 -4.18495E+01 -4.24433E+01 -4.33913E+01 -4.43041E+01
  -4.44951E+01 -4.37153E+01 -4.21114E+01 -3.96987E+01 -3.64444E+01 -3.26884E+01 -2.94035E+01 -2.75862E+01 -2.77077E+01 -2.95730E+01
  -3.25572E+01 -3.58301E+01 -3.86232E+01 -4.05873E+01 -4.13648E+01 -3.93115E+01 -3.32213E+01 -2.33561E+01 -9.41384E+00  9.49481E+00
   3.26511E+01  5.63319E+01  7.47022E+01  8.25690E+01  7.80192E+01  6.29869E+01  4.19274E+01  2.00864E+01  1.31008E+00 -1.34487E+01
  -2.45864E+01 -3.14557E+01 -3.48423E+01 -3.63187E+01 -3.70419E+01 -3.74621E+01 -3.77302E+01 -3.78365E+01 -3.77111E+01 -3.67463E+01
  -3.30778E+01 -2.66895E+01 -1.79785E+01 -5.63931E+00  1.12963E+01  3.12132E+01  4.95887E+01  6.11059E+01  6.24066E+01  5.37436E+01
   3.83675E+01  2.06415E+01  4.44829E+00 -8.50118E+00 -1.89156E+01 -2.72170E+01 -3.17114E+01 -3.35182E+01 -3.39710E+01 -3.33809E+01
  -3.21936E+01 -3.09377E+01 -2.99255E+01 -2.93098E+01 -2.91839E+01 -2.94373E+01 -2.99035E+01 -3.04847E+01 -3.10833E+01 -3.16357E+01
  -3.20937E+01 -3.24301E+01 -3.26806E+01 -3.28540E+01 -3.29951E+01 -3.31021E+01 -3.31917E+01 -3.33700E+01 -3.37090E+01 -3.42578E+01
  -3.48882E+01 -3.52775E+01 -3.51798E+01 -3.46334E+01 -3.39226E+01 -3.33818E+01 -3.32576E+01 -3.35798E+01 -3.41748E+01 -3.48767E+01
  -3.56169E+01 -3.62652E+01 -3.68559E+01 -3.75007E+01 -3.81438E+01 -3.86496E+01 -3.87962E+01 -3.85058E+01 -3.79858E+01 -3.75221E+01
  -3.72707E+01 -3.71382E+01 -3.69015E+01 -3.64348E+01 -3.57093E+01 -3.47315E+01 -3.33824E+01 -3.13830E+01 -2.87167E+01 -2.57044E+01
  -2.29766E+01 -2.11284E+01 -2.03387E+01 -2.04675E+01 -2.12263E+01 -2.22694E+01 -2.32917E+01 -2.38833E+01 -2.37791E+01 -2.29739E+01
  -2.15354E+01 -1.96624E+01 -1.76599E+01 -1.59807E+01 -1.50363E+01 -1.50360E+01 -1.61110E+01 -1.81914E+01 -2.07395E+01 -2.30810E+01
  -2.45864E+01 -2.49764E+01 -2.39144E+01 -2.11260E+01 -1.70360E+01 -1.27824E+01 -9.87778E+00 -9.38388E+00 -1.14382E+01 -1.56987E+01
  -2.12181E+01 -2.64913E+01 -3.01061E+01 -3.10944E+01 -2.93303E+01 -2.53933E+01 -2.02263E+01 -1.52931E+01 -1.15911E+01 -9.42675E+00
  -8.40970E+00 -7.97009E+00 -7.77333E+00 -7.38602E+00 -6.47512E+00 -5.24022E+00 -4.24567E+00 -3.97163E+00 -4.54510E+00 -5.77044E+00
  -7.35663E+00 -8.80965E+00 -9.43441E+00 -8.81378E+00 -7.04718E+00 -4.61205E+00 -2.02150E+00  2.24520E-01  1.74649E+00  2.68327E+00
   3.37063E+00  4.36659E+00  6.52915E+00  1.20640E+01  2.25349E+01  3.62952E+01  5.31223E+01  7.45424E+01  1.00230E+02  1.25807E+02
   1.44113E+02  1.49158E+02  1.39188E+02  1.17161E+02  8.90059E+01  6.13967E+01  3.88011E+01  2.17925E+01  8.86110E+00  7.66238E-01
  -2.25281E+00 -3.52016E+00 -4.17993E+00 -4.45632E+00 -4.48332E+00 -4.46287E+00 -4.48794E+00 -4.59379E+00 -4.79536E+00 -5.05381E+00
  -5.29844E+00 -5.48268E+00 -5.58427E+00 -5.57784E+00 -5.45802E+00 -5.24959E+00 -4.98198E+00 -4.66707E+00 -4.29668E+00 -3.85649E+00
  -3.34345E+00 -2.75293E+00 -2.08312E+00 -1.34451E+00 -5.55585E-01  2.66540E-01  1.10656E+00  1.95283E+00  2.79448E+00  3.61953E+00
   4.41384E+00  5.16287E+00  5.84732E+00  6.44569E+00  6.93786E+00  7.30823E+00  7.54794E+00  7.65352E+00  7.62554E+00  7.47169E+00
   7.20364E+00  6.83503E+00  6.38265E+00  5.86614E+00  5.30632E+00  4.72490E+00  4.14435E+00  3.58836E+00  3.08420E+00  2.67134E+00
   2.39931E+00  2.22611E+00  2.10330E+00  2.04384E+00  1.99927E+00  1.80802E+00  1.26691E+00  2.69841E-01 -1.03911E+00 -2.36804E+00
  -3.46540E+00 -4.09510E+00 -4.05575E+00 -3.29516E+00 -1.96637E+00 -3.32911E-01  1.33583E+00  2.71231E+00  3.63720E+00  4.18416E+00
   4.53269E+00  4.86642E+00  5.27255E+00  5.77008E+00  6.44917E+00  7.34569E+00  8.36556E+00  9.44831E+00  1.05919E+01  1.18133E+01
   1.31155E+01  1.44890E+01  1.59023E+01  1.72805E+01  1.85020E+01  1.94341E+01  1.99770E+01  2.00592E+01  1.96665E+01  1.88660E+01
   1.77664E+01  1.64864E+01  1.51243E+01  1.37565E+01  1.24640E+01  1.12949E+01  1.02618E+01  9.36855E+00  8.61008E+00  7.97496E+00
   7.44855E+00  7.01554E+00  6.66194E+00  6.37598E+00  6.14868E+00  5.97352E+00  5.84615E+00  5.76379E+00  5.72493E+00  5.72902E+00
   5.77625E+00  5.86727E+00  6.00300E+00  6.18442E+00  6.41263E+00  6.68866E+00  7.01348E+00  7.38760E+00  7.81103E+00  8.28291E+00
   8.80153E+00  9.36404E+00  9.96634E+00  1.06027E+01  1.12658E+01  1.19465E+01  1.26344E+01  1.33176E+01  1.39832E+01  1.46173E+01
   1.52061E+01  1.57358E+01  1.61938E+01  1.65690E+01  1.68522E+01  1.70370E+01  1.71196E+01  1.70994E+01  1.69790E+01  1.67639E+01
   1.64624E+01  1.60851E+01  1.56440E+01  1.51525E+01  1.46247E+01  1.40744E+01  1.35148E+01  1.29580E+01  1.24145E+01  1.18936E+01
   1.14025E+01  1.09466E+01  1.05296E+01  1.01534E+01  9.81901E+00  9.52583E+00  9.27259E+00  9.05719E+00  8.87706E+00  8.72931E+00
   8.61104E+00  8.51932E+00  8.45132E+00  8.40428E+00  8.37567E+00  8.36319E+00  8.36486E+00  8.37888E+00  8.40369E+00  8.43783E+00
   8.48011E+00  8.52946E+00  8.58508E+00  8.64618E+00  8.71212E+00  8.78225E+00  8.85608E+00  8.93321E+00  9.01333E+00  9.09610E+00
   9.18123E+00  9.26842E+00  9.35750E+00  9.44829E+00  9.54071E+00  9.63455E+00  9.72969E+00  9.82595E+00  9.92329E+00  1.00216E+01
   1.01209E+01  1.02210E+01  1.03219E+01  1.04234E+01  1.05256E+01  1.06285E+01  1.07319E+01  1.08359E+01  1.09403E+01  1.10452E+01
   1.11506E+01  1.12564E+01  1.13626E+01  1.14691E+01  1.15760E+01  1.16833E+01  1.17909E+01  1.18989E+01  1.20072E+01  1.21157E+01
   1.22245E+01  1.23336E+01  1.24431E+01  1.25528E+01  1.26628E+01  1.27731E+01  1.28836E+01  1.29945E+01  1.31057E+01  1.32172E+01
   1.33290E+01  1.34411E+01  1.35536E+01  1.36666E+01  1.37799E+01  1.38937E+01  1.40079E+01  1.41226E+01
 NY background values follow
    -6.767E+01   -6.746E+01   -6.724E+01   -6.703E+01   -6.681E+01   -6.659E+01   -6.638E+01   -6.616E+01   -6.595E+01   -6.573E+01
    -6.551E+01   -6.530E+01   -6.508E+01   -6.486E+01   -6.465E+01   -6.443E+01   -6.421E+01   -6.400E+01   -6.378E+01   -6.356E+01
    -6.335E+01   -6.313E+01   -6.291E+01   -6.270E+01   -6.248E+01   -6.226E+01   -6.205E+01   -6.183E+01   -6.162E+01   -6.140E+01
    -6.118E+01   -6.097E+01   -6.075E+01   -6.053E+01   -6.032E+01   -6.010E+01   -5.988E+01   -5.967E+01   -5.945E+01   -5.924E+01
    -5.902E+01   -5.880E+01   -5.859E+01   -5.837E+01   -5.816E+01   -5.794E+01   -5.772E+01   -5.751E+01   -5.729E+01   -5.708E+01
    -5.686E+01   -5.664E+01   -5.643E+01   -5.621E+01   -5.600E+01   -5.578E+01   -5.557E+01   -5.535E+01   -5.514E+01   -5.492E+01
    -5.471E+01   -5.449E+01   -5.428E+01   -5.406E+01   -5.385E+01   -5.363E+01   -5.342E+01   -5.320E+01   -5.299E+01   -5.278E+01
    -5.256E+01   -5.235E+01   -5.213E+01   -5.192E+01   -5.171E+01   -5.149E+01   -5.128E+01   -5.107E+01   -5.085E+01   -5.064E+01
    -5.043E+01   -5.022E+01   -5.000E+01   -4.979E+01   -4.958E+01   -4.937E+01   -4.916E+01   -4.894E+01   -4.873E+01   -4.852E+01
    -4.831E+01   -4.810E+01   -4.789E+01   -4.768E+01   -4.747E+01   -4.726E+01   -4.705E+01   -4.684E+01   -4.663E+01   -4.642E+01
    -4.621E+01   -4.600E+01   -4.579E+01   -4.558E+01   -4.537E+01   -4.516E+01   -4.495E+01   -4.474E+01   -4.454E+01   -4.433E+01
    -4.412E+01   -4.391E+01   -4.370E+01   -4.350E+01   -4.329E+01   -4.308E+01   -4.288E+01   -4.267E+01   -4.246E+01   -4.226E+01
    -4.205E+01   -4.185E+01   -4.164E+01   -4.144E+01   -4.123E+01   -4.102E+01   -4.082E+01   -4.062E+01   -4.041E+01   -4.021E+01
    -4.000E+01   -3.980E+01   -3.960E+01   -3.939E+01   -3.919E+01   -3.899E+01   -3.878E+01   -3.858E+01   -3.838E+01   -3.818E+01
    -3.797E+01   -3.777E+01   -3.757E+01   -3.737E+01   -3.717E+01   -3.697E+01   -3.677E+01   -3.657E+01   -3.637E+01   -3.617E+01
    -3.597E+01   -3.577E+01   -3.557E+01   -3.537E+01   -3.517E+01   -3.497E+01   -3.477E+01   -3.458E+01   -3.438E+01   -3.418E+01
    -3.398E+01   -3.379E+01   -3.359E+01   -3.339E+01   -3.320E+01   -3.300E+01   -3.281E+01   -3.261E+01   -3.242E+01   -3.222E+01
    -3.203E+01   -3.183E+01   -3.164E+01   -3.145E+01   -3.125E+01   -3.106E+01   -3.087E+01   -3.067E+01   -3.048E+01   -3.029E+01
    -3.010E+01   -2.991E+01   -2.972E+01   -2.953E+01   -2.934E+01   -2.915E+01   -2.896E+01   -2.877E+01   -2.858E+01   -2.839E+01
    -2.820E+01   -2.801E+01   -2.783E+01   -2.764E+01   -2.745E+01   -2.726E+01   -2.708E+01   -2.689E+01   -2.671E+01   -2.652E+01
    -2.634E+01   -2.615E+01   -2.597E+01   -2.578E+01   -2.560E+01   -2.542E+01   -2.523E+01   -2.505E+01   -2.487E+01   -2.469E+01
    -2.450E+01   -2.432E+01   -2.414E+01   -2.396E+01   -2.378E+01   -2.360E+01   -2.342E+01   -2.325E+01   -2.307E+01   -2.289E+01
    -2.271E+01   -2.253E+01   -2.236E+01   -2.218E+01   -2.200E+01   -2.183E+01   -2.165E+01   -2.148E+01   -2.130E+01   -2.113E+01
    -2.096E+01   -2.078E+01   -2.061E+01   -2.044E+01   -2.027E+01   -2.009E+01   -1.992E+01   -1.975E+01   -1.958E+01   -1.941E+01
    -1.924E+01   -1.907E+01   -1.890E+01   -1.873E+01   -1.857E+01   -1.840E+01   -1.823E+01   -1.807E+01   -1.790E+01   -1.773E+01
    -1.757E+01   -1.740E+01   -1.724E+01   -1.707E+01   -1.691E+01   -1.674E+01   -1.658E+01   -1.642E+01   -1.626E+01   -1.609E+01
    -1.593E+01   -1.577E+01   -1.561E+01   -1.545E+01   -1.529E+01   -1.513E+01   -1.497E+01   -1.481E+01   -1.465E+01   -1.450E+01
    -1.434E+01   -1.418E+01   -1.402E+01   -1.387E+01   -1.371E+01   -1.356E+01   -1.340E+01   -1.324E+01   -1.309E+01   -1.294E+01
    -1.278E+01   -1.263E+01   -1.248E+01   -1.232E+01   -1.217E+01   -1.202E+01   -1.187E+01   -1.172E+01   -1.157E+01   -1.142E+01
    -1.127E+01   -1.112E+01   -1.097E+01   -1.082E+01   -1.067E+01   -1.052E+01   -1.037E+01   -1.023E+01   -1.008E+01   -9.932E+00
    -9.785E+00   -9.639E+00   -9.494E+00   -9.348E+00   -9.203E+00   -9.059E+00   -8.915E+00   -8.771E+00   -8.627E+00   -8.484E+00
    -8.341E+00   -8.198E+00   -8.056E+00   -7.914E+00   -7.773E+00   -7.632E+00   -7.491E+00   -7.350E+00   -7.210E+00   -7.070E+00
    -6.931E+00   -6.791E+00   -6.653E+00   -6.514E+00   -6.376E+00   -6.238E+00   -6.100E+00   -5.963E+00   -5.826E+00   -5.689E+00
    -5.553E+00   -5.417E+00   -5.281E+00   -5.145E+00   -5.010E+00   -4.875E+00   -4.740E+00   -4.606E+00   -4.472E+00   -4.338E+00
    -4.205E+00   -4.072E+00   -3.939E+00   -3.806E+00   -3.674E+00   -3.541E+00   -3.410E+00   -3.278E+00   -3.147E+00   -3.016E+00
    -2.885E+00   -2.754E+00   -2.624E+00   -2.494E+00   -2.364E+00   -2.235E+00   -2.105E+00   -1.976E+00   -1.847E+00   -1.719E+00
    -1.591E+00   -1.463E+00   -1.335E+00   -1.207E+00   -1.080E+00   -9.524E-01   -8.255E-01   -6.988E-01   -5.723E-01   -4.460E-01
    -3.199E-01   -1.941E-01   -6.843E-02    5.700E-02    1.822E-01    3.072E-01    4.320E-01    5.566E-01    6.810E-01    8.052E-01
     9.292E-01    1.053E+00    1.177E+00    1.300E+00    1.423E+00    1.546E+00    1.669E+00    1.792E+00    1.914E+00    2.037E+00
     2.159E+00    2.281E+00    2.402E+00    2.524E+00    2.645E+00    2.767E+00    2.888E+00    3.009E+00    3.129E+00    3.250E+00
     3.370E+00    3.491E+00    3.611E+00    3.731E+00    3.851E+00    3.970E+00    4.090E+00    4.209E+00    4.328E+00    4.447E+00
     4.566E+00    4.685E+00    4.804E+00    4.922E+00    5.041E+00    5.159E+00    5.277E+00    5.395E+00    5.513E+00    5.631E+00
     5.748E+00    5.866E+00    5.983E+00    6.100E+00    6.217E+00    6.334E+00    6.451E+00    6.568E+00    6.685E+00    6.801E+00
     6.918E+00    7.034E+00    7.150E+00    7.266E+00    7.382E+00    7.498E+00    7.614E+00    7.730E+00    7.846E+00    7.961E+00
     8.077E+00    8.192E+00    8.307E+00    8.422E+00    8.537E+00    8.652E+00    8.767E+00    8.882E+00    8.997E+00    9.112E+00
     9.226E+00    9.341E+00    9.455E+00    9.570E+00    9.684E+00    9.799E+00    9.913E+00    1.003E+01    1.014E+01    1.026E+01
     1.037E+01    1.048E+01    1.060E+01    1.071E+01    1.082E+01    1.094E+01    1.105E+01    1.117E+01    1.128E+01    1.139E+01
     1.151E+01    1.162E+01    1.173E+01    1.185E+01    1.196E+01    1.207E+01    1.219E+01    1.230E+01    1.241E+01    1.253E+01
     1.264E+01    1.275E+01    1.286E+01    1.298E+01    1.309E+01    1.320E+01    1.332E+01    1.343E+01    1.354E+01    1.366E+01
     1.377E+01    1.388E+01    1.399E+01    1.411E+01    1.422E+01    1.433E+01    1.445E+01    1.456E+01
 Ala      Conc. = 2.88E+02
