 LCModel (Version 6.3-1L) Copyright: S.W. Provencher.          Ref.: Magn. Reson. Med. 30:672-679 (1993).                
 Slice#3 Row#12 Col#10  PD_05_press_2_raw_act
 36 lines in following concentration table = NCONC+1
    Conc.  %SD /Cr+PCr  Metabolite                                         
   41.546  95%  12.567 Ala                                                 
    2.305 275%   0.697 Asp                                                 
    0.000 999%   0.000 Cr                                                  
    3.306 538%   1.000 PCr                                                 
    1.017 374%   0.308 GABA                                                
    1.018 374%   0.308 Glc                                                 
    0.000 999%   0.000 Gln                                                 
    0.000 999%   0.000 Glu                                                 
    0.000 999%   0.000 GPC                                                 
    0.000 999%   0.000 PCh                                                 
    0.000 999%   0.000 GSH                                                 
    0.000 999%   0.000 Ins                                                 
    0.000 999%   0.000 Lac                                                 
    0.000 999%   0.000 NAA                                                 
   33.496  63%  10.132 NAAG                                                
    0.500 252%   0.151 Scyllo                                              
    1.340 474%   0.405 Tau                                                 
    0.000 999%   0.000 -CrCH2                                              
    0.000 999%   0.000 GPC+PCh                                             
   33.496  63%  10.132 NAA+NAAG                                            
    3.306 538%   1.000 Cr+PCr                                              
    0.000 999%   0.000 Glu+Gln                                             
  445.367  33% 134.713 Lip13a                                              
    0.000 999%   0.000 Lip13b                                              
    0.000 999%   0.000 Lip09                                               
   48.384 104%  14.635 MM09                                                
    0.000 999%   0.000 Lip20                                               
    0.000 999%   0.000 MM20                                                
   31.117 120%   9.412 MM12                                                
  550.267  13% 166.442 MM14                                                
   57.873 132%  17.505 MM17                                                
  445.367  33% 134.713 Lip13a+Lip13b                                       
 1.03E+03  12% 310.567 MM14+Lip13a+Lip13b+MM12                             
   48.384 104%  14.635 MM09+Lip09                                          
    0.000 999%   0.000 MM20+Lip20                                          
   6 lines in following misc. output table
  FWHM = 0.038 ppm    S/N =   1                                            
  Data shift = 0.038 ppm                                                   
  Ph:-176 deg       6.5 deg/ppm                                            
  alphaB,S = 8.5E+01,   1.3E+01                                            
   14 spline knots.   Ns = 5(1)                                            
   2 inflections.     1 extrema                                            
  498 points on ppm-axis = NY
      4.000000     3.992357     3.984714     3.977070     3.969427     3.961784     3.954141     3.946497     3.938854     3.931211
      3.923568     3.915925     3.908281     3.900638     3.892995     3.885352     3.877708     3.870065     3.862422     3.854779
      3.847136     3.839492     3.831849     3.824206     3.816563     3.808919     3.801276     3.793633     3.785990     3.778347
      3.770703     3.763060     3.755417     3.747774     3.740130     3.732487     3.724844     3.717201     3.709558     3.701914
      3.694271     3.686628     3.678985     3.671341     3.663698     3.656055     3.648412     3.640769     3.633125     3.625482
      3.617839     3.610196     3.602552     3.594909     3.587266     3.579623     3.571980     3.564336     3.556693     3.549050
      3.541407     3.533763     3.526120     3.518477     3.510834     3.503191     3.495547     3.487904     3.480261     3.472618
      3.464974     3.457331     3.449688     3.442045     3.434402     3.426758     3.419115     3.411472     3.403829     3.396185
      3.388542     3.380899     3.373256     3.365613     3.357969     3.350326     3.342683     3.335040     3.327396     3.319753
      3.312110     3.304467     3.296824     3.289180     3.281537     3.273894     3.266251     3.258607     3.250964     3.243321
      3.235678     3.228034     3.220391     3.212748     3.205105     3.197462     3.189818     3.182175     3.174532     3.166889
      3.159245     3.151602     3.143959     3.136316     3.128673     3.121029     3.113386     3.105743     3.098100     3.090456
      3.082813     3.075170     3.067527     3.059884     3.052240     3.044597     3.036954     3.029311     3.021667     3.014024
      3.006381     2.998738     2.991095     2.983451     2.975808     2.968165     2.960522     2.952878     2.945235     2.937592
      2.929949     2.922306     2.914662     2.907019     2.899376     2.891733     2.884089     2.876446     2.868803     2.861160
      2.853517     2.845873     2.838230     2.830587     2.822944     2.815300     2.807657     2.800014     2.792371     2.784728
      2.777084     2.769441     2.761798     2.754155     2.746511     2.738868     2.731225     2.723582     2.715939     2.708295
      2.700652     2.693009     2.685366     2.677722     2.670079     2.662436     2.654793     2.647150     2.639506     2.631863
      2.624220     2.616577     2.608933     2.601290     2.593647     2.586004     2.578361     2.570717     2.563074     2.555431
      2.547788     2.540144     2.532501     2.524858     2.517215     2.509572     2.501928     2.494285     2.486642     2.478999
      2.471355     2.463712     2.456069     2.448426     2.440783     2.433139     2.425496     2.417853     2.410210     2.402566
      2.394923     2.387280     2.379637     2.371994     2.364350     2.356707     2.349064     2.341421     2.333777     2.326134
      2.318491     2.310848     2.303205     2.295561     2.287918     2.280275     2.272632     2.264988     2.257345     2.249702
      2.242059     2.234416     2.226772     2.219129     2.211486     2.203843     2.196199     2.188556     2.180913     2.173270
      2.165627     2.157983     2.150340     2.142697     2.135054     2.127410     2.119767     2.112124     2.104481     2.096838
      2.089194     2.081551     2.073908     2.066265     2.058621     2.050978     2.043335     2.035692     2.028049     2.020405
      2.012762     2.005119     1.997476     1.989833     1.982190     1.974546     1.966903     1.959260     1.951617     1.943974
      1.936331     1.928688     1.921045     1.913402     1.905759     1.898115     1.890472     1.882829     1.875186     1.867543
      1.859900     1.852257     1.844614     1.836971     1.829327     1.821684     1.814041     1.806398     1.798755     1.791112
      1.783469     1.775826     1.768183     1.760540     1.752896     1.745253     1.737610     1.729967     1.722324     1.714681
      1.707038     1.699395     1.691752     1.684108     1.676465     1.668822     1.661179     1.653536     1.645893     1.638250
      1.630607     1.622964     1.615321     1.607677     1.600034     1.592391     1.584748     1.577105     1.569462     1.561819
      1.554176     1.546533     1.538890     1.531246     1.523603     1.515960     1.508317     1.500674     1.493031     1.485388
      1.477745     1.470102     1.462458     1.454815     1.447172     1.439529     1.431886     1.424243     1.416600     1.408957
      1.401314     1.393671     1.386027     1.378384     1.370741     1.363098     1.355455     1.347812     1.340169     1.332526
      1.324883     1.317240     1.309596     1.301953     1.294310     1.286667     1.279024     1.271381     1.263738     1.256095
      1.248452     1.240808     1.233165     1.225522     1.217879     1.210236     1.202593     1.194950     1.187307     1.179664
      1.172021     1.164377     1.156734     1.149091     1.141448     1.133805     1.126162     1.118519     1.110876     1.103233
      1.095590     1.087946     1.080303     1.072660     1.065017     1.057374     1.049731     1.042088     1.034445     1.026802
      1.019158     1.011515     1.003872     0.996229     0.988586     0.980943     0.973300     0.965657     0.958014     0.950371
      0.942727     0.935084     0.927441     0.919798     0.912155     0.904512     0.896869     0.889226     0.881583     0.873940
      0.866296     0.858653     0.851010     0.843367     0.835724     0.828081     0.820438     0.812795     0.805152     0.797508
      0.789865     0.782222     0.774579     0.766936     0.759293     0.751650     0.744007     0.736364     0.728721     0.721077
      0.713434     0.705791     0.698148     0.690505     0.682862     0.675219     0.667576     0.659933     0.652290     0.644646
      0.637003     0.629360     0.621717     0.614074     0.606431     0.598788     0.591145     0.583502     0.575858     0.568215
      0.560572     0.552929     0.545286     0.537643     0.530000     0.522357     0.514714     0.507071     0.499427     0.491784
      0.484141     0.476498     0.468855     0.461212     0.453569     0.445925     0.438282     0.430639     0.422996     0.415353
      0.407710     0.400067     0.392424     0.384780     0.377137     0.369494     0.361851     0.354208     0.346565     0.338922
      0.331278     0.323635     0.315992     0.308349     0.300706     0.293063     0.285420     0.277777     0.270133     0.262490
      0.254847     0.247204     0.239561     0.231918     0.224275     0.216631     0.208988     0.201345
 NY phased data points follow
   2.63397E+00  4.08721E-02 -8.80219E-01 -9.25964E-02  9.02535E-01 -1.50781E+00  5.04815E-01  2.41890E+00 -1.85627E+00  1.36539E+00
  -2.49356E+00  7.33673E-01  8.33925E-01  1.12070E-01  6.04651E-01 -2.44209E+00 -2.12701E+00 -1.67877E+00 -1.22985E+00  1.61535E+00
   4.50656E-01  2.86882E+00 -1.10117E+00  1.22183E+00 -7.15318E-01 -3.17987E-01  1.59973E+00  1.74812E+00 -1.94804E+00 -2.50302E+00
  -1.47676E-01 -1.69822E+00 -2.95832E+00 -1.24715E+00  1.11505E+00 -1.00461E+00 -1.56127E+00 -1.30467E+00  1.46220E+00 -6.04901E-01
   7.97996E-01  1.52226E+00  2.58316E+00 -7.76098E-01  8.50451E-01 -1.27496E+00 -1.60996E+00 -2.45708E+00 -4.12603E-01 -2.64986E-01
  -2.68112E+00  1.86115E-01 -8.68189E-01 -1.48841E+00  1.02303E+00  5.24202E-01 -6.90983E-01 -2.67855E+00 -8.64570E-01  8.03435E-01
   7.32039E-01 -1.08370E+00  8.26896E-01  1.02319E+00  9.03231E-01 -1.11633E+00 -1.53828E+00 -1.46237E+00  1.24674E+00  1.73157E+00
  -1.39228E+00 -5.14305E-01 -7.04679E-01 -2.29196E-01 -1.19842E+00 -4.00581E+00 -1.89588E+00  6.79095E-01  2.96565E-02  7.45829E-01
  -1.02984E-01 -1.06775E+00 -1.09676E+00  2.62480E+00 -3.43130E+00  2.30138E+00 -3.89740E-01  3.38106E-01  2.11865E+00 -1.46613E+00
   1.47253E+00 -8.57907E-01 -1.28158E-03 -1.99200E+00 -1.09446E+00 -1.11018E+00  1.66462E+00 -2.72096E+00  1.76134E+00 -2.81028E-01
  -4.49583E-01 -1.26724E+00 -3.34511E+00 -2.83254E+00 -2.02253E+00 -7.29519E-01  9.40894E-01  1.26801E-01 -1.58892E+00 -1.03312E+00
  -1.70448E+00  9.35954E-01 -1.76849E-01 -1.80747E+00  1.99102E+00  8.58723E-02 -1.96815E+00 -3.28796E-01 -1.89743E+00 -1.34398E+00
  -1.27245E+00 -8.79761E-02 -1.68055E+00  2.21773E+00  1.84018E+00  1.02182E-01 -2.23633E+00 -2.19948E+00  4.91358E-01  1.34430E+00
  -1.54550E+00  9.41968E-01 -2.19989E+00 -2.81096E+00 -2.68967E+00  4.63127E-01 -2.73525E+00 -1.57184E+00 -3.57597E+00  4.97015E-01
  -5.83868E-01 -3.11647E+00 -1.86788E+00  9.14304E-01  1.54078E+00 -9.21340E-01  2.75928E-01 -1.55927E+00 -1.15206E-02 -2.21429E+00
   1.08732E+00 -9.31462E-01 -1.24154E+00 -2.46333E+00 -1.36839E-01  2.95028E-01 -2.49327E+00 -9.50676E-02  1.25121E-01 -4.19226E+00
  -2.51839E+00 -8.52121E-01 -2.96888E+00 -1.43680E+00 -1.14772E+00 -1.02078E+00  9.18243E-01  9.69495E-01  5.72897E-01 -1.86452E+00
  -1.80407E+00  1.15018E+00  1.21936E+00  1.13450E+00  1.71110E+00  2.70539E+00  1.30759E+00  1.80652E+00 -1.91690E+00 -3.99057E+00
  -8.99454E-01 -4.48046E-02  1.89277E+00 -1.67448E-01 -2.89659E+00 -2.22780E+00 -3.37574E-01  4.93153E-01 -7.63313E-01  3.92930E+00
   2.03660E+00  9.42174E-01  2.89555E+00 -6.58945E-01  2.46593E-01  7.57973E-01 -1.40402E+00 -2.78341E-01  1.44625E+00  3.80640E-01
   1.97381E-01  1.93808E+00  2.72439E-01 -1.10108E+00  1.91412E-01 -1.42816E+00  6.13004E-01  2.53408E+00  1.02735E+00  3.15177E+00
   2.35892E+00  1.79377E+00  2.38556E+00 -3.32470E-01  1.01062E+00 -3.58200E-01 -5.64285E-02 -1.55496E+00 -6.95290E-01  2.14610E+00
  -3.17057E+00  2.61142E+00 -1.03227E+00 -5.44809E-01  8.85703E-01  1.66093E-01  2.66229E-01  1.38215E+00  8.64956E-01  2.81139E+00
  -2.67199E+00  4.84085E-01  7.79484E-01 -7.74356E-02  1.68801E+00 -1.05727E+00 -7.34340E-01 -1.48366E+00  2.01642E-01 -2.52811E+00
   1.52984E+00  2.35204E+00 -3.11907E-01 -8.68402E-01 -4.85310E-01 -1.14980E+00  6.92163E-01  6.51640E-01  2.70444E+00  8.40121E-01
  -1.13398E+00 -1.03530E+00 -2.23406E+00 -6.30354E-01  3.90983E-01  1.13820E+00  3.46253E+00  2.00092E+00  4.46220E-01 -3.27591E-01
  -5.77763E-01  3.35852E-01 -2.31162E+00 -4.02627E+00 -2.98628E+00 -3.05497E+00 -3.67548E+00 -4.26926E-01 -3.90519E-01  4.09325E-01
  -9.40103E-01 -2.32920E+00 -1.19521E+00 -7.56634E-01 -2.82687E-01  1.10557E+00  6.42555E-01  2.43271E+00 -6.56981E-01 -2.15776E+00
  -3.66002E+00 -1.55431E+00  1.47981E-01 -2.84853E-01  3.27071E-01 -6.68335E-01 -8.50815E-01  8.79269E-01 -2.11543E+00 -1.58965E+00
  -2.65012E+00 -2.55039E+00  2.15672E+00  6.58885E-01 -1.35635E-01 -1.05179E+00 -1.34185E+00  3.28377E-01  1.76387E+00  1.31045E+00
   2.46422E+00  1.14401E+00  1.51054E+00 -3.40638E-01 -6.45603E-01 -6.44743E-01  1.80201E+00  1.68504E+00  3.74865E-01  6.02252E-01
   4.81387E-01 -4.43042E-02 -3.99106E-01  1.57455E+00  1.83623E+00  8.08264E-01  2.10636E-01  1.84336E+00  3.35232E+00  1.36735E+00
   5.76666E-01  1.49336E+00  1.72061E+00 -3.27816E-02  4.84255E+00 -1.07750E+00  2.28140E+00  3.26001E+00  3.19637E+00  3.68630E+00
   3.81777E+00  5.25971E+00  3.70403E+00  4.34437E+00  3.83601E+00  7.76589E+00  6.82206E+00  7.21338E+00  7.20394E+00  6.94423E+00
   6.25332E+00  5.09970E+00  6.21153E+00  2.72541E+00  4.42977E+00  1.97600E+00  4.44961E+00  1.76703E+00 -4.79892E-01  4.67461E+00
   1.64446E+00  5.94316E+00  2.81340E+00  8.95723E-01  1.22826E-01 -1.89540E+00 -7.16824E-01  4.89820E+00  2.09194E+00  4.78187E-02
  -9.54678E-01  7.09290E-01  3.56776E+00  2.23695E+00  3.08871E+00  4.54335E+00  1.30829E+00  2.30988E+00  1.66270E-01  2.09568E+00
   2.97801E+00  3.80558E+00  2.95027E+00  5.37077E-01  2.47095E+00 -5.71884E-01  3.44363E+00  2.53314E+00  3.67187E-01  3.96836E+00
   2.91588E+00  3.61648E+00 -2.78360E+00 -7.00496E-01  1.56435E+00  3.19616E+00  7.44813E-01  7.58007E-01  2.35909E+00  3.64621E-01
   4.05342E-01 -5.59277E-01 -1.36714E+00 -1.15704E+00  2.12255E+00  1.62063E+00  2.23741E+00 -6.52742E-01  1.74028E+00  1.21227E-01
   2.65735E-01 -8.64348E-01  1.72085E+00 -4.42576E-01 -2.71042E+00 -5.35010E-01 -1.99211E+00 -1.21600E+00 -1.60864E+00  1.73529E+00
   2.47701E+00 -1.56092E-01 -2.24726E+00  5.70629E-01 -1.04298E+00  2.67499E+00  9.76650E-01  4.70284E-01 -1.89639E-01  7.62324E-01
  -5.99997E-01 -1.20393E+00 -2.89766E-01 -4.36352E-01  9.11080E-01  2.23897E-02 -8.10087E-01  1.64152E+00 -3.39158E-01 -5.25807E+00
  -2.49282E+00  4.13819E+00  9.93080E-02  1.03742E+00 -9.55802E-01  8.82475E-01  1.75488E+00  7.07755E-01  3.03566E+00  1.87900E+00
  -3.15548E+00 -4.44268E-01  1.27167E-01 -2.26771E+00  3.48158E-01 -1.66684E+00  3.07343E-02  2.82469E+00  1.60449E+00  1.41770E+00
   4.15426E-01 -1.86762E+00 -1.71111E+00  1.05071E+00  2.70621E-01 -1.81176E+00  3.83265E+00  3.14011E-01  1.05451E+00 -1.48180E+00
  -4.23720E-01 -1.36069E+00 -2.19905E+00  1.12137E-01 -2.01638E+00  2.40654E+00 -2.20136E+00  7.76191E-01 -4.04796E+00 -7.27062E-01
   1.77079E+00 -5.08287E-02 -4.01328E-01  1.98958E+00  3.09854E+00 -1.18040E+00  1.46309E-01 -9.54590E-01  1.35820E+00  7.41481E-01
   1.04977E+00 -3.55254E-01  2.77317E-01 -1.56532E+00  1.70694E-01 -1.28968E+00 -9.63562E-01  8.91583E-01  9.64903E-01 -1.36859E+00
  -1.11726E+00  1.78918E-01  5.10459E-01  1.10021E+00 -1.67451E-01  6.32016E-03 -1.25712E-01 -7.34222E-01
 NY points of the fit to the data follow
  -3.99856E-01 -3.98397E-01 -3.96292E-01 -3.92976E-01 -3.85971E-01 -3.73290E-01 -3.55440E-01 -3.35288E-01 -3.17316E-01 -3.07717E-01
  -3.11388E-01 -3.27566E-01 -3.51159E-01 -3.77138E-01 -4.01041E-01 -4.19735E-01 -4.33553E-01 -4.40391E-01 -4.34481E-01 -4.11344E-01
  -3.70611E-01 -3.21122E-01 -2.78793E-01 -2.59250E-01 -2.71931E-01 -3.17912E-01 -3.90264E-01 -4.71599E-01 -5.37970E-01 -5.68680E-01
  -5.55593E-01 -5.04767E-01 -4.32562E-01 -3.54156E-01 -2.87014E-01 -2.49120E-01 -2.48430E-01 -2.79058E-01 -3.25504E-01 -3.69538E-01
  -4.01922E-01 -4.20636E-01 -4.24009E-01 -4.14734E-01 -3.99143E-01 -3.84217E-01 -3.74734E-01 -3.70421E-01 -3.67740E-01 -3.65445E-01
  -3.63367E-01 -3.61572E-01 -3.60127E-01 -3.59049E-01 -3.58234E-01 -3.57563E-01 -3.56987E-01 -3.56443E-01 -3.55799E-01 -3.54916E-01
  -3.53748E-01 -3.52321E-01 -3.50689E-01 -3.48995E-01 -3.47321E-01 -3.45776E-01 -3.44585E-01 -3.43951E-01 -3.43820E-01 -3.43885E-01
  -3.43542E-01 -3.42007E-01 -3.38976E-01 -3.34919E-01 -3.30805E-01 -3.27709E-01 -3.26798E-01 -3.28236E-01 -3.30971E-01 -3.33458E-01
  -3.34129E-01 -3.31178E-01 -3.23962E-01 -3.13733E-01 -3.02509E-01 -2.92632E-01 -2.86842E-01 -2.87257E-01 -2.93577E-01 -3.03281E-01
  -3.13087E-01 -3.20412E-01 -3.24362E-01 -3.26259E-01 -3.26986E-01 -3.26045E-01 -3.23249E-01 -3.19078E-01 -3.14703E-01 -3.11674E-01
  -3.10755E-01 -3.11486E-01 -3.12878E-01 -3.13896E-01 -3.13819E-01 -3.12678E-01 -3.11152E-01 -3.09604E-01 -3.08284E-01 -3.07432E-01
  -3.06951E-01 -3.06549E-01 -3.06097E-01 -3.05513E-01 -3.04746E-01 -3.03979E-01 -3.03292E-01 -3.02654E-01 -3.02036E-01 -3.01325E-01
  -3.00042E-01 -2.96212E-01 -2.84919E-01 -2.63053E-01 -2.31896E-01 -1.96923E-01 -1.66603E-01 -1.51804E-01 -1.59619E-01 -1.87062E-01
  -2.23258E-01 -2.55952E-01 -2.76953E-01 -2.85376E-01 -2.88213E-01 -2.89170E-01 -2.88800E-01 -2.87648E-01 -2.86331E-01 -2.85248E-01
  -2.84516E-01 -2.83884E-01 -2.82874E-01 -2.81222E-01 -2.78953E-01 -2.76463E-01 -2.74505E-01 -2.73633E-01 -2.73888E-01 -2.75510E-01
  -2.79290E-01 -2.85488E-01 -2.93298E-01 -3.00645E-01 -3.03786E-01 -2.99716E-01 -2.88949E-01 -2.75773E-01 -2.66132E-01 -2.65252E-01
  -2.74303E-01 -2.88575E-01 -3.01410E-01 -3.09371E-01 -3.12479E-01 -3.13971E-01 -3.17261E-01 -3.21230E-01 -3.22874E-01 -3.19532E-01
  -3.09998E-01 -2.96257E-01 -2.83413E-01 -2.76895E-01 -2.79076E-01 -2.87489E-01 -2.95884E-01 -2.98787E-01 -2.97184E-01 -2.94755E-01
  -2.92695E-01 -2.89529E-01 -2.81248E-01 -2.63760E-01 -2.39055E-01 -2.13841E-01 -1.94509E-01 -1.83252E-01 -1.78562E-01 -1.77287E-01
  -1.76581E-01 -1.78242E-01 -1.85324E-01 -1.98676E-01 -2.15002E-01 -2.27884E-01 -2.32132E-01 -2.26189E-01 -2.12452E-01 -1.96753E-01
  -1.85108E-01 -1.80661E-01 -1.83627E-01 -1.92001E-01 -2.03641E-01 -2.16327E-01 -2.28638E-01 -2.40481E-01 -2.50004E-01 -2.53906E-01
  -2.50075E-01 -2.39766E-01 -2.26798E-01 -2.15351E-01 -2.08087E-01 -2.05070E-01 -2.03628E-01 -2.02171E-01 -2.00146E-01 -1.97170E-01
  -1.92993E-01 -1.87513E-01 -1.80855E-01 -1.73890E-01 -1.67796E-01 -1.63581E-01 -1.62528E-01 -1.65291E-01 -1.71081E-01 -1.77758E-01
  -1.82189E-01 -1.80818E-01 -1.71870E-01 -1.57345E-01 -1.41701E-01 -1.30019E-01 -1.27382E-01 -1.36579E-01 -1.54001E-01 -1.72802E-01
  -1.86675E-01 -1.91638E-01 -1.86836E-01 -1.73223E-01 -1.54056E-01 -1.34403E-01 -1.19926E-01 -1.13067E-01 -1.11258E-01 -1.05760E-01
  -7.73468E-02  2.00482E-02  2.19831E-01  5.12229E-01  8.45555E-01  1.13986E+00  1.29049E+00  1.22173E+00  9.54513E-01  5.92126E-01
   2.57473E-01  3.79225E-02 -4.93571E-02 -7.40819E-02 -8.54424E-02 -9.28019E-02 -9.80820E-02 -1.01371E-01 -1.01839E-01 -9.87013E-02
  -9.14789E-02 -8.10079E-02 -7.02469E-02 -6.31664E-02 -6.22136E-02 -6.72414E-02 -7.60475E-02 -8.45337E-02 -8.83462E-02 -8.51761E-02
  -7.52190E-02 -6.05406E-02 -4.42664E-02 -2.90755E-02 -1.61072E-02 -5.72738E-03  2.33794E-03  9.57918E-03  1.83369E-02  3.07311E-02
   4.76349E-02  6.88158E-02  9.33489E-02  1.19002E-01  1.43395E-01  1.65171E-01  1.84302E-01  2.01905E-01  2.19551E-01  2.38023E-01
   2.57675E-01  2.78311E-01  2.99156E-01  3.19225E-01  3.37784E-01  3.54744E-01  3.70984E-01  3.87601E-01  4.05749E-01  4.26815E-01
   4.52391E-01  4.84310E-01  5.24647E-01  5.75685E-01  6.39891E-01  7.19869E-01  8.18302E-01  9.37914E-01  1.08149E+00  1.25205E+00
   1.45366E+00  1.69407E+00  1.98696E+00  2.32596E+00  2.67500E+00  2.98517E+00  3.21080E+00  3.31847E+00  3.31226E+00  3.24954E+00
   3.22251E+00  3.31589E+00  3.56324E+00  3.93800E+00  4.36694E+00  4.77912E+00  5.10014E+00  5.26203E+00  5.24709E+00  5.09150E+00
   4.86261E+00  4.63003E+00  4.41673E+00  4.20691E+00  3.99587E+00  3.78517E+00  3.57799E+00  3.37779E+00  3.18761E+00  3.00985E+00
   2.84606E+00  2.69700E+00  2.56265E+00  2.44229E+00  2.33470E+00  2.23824E+00  2.15105E+00  2.07119E+00  1.99676E+00  1.92602E+00
   1.85744E+00  1.78978E+00  1.72208E+00  1.65372E+00  1.58436E+00  1.51391E+00  1.44249E+00  1.37043E+00  1.29814E+00  1.22617E+00
   1.15505E+00  1.08536E+00  1.01763E+00  9.52377E-01  8.90025E-01  8.30953E-01  7.75460E-01  7.23778E-01  6.76072E-01  6.32449E-01
   5.92967E-01  5.57640E-01  5.26444E-01  4.99326E-01  4.76208E-01  4.56989E-01  4.41549E-01  4.29739E-01  4.21385E-01  4.16278E-01
   4.14174E-01  4.14789E-01  4.17788E-01  4.22791E-01  4.29368E-01  4.37045E-01  4.45318E-01  4.53656E-01  4.61521E-01  4.68386E-01
   4.73751E-01  4.77170E-01  4.78268E-01  4.76756E-01  4.72444E-01  4.65247E-01  4.55191E-01  4.42408E-01  4.27127E-01  4.09653E-01
   3.90358E-01  3.69651E-01  3.47965E-01  3.25732E-01  3.03365E-01  2.81242E-01  2.59692E-01  2.38990E-01  2.19354E-01  2.00942E-01
   1.83857E-01  1.68150E-01  1.53827E-01  1.40859E-01  1.29191E-01  1.18747E-01  1.09436E-01  1.01162E-01  9.38234E-02  8.73245E-02
   8.15731E-02  7.64830E-02  7.19747E-02  6.79767E-02  6.44260E-02  6.12678E-02  5.84546E-02  5.59445E-02  5.37010E-02  5.16923E-02
   4.98921E-02  4.82780E-02  4.68307E-02  4.55325E-02  4.43681E-02  4.33244E-02  4.23910E-02  4.15585E-02  4.08183E-02  4.01623E-02
   3.95832E-02  3.90750E-02  3.86332E-02  3.82532E-02  3.79305E-02  3.76606E-02  3.74396E-02  3.72648E-02  3.71340E-02  3.70443E-02
   3.69930E-02  3.69772E-02  3.69952E-02  3.70452E-02  3.71260E-02  3.72361E-02  3.73730E-02  3.75353E-02  3.77220E-02  3.79322E-02
   3.81651E-02  3.84194E-02  3.86933E-02  3.89860E-02  3.92972E-02  3.96263E-02  3.99726E-02  4.03348E-02  4.07120E-02  4.11036E-02
   4.15096E-02  4.19298E-02  4.23631E-02  4.28087E-02  4.32660E-02  4.37348E-02  4.42152E-02  4.47068E-02  4.52088E-02  4.57206E-02
   4.62417E-02  4.67724E-02  4.73127E-02  4.78621E-02  4.84200E-02  4.89857E-02  4.95596E-02  5.01418E-02
 NY background values follow
    -4.121E-01   -4.112E-01   -4.103E-01   -4.094E-01   -4.085E-01   -4.076E-01   -4.067E-01   -4.058E-01   -4.050E-01   -4.041E-01
    -4.032E-01   -4.023E-01   -4.014E-01   -4.005E-01   -3.996E-01   -3.987E-01   -3.978E-01   -3.970E-01   -3.961E-01   -3.952E-01
    -3.943E-01   -3.934E-01   -3.925E-01   -3.916E-01   -3.907E-01   -3.898E-01   -3.890E-01   -3.881E-01   -3.872E-01   -3.863E-01
    -3.854E-01   -3.845E-01   -3.836E-01   -3.827E-01   -3.819E-01   -3.810E-01   -3.801E-01   -3.792E-01   -3.783E-01   -3.774E-01
    -3.765E-01   -3.756E-01   -3.747E-01   -3.739E-01   -3.730E-01   -3.721E-01   -3.712E-01   -3.703E-01   -3.694E-01   -3.685E-01
    -3.676E-01   -3.667E-01   -3.659E-01   -3.650E-01   -3.641E-01   -3.632E-01   -3.623E-01   -3.614E-01   -3.605E-01   -3.596E-01
    -3.587E-01   -3.579E-01   -3.570E-01   -3.561E-01   -3.552E-01   -3.543E-01   -3.534E-01   -3.525E-01   -3.516E-01   -3.507E-01
    -3.499E-01   -3.490E-01   -3.481E-01   -3.472E-01   -3.463E-01   -3.454E-01   -3.445E-01   -3.436E-01   -3.427E-01   -3.419E-01
    -3.410E-01   -3.401E-01   -3.392E-01   -3.383E-01   -3.374E-01   -3.365E-01   -3.356E-01   -3.347E-01   -3.339E-01   -3.330E-01
    -3.321E-01   -3.312E-01   -3.303E-01   -3.294E-01   -3.285E-01   -3.276E-01   -3.268E-01   -3.259E-01   -3.250E-01   -3.241E-01
    -3.232E-01   -3.223E-01   -3.214E-01   -3.205E-01   -3.196E-01   -3.188E-01   -3.179E-01   -3.170E-01   -3.161E-01   -3.152E-01
    -3.143E-01   -3.134E-01   -3.125E-01   -3.116E-01   -3.108E-01   -3.099E-01   -3.090E-01   -3.081E-01   -3.072E-01   -3.063E-01
    -3.054E-01   -3.045E-01   -3.036E-01   -3.028E-01   -3.019E-01   -3.010E-01   -3.001E-01   -2.992E-01   -2.983E-01   -2.974E-01
    -2.965E-01   -2.956E-01   -2.948E-01   -2.939E-01   -2.930E-01   -2.921E-01   -2.912E-01   -2.903E-01   -2.894E-01   -2.885E-01
    -2.876E-01   -2.868E-01   -2.859E-01   -2.850E-01   -2.841E-01   -2.832E-01   -2.823E-01   -2.814E-01   -2.805E-01   -2.796E-01
    -2.788E-01   -2.779E-01   -2.770E-01   -2.761E-01   -2.752E-01   -2.743E-01   -2.734E-01   -2.725E-01   -2.716E-01   -2.708E-01
    -2.699E-01   -2.690E-01   -2.681E-01   -2.672E-01   -2.663E-01   -2.654E-01   -2.645E-01   -2.636E-01   -2.628E-01   -2.619E-01
    -2.610E-01   -2.601E-01   -2.592E-01   -2.583E-01   -2.574E-01   -2.565E-01   -2.556E-01   -2.548E-01   -2.539E-01   -2.530E-01
    -2.521E-01   -2.512E-01   -2.503E-01   -2.494E-01   -2.485E-01   -2.477E-01   -2.468E-01   -2.459E-01   -2.450E-01   -2.441E-01
    -2.432E-01   -2.423E-01   -2.414E-01   -2.405E-01   -2.397E-01   -2.388E-01   -2.379E-01   -2.370E-01   -2.361E-01   -2.352E-01
    -2.343E-01   -2.334E-01   -2.325E-01   -2.317E-01   -2.308E-01   -2.299E-01   -2.290E-01   -2.281E-01   -2.272E-01   -2.263E-01
    -2.254E-01   -2.245E-01   -2.237E-01   -2.228E-01   -2.219E-01   -2.210E-01   -2.201E-01   -2.192E-01   -2.183E-01   -2.174E-01
    -2.165E-01   -2.157E-01   -2.148E-01   -2.139E-01   -2.130E-01   -2.121E-01   -2.112E-01   -2.103E-01   -2.094E-01   -2.085E-01
    -2.077E-01   -2.068E-01   -2.059E-01   -2.050E-01   -2.041E-01   -2.032E-01   -2.023E-01   -2.014E-01   -2.005E-01   -1.997E-01
    -1.988E-01   -1.979E-01   -1.970E-01   -1.961E-01   -1.952E-01   -1.943E-01   -1.934E-01   -1.925E-01   -1.917E-01   -1.908E-01
    -1.899E-01   -1.890E-01   -1.881E-01   -1.872E-01   -1.863E-01   -1.854E-01   -1.845E-01   -1.837E-01   -1.828E-01   -1.819E-01
    -1.810E-01   -1.801E-01   -1.792E-01   -1.783E-01   -1.774E-01   -1.765E-01   -1.757E-01   -1.748E-01   -1.739E-01   -1.730E-01
    -1.721E-01   -1.712E-01   -1.703E-01   -1.694E-01   -1.685E-01   -1.677E-01   -1.668E-01   -1.659E-01   -1.650E-01   -1.641E-01
    -1.632E-01   -1.623E-01   -1.614E-01   -1.605E-01   -1.597E-01   -1.588E-01   -1.579E-01   -1.570E-01   -1.561E-01   -1.552E-01
    -1.543E-01   -1.534E-01   -1.525E-01   -1.517E-01   -1.508E-01   -1.499E-01   -1.490E-01   -1.481E-01   -1.472E-01   -1.463E-01
    -1.454E-01   -1.445E-01   -1.437E-01   -1.428E-01   -1.419E-01   -1.410E-01   -1.401E-01   -1.392E-01   -1.383E-01   -1.374E-01
    -1.365E-01   -1.357E-01   -1.348E-01   -1.339E-01   -1.330E-01   -1.321E-01   -1.312E-01   -1.303E-01   -1.294E-01   -1.285E-01
    -1.277E-01   -1.268E-01   -1.259E-01   -1.250E-01   -1.241E-01   -1.232E-01   -1.223E-01   -1.214E-01   -1.205E-01   -1.197E-01
    -1.188E-01   -1.179E-01   -1.170E-01   -1.161E-01   -1.152E-01   -1.143E-01   -1.134E-01   -1.126E-01   -1.117E-01   -1.108E-01
    -1.099E-01   -1.090E-01   -1.081E-01   -1.072E-01   -1.063E-01   -1.054E-01   -1.046E-01   -1.037E-01   -1.028E-01   -1.019E-01
    -1.010E-01   -1.001E-01   -9.922E-02   -9.833E-02   -9.744E-02   -9.655E-02   -9.566E-02   -9.477E-02   -9.389E-02   -9.300E-02
    -9.211E-02   -9.122E-02   -9.033E-02   -8.944E-02   -8.855E-02   -8.766E-02   -8.678E-02   -8.589E-02   -8.500E-02   -8.411E-02
    -8.322E-02   -8.233E-02   -8.144E-02   -8.055E-02   -7.967E-02   -7.878E-02   -7.789E-02   -7.700E-02   -7.611E-02   -7.522E-02
    -7.433E-02   -7.344E-02   -7.255E-02   -7.167E-02   -7.078E-02   -6.989E-02   -6.900E-02   -6.811E-02   -6.722E-02   -6.633E-02
    -6.544E-02   -6.456E-02   -6.367E-02   -6.278E-02   -6.189E-02   -6.100E-02   -6.011E-02   -5.922E-02   -5.833E-02   -5.745E-02
    -5.656E-02   -5.567E-02   -5.478E-02   -5.389E-02   -5.300E-02   -5.211E-02   -5.122E-02   -5.034E-02   -4.945E-02   -4.856E-02
    -4.767E-02   -4.678E-02   -4.589E-02   -4.500E-02   -4.411E-02   -4.323E-02   -4.234E-02   -4.145E-02   -4.056E-02   -3.967E-02
    -3.878E-02   -3.789E-02   -3.700E-02   -3.612E-02   -3.523E-02   -3.434E-02   -3.345E-02   -3.256E-02   -3.167E-02   -3.078E-02
    -2.989E-02   -2.901E-02   -2.812E-02   -2.723E-02   -2.634E-02   -2.545E-02   -2.456E-02   -2.367E-02   -2.278E-02   -2.190E-02
    -2.101E-02   -2.012E-02   -1.923E-02   -1.834E-02   -1.745E-02   -1.656E-02   -1.567E-02   -1.479E-02   -1.390E-02   -1.301E-02
    -1.212E-02   -1.123E-02   -1.034E-02   -9.452E-03   -8.564E-03   -7.675E-03   -6.786E-03   -5.897E-03   -5.009E-03   -4.120E-03
    -3.231E-03   -2.342E-03   -1.454E-03   -5.649E-04    3.238E-04    1.213E-03    2.101E-03    2.990E-03    3.879E-03    4.768E-03
     5.656E-03    6.545E-03    7.434E-03    8.323E-03    9.211E-03    1.010E-02    1.099E-02    1.188E-02    1.277E-02    1.366E-02
     1.454E-02    1.543E-02    1.632E-02    1.721E-02    1.810E-02    1.899E-02    1.988E-02    2.077E-02    2.165E-02    2.254E-02
     2.343E-02    2.432E-02    2.521E-02    2.610E-02    2.699E-02    2.788E-02    2.876E-02    2.965E-02
 Ala      Conc. = 4.15E+01
