 LCModel (Version 6.3-1L) Copyright: S.W. Provencher.          Ref.: Magn. Reson. Med. 30:672-679 (1993).                
 Slice#2 Row#11 Col#12  PD_05_press_2_raw_act
 36 lines in following concentration table = NCONC+1
    Conc.  %SD /Cr+PCr  Metabolite                                         
   50.928 108%   2.615 Ala                                                 
    6.873  89%   0.353 Asp                                                 
    0.000 999%   0.000 Cr                                                  
   19.472 119%   1.000 PCr                                                 
    3.723  99%   0.191 GABA                                                
    3.912  94%   0.201 Glc                                                 
   38.479 288%   1.976 Gln                                                 
  245.632  52%  12.615 Glu                                                 
    0.000 999%   0.000 GPC                                                 
    0.000 999%   0.000 PCh                                                 
   11.390 308%   0.585 GSH                                                 
  106.176  98%   5.453 Ins                                                 
  131.041  49%   6.730 Lac                                                 
   44.928  79%   2.307 NAA                                                 
   64.697  56%   3.323 NAAG                                                
    1.119 109% 5.7E-02 Scyllo                                              
    5.574 110%   0.286 Tau                                                 
    0.537 943% 2.8E-02 -CrCH2                                              
    0.000 999%   0.000 GPC+PCh                                             
  109.625  32%   5.630 NAA+NAAG                                            
   19.472 119%   1.000 Cr+PCr                                              
  284.111  63%  14.591 Glu+Gln                                             
  932.715  38%  47.900 Lip13a                                              
    0.000 999%   0.000 Lip13b                                              
  276.700  43%  14.210 Lip09                                               
  409.122  34%  21.011 MM09                                                
  128.721  54%   6.611 Lip20                                               
    0.000 999%   0.000 MM20                                                
  110.805 114%   5.690 MM12                                                
 1.66E+03  17%  85.396 MM14                                                
  992.949  22%  50.993 MM17                                                
  932.715  38%  47.900 Lip13a+Lip13b                                       
 2.71E+03  10% 138.987 MM14+Lip13a+Lip13b+MM12                             
  685.822  14%  35.221 MM09+Lip09                                          
  128.721 147%   6.611 MM20+Lip20                                          
   6 lines in following misc. output table
  FWHM = 0.061 ppm    S/N =   3                                            
  Data shift =-0.008 ppm                                                   
  Ph:  80 deg      27.1 deg/ppm                                            
  alphaB,S = 8.5E+01,   2.1E+01                                            
   14 spline knots.   Ns = 5(1)                                            
   2 inflections.     1 extrema                                            
  498 points on ppm-axis = NY
      4.000000     3.992357     3.984714     3.977070     3.969427     3.961784     3.954141     3.946497     3.938854     3.931211
      3.923568     3.915925     3.908281     3.900638     3.892995     3.885352     3.877708     3.870065     3.862422     3.854779
      3.847136     3.839492     3.831849     3.824206     3.816563     3.808919     3.801276     3.793633     3.785990     3.778347
      3.770703     3.763060     3.755417     3.747774     3.740130     3.732487     3.724844     3.717201     3.709558     3.701914
      3.694271     3.686628     3.678985     3.671341     3.663698     3.656055     3.648412     3.640769     3.633125     3.625482
      3.617839     3.610196     3.602552     3.594909     3.587266     3.579623     3.571980     3.564336     3.556693     3.549050
      3.541407     3.533763     3.526120     3.518477     3.510834     3.503191     3.495547     3.487904     3.480261     3.472618
      3.464974     3.457331     3.449688     3.442045     3.434402     3.426758     3.419115     3.411472     3.403829     3.396185
      3.388542     3.380899     3.373256     3.365613     3.357969     3.350326     3.342683     3.335040     3.327396     3.319753
      3.312110     3.304467     3.296824     3.289180     3.281537     3.273894     3.266251     3.258607     3.250964     3.243321
      3.235678     3.228034     3.220391     3.212748     3.205105     3.197462     3.189818     3.182175     3.174532     3.166889
      3.159245     3.151602     3.143959     3.136316     3.128673     3.121029     3.113386     3.105743     3.098100     3.090456
      3.082813     3.075170     3.067527     3.059884     3.052240     3.044597     3.036954     3.029311     3.021667     3.014024
      3.006381     2.998738     2.991095     2.983451     2.975808     2.968165     2.960522     2.952878     2.945235     2.937592
      2.929949     2.922306     2.914662     2.907019     2.899376     2.891733     2.884089     2.876446     2.868803     2.861160
      2.853517     2.845873     2.838230     2.830587     2.822944     2.815300     2.807657     2.800014     2.792371     2.784728
      2.777084     2.769441     2.761798     2.754155     2.746511     2.738868     2.731225     2.723582     2.715939     2.708295
      2.700652     2.693009     2.685366     2.677722     2.670079     2.662436     2.654793     2.647150     2.639506     2.631863
      2.624220     2.616577     2.608933     2.601290     2.593647     2.586004     2.578361     2.570717     2.563074     2.555431
      2.547788     2.540144     2.532501     2.524858     2.517215     2.509572     2.501928     2.494285     2.486642     2.478999
      2.471355     2.463712     2.456069     2.448426     2.440783     2.433139     2.425496     2.417853     2.410210     2.402566
      2.394923     2.387280     2.379637     2.371994     2.364350     2.356707     2.349064     2.341421     2.333777     2.326134
      2.318491     2.310848     2.303205     2.295561     2.287918     2.280275     2.272632     2.264988     2.257345     2.249702
      2.242059     2.234416     2.226772     2.219129     2.211486     2.203843     2.196199     2.188556     2.180913     2.173270
      2.165627     2.157983     2.150340     2.142697     2.135054     2.127410     2.119767     2.112124     2.104481     2.096838
      2.089194     2.081551     2.073908     2.066265     2.058621     2.050978     2.043335     2.035692     2.028049     2.020405
      2.012762     2.005119     1.997476     1.989833     1.982190     1.974546     1.966903     1.959260     1.951617     1.943974
      1.936331     1.928688     1.921045     1.913402     1.905759     1.898115     1.890472     1.882829     1.875186     1.867543
      1.859900     1.852257     1.844614     1.836971     1.829327     1.821684     1.814041     1.806398     1.798755     1.791112
      1.783469     1.775826     1.768183     1.760540     1.752896     1.745253     1.737610     1.729967     1.722324     1.714681
      1.707038     1.699395     1.691752     1.684108     1.676465     1.668822     1.661179     1.653536     1.645893     1.638250
      1.630607     1.622964     1.615321     1.607677     1.600034     1.592391     1.584748     1.577105     1.569462     1.561819
      1.554176     1.546533     1.538890     1.531246     1.523603     1.515960     1.508317     1.500674     1.493031     1.485388
      1.477745     1.470102     1.462458     1.454815     1.447172     1.439529     1.431886     1.424243     1.416600     1.408957
      1.401314     1.393671     1.386027     1.378384     1.370741     1.363098     1.355455     1.347812     1.340169     1.332526
      1.324883     1.317240     1.309596     1.301953     1.294310     1.286667     1.279024     1.271381     1.263738     1.256095
      1.248452     1.240808     1.233165     1.225522     1.217879     1.210236     1.202593     1.194950     1.187307     1.179664
      1.172021     1.164377     1.156734     1.149091     1.141448     1.133805     1.126162     1.118519     1.110876     1.103233
      1.095590     1.087946     1.080303     1.072660     1.065017     1.057374     1.049731     1.042088     1.034445     1.026802
      1.019158     1.011515     1.003872     0.996229     0.988586     0.980943     0.973300     0.965657     0.958014     0.950371
      0.942727     0.935084     0.927441     0.919798     0.912155     0.904512     0.896869     0.889226     0.881583     0.873940
      0.866296     0.858653     0.851010     0.843367     0.835724     0.828081     0.820438     0.812795     0.805152     0.797508
      0.789865     0.782222     0.774579     0.766936     0.759293     0.751650     0.744007     0.736364     0.728721     0.721077
      0.713434     0.705791     0.698148     0.690505     0.682862     0.675219     0.667576     0.659933     0.652290     0.644646
      0.637003     0.629360     0.621717     0.614074     0.606431     0.598788     0.591145     0.583502     0.575858     0.568215
      0.560572     0.552929     0.545286     0.537643     0.530000     0.522357     0.514714     0.507071     0.499427     0.491784
      0.484141     0.476498     0.468855     0.461212     0.453569     0.445925     0.438282     0.430639     0.422996     0.415353
      0.407710     0.400067     0.392424     0.384780     0.377137     0.369494     0.361851     0.354208     0.346565     0.338922
      0.331278     0.323635     0.315992     0.308349     0.300706     0.293063     0.285420     0.277777     0.270133     0.262490
      0.254847     0.247204     0.239561     0.231918     0.224275     0.216631     0.208988     0.201345
 NY phased data points follow
   4.54167E+00  4.29414E+00  3.46860E+00  4.01042E+00  3.28566E+00  1.04017E+00  2.62485E+00  4.43227E+00  3.55013E+00  4.18294E+00
   9.33181E-01  3.70818E+00  3.06482E+00  5.41666E+00  3.66905E+00  1.17802E+00  1.86990E-02  1.91890E+00 -1.30364E-01  1.49697E+00
  -8.72137E-02  1.51495E+00  4.91542E+00  2.09552E+00  2.74807E+00  6.20398E-01  1.76441E+00  3.90764E+00  1.83302E+00  1.27209E+00
   1.18355E+00  1.32867E+00  1.99696E+00  2.72055E+00  1.91648E+00  2.62816E+00  5.75817E-01  9.77096E-01  9.32357E-01 -4.62057E-01
   2.09011E-01  5.15614E-01  3.55016E+00 -7.76101E-01  6.48270E-01 -1.75274E-01  1.52131E+00 -5.42715E-01  4.55015E-02  3.59652E-01
   5.20510E+00  9.81788E-01 -1.41979E+00  4.17372E-01  2.24412E+00  2.07192E+00  1.95364E+00  6.91593E-01 -8.23411E-02 -8.70906E-01
   1.33593E+00  2.29169E+00  1.34723E+00 -3.41393E-01  1.47868E+00  2.47560E+00 -3.48899E-01  1.72344E+00 -5.59319E-01  1.15174E+00
  -5.98691E-01  2.11774E+00  3.44294E+00  1.50478E+00 -2.75954E+00  1.35439E+00  9.78038E-01  1.87042E+00 -6.11905E-01  6.11408E-01
   1.23898E+00  1.02349E+00  3.82233E-01 -1.81541E+00 -1.08890E+00  2.58172E-01 -8.18717E-01  1.10798E-01 -1.16384E+00 -1.10918E-01
   1.45235E-01 -1.13022E+00  3.41075E-01  1.19292E+00  1.49708E+00  3.69880E-01  1.13617E-01  3.69949E+00 -2.48256E+00 -1.51070E+00
  -1.92178E+00  6.85249E-01 -6.06129E-01 -2.69483E+00  7.50170E-01 -2.22688E+00  7.76645E-01 -2.61985E+00 -9.04419E-01  1.51804E+00
  -1.30785E+00 -8.89343E-01 -2.18096E+00 -5.55158E-01  1.34319E+00 -2.44204E+00  1.87640E+00 -1.46659E+00  1.42750E+00  2.21195E+00
   9.75689E-02 -5.41685E-01  2.84654E+00  2.25542E+00 -1.69458E+00 -2.53824E+00  3.01036E+00 -1.96122E+00  5.05536E-01 -3.35529E+00
   9.55698E-01  1.60764E+00 -6.66237E-01 -1.32374E+00 -1.33328E+00 -5.12021E-01  1.47853E+00  7.61891E-02  4.31795E-01  2.23252E+00
   6.11491E-01 -1.72608E+00 -4.96674E-01 -7.22121E-01  1.92138E-01 -1.14611E-01  1.07805E+00 -1.84232E-02  1.63421E+00  2.49526E+00
  -3.07973E+00 -1.19033E+00 -2.83502E+00 -1.73442E+00 -2.36046E+00  9.63767E-01  1.51466E+00 -1.56195E+00 -6.28155E-01  1.40209E-01
   3.26193E-01 -1.40972E+00 -1.24101E+00 -2.12646E+00  2.89197E-01 -1.35192E+00 -6.33251E-01  2.20268E-01  4.45642E-02  1.62136E+00
   2.23647E+00  1.81374E+00 -3.64146E-02 -2.45936E+00  2.02377E+00 -1.37525E+00  2.15199E-01 -1.44579E+00  2.66943E+00 -1.85557E+00
  -3.42396E+00 -2.87356E-01  9.50152E-01  2.84656E-01 -2.36179E+00 -1.10998E+00 -1.74604E+00  2.24400E+00 -1.35680E+00  6.27064E-01
  -1.30009E+00 -1.38117E+00 -5.51415E-01 -1.04594E+00 -1.13746E-01 -8.01706E-01 -5.08623E-01 -1.93385E-01 -1.39324E+00 -2.43223E+00
  -1.02047E+00  1.78461E-02 -1.31307E+00 -1.18599E+00 -1.54379E+00  1.01354E-01 -4.26657E+00  1.51387E+00 -1.79239E+00  5.71930E-01
  -7.32699E-01  2.10867E+00 -1.33656E+00  1.28331E-01  6.36094E-01  1.84215E+00 -1.63379E+00  1.63607E+00  9.11674E-01 -1.61943E+00
  -2.33285E+00 -1.94712E+00 -1.95650E-01 -3.03818E+00 -1.97108E-01  9.06516E-01  7.65991E-02 -1.04032E+00  6.43830E-01 -2.62879E+00
   1.19919E-01  1.62630E+00  1.57515E+00 -2.50882E-01 -1.97513E+00 -2.36793E+00 -1.68982E-01 -2.25659E+00 -1.30082E+00 -1.12452E+00
  -3.20004E-01  3.25735E-01 -1.99348E+00  8.41212E-01 -2.79019E+00 -2.32603E+00  4.64928E-01  1.79522E-01 -2.13765E+00 -3.62500E+00
   7.82681E-01 -1.48467E+00  1.22531E+00  3.19214E+00  1.18293E+00  1.98262E+00 -5.72198E-01  3.30615E+00  1.45703E+00  1.85140E+00
   3.46285E+00  5.18552E+00  1.61812E+00  7.72511E-01 -1.09159E+00  3.13053E-01  9.47984E-01  2.49169E-01 -3.64175E-01 -1.12545E+00
   6.01372E-01  8.40135E-01  1.10414E+00 -4.23897E+00  1.03720E+00  3.16030E+00  8.75049E-01  4.35114E+00  3.29402E+00 -7.82886E-01
   2.18291E+00 -3.61003E-03  5.84126E+00  1.75593E+00  4.07812E+00  4.85609E+00  4.07333E+00  1.65415E+00 -8.50019E-02  1.56515E+00
   2.05791E+00  9.91662E-02  2.47760E-01  1.43347E+00 -1.89471E+00  3.39260E+00  1.18984E+00  5.71633E+00  2.52185E+00  2.69956E+00
   5.17100E+00  4.40619E+00  4.19594E+00  3.58483E+00  1.31833E+00  3.28003E+00  6.28910E+00  2.62470E+00  5.83362E+00  5.73565E+00
   3.66937E+00  4.06227E+00  5.11422E+00  5.21123E+00  5.27969E+00  6.14316E+00  4.72616E+00  8.03937E+00  7.40241E+00  8.97237E+00
   5.02797E+00  9.38961E+00  8.52457E+00  9.14137E+00  5.87631E+00  4.38320E+00  7.57712E+00  7.27226E+00  5.69661E+00  7.29902E+00
   8.77880E+00  8.06201E+00  9.17327E+00  6.78978E+00  9.16453E+00  1.02118E+01  9.55786E+00  9.53366E+00  9.83226E+00  7.40007E+00
   9.24171E+00  9.29261E+00  7.38303E+00  7.24601E+00  7.55137E+00  6.27043E+00  6.68719E+00  8.60209E+00  7.30071E+00  6.13136E+00
   5.44612E+00  2.57266E+00  4.20279E+00  6.16171E-01  3.51313E+00  2.52894E+00  6.26456E+00  5.53347E+00  4.15493E+00  5.47601E+00
   4.03240E+00  3.32774E+00  3.02377E+00  4.92438E+00  3.61290E+00  5.17902E+00  5.37293E+00  2.29625E+00 -1.34511E+00  5.43709E+00
   4.19309E+00  3.99445E+00  2.04222E-01  2.30989E+00  1.17842E-01  3.37800E+00 -1.72421E+00  2.06670E+00  5.41172E-01  7.35831E-01
   3.07999E+00 -7.78042E-01  1.63328E+00 -1.35738E-02  3.11019E-01  3.67597E+00  4.23528E+00  1.89431E+00 -7.53893E-01  1.46006E+00
   4.19912E+00  3.38261E+00 -8.77093E-01  1.28410E+00  2.65617E+00  3.98685E+00  3.73465E-01  1.65210E+00  2.89591E+00  1.96442E+00
   7.27501E+00  3.31206E-01  2.96292E+00  3.87409E+00 -1.28037E+00  1.94337E+00  1.31701E+00  2.08855E+00  1.63956E+00  1.07259E+00
  -4.26995E-01  3.18326E+00  1.37865E+00  4.54476E+00  1.97285E+00  3.69118E+00  2.90696E+00  2.92564E+00 -7.35779E-01  2.57312E+00
   2.34756E+00  2.52265E+00  3.44398E+00  4.76172E+00  6.39950E-01 -8.01638E-01  2.13840E+00  3.95315E+00  3.42590E+00  1.23163E+00
  -2.17109E+00  7.79189E-01  1.54943E+00 -2.15975E-02  2.77689E-02 -2.62440E+00  9.06981E-01  3.26301E+00  9.59056E-01 -3.10058E+00
   7.10421E-01  3.40502E+00  1.92933E+00  1.50779E+00 -1.76768E-02 -5.66725E-01 -1.41546E+00 -1.09334E+00 -1.59745E+00 -1.29492E+00
  -2.39976E+00  2.57177E-01  7.69050E-02 -1.18452E+00 -1.58888E+00 -8.86519E-01 -2.44281E+00 -1.43001E+00 -8.44695E-01 -4.15339E-01
  -1.66888E+00 -3.50924E-01 -2.75688E+00 -2.27090E+00 -2.91958E+00 -4.04383E+00  1.79256E-01 -2.62573E+00 -1.47214E+00 -2.54136E+00
  -2.41820E+00 -1.08664E+00 -3.54356E-01 -2.66811E+00 -2.02351E+00 -5.37828E+00 -4.38654E+00 -2.86269E+00 -5.97258E+00 -4.33870E-01
  -2.27192E+00 -2.71623E+00 -3.57521E+00 -2.34255E+00 -8.89426E-01 -4.43098E+00  1.37480E+00 -4.54923E+00 -2.11764E+00 -2.36734E+00
  -2.23607E+00 -2.63556E+00 -3.89184E+00 -7.80524E+00 -5.54149E+00 -4.57932E+00 -4.29078E-01 -3.96458E+00
 NY points of the fit to the data follow
   1.39850E+00  1.33862E+00  1.30405E+00  1.31357E+00  1.38537E+00  1.47552E+00  1.54545E+00  1.59476E+00  1.63331E+00  1.65776E+00
   1.65328E+00  1.61139E+00  1.53953E+00  1.44800E+00  1.34924E+00  1.26526E+00  1.22873E+00  1.22939E+00  1.25231E+00  1.30119E+00
   1.38354E+00  1.47747E+00  1.53013E+00  1.48985E+00  1.38600E+00  1.27676E+00  1.17668E+00  1.10509E+00  1.11799E+00  1.24209E+00
   1.42297E+00  1.59749E+00  1.75101E+00  1.85749E+00  1.86197E+00  1.74298E+00  1.53935E+00  1.30824E+00  1.08646E+00  9.26449E-01
   8.73553E-01  9.27800E-01  1.06738E+00  1.27788E+00  1.49834E+00  1.64503E+00  1.70897E+00  1.73579E+00  1.72415E+00  1.64839E+00
   1.50221E+00  1.31593E+00  1.12254E+00  9.43007E-01  8.29920E-01  8.26830E-01  8.99176E-01  9.90560E-01  1.06586E+00  1.11625E+00
   1.13934E+00  1.13110E+00  1.09429E+00  1.03985E+00  9.77579E-01  9.12725E-01  8.62365E-01  8.52022E-01  8.76626E-01  9.17482E-01
   9.56193E-01  9.87936E-01  1.00679E+00  1.00613E+00  9.87230E-01  9.56144E-01  9.20225E-01  8.81040E-01  8.40314E-01  8.09004E-01
   7.86670E-01  7.70765E-01  7.47441E-01  7.04837E-01  6.42791E-01  5.74821E-01  5.09997E-01  4.50110E-01  3.98753E-01  3.67693E-01
   3.62747E-01  3.83754E-01  4.25446E-01  4.73232E-01  5.07862E-01  5.17484E-01  5.01307E-01  4.66166E-01  4.16918E-01  3.60043E-01
   3.06972E-01  2.67996E-01  2.42476E-01  2.32264E-01  2.35571E-01  2.45540E-01  2.59041E-01  2.72013E-01  2.82575E-01  2.90355E-01
   2.93313E-01  2.90493E-01  2.84769E-01  2.78701E-01  2.70756E-01  2.60321E-01  2.47576E-01  2.34189E-01  2.20662E-01  2.08301E-01
   2.02521E-01  2.28718E-01  3.34604E-01  4.76251E-01  5.96292E-01  6.88668E-01  7.68044E-01  8.23894E-01  8.32644E-01  7.84046E-01
   6.88852E-01  5.63660E-01  4.19838E-01  2.89594E-01  2.17788E-01  1.80350E-01  1.53862E-01  1.37844E-01  1.30852E-01  1.32124E-01
   1.43455E-01  1.63872E-01  1.83268E-01  1.94850E-01  1.97812E-01  1.92878E-01  1.83264E-01  1.72299E-01  1.61054E-01  1.46967E-01
   1.25781E-01  1.04040E-01  8.72936E-02  7.76235E-02  7.54127E-02  7.28162E-02  6.38418E-02  5.12028E-02  3.92099E-02  2.75640E-02
   1.48910E-02 -5.72024E-03 -3.48291E-02 -6.43063E-02 -9.25988E-02 -1.22498E-01 -1.47564E-01 -1.64628E-01 -1.79422E-01 -1.95548E-01
  -2.16364E-01 -2.43607E-01 -2.67345E-01 -2.82147E-01 -2.93839E-01 -3.09027E-01 -3.33302E-01 -3.67288E-01 -4.00911E-01 -4.17104E-01
  -4.17026E-01 -4.10871E-01 -4.08744E-01 -4.08442E-01 -3.96394E-01 -3.68215E-01 -3.29727E-01 -2.83427E-01 -2.39243E-01 -2.14559E-01
  -2.11599E-01 -2.21029E-01 -2.43109E-01 -2.85482E-01 -3.40960E-01 -3.88043E-01 -4.13154E-01 -4.11998E-01 -3.80801E-01 -3.15527E-01
  -2.20842E-01 -1.16485E-01 -4.46320E-02 -2.05741E-02 -6.09613E-02 -2.03314E-01 -4.14067E-01 -6.28624E-01 -8.12144E-01 -9.22673E-01
  -9.00874E-01 -6.57884E-01 -2.92396E-01  6.38213E-02  3.49253E-01  5.54974E-01  5.85728E-01  2.97865E-01 -2.56854E-01 -8.50677E-01
  -1.33823E+00 -1.70740E+00 -1.89723E+00 -1.80434E+00 -1.48830E+00 -1.05688E+00 -6.26329E-01 -2.64141E-01 -7.09577E-03  8.73207E-02
   3.99946E-02 -5.79765E-02 -1.44295E-01 -2.03035E-01 -2.22496E-01 -2.30979E-01 -2.39657E-01 -2.60879E-01 -3.36658E-01 -4.33308E-01
  -5.05483E-01 -5.52081E-01 -5.83144E-01 -5.83448E-01 -5.46338E-01 -4.97949E-01 -4.69890E-01 -4.63718E-01 -4.46615E-01 -4.22833E-01
  -3.63904E-01 -6.51997E-02  4.19935E-01  8.59481E-01  1.21170E+00  1.64397E+00  2.19543E+00  2.60319E+00  2.71361E+00  2.62140E+00
   2.43656E+00  2.13530E+00  1.73957E+00  1.39540E+00  1.09106E+00  7.37531E-01  3.52276E-01  5.55707E-02 -8.54820E-02 -1.52765E-01
  -1.76993E-01 -1.65207E-01 -1.40849E-01 -1.09165E-01 -6.40179E-02 -1.70730E-02  2.13820E-02  5.25882E-02  8.24032E-02  1.16308E-01
   1.60857E-01  2.24771E-01  3.11349E-01  4.17562E-01  5.37087E-01  6.67635E-01  8.08795E-01  9.61513E-01  1.12597E+00  1.30268E+00
   1.49260E+00  1.69608E+00  1.91065E+00  2.13360E+00  2.35916E+00  2.58314E+00  2.80367E+00  3.01760E+00  3.22160E+00  3.41540E+00
   3.59810E+00  3.76800E+00  3.92346E+00  4.06333E+00  4.18747E+00  4.29612E+00  4.38967E+00  4.47089E+00  4.54367E+00  4.61203E+00
   4.68055E+00  4.75385E+00  4.83636E+00  4.93237E+00  5.04577E+00  5.17996E+00  5.33775E+00  5.52127E+00  5.73222E+00  5.97262E+00
   6.24729E+00  6.57279E+00  6.96466E+00  7.33207E+00  7.60795E+00  7.81038E+00  7.96324E+00  8.04758E+00  8.03199E+00  7.92328E+00
   7.84269E+00  7.86655E+00  7.95162E+00  8.07796E+00  8.26679E+00  8.46419E+00  8.61368E+00  8.68056E+00  8.65403E+00  8.55300E+00
   8.39165E+00  8.20896E+00  8.15850E+00  8.22905E+00  8.13555E+00  7.82582E+00  7.39364E+00  6.87036E+00  6.18536E+00  5.30370E+00
   4.46256E+00  3.95559E+00  3.72862E+00  3.68470E+00  3.89581E+00  4.34646E+00  4.80225E+00  5.12885E+00  5.26563E+00  5.22980E+00
   5.02635E+00  4.64951E+00  4.24331E+00  3.93942E+00  3.69256E+00  3.47194E+00  3.26580E+00  3.06896E+00  2.87909E+00  2.69529E+00
   2.51739E+00  2.34567E+00  2.18070E+00  2.02321E+00  1.87402E+00  1.73393E+00  1.60373E+00  1.48414E+00  1.37587E+00  1.27962E+00
   1.19603E+00  1.12571E+00  1.06919E+00  1.02701E+00  9.99680E-01  9.87689E-01  9.91458E-01  1.01132E+00  1.04748E+00  1.10003E+00
   1.16885E+00  1.25361E+00  1.35366E+00  1.46800E+00  1.59525E+00  1.73364E+00  1.88096E+00  2.03461E+00  2.19157E+00  2.34850E+00
   2.50181E+00  2.64778E+00  2.78264E+00  2.90275E+00  3.00471E+00  3.08547E+00  3.14253E+00  3.17398E+00  3.17861E+00  3.15593E+00
   3.10618E+00  3.03032E+00  2.92997E+00  2.80730E+00  2.66497E+00  2.50592E+00  2.33332E+00  2.15042E+00  1.96041E+00  1.76635E+00
   1.57105E+00  1.37701E+00  1.18641E+00  1.00104E+00  8.22349E-01  6.51424E-01  4.89014E-01  3.35571E-01  1.91298E-01  5.61880E-02
  -6.99364E-02 -1.87390E-01 -2.96585E-01 -3.98003E-01 -4.92152E-01 -5.79559E-01 -6.60749E-01 -7.36238E-01 -8.06523E-01 -8.72068E-01
  -9.33302E-01 -9.90617E-01 -1.04438E+00 -1.09491E+00 -1.14253E+00 -1.18750E+00 -1.23005E+00 -1.27041E+00 -1.30877E+00 -1.34530E+00
  -1.38017E+00 -1.41351E+00 -1.44545E+00 -1.47610E+00 -1.50556E+00 -1.53393E+00 -1.56128E+00 -1.58770E+00 -1.61325E+00 -1.63799E+00
  -1.66198E+00 -1.68528E+00 -1.70792E+00 -1.72994E+00 -1.75140E+00 -1.77231E+00 -1.79273E+00 -1.81267E+00 -1.83217E+00 -1.85125E+00
  -1.86993E+00 -1.88824E+00 -1.90620E+00 -1.92382E+00 -1.94112E+00 -1.95813E+00 -1.97484E+00 -1.99129E+00 -2.00748E+00 -2.02343E+00
  -2.03915E+00 -2.05464E+00 -2.06992E+00 -2.08500E+00 -2.09990E+00 -2.11460E+00 -2.12913E+00 -2.14350E+00 -2.15771E+00 -2.17176E+00
  -2.18567E+00 -2.19945E+00 -2.21308E+00 -2.22659E+00 -2.23999E+00 -2.25327E+00 -2.26644E+00 -2.27950E+00
 NY background values follow
     1.300E+00    1.292E+00    1.284E+00    1.276E+00    1.268E+00    1.260E+00    1.252E+00    1.243E+00    1.235E+00    1.227E+00
     1.219E+00    1.211E+00    1.203E+00    1.195E+00    1.187E+00    1.179E+00    1.171E+00    1.163E+00    1.154E+00    1.146E+00
     1.138E+00    1.130E+00    1.122E+00    1.114E+00    1.106E+00    1.098E+00    1.090E+00    1.082E+00    1.074E+00    1.065E+00
     1.057E+00    1.049E+00    1.041E+00    1.033E+00    1.025E+00    1.017E+00    1.009E+00    1.001E+00    9.927E-01    9.846E-01
     9.765E-01    9.684E-01    9.603E-01    9.523E-01    9.442E-01    9.361E-01    9.280E-01    9.199E-01    9.118E-01    9.037E-01
     8.957E-01    8.876E-01    8.795E-01    8.714E-01    8.633E-01    8.552E-01    8.472E-01    8.391E-01    8.310E-01    8.229E-01
     8.148E-01    8.067E-01    7.987E-01    7.906E-01    7.825E-01    7.744E-01    7.663E-01    7.582E-01    7.502E-01    7.421E-01
     7.340E-01    7.259E-01    7.178E-01    7.098E-01    7.017E-01    6.936E-01    6.855E-01    6.774E-01    6.694E-01    6.613E-01
     6.532E-01    6.451E-01    6.370E-01    6.290E-01    6.209E-01    6.128E-01    6.047E-01    5.967E-01    5.886E-01    5.805E-01
     5.724E-01    5.644E-01    5.563E-01    5.482E-01    5.401E-01    5.320E-01    5.240E-01    5.159E-01    5.078E-01    4.997E-01
     4.917E-01    4.836E-01    4.755E-01    4.674E-01    4.594E-01    4.513E-01    4.432E-01    4.352E-01    4.271E-01    4.190E-01
     4.109E-01    4.029E-01    3.948E-01    3.867E-01    3.787E-01    3.706E-01    3.625E-01    3.544E-01    3.464E-01    3.383E-01
     3.302E-01    3.222E-01    3.141E-01    3.060E-01    2.980E-01    2.899E-01    2.818E-01    2.737E-01    2.657E-01    2.576E-01
     2.495E-01    2.415E-01    2.334E-01    2.253E-01    2.173E-01    2.092E-01    2.011E-01    1.931E-01    1.850E-01    1.769E-01
     1.689E-01    1.608E-01    1.528E-01    1.447E-01    1.366E-01    1.286E-01    1.205E-01    1.124E-01    1.044E-01    9.631E-02
     8.824E-02    8.018E-02    7.212E-02    6.406E-02    5.600E-02    4.794E-02    3.987E-02    3.181E-02    2.375E-02    1.569E-02
     7.632E-03   -4.273E-04   -8.487E-03   -1.655E-02   -2.461E-02   -3.266E-02   -4.072E-02   -4.878E-02   -5.684E-02   -6.490E-02
    -7.295E-02   -8.101E-02   -8.907E-02   -9.712E-02   -1.052E-01   -1.132E-01   -1.213E-01   -1.293E-01   -1.374E-01   -1.455E-01
    -1.535E-01   -1.616E-01   -1.696E-01   -1.777E-01   -1.857E-01   -1.938E-01   -2.018E-01   -2.099E-01   -2.179E-01   -2.260E-01
    -2.340E-01   -2.421E-01   -2.502E-01   -2.582E-01   -2.663E-01   -2.743E-01   -2.824E-01   -2.904E-01   -2.985E-01   -3.065E-01
    -3.146E-01   -3.226E-01   -3.307E-01   -3.387E-01   -3.467E-01   -3.548E-01   -3.628E-01   -3.709E-01   -3.789E-01   -3.870E-01
    -3.950E-01   -4.031E-01   -4.111E-01   -4.192E-01   -4.272E-01   -4.353E-01   -4.433E-01   -4.514E-01   -4.594E-01   -4.674E-01
    -4.755E-01   -4.835E-01   -4.916E-01   -4.996E-01   -5.077E-01   -5.157E-01   -5.237E-01   -5.318E-01   -5.398E-01   -5.479E-01
    -5.559E-01   -5.639E-01   -5.720E-01   -5.800E-01   -5.881E-01   -5.961E-01   -6.041E-01   -6.122E-01   -6.202E-01   -6.283E-01
    -6.363E-01   -6.443E-01   -6.524E-01   -6.604E-01   -6.685E-01   -6.765E-01   -6.845E-01   -6.926E-01   -7.006E-01   -7.086E-01
    -7.167E-01   -7.247E-01   -7.327E-01   -7.408E-01   -7.488E-01   -7.568E-01   -7.649E-01   -7.729E-01   -7.809E-01   -7.890E-01
    -7.970E-01   -8.050E-01   -8.131E-01   -8.211E-01   -8.291E-01   -8.372E-01   -8.452E-01   -8.532E-01   -8.612E-01   -8.693E-01
    -8.773E-01   -8.853E-01   -8.934E-01   -9.014E-01   -9.094E-01   -9.174E-01   -9.255E-01   -9.335E-01   -9.415E-01   -9.495E-01
    -9.576E-01   -9.656E-01   -9.736E-01   -9.817E-01   -9.897E-01   -9.977E-01   -1.006E+00   -1.014E+00   -1.022E+00   -1.030E+00
    -1.038E+00   -1.046E+00   -1.054E+00   -1.062E+00   -1.070E+00   -1.078E+00   -1.086E+00   -1.094E+00   -1.102E+00   -1.110E+00
    -1.118E+00   -1.126E+00   -1.134E+00   -1.142E+00   -1.150E+00   -1.158E+00   -1.166E+00   -1.174E+00   -1.182E+00   -1.190E+00
    -1.198E+00   -1.206E+00   -1.214E+00   -1.222E+00   -1.230E+00   -1.238E+00   -1.246E+00   -1.254E+00   -1.262E+00   -1.270E+00
    -1.278E+00   -1.286E+00   -1.294E+00   -1.302E+00   -1.310E+00   -1.318E+00   -1.326E+00   -1.334E+00   -1.342E+00   -1.350E+00
    -1.358E+00   -1.366E+00   -1.374E+00   -1.382E+00   -1.390E+00   -1.399E+00   -1.407E+00   -1.415E+00   -1.423E+00   -1.431E+00
    -1.439E+00   -1.447E+00   -1.455E+00   -1.463E+00   -1.471E+00   -1.479E+00   -1.487E+00   -1.495E+00   -1.503E+00   -1.511E+00
    -1.519E+00   -1.527E+00   -1.535E+00   -1.543E+00   -1.551E+00   -1.559E+00   -1.567E+00   -1.575E+00   -1.583E+00   -1.591E+00
    -1.599E+00   -1.607E+00   -1.615E+00   -1.623E+00   -1.631E+00   -1.639E+00   -1.647E+00   -1.655E+00   -1.663E+00   -1.671E+00
    -1.679E+00   -1.687E+00   -1.695E+00   -1.703E+00   -1.711E+00   -1.719E+00   -1.727E+00   -1.735E+00   -1.743E+00   -1.751E+00
    -1.759E+00   -1.766E+00   -1.774E+00   -1.782E+00   -1.790E+00   -1.798E+00   -1.806E+00   -1.814E+00   -1.822E+00   -1.830E+00
    -1.838E+00   -1.846E+00   -1.854E+00   -1.862E+00   -1.870E+00   -1.878E+00   -1.886E+00   -1.894E+00   -1.902E+00   -1.910E+00
    -1.918E+00   -1.926E+00   -1.934E+00   -1.942E+00   -1.950E+00   -1.958E+00   -1.966E+00   -1.974E+00   -1.982E+00   -1.990E+00
    -1.998E+00   -2.006E+00   -2.014E+00   -2.022E+00   -2.030E+00   -2.038E+00   -2.046E+00   -2.054E+00   -2.062E+00   -2.070E+00
    -2.078E+00   -2.086E+00   -2.094E+00   -2.102E+00   -2.110E+00   -2.118E+00   -2.126E+00   -2.134E+00   -2.142E+00   -2.150E+00
    -2.158E+00   -2.166E+00   -2.174E+00   -2.182E+00   -2.190E+00   -2.198E+00   -2.205E+00   -2.213E+00   -2.221E+00   -2.229E+00
    -2.237E+00   -2.245E+00   -2.253E+00   -2.261E+00   -2.269E+00   -2.277E+00   -2.285E+00   -2.293E+00   -2.301E+00   -2.309E+00
    -2.317E+00   -2.325E+00   -2.333E+00   -2.341E+00   -2.349E+00   -2.357E+00   -2.365E+00   -2.373E+00   -2.381E+00   -2.389E+00
    -2.397E+00   -2.405E+00   -2.413E+00   -2.421E+00   -2.429E+00   -2.436E+00   -2.444E+00   -2.452E+00   -2.460E+00   -2.468E+00
    -2.476E+00   -2.484E+00   -2.492E+00   -2.500E+00   -2.508E+00   -2.516E+00   -2.524E+00   -2.532E+00   -2.540E+00   -2.548E+00
    -2.556E+00   -2.564E+00   -2.572E+00   -2.580E+00   -2.588E+00   -2.596E+00   -2.604E+00   -2.611E+00   -2.619E+00   -2.627E+00
    -2.635E+00   -2.643E+00   -2.651E+00   -2.659E+00   -2.667E+00   -2.675E+00   -2.683E+00   -2.691E+00
 Ala      Conc. = 5.09E+01
