 LCModel (Version 6.3-1L) Copyright: S.W. Provencher.          Ref.: Magn. Reson. Med. 30:672-679 (1993).                
 Slice#2 Row#4 Col#2  PD_05_press_2_raw_act
 36 lines in following concentration table = NCONC+1
    Conc.  %SD /Cr+PCr  Metabolite                                         
   54.181 264% 7.3E-02 Ala                                                 
  118.348 137%   0.160 Asp                                                 
  100.168 231%   0.136 Cr                                                  
  638.049  37%   0.864 PCr                                                 
   44.700 219% 6.1E-02 GABA                                                
   86.845 115%   0.118 Glc                                                 
  436.242  65%   0.591 Gln                                                 
 1.02E+03  31%   1.381 Glu                                                 
  200.514  15%   0.272 GPC                                                 
    0.000 999%   0.000 PCh                                                 
  422.925  25%   0.573 GSH                                                 
  737.715  50%   0.999 Ins                                                 
  282.976  55%   0.383 Lac                                                 
 1.44E+03   7%   1.949 NAA                                                 
    0.000 999%   0.000 NAAG                                                
   24.023 115% 3.3E-02 Scyllo                                              
  122.386 131%   0.166 Tau                                                 
  261.460  54%   0.354 -CrCH2                                              
  200.514  15%   0.272 GPC+PCh                                             
 1.44E+03   7%   1.949 NAA+NAAG                                            
  738.218  12%   1.000 Cr+PCr                                              
 1.46E+03  29%   1.972 Glu+Gln                                             
    0.000 999%   0.000 Lip13a                                              
    0.000 999%   0.000 Lip13b                                              
 2.03E-02 999% 2.7E-05 Lip09                                               
 1.93E+03  20%   2.612 MM09                                                
    0.000 999%   0.000 Lip20                                               
    0.000 999%   0.000 MM20                                                
    0.000 999%   0.000 MM12                                                
 6.09E+03  17%   8.251 MM14                                                
 5.41E+03  16%   7.328+MM17                                                
    0.000 999%   0.000 Lip13a+Lip13b                                       
 6.09E+03  17%   8.251 MM14+Lip13a+Lip13b+MM12                             
 1.93E+03  20%   2.612 MM09+Lip09                                          
    0.000 999%   0.000 MM20+Lip20                                          
   6 lines in following misc. output table
  FWHM = 0.038 ppm    S/N =   5                                            
  Data shift = 0.023 ppm                                                   
  Ph: -33 deg     -32.3 deg/ppm                                            
  alphaB,S = 3.2E-01,   2.3E+01                                            
   14 spline knots.   Ns = 5(1)                                            
  ( 8) 2 infls.   ( 9) 1 extrs.                                            
  498 points on ppm-axis = NY
      4.000000     3.992357     3.984714     3.977070     3.969427     3.961784     3.954141     3.946497     3.938854     3.931211
      3.923568     3.915925     3.908281     3.900638     3.892995     3.885352     3.877708     3.870065     3.862422     3.854779
      3.847136     3.839492     3.831849     3.824206     3.816563     3.808919     3.801276     3.793633     3.785990     3.778347
      3.770703     3.763060     3.755417     3.747774     3.740130     3.732487     3.724844     3.717201     3.709558     3.701914
      3.694271     3.686628     3.678985     3.671341     3.663698     3.656055     3.648412     3.640769     3.633125     3.625482
      3.617839     3.610196     3.602552     3.594909     3.587266     3.579623     3.571980     3.564336     3.556693     3.549050
      3.541407     3.533763     3.526120     3.518477     3.510834     3.503191     3.495547     3.487904     3.480261     3.472618
      3.464974     3.457331     3.449688     3.442045     3.434402     3.426758     3.419115     3.411472     3.403829     3.396185
      3.388542     3.380899     3.373256     3.365613     3.357969     3.350326     3.342683     3.335040     3.327396     3.319753
      3.312110     3.304467     3.296824     3.289180     3.281537     3.273894     3.266251     3.258607     3.250964     3.243321
      3.235678     3.228034     3.220391     3.212748     3.205105     3.197462     3.189818     3.182175     3.174532     3.166889
      3.159245     3.151602     3.143959     3.136316     3.128673     3.121029     3.113386     3.105743     3.098100     3.090456
      3.082813     3.075170     3.067527     3.059884     3.052240     3.044597     3.036954     3.029311     3.021667     3.014024
      3.006381     2.998738     2.991095     2.983451     2.975808     2.968165     2.960522     2.952878     2.945235     2.937592
      2.929949     2.922306     2.914662     2.907019     2.899376     2.891733     2.884089     2.876446     2.868803     2.861160
      2.853517     2.845873     2.838230     2.830587     2.822944     2.815300     2.807657     2.800014     2.792371     2.784728
      2.777084     2.769441     2.761798     2.754155     2.746511     2.738868     2.731225     2.723582     2.715939     2.708295
      2.700652     2.693009     2.685366     2.677722     2.670079     2.662436     2.654793     2.647150     2.639506     2.631863
      2.624220     2.616577     2.608933     2.601290     2.593647     2.586004     2.578361     2.570717     2.563074     2.555431
      2.547788     2.540144     2.532501     2.524858     2.517215     2.509572     2.501928     2.494285     2.486642     2.478999
      2.471355     2.463712     2.456069     2.448426     2.440783     2.433139     2.425496     2.417853     2.410210     2.402566
      2.394923     2.387280     2.379637     2.371994     2.364350     2.356707     2.349064     2.341421     2.333777     2.326134
      2.318491     2.310848     2.303205     2.295561     2.287918     2.280275     2.272632     2.264988     2.257345     2.249702
      2.242059     2.234416     2.226772     2.219129     2.211486     2.203843     2.196199     2.188556     2.180913     2.173270
      2.165627     2.157983     2.150340     2.142697     2.135054     2.127410     2.119767     2.112124     2.104481     2.096838
      2.089194     2.081551     2.073908     2.066265     2.058621     2.050978     2.043335     2.035692     2.028049     2.020405
      2.012762     2.005119     1.997476     1.989833     1.982190     1.974546     1.966903     1.959260     1.951617     1.943974
      1.936331     1.928688     1.921045     1.913402     1.905759     1.898115     1.890472     1.882829     1.875186     1.867543
      1.859900     1.852257     1.844614     1.836971     1.829327     1.821684     1.814041     1.806398     1.798755     1.791112
      1.783469     1.775826     1.768183     1.760540     1.752896     1.745253     1.737610     1.729967     1.722324     1.714681
      1.707038     1.699395     1.691752     1.684108     1.676465     1.668822     1.661179     1.653536     1.645893     1.638250
      1.630607     1.622964     1.615321     1.607677     1.600034     1.592391     1.584748     1.577105     1.569462     1.561819
      1.554176     1.546533     1.538890     1.531246     1.523603     1.515960     1.508317     1.500674     1.493031     1.485388
      1.477745     1.470102     1.462458     1.454815     1.447172     1.439529     1.431886     1.424243     1.416600     1.408957
      1.401314     1.393671     1.386027     1.378384     1.370741     1.363098     1.355455     1.347812     1.340169     1.332526
      1.324883     1.317240     1.309596     1.301953     1.294310     1.286667     1.279024     1.271381     1.263738     1.256095
      1.248452     1.240808     1.233165     1.225522     1.217879     1.210236     1.202593     1.194950     1.187307     1.179664
      1.172021     1.164377     1.156734     1.149091     1.141448     1.133805     1.126162     1.118519     1.110876     1.103233
      1.095590     1.087946     1.080303     1.072660     1.065017     1.057374     1.049731     1.042088     1.034445     1.026802
      1.019158     1.011515     1.003872     0.996229     0.988586     0.980943     0.973300     0.965657     0.958014     0.950371
      0.942727     0.935084     0.927441     0.919798     0.912155     0.904512     0.896869     0.889226     0.881583     0.873940
      0.866296     0.858653     0.851010     0.843367     0.835724     0.828081     0.820438     0.812795     0.805152     0.797508
      0.789865     0.782222     0.774579     0.766936     0.759293     0.751650     0.744007     0.736364     0.728721     0.721077
      0.713434     0.705791     0.698148     0.690505     0.682862     0.675219     0.667576     0.659933     0.652290     0.644646
      0.637003     0.629360     0.621717     0.614074     0.606431     0.598788     0.591145     0.583502     0.575858     0.568215
      0.560572     0.552929     0.545286     0.537643     0.530000     0.522357     0.514714     0.507071     0.499427     0.491784
      0.484141     0.476498     0.468855     0.461212     0.453569     0.445925     0.438282     0.430639     0.422996     0.415353
      0.407710     0.400067     0.392424     0.384780     0.377137     0.369494     0.361851     0.354208     0.346565     0.338922
      0.331278     0.323635     0.315992     0.308349     0.300706     0.293063     0.285420     0.277777     0.270133     0.262490
      0.254847     0.247204     0.239561     0.231918     0.224275     0.216631     0.208988     0.201345
 NY phased data points follow
  -2.85105E+01 -3.15816E+01 -3.12183E+01 -1.21866E+01 -1.63721E+01 -1.88656E+01 -9.27005E+00 -1.15471E+01 -8.49207E+00 -1.04431E+01
  -5.99853E-01 -3.70838E+00 -8.01415E+00 -8.08577E+00 -1.16243E+01 -8.43678E+00 -1.07845E+01 -7.90005E+00 -1.09592E+01 -7.32669E+00
  -9.26450E+00 -5.57208E+00 -3.85672E+00 -1.17604E+00 -3.61749E+00 -8.83803E+00 -1.12095E+00 -4.96922E+00  9.83138E+00  8.47944E+00
   6.84584E+00  1.06546E+01  1.19760E+01  1.60422E+01  9.05721E+00  7.74151E+00  8.16482E+00  7.88082E+00  5.38907E+00  2.50604E+00
   2.58439E+00  1.46249E+01  8.54145E+00  1.36705E+01  5.37280E+00  1.65340E+01  1.71464E+01  1.26528E+01  2.00845E+01  1.12929E+01
   1.64718E+01  7.39901E+00  6.59537E+00  1.93635E+01  1.19054E+01  1.60911E+01  2.18899E+01  9.48927E+00  1.44032E+01  1.82974E+01
   2.18975E+01  1.36226E+01  2.23443E+01  1.59845E+01  1.63036E+01  1.71042E+01  1.32642E+01  1.87395E+01  1.21241E+01  1.70128E+01
   1.29354E+01  2.16000E+01  3.08607E+01  2.29660E+01  2.76172E+01  2.38542E+01  3.00231E+01  1.70083E+01  3.29573E+01  1.32251E+01
   2.50024E+01  2.32970E+01  2.94549E+01  3.41637E+01  2.77084E+01  3.91470E+01  2.79891E+01  2.06997E+01  2.29239E+01  2.40167E+01
   2.14266E+01  2.85603E+01  2.79171E+01  3.07489E+01  3.11858E+01  3.82400E+01  3.80224E+01  3.17731E+01  3.46050E+01  3.85273E+01
   4.49441E+01  4.99428E+01  6.28821E+01  4.98255E+01  5.01625E+01  5.40575E+01  5.34174E+01  3.50176E+01  3.62410E+01  3.72594E+01
   4.21314E+01  3.91792E+01  4.14624E+01  3.60773E+01  4.38209E+01  3.52229E+01  3.14224E+01  3.70831E+01  3.74129E+01  3.61133E+01
   3.71332E+01  4.33877E+01  3.97047E+01  4.87757E+01  4.68350E+01  6.69812E+01  7.29962E+01  7.76410E+01  6.66439E+01  6.67323E+01
   5.97317E+01  4.77728E+01  4.16882E+01  4.47014E+01  4.26732E+01  4.26662E+01  4.16677E+01  4.53872E+01  3.91546E+01  4.31583E+01
   4.44214E+01  4.92804E+01  4.28925E+01  5.16988E+01  5.26589E+01  4.32882E+01  5.07971E+01  4.76943E+01  4.90742E+01  4.15536E+01
   5.40723E+01  4.58099E+01  4.29134E+01  4.74036E+01  4.51177E+01  4.35140E+01  5.33255E+01  5.61427E+01  5.14837E+01  4.42461E+01
   4.40623E+01  3.94928E+01  4.21674E+01  4.22654E+01  5.58136E+01  5.57006E+01  5.44165E+01  5.22118E+01  4.66626E+01  5.21275E+01
   4.62159E+01  5.99212E+01  4.53188E+01  3.53687E+01  4.52133E+01  4.65729E+01  4.68239E+01  4.21102E+01  5.11922E+01  4.52095E+01
   5.14374E+01  4.29748E+01  4.35642E+01  4.25081E+01  4.31187E+01  4.65229E+01  4.41714E+01  4.82885E+01  5.51842E+01  4.90466E+01
   5.12741E+01  4.77504E+01  5.77070E+01  5.39887E+01  5.44840E+01  5.09594E+01  5.25972E+01  4.90004E+01  4.95258E+01  4.38059E+01
   5.17873E+01  4.80852E+01  5.70033E+01  6.55996E+01  5.55951E+01  5.66269E+01  4.06215E+01  4.72080E+01  5.58328E+01  4.82974E+01
   5.03694E+01  4.42358E+01  6.40161E+01  4.45847E+01  6.16836E+01  5.77990E+01  5.67181E+01  6.16403E+01  5.19857E+01  5.67036E+01
   4.43753E+01  4.87357E+01  4.59625E+01  4.22405E+01  4.83696E+01  4.87537E+01  5.30942E+01  5.53343E+01  4.78642E+01  5.71453E+01
   5.47213E+01  3.43332E+01  5.07408E+01  4.76661E+01  4.05957E+01  4.06666E+01  5.08029E+01  4.70218E+01  4.66133E+01  4.71249E+01
   4.91978E+01  4.44995E+01  4.69704E+01  4.85862E+01  4.83516E+01  4.61295E+01  5.19855E+01  4.86480E+01  6.07943E+01  5.48894E+01
   6.07359E+01  5.28548E+01  4.52817E+01  6.55177E+01  6.86816E+01  6.11782E+01  6.80184E+01  6.36953E+01  8.65603E+01  1.09060E+02
   1.15470E+02  1.16778E+02  1.19196E+02  1.00456E+02  9.04473E+01  7.75952E+01  8.17968E+01  6.78633E+01  7.55606E+01  7.56198E+01
   7.83453E+01  7.17979E+01  7.49511E+01  6.39933E+01  6.98397E+01  7.58690E+01  7.07856E+01  7.00774E+01  7.55556E+01  7.35316E+01
   6.87351E+01  6.60502E+01  7.12928E+01  7.64587E+01  6.47479E+01  6.64557E+01  6.50798E+01  7.52125E+01  7.76116E+01  6.62041E+01
   6.89862E+01  7.49226E+01  8.53510E+01  7.74922E+01  8.01136E+01  7.87931E+01  8.60486E+01  8.26411E+01  7.94056E+01  8.65029E+01
   8.11236E+01  8.73705E+01  8.78022E+01  8.60941E+01  9.01832E+01  8.47004E+01  7.88797E+01  7.99168E+01  7.64618E+01  8.40961E+01
   8.80056E+01  8.51621E+01  9.30770E+01  8.79770E+01  8.72793E+01  9.31694E+01  9.89096E+01  9.27783E+01  8.81804E+01  8.31712E+01
   8.43198E+01  8.65406E+01  8.06259E+01  6.51775E+01  6.57871E+01  7.62606E+01  6.31493E+01  6.52376E+01  5.78649E+01  6.69548E+01
   5.81515E+01  5.53225E+01  6.61092E+01  6.50585E+01  5.30837E+01  5.73876E+01  5.30236E+01  5.55253E+01  4.80997E+01  5.03189E+01
   4.76090E+01  4.59814E+01  4.31740E+01  3.70735E+01  3.82699E+01  2.89071E+01  3.51832E+01  3.83795E+01  3.30458E+01  3.06456E+01
   1.95221E+01  1.85981E+01  2.35119E+01  1.60143E+01  1.28636E+01  1.91362E+01  2.36880E+01  2.88719E+01  2.36980E+01  2.32516E+01
   1.70393E+01  1.90396E+01  1.71915E+01  1.68831E+01  2.77162E+00  3.98322E+00  9.24276E+00  1.24496E+01  1.09190E+01 -3.53740E+00
   1.16108E+01  7.12305E+00  1.80197E+01  5.99923E+00  4.76237E+00  2.17992E+01  2.34527E+01  1.93873E+01  1.98940E+01  2.03312E+01
   2.08209E+01  2.25398E+01  2.03995E+01  2.23593E+01  2.18840E+01  2.88679E+01  3.45727E+01  2.75777E+01  1.60009E+01  2.65546E+01
   3.65269E+01  1.93645E+01  4.12239E+01  3.22011E+01  2.87570E+01  2.68672E+01  3.19436E+01  2.76587E+01  3.27829E+01  3.07282E+01
   4.04997E+01  3.53886E+01  3.22605E+01  2.64591E+01  3.14994E+01  2.95288E+01  3.43934E+01  2.92646E+01  3.02186E+01  3.82554E+01
   4.30794E+01  3.95376E+01  3.75787E+01  3.42838E+01  2.86606E+01  4.20509E+01  3.58999E+01  3.08206E+01  3.35623E+01  3.03802E+01
   3.79125E+01  3.11124E+01  3.32872E+01  3.91785E+01  2.91055E+01  2.92636E+01  2.14125E+01  2.26568E+01  3.85769E+01  3.08070E+01
   2.93840E+01  3.40867E+01  3.05537E+01  3.62875E+01  3.22917E+01  3.14355E+01  3.69506E+01  3.53897E+01  3.10724E+01  3.40881E+01
   2.35338E+01  2.64587E+01  2.44136E+01  3.16630E+01  2.97402E+01  3.42505E+01  3.51338E+01  3.00831E+01  4.40109E+01  3.01822E+01
   2.91623E+01  3.19980E+01  3.10212E+01  3.87451E+01  2.86425E+01  2.78842E+01  3.39681E+01  2.81704E+01  2.71693E+01  3.54196E+01
   2.99205E+01  3.36006E+01  2.77153E+01  3.14181E+01  3.62473E+01  3.06276E+01  2.81625E+01  3.43069E+01  3.56825E+01  2.96407E+01
   3.26486E+01  2.86677E+01  2.49562E+01  3.24279E+01  3.10071E+01  3.62471E+01  3.48294E+01  2.81465E+01  3.67544E+01  2.84231E+01
   3.37796E+01  3.04229E+01  2.42126E+01  3.42979E+01  4.06325E+01  3.59671E+01  2.13947E+01  3.29481E+01  2.79794E+01  4.23581E+01
   2.25818E+01  1.96004E+01  2.84928E+01  2.62818E+01  2.71966E+01  3.12936E+01  3.17720E+01  2.90637E+01
 NY points of the fit to the data follow
  -2.31303E+01 -2.26827E+01 -2.20026E+01 -2.09841E+01 -1.94423E+01 -1.71038E+01 -1.35397E+01 -9.43491E+00 -6.17948E+00 -4.31478E+00
  -3.76180E+00 -4.46855E+00 -6.00655E+00 -7.57657E+00 -8.67989E+00 -9.37903E+00 -9.51638E+00 -9.40202E+00 -9.08018E+00 -8.49968E+00
  -7.71721E+00 -6.88059E+00 -6.12626E+00 -5.53429E+00 -5.12895E+00 -4.84065E+00 -4.24286E+00 -2.15725E+00  1.91053E+00  6.65776E+00
   1.05894E+01  1.30440E+01  1.37264E+01  1.24722E+01  9.88367E+00  7.07240E+00  4.67326E+00  3.27700E+00  2.94958E+00  3.39919E+00
   4.37564E+00  5.54771E+00  6.72899E+00  7.98073E+00  9.64960E+00  1.18871E+01  1.42257E+01  1.59287E+01  1.65231E+01  1.60584E+01
   1.49336E+01  1.36100E+01  1.25444E+01  1.20328E+01  1.21124E+01  1.26472E+01  1.34987E+01  1.46406E+01  1.59505E+01  1.71861E+01
   1.80971E+01  1.85491E+01  1.85769E+01  1.83622E+01  1.81850E+01  1.82232E+01  1.85641E+01  1.91877E+01  1.99511E+01  2.08061E+01
   2.17094E+01  2.25471E+01  2.32655E+01  2.39196E+01  2.45106E+01  2.49046E+01  2.50931E+01  2.51592E+01  2.51637E+01  2.52325E+01
   2.54616E+01  2.58673E+01  2.64093E+01  2.70841E+01  2.77308E+01  2.80400E+01  2.79030E+01  2.75468E+01  2.72641E+01  2.72423E+01
   2.75395E+01  2.81140E+01  2.87991E+01  2.95121E+01  3.01763E+01  3.07254E+01  3.12184E+01  3.19792E+01  3.35846E+01  3.69459E+01
   4.31019E+01  5.04681E+01  5.55957E+01  5.69437E+01  5.51675E+01  5.12410E+01  4.63684E+01  4.20190E+01  3.90531E+01  3.73046E+01
   3.68442E+01  3.68667E+01  3.70135E+01  3.72222E+01  3.74536E+01  3.76992E+01  3.79407E+01  3.81479E+01  3.83171E+01  3.85093E+01
   3.88421E+01  3.96879E+01  4.17901E+01  4.62291E+01  5.41543E+01  6.35748E+01  7.02025E+01  7.19700E+01  6.97003E+01  6.47904E+01
   5.88301E+01  5.36762E+01  5.01107E+01  4.74485E+01  4.56582E+01  4.41205E+01  4.28140E+01  4.21393E+01  4.23599E+01  4.33885E+01
   4.48000E+01  4.61388E+01  4.70511E+01  4.74656E+01  4.75083E+01  4.73169E+01  4.70514E+01  4.68676E+01  4.67423E+01  4.66788E+01
   4.66363E+01  4.66115E+01  4.66024E+01  4.66375E+01  4.67614E+01  4.69618E+01  4.71734E+01  4.73018E+01  4.72368E+01  4.69245E+01
   4.65501E+01  4.64071E+01  4.66483E+01  4.72137E+01  4.78298E+01  4.82276E+01  4.83332E+01  4.82150E+01  4.79652E+01  4.76797E+01
   4.74841E+01  4.73570E+01  4.72123E+01  4.69681E+01  4.65619E+01  4.62151E+01  4.61991E+01  4.64802E+01  4.67857E+01  4.69159E+01
   4.69151E+01  4.69253E+01  4.69439E+01  4.68952E+01  4.67280E+01  4.65972E+01  4.68032E+01  4.76167E+01  4.90008E+01  5.06116E+01
   5.20298E+01  5.28367E+01  5.28375E+01  5.21332E+01  5.10040E+01  4.96966E+01  4.86126E+01  4.81545E+01  4.84853E+01  4.94756E+01
   5.08721E+01  5.24216E+01  5.39119E+01  5.49846E+01  5.52927E+01  5.45928E+01  5.30314E+01  5.07810E+01  4.82734E+01  4.63992E+01
   4.56866E+01  4.61647E+01  4.78171E+01  5.06595E+01  5.39736E+01  5.63857E+01  5.71595E+01  5.62239E+01  5.38961E+01  5.06045E+01
   4.70296E+01  4.43985E+01  4.36684E+01  4.49256E+01  4.73861E+01  5.02290E+01  5.28115E+01  5.45514E+01  5.51828E+01  5.47840E+01
   5.38583E+01  5.31006E+01  5.29080E+01  5.31851E+01  5.39272E+01  5.51598E+01  5.64566E+01  5.71796E+01  5.70905E+01  5.63428E+01
   5.50924E+01  5.36447E+01  5.26794E+01  5.26424E+01  5.34287E+01  5.46935E+01  5.60443E+01  5.71010E+01  5.76446E+01  5.78217E+01
   5.78745E+01  5.81034E+01  5.86223E+01  5.94055E+01  6.03999E+01  6.20867E+01  6.57748E+01  7.35124E+01  8.77872E+01  1.05063E+02
   1.17065E+02  1.19685E+02  1.14432E+02  1.03779E+02  9.06917E+01  7.88582E+01  7.05899E+01  6.54149E+01  6.34511E+01  6.28330E+01
   6.26041E+01  6.26452E+01  6.29285E+01  6.33443E+01  6.38166E+01  6.42726E+01  6.46607E+01  6.49591E+01  6.51933E+01  6.54113E+01
   6.56748E+01  6.60329E+01  6.65007E+01  6.70815E+01  6.77719E+01  6.85534E+01  6.94077E+01  7.03297E+01  7.13138E+01  7.23557E+01
   7.34514E+01  7.45943E+01  7.57730E+01  7.69724E+01  7.81757E+01  7.93633E+01  8.05138E+01  8.16060E+01  8.26192E+01  8.35335E+01
   8.43346E+01  8.50108E+01  8.55541E+01  8.59600E+01  8.62295E+01  8.63684E+01  8.63871E+01  8.62990E+01  8.61199E+01  8.58656E+01
   8.55515E+01  8.51914E+01  8.47961E+01  8.43726E+01  8.39238E+01  8.34476E+01  8.29382E+01  8.23859E+01  8.17785E+01  8.11022E+01
   8.03437E+01  7.94941E+01  7.85521E+01  7.75091E+01  7.63515E+01  7.49915E+01  7.32979E+01  7.12593E+01  6.89872E+01  6.65852E+01
   6.41355E+01  6.17193E+01  5.94412E+01  5.73704E+01  5.54670E+01  5.35782E+01  5.16116E+01  4.95696E+01  4.74755E+01  4.53804E+01
   4.33781E+01  4.15477E+01  3.99887E+01  3.87779E+01  3.79089E+01  3.71794E+01  3.58896E+01  3.35594E+01  3.05080E+01  2.73135E+01
   2.43826E+01  2.20736E+01  2.08657E+01  2.11049E+01  2.24059E+01  2.39246E+01  2.49166E+01  2.52352E+01  2.48956E+01  2.40364E+01
   2.29912E+01  2.19901E+01  2.11465E+01  2.05546E+01  2.01100E+01  1.97551E+01  1.94660E+01  1.92305E+01  1.90414E+01  1.88939E+01
   1.87849E+01  1.87124E+01  1.86753E+01  1.86725E+01  1.87041E+01  1.87699E+01  1.88706E+01  1.90068E+01  1.91800E+01  1.93913E+01
   1.96429E+01  1.99363E+01  2.02741E+01  2.06582E+01  2.10913E+01  2.15753E+01  2.21119E+01  2.27024E+01  2.33473E+01  2.40457E+01
   2.47958E+01  2.55940E+01  2.64350E+01  2.73113E+01  2.82136E+01  2.91306E+01  3.00492E+01  3.09546E+01  3.18311E+01  3.26621E+01
   3.34315E+01  3.41239E+01  3.47253E+01  3.52239E+01  3.56108E+01  3.58803E+01  3.60304E+01  3.60628E+01  3.59828E+01  3.57992E+01
   3.55238E+01  3.51703E+01  3.47545E+01  3.42922E+01  3.38000E+01  3.32932E+01  3.27863E+01  3.22920E+01  3.18214E+01  3.13827E+01
   3.09827E+01  3.06256E+01  3.03139E+01  3.00484E+01  2.98285E+01  2.96522E+01  2.95171E+01  2.94198E+01  2.93568E+01  2.93244E+01
   2.93189E+01  2.93366E+01  2.93743E+01  2.94285E+01  2.94968E+01  2.95764E+01  2.96650E+01  2.97607E+01  2.98615E+01  2.99661E+01
   3.00731E+01  3.01812E+01  3.02896E+01  3.03971E+01  3.05031E+01  3.06068E+01  3.07077E+01  3.08051E+01  3.08985E+01  3.09875E+01
   3.10716E+01  3.11505E+01  3.12238E+01  3.12913E+01  3.13529E+01  3.14087E+01  3.14589E+01  3.15034E+01  3.15425E+01  3.15760E+01
   3.16044E+01  3.16274E+01  3.16456E+01  3.16587E+01  3.16672E+01  3.16711E+01  3.16705E+01  3.16655E+01  3.16564E+01  3.16434E+01
   3.16266E+01  3.16060E+01  3.15821E+01  3.15547E+01  3.15243E+01  3.14910E+01  3.14548E+01  3.14160E+01  3.13748E+01  3.13314E+01
   3.12859E+01  3.12385E+01  3.11895E+01  3.11389E+01  3.10870E+01  3.10339E+01  3.09799E+01  3.09251E+01  3.08698E+01  3.08140E+01
   3.07582E+01  3.07022E+01  3.06466E+01  3.05912E+01  3.05365E+01  3.04825E+01  3.04296E+01  3.03778E+01
 NY background values follow
    -2.384E+01   -2.312E+01   -2.241E+01   -2.170E+01   -2.099E+01   -2.028E+01   -1.957E+01   -1.886E+01   -1.815E+01   -1.745E+01
    -1.675E+01   -1.605E+01   -1.535E+01   -1.465E+01   -1.395E+01   -1.326E+01   -1.257E+01   -1.188E+01   -1.119E+01   -1.051E+01
    -9.826E+00   -9.147E+00   -8.470E+00   -7.795E+00   -7.124E+00   -6.455E+00   -5.790E+00   -5.128E+00   -4.468E+00   -3.812E+00
    -3.160E+00   -2.510E+00   -1.865E+00   -1.223E+00   -5.842E-01    5.048E-02    6.813E-01    1.308E+00    1.931E+00    2.550E+00
     3.164E+00    3.774E+00    4.380E+00    4.981E+00    5.578E+00    6.170E+00    6.757E+00    7.340E+00    7.917E+00    8.491E+00
     9.059E+00    9.623E+00    1.018E+01    1.074E+01    1.129E+01    1.183E+01    1.237E+01    1.291E+01    1.344E+01    1.397E+01
     1.449E+01    1.501E+01    1.553E+01    1.604E+01    1.655E+01    1.705E+01    1.755E+01    1.804E+01    1.853E+01    1.901E+01
     1.950E+01    1.997E+01    2.045E+01    2.092E+01    2.138E+01    2.184E+01    2.230E+01    2.275E+01    2.320E+01    2.365E+01
     2.409E+01    2.453E+01    2.496E+01    2.540E+01    2.582E+01    2.625E+01    2.667E+01    2.708E+01    2.750E+01    2.791E+01
     2.831E+01    2.871E+01    2.911E+01    2.951E+01    2.990E+01    3.029E+01    3.067E+01    3.105E+01    3.143E+01    3.181E+01
     3.218E+01    3.255E+01    3.291E+01    3.327E+01    3.363E+01    3.398E+01    3.433E+01    3.468E+01    3.502E+01    3.536E+01
     3.569E+01    3.603E+01    3.635E+01    3.668E+01    3.700E+01    3.732E+01    3.763E+01    3.794E+01    3.825E+01    3.856E+01
     3.885E+01    3.915E+01    3.944E+01    3.973E+01    4.002E+01    4.030E+01    4.058E+01    4.085E+01    4.113E+01    4.139E+01
     4.166E+01    4.192E+01    4.217E+01    4.243E+01    4.268E+01    4.292E+01    4.316E+01    4.340E+01    4.364E+01    4.387E+01
     4.409E+01    4.432E+01    4.454E+01    4.475E+01    4.496E+01    4.517E+01    4.537E+01    4.557E+01    4.577E+01    4.596E+01
     4.614E+01    4.633E+01    4.650E+01    4.668E+01    4.685E+01    4.701E+01    4.717E+01    4.733E+01    4.748E+01    4.763E+01
     4.777E+01    4.791E+01    4.804E+01    4.817E+01    4.829E+01    4.841E+01    4.852E+01    4.863E+01    4.873E+01    4.883E+01
     4.892E+01    4.901E+01    4.910E+01    4.917E+01    4.925E+01    4.931E+01    4.938E+01    4.943E+01    4.948E+01    4.953E+01
     4.957E+01    4.961E+01    4.963E+01    4.966E+01    4.968E+01    4.969E+01    4.971E+01    4.971E+01    4.972E+01    4.972E+01
     4.972E+01    4.971E+01    4.971E+01    4.970E+01    4.969E+01    4.968E+01    4.967E+01    4.966E+01    4.965E+01    4.965E+01
     4.964E+01    4.963E+01    4.963E+01    4.962E+01    4.962E+01    4.962E+01    4.963E+01    4.964E+01    4.965E+01    4.967E+01
     4.969E+01    4.971E+01    4.974E+01    4.978E+01    4.982E+01    4.987E+01    4.992E+01    4.999E+01    5.006E+01    5.013E+01
     5.022E+01    5.031E+01    5.041E+01    5.052E+01    5.065E+01    5.078E+01    5.092E+01    5.107E+01    5.123E+01    5.140E+01
     5.158E+01    5.176E+01    5.196E+01    5.216E+01    5.236E+01    5.258E+01    5.279E+01    5.302E+01    5.324E+01    5.347E+01
     5.370E+01    5.393E+01    5.416E+01    5.440E+01    5.463E+01    5.486E+01    5.510E+01    5.533E+01    5.555E+01    5.578E+01
     5.600E+01    5.621E+01    5.643E+01    5.663E+01    5.683E+01    5.702E+01    5.721E+01    5.738E+01    5.755E+01    5.771E+01
     5.786E+01    5.800E+01    5.812E+01    5.824E+01    5.834E+01    5.843E+01    5.851E+01    5.857E+01    5.862E+01    5.865E+01
     5.866E+01    5.866E+01    5.864E+01    5.861E+01    5.855E+01    5.848E+01    5.840E+01    5.829E+01    5.817E+01    5.804E+01
     5.789E+01    5.772E+01    5.754E+01    5.734E+01    5.713E+01    5.690E+01    5.666E+01    5.640E+01    5.613E+01    5.584E+01
     5.554E+01    5.523E+01    5.490E+01    5.456E+01    5.420E+01    5.384E+01    5.345E+01    5.306E+01    5.266E+01    5.224E+01
     5.181E+01    5.137E+01    5.091E+01    5.045E+01    4.997E+01    4.948E+01    4.898E+01    4.847E+01    4.795E+01    4.742E+01
     4.688E+01    4.633E+01    4.577E+01    4.520E+01    4.462E+01    4.403E+01    4.343E+01    4.283E+01    4.221E+01    4.159E+01
     4.096E+01    4.032E+01    3.968E+01    3.903E+01    3.838E+01    3.773E+01    3.707E+01    3.641E+01    3.575E+01    3.509E+01
     3.443E+01    3.378E+01    3.312E+01    3.247E+01    3.182E+01    3.117E+01    3.053E+01    2.989E+01    2.926E+01    2.864E+01
     2.802E+01    2.741E+01    2.681E+01    2.622E+01    2.565E+01    2.508E+01    2.452E+01    2.398E+01    2.345E+01    2.293E+01
     2.243E+01    2.195E+01    2.148E+01    2.103E+01    2.059E+01    2.018E+01    1.978E+01    1.940E+01    1.904E+01    1.871E+01
     1.840E+01    1.811E+01    1.784E+01    1.759E+01    1.737E+01    1.717E+01    1.700E+01    1.684E+01    1.671E+01    1.659E+01
     1.650E+01    1.642E+01    1.637E+01    1.633E+01    1.631E+01    1.630E+01    1.632E+01    1.635E+01    1.639E+01    1.645E+01
     1.653E+01    1.661E+01    1.671E+01    1.683E+01    1.696E+01    1.709E+01    1.724E+01    1.740E+01    1.758E+01    1.776E+01
     1.795E+01    1.814E+01    1.835E+01    1.856E+01    1.879E+01    1.901E+01    1.925E+01    1.949E+01    1.973E+01    1.998E+01
     2.023E+01    2.049E+01    2.075E+01    2.101E+01    2.127E+01    2.154E+01    2.180E+01    2.207E+01    2.233E+01    2.260E+01
     2.286E+01    2.313E+01    2.339E+01    2.365E+01    2.391E+01    2.417E+01    2.443E+01    2.469E+01    2.494E+01    2.520E+01
     2.545E+01    2.569E+01    2.594E+01    2.618E+01    2.642E+01    2.666E+01    2.690E+01    2.713E+01    2.736E+01    2.758E+01
     2.780E+01    2.802E+01    2.823E+01    2.844E+01    2.864E+01    2.884E+01    2.903E+01    2.922E+01    2.940E+01    2.958E+01
     2.976E+01    2.992E+01    3.009E+01    3.024E+01    3.039E+01    3.054E+01    3.067E+01    3.080E+01    3.093E+01    3.104E+01
     3.115E+01    3.126E+01    3.135E+01    3.144E+01    3.152E+01    3.159E+01    3.166E+01    3.172E+01    3.177E+01    3.182E+01
     3.186E+01    3.189E+01    3.192E+01    3.194E+01    3.196E+01    3.198E+01    3.198E+01    3.199E+01    3.198E+01    3.198E+01
     3.197E+01    3.195E+01    3.193E+01    3.191E+01    3.189E+01    3.186E+01    3.183E+01    3.179E+01    3.175E+01    3.171E+01
     3.167E+01    3.163E+01    3.158E+01    3.153E+01    3.148E+01    3.143E+01    3.138E+01    3.133E+01    3.127E+01    3.122E+01
     3.116E+01    3.111E+01    3.105E+01    3.100E+01    3.095E+01    3.089E+01    3.084E+01    3.079E+01
 Ala      Conc. = 5.42E+01
