 LCModel (Version 6.3-1L) Copyright: S.W. Provencher.          Ref.: Magn. Reson. Med. 30:672-679 (1993).                
 Slice#1 Row#1 Col#9  PD_05_press_2_raw_act
 36 lines in following concentration table = NCONC+1
    Conc.  %SD /Cr+PCr  Metabolite                                         
    0.000 999%   0.000 Ala                                                 
   23.576  67%   0.000 Asp                                                 
    0.000 999%   0.000 Cr                                                  
    0.000 999%   0.000 PCr                                                 
   14.322  66%   0.000 GABA                                                
   13.956  68%   0.000 Glc                                                 
    0.000 999%   0.000 Gln                                                 
    0.000 999%   0.000 Glu                                                 
   11.846 999%   0.000 GPC                                                 
    1.144 999%   0.000 PCh                                                 
    0.000 999%   0.000 GSH                                                 
  957.674  52%   0.000 Ins                                                 
   24.161 999%   0.000 Lac                                                 
  356.450  44%   0.000 NAA                                                 
   75.290 220%   0.000 NAAG                                                
    4.825  65%   0.000 Scyllo                                              
   23.363  67%   0.000 Tau                                                 
 1.28E-02 999%   0.000 -CrCH2                                              
   12.990 325%   0.000 GPC+PCh                                             
  431.740  36%   0.000 NAA+NAAG                                            
    0.000 999%   0.000 Cr+PCr                                              
    0.000 999%   0.000 Glu+Gln                                             
    0.000 999%   0.000 Lip13a                                              
 1.06E+03  47%   0.000 Lip13b                                              
  278.558  52%   0.000 Lip09                                               
  642.267  47%   0.000 MM09                                                
  159.295  53%   0.000 Lip20                                               
 1.14E+03  45%   0.000 MM20                                                
  176.605  80%   0.000 MM12                                                
 1.26E+03  36%   0.000 MM14                                                
    0.000 999%   0.000 MM17                                                
 1.06E+03  47%   0.000 Lip13a+Lip13b                                       
 2.50E+03  20%   0.000 MM14+Lip13a+Lip13b+MM12                             
  920.826  30%   0.000 MM09+Lip09                                          
 1.30E+03  38%   0.000 MM20+Lip20                                          
   6 lines in following misc. output table
  FWHM = 0.054 ppm    S/N =   1                                            
  Data shift =-0.023 ppm                                                   
  Ph: -66 deg      -1.7 deg/ppm                                            
  alphaB,S = 8.5E+01,   2.6E+01                                            
   14 spline knots.   Ns = 5(1)                                            
   2 inflections.     1 extrema                                            
  498 points on ppm-axis = NY
      4.000000     3.992357     3.984714     3.977070     3.969427     3.961784     3.954141     3.946497     3.938854     3.931211
      3.923568     3.915925     3.908281     3.900638     3.892995     3.885352     3.877708     3.870065     3.862422     3.854779
      3.847136     3.839492     3.831849     3.824206     3.816563     3.808919     3.801276     3.793633     3.785990     3.778347
      3.770703     3.763060     3.755417     3.747774     3.740130     3.732487     3.724844     3.717201     3.709558     3.701914
      3.694271     3.686628     3.678985     3.671341     3.663698     3.656055     3.648412     3.640769     3.633125     3.625482
      3.617839     3.610196     3.602552     3.594909     3.587266     3.579623     3.571980     3.564336     3.556693     3.549050
      3.541407     3.533763     3.526120     3.518477     3.510834     3.503191     3.495547     3.487904     3.480261     3.472618
      3.464974     3.457331     3.449688     3.442045     3.434402     3.426758     3.419115     3.411472     3.403829     3.396185
      3.388542     3.380899     3.373256     3.365613     3.357969     3.350326     3.342683     3.335040     3.327396     3.319753
      3.312110     3.304467     3.296824     3.289180     3.281537     3.273894     3.266251     3.258607     3.250964     3.243321
      3.235678     3.228034     3.220391     3.212748     3.205105     3.197462     3.189818     3.182175     3.174532     3.166889
      3.159245     3.151602     3.143959     3.136316     3.128673     3.121029     3.113386     3.105743     3.098100     3.090456
      3.082813     3.075170     3.067527     3.059884     3.052240     3.044597     3.036954     3.029311     3.021667     3.014024
      3.006381     2.998738     2.991095     2.983451     2.975808     2.968165     2.960522     2.952878     2.945235     2.937592
      2.929949     2.922306     2.914662     2.907019     2.899376     2.891733     2.884089     2.876446     2.868803     2.861160
      2.853517     2.845873     2.838230     2.830587     2.822944     2.815300     2.807657     2.800014     2.792371     2.784728
      2.777084     2.769441     2.761798     2.754155     2.746511     2.738868     2.731225     2.723582     2.715939     2.708295
      2.700652     2.693009     2.685366     2.677722     2.670079     2.662436     2.654793     2.647150     2.639506     2.631863
      2.624220     2.616577     2.608933     2.601290     2.593647     2.586004     2.578361     2.570717     2.563074     2.555431
      2.547788     2.540144     2.532501     2.524858     2.517215     2.509572     2.501928     2.494285     2.486642     2.478999
      2.471355     2.463712     2.456069     2.448426     2.440783     2.433139     2.425496     2.417853     2.410210     2.402566
      2.394923     2.387280     2.379637     2.371994     2.364350     2.356707     2.349064     2.341421     2.333777     2.326134
      2.318491     2.310848     2.303205     2.295561     2.287918     2.280275     2.272632     2.264988     2.257345     2.249702
      2.242059     2.234416     2.226772     2.219129     2.211486     2.203843     2.196199     2.188556     2.180913     2.173270
      2.165627     2.157983     2.150340     2.142697     2.135054     2.127410     2.119767     2.112124     2.104481     2.096838
      2.089194     2.081551     2.073908     2.066265     2.058621     2.050978     2.043335     2.035692     2.028049     2.020405
      2.012762     2.005119     1.997476     1.989833     1.982190     1.974546     1.966903     1.959260     1.951617     1.943974
      1.936331     1.928688     1.921045     1.913402     1.905759     1.898115     1.890472     1.882829     1.875186     1.867543
      1.859900     1.852257     1.844614     1.836971     1.829327     1.821684     1.814041     1.806398     1.798755     1.791112
      1.783469     1.775826     1.768183     1.760540     1.752896     1.745253     1.737610     1.729967     1.722324     1.714681
      1.707038     1.699395     1.691752     1.684108     1.676465     1.668822     1.661179     1.653536     1.645893     1.638250
      1.630607     1.622964     1.615321     1.607677     1.600034     1.592391     1.584748     1.577105     1.569462     1.561819
      1.554176     1.546533     1.538890     1.531246     1.523603     1.515960     1.508317     1.500674     1.493031     1.485388
      1.477745     1.470102     1.462458     1.454815     1.447172     1.439529     1.431886     1.424243     1.416600     1.408957
      1.401314     1.393671     1.386027     1.378384     1.370741     1.363098     1.355455     1.347812     1.340169     1.332526
      1.324883     1.317240     1.309596     1.301953     1.294310     1.286667     1.279024     1.271381     1.263738     1.256095
      1.248452     1.240808     1.233165     1.225522     1.217879     1.210236     1.202593     1.194950     1.187307     1.179664
      1.172021     1.164377     1.156734     1.149091     1.141448     1.133805     1.126162     1.118519     1.110876     1.103233
      1.095590     1.087946     1.080303     1.072660     1.065017     1.057374     1.049731     1.042088     1.034445     1.026802
      1.019158     1.011515     1.003872     0.996229     0.988586     0.980943     0.973300     0.965657     0.958014     0.950371
      0.942727     0.935084     0.927441     0.919798     0.912155     0.904512     0.896869     0.889226     0.881583     0.873940
      0.866296     0.858653     0.851010     0.843367     0.835724     0.828081     0.820438     0.812795     0.805152     0.797508
      0.789865     0.782222     0.774579     0.766936     0.759293     0.751650     0.744007     0.736364     0.728721     0.721077
      0.713434     0.705791     0.698148     0.690505     0.682862     0.675219     0.667576     0.659933     0.652290     0.644646
      0.637003     0.629360     0.621717     0.614074     0.606431     0.598788     0.591145     0.583502     0.575858     0.568215
      0.560572     0.552929     0.545286     0.537643     0.530000     0.522357     0.514714     0.507071     0.499427     0.491784
      0.484141     0.476498     0.468855     0.461212     0.453569     0.445925     0.438282     0.430639     0.422996     0.415353
      0.407710     0.400067     0.392424     0.384780     0.377137     0.369494     0.361851     0.354208     0.346565     0.338922
      0.331278     0.323635     0.315992     0.308349     0.300706     0.293063     0.285420     0.277777     0.270133     0.262490
      0.254847     0.247204     0.239561     0.231918     0.224275     0.216631     0.208988     0.201345
 NY phased data points follow
   9.91015E+00  2.52188E+01 -4.00426E+00 -3.15483E+01 -1.63573E+01 -1.69876E+01 -4.94790E+00  3.30728E+00 -2.05501E+01 -1.31765E+01
  -9.47189E+00 -2.06224E-02  1.33972E+00  1.22444E+00 -1.02586E+01 -2.92601E+01 -1.32896E+01  1.22139E+01 -4.62522E+00 -4.13547E-01
   2.57998E+00 -2.23642E+01 -2.14528E+01 -2.57454E+01 -1.33493E+01 -5.54662E-01  3.78005E+00 -8.04540E+00 -4.17175E+00 -1.32098E+01
  -5.96002E+00 -2.31650E+01 -1.93790E+01 -6.03998E+00 -1.35362E+00 -6.58066E+00 -7.66299E+00 -3.01056E+00 -1.77885E+00 -1.62492E+01
  -1.37988E+01 -7.10935E+00  3.81117E+00  1.21994E-01  2.23429E+01  9.72586E-01  3.26921E+00 -6.40911E+00 -6.48836E-01  3.64601E+00
   2.31942E+00 -2.01991E+01 -1.00444E+01 -2.18197E+01 -1.75591E+01 -1.27007E+01  1.24753E-03  2.72942E+00 -7.80984E+00 -9.00152E+00
  -5.10895E+00 -1.83252E+01 -2.80688E+00 -2.15601E+01  4.80946E+00 -3.67553E+00 -8.65066E+00 -1.13117E+01 -1.07791E+01 -8.36054E+00
  -1.29260E+01 -4.99176E+00  8.91807E+00  6.30834E+00  4.58043E-01 -4.69682E+00 -1.25502E+01 -5.11488E+00 -8.62799E+00 -1.42684E+01
  -1.05717E+01  1.01622E+01 -6.96151E+00 -1.05710E+01 -1.16919E+01 -1.21484E+00  3.97204E+00  4.74874E-01 -1.64136E+00  1.50009E+00
  -1.39578E+01 -7.67158E+00 -1.72899E+00 -1.74351E+01 -1.49117E+01  1.41086E+00 -1.18414E+01  1.36440E+00 -1.79392E+01 -8.10975E+00
  -1.18435E+01 -3.23084E+00  3.59802E-01 -5.60179E+00  3.03440E-01 -8.34225E+00 -3.67503E+00 -1.75405E+01 -1.77099E+01 -1.40105E+01
  -1.40778E+01 -1.57603E+00  4.13170E+00 -5.36321E+00 -1.99923E+00 -4.51375E+00 -1.27535E+01 -1.83248E+00 -1.51752E+01 -1.35700E+01
  -3.88852E+00 -3.75445E+00 -1.54498E+01 -9.34124E+00 -1.60862E+01 -8.72290E+00 -1.46936E+01  8.39452E-02  4.16388E+00  1.01583E+01
  -1.23128E+01 -1.84142E+00 -1.19057E+01 -1.12653E+01 -1.27593E+01 -9.56675E-01  6.76710E+00  7.62063E+00  8.03790E+00  6.28826E+00
   6.89993E+00 -1.82134E+01 -1.12415E+01  1.19518E-01 -1.01334E+01 -2.12232E+01  9.70280E+00 -2.51524E-01 -5.13729E+00 -2.01919E+01
  -3.93936E+00 -1.47243E+01 -1.13850E+01  9.61779E+00 -1.45706E+01 -1.02091E+00 -5.42956E+00 -7.63999E+00 -2.92230E+00  8.80408E+00
  -9.95133E-01 -1.16410E+01 -4.20728E+00 -5.33847E+00 -2.08505E+01 -1.66793E+01  1.08020E+00 -1.43267E+01 -5.29171E+00 -1.34347E+01
  -8.40589E+00 -1.24905E+01 -7.47587E+00 -8.81191E+00  4.56115E+00 -2.51240E+01 -1.58304E+01 -1.10398E+01 -1.56288E+01  7.99839E+00
  -1.42396E+01 -1.70602E+01  6.34851E-01  5.68053E+00  5.38547E+00 -1.05698E+01 -7.06209E+00 -4.92743E+00  1.06938E+00  6.83336E+00
  -1.52430E+01 -8.14627E+00  3.56534E+00 -1.61878E+01 -3.26523E+00 -1.67563E+01  1.72585E+01 -9.29987E+00  1.66152E+00 -1.57175E-01
  -3.43452E+00  1.07309E+01 -8.89420E+00 -2.36400E+00  2.44883E+01 -3.56456E+00  1.21515E+01  2.68260E+00 -2.74922E+00  7.18105E+00
  -3.33337E+00  2.13075E+00 -4.99381E+00 -9.44051E+00  7.21686E+00 -3.54259E+00  1.62261E+00 -1.97883E+01 -1.19511E+01 -5.60978E+00
  -8.26638E+00 -1.35680E+01  9.53305E+00  5.03745E+00 -9.07348E+00  1.31213E+01  3.79506E+00 -1.27892E+01 -4.43746E+00 -1.36977E+01
  -7.04179E+00 -1.40302E+01 -1.02863E+01 -1.46247E+01 -2.18209E+00 -1.93227E-01  1.38257E+01  1.77102E+01  2.13764E+00  5.84655E+00
  -3.43238E+00  1.06720E+01  1.66886E+01 -8.54797E-01  1.13865E+01  1.51392E+00  2.11399E+01 -1.05990E+01  1.60813E+01  3.14317E+00
   1.43760E+00 -1.21644E+01 -1.31893E+00  4.63250E+00  6.82570E+00  1.64237E+01  9.74710E+00  2.05294E+00  1.91621E+01  1.34397E+01
   8.75297E+00  1.26583E+01  1.42089E+01  1.82212E+01  3.95364E+00 -1.75597E+01 -9.76397E+00  1.50125E+01  6.36508E-01  2.82702E+01
   8.29271E+00  1.32022E+01 -6.60022E+00 -6.43649E+00 -9.22050E+00 -5.17584E+00  8.53198E+00 -7.66916E+00 -2.08964E+01  3.83594E+00
  -4.98584E+00  1.17237E+01 -3.43103E+00 -5.06834E+00 -2.77761E-01  6.98649E+00  1.12593E+00 -1.52224E+01 -4.18424E+00  1.06395E+01
  -1.56993E+00 -8.82438E+00 -4.56256E+00 -1.22368E+01  1.17270E+00 -9.89680E+00 -4.33718E+00 -9.64260E+00 -1.78959E+01  1.10279E+00
   7.89878E+00 -2.72346E+00 -1.00123E+01 -6.58322E+00 -6.72406E+00  5.65790E+00 -1.01925E+01 -1.58866E+01 -5.42683E+00 -8.75328E+00
  -1.45409E+01 -1.03613E+01 -1.80645E+01 -9.76072E+00 -1.36377E+01 -1.50701E+01 -4.39886E+00 -1.03342E+01 -9.98238E+00 -1.49714E+01
  -1.43955E+01 -1.05566E+01 -6.03640E+00  1.21671E+01  6.10626E+00 -1.77961E+00  1.09217E+01  3.79005E+00  2.06070E+01  1.70069E+00
   3.21420E+00  2.10667E+01  6.53754E+00  1.24006E+01  2.46786E+01  1.96625E+01  1.34950E+01  1.43529E+01  1.38063E+01  8.36882E+00
  -7.14809E+00 -3.15330E+00  9.13048E+00  4.72496E+00  2.13749E+01  2.33499E+01  1.56908E+01  9.35104E+00  2.10457E+01  1.19264E+01
   1.83017E+01  1.13184E+01  1.55942E+01  2.41072E+01  9.66589E+00  2.53702E+01  1.15745E+01  1.81995E+01  2.82530E+00 -1.43386E+00
   1.39380E+00 -6.49550E+00 -8.59162E+00  1.28472E+01  5.80036E-02 -8.07506E-01  6.56440E+00  1.36315E+01 -7.44147E+00  3.63332E+00
  -1.93536E+01 -1.11552E+01  9.17605E+00  5.22988E+00 -4.05804E+00 -4.22732E+00 -8.82882E+00  5.76189E+00  5.14751E+00  2.95226E+00
  -6.34304E+00  8.92429E+00  4.35593E+00 -1.26456E+01 -8.95571E+00  2.15568E+00  4.67311E+00 -6.71517E+00  2.06802E+00 -6.48867E+00
  -6.15583E+00 -2.65885E+00 -9.43495E-01  9.54591E+00  8.91918E+00  3.50973E+00  3.18444E+00  2.45410E+00  1.07676E+01  7.66745E+00
   4.02042E+00  9.66735E+00 -6.08632E+00  7.95658E+00 -3.41135E+00  4.49762E+00  9.12774E+00 -8.88107E+00  9.03716E+00 -1.20087E+00
   6.97378E+00  7.82997E-01 -8.03455E-01  2.72524E+00  7.02914E+00  1.14035E+01  1.51202E+01 -3.62681E+00  3.03269E+00  5.64272E+00
   3.19273E+00 -6.97231E+00  1.57361E+01  1.21152E+01  1.49554E+01  5.03049E+00  1.45816E+01 -5.61626E+00  1.27688E+00 -4.25865E-01
   9.55364E-01  5.02440E-01 -1.50088E+01 -6.82133E+00  4.35495E+00  3.83091E+00  5.10340E+00 -1.58586E+00  4.26687E+00 -2.11363E+00
   1.58488E+00  2.58440E+00 -8.90059E+00 -1.71601E+00  7.02682E+00 -5.83544E-01  3.33846E+00 -1.08324E+01  3.20803E+00  3.29553E+00
   6.64263E+00 -1.26691E-01  4.60482E+00  8.37737E+00 -8.83062E+00  9.18167E+00  6.32152E+00  8.80373E+00  7.44005E+00  1.82530E+01
  -8.52082E+00  1.07491E+01 -2.40827E+00  2.91838E+00 -2.64111E+00  9.64512E+00  6.26818E+00  1.81153E+01 -2.52885E+00 -2.06104E+01
   8.07129E+00 -4.30783E+00 -1.85258E+00 -2.56649E+00 -4.52813E+00  1.16890E+01 -6.99641E+00 -3.48069E+00 -4.77760E+00  1.81372E-01
  -8.45772E+00  4.61058E+00  1.56697E+00 -4.10765E+00 -1.06826E+00  4.70237E+00  1.27837E+01  9.01389E+00 -2.11592E+00  4.70706E+00
   1.28356E+01 -7.00371E-01 -1.03477E+01  2.35336E+00 -1.17383E+01 -9.24452E+00 -1.67778E+01 -1.37414E+00
 NY points of the fit to the data follow
  -6.72518E+00 -7.14668E+00 -7.37834E+00 -7.48864E+00 -7.54471E+00 -7.57598E+00 -7.59099E+00 -7.59133E+00 -7.58319E+00 -7.57334E+00
  -7.56223E+00 -7.54386E+00 -7.51718E+00 -7.49137E+00 -7.47593E+00 -7.47329E+00 -7.47276E+00 -7.46256E+00 -7.44048E+00 -7.40916E+00
  -7.36919E+00 -7.31729E+00 -7.25135E+00 -7.17700E+00 -7.10275E+00 -7.03296E+00 -6.96575E+00 -6.89545E+00 -6.81603E+00 -6.72154E+00
  -6.60187E+00 -6.43637E+00 -6.18019E+00 -5.82152E+00 -5.52674E+00 -5.44466E+00 -5.58804E+00 -5.89716E+00 -6.29879E+00 -6.73187E+00
  -7.10681E+00 -7.16864E+00 -6.41496E+00 -4.67254E+00 -2.50972E+00 -7.22390E-01  2.69813E-01  4.13300E-01 -2.31391E-01 -1.59563E+00
  -3.49586E+00 -5.48606E+00 -7.00614E+00 -7.68811E+00 -7.47558E+00 -6.64989E+00 -5.57818E+00 -4.52705E+00 -3.72919E+00 -3.31072E+00
  -3.30119E+00 -3.65788E+00 -4.25755E+00 -4.95514E+00 -5.54115E+00 -5.85799E+00 -5.81551E+00 -5.39642E+00 -4.78163E+00 -4.19789E+00
  -3.79052E+00 -3.59303E+00 -3.57885E+00 -3.70678E+00 -3.93939E+00 -4.23931E+00 -4.54335E+00 -4.77969E+00 -4.92608E+00 -5.01523E+00
  -5.08020E+00 -5.16775E+00 -5.39981E+00 -5.85254E+00 -6.48704E+00 -7.16234E+00 -7.73965E+00 -8.12041E+00 -8.23397E+00 -8.02800E+00
  -7.52533E+00 -6.79445E+00 -6.04427E+00 -5.52098E+00 -5.33240E+00 -5.44472E+00 -5.75227E+00 -6.11930E+00 -6.37380E+00 -6.47563E+00
  -6.43908E+00 -6.27445E+00 -6.03550E+00 -5.79928E+00 -5.64463E+00 -5.60564E+00 -5.66254E+00 -5.74994E+00 -5.79577E+00 -5.77333E+00
  -5.70891E+00 -5.63370E+00 -5.56092E+00 -5.50002E+00 -5.45619E+00 -5.43032E+00 -5.41502E+00 -5.39924E+00 -5.37705E+00 -5.34465E+00
  -5.29920E+00 -5.23888E+00 -5.16381E+00 -5.07856E+00 -4.99139E+00 -4.90708E+00 -4.82755E+00 -4.75634E+00 -4.69865E+00 -4.65912E+00
  -4.63787E+00 -4.62782E+00 -4.62468E+00 -4.62627E+00 -4.62766E+00 -4.62489E+00 -4.61675E+00 -4.60819E+00 -4.60377E+00 -4.60303E+00
  -4.60332E+00 -4.60067E+00 -4.59671E+00 -4.59616E+00 -4.59907E+00 -4.60320E+00 -4.60824E+00 -4.61644E+00 -4.62991E+00 -4.65129E+00
  -4.67819E+00 -4.70064E+00 -4.71203E+00 -4.70957E+00 -4.69391E+00 -4.68395E+00 -4.71620E+00 -4.78887E+00 -4.87011E+00 -4.92976E+00
  -4.93966E+00 -4.91789E+00 -4.88839E+00 -4.85346E+00 -4.81673E+00 -4.79992E+00 -4.82453E+00 -4.89053E+00 -4.97521E+00 -5.04749E+00
  -5.09761E+00 -5.15054E+00 -5.21395E+00 -5.24731E+00 -5.23608E+00 -5.19603E+00 -5.16369E+00 -5.14097E+00 -5.09908E+00 -5.02118E+00
  -4.92580E+00 -4.85465E+00 -4.83289E+00 -4.80834E+00 -4.71331E+00 -4.55210E+00 -4.36808E+00 -4.19324E+00 -4.03542E+00 -3.88727E+00
  -3.74857E+00 -3.63052E+00 -3.53780E+00 -3.48884E+00 -3.47925E+00 -3.48619E+00 -3.50219E+00 -3.52737E+00 -3.54801E+00 -3.53232E+00
  -3.48331E+00 -3.41000E+00 -3.32045E+00 -3.23329E+00 -3.17494E+00 -3.15631E+00 -3.17708E+00 -3.23679E+00 -3.33850E+00 -3.44054E+00
  -3.49337E+00 -3.48521E+00 -3.42485E+00 -3.32382E+00 -3.18825E+00 -3.02094E+00 -2.83049E+00 -2.63806E+00 -2.46564E+00 -2.31756E+00
  -2.18158E+00 -2.04855E+00 -1.91989E+00 -1.80279E+00 -1.70020E+00 -1.61434E+00 -1.54866E+00 -1.49179E+00 -1.42564E+00 -1.33632E+00
  -1.21246E+00 -1.05397E+00 -8.73185E-01 -6.84584E-01 -4.94862E-01 -3.09394E-01 -1.34971E-01  2.14721E-02  1.68549E-01  3.26939E-01
   5.09716E-01  7.18046E-01  9.44168E-01  1.17651E+00  1.40584E+00  1.62734E+00  1.83503E+00  2.02582E+00  2.20479E+00  2.39135E+00
   2.66980E+00  3.22795E+00  3.98880E+00  4.77129E+00  5.61545E+00  7.21465E+00  9.85585E+00  1.25048E+01  1.43161E+01  1.49757E+01
   1.45686E+01  1.32559E+01  1.10729E+01  8.11659E+00  4.88114E+00  2.18697E+00  5.74759E-01 -1.14949E-01 -3.91291E-01 -5.61047E-01
  -6.94409E-01 -8.06836E-01 -9.09152E-01 -1.00942E+00 -1.11192E+00 -1.21729E+00 -1.32373E+00 -1.42678E+00 -1.51990E+00 -1.59837E+00
  -1.66131E+00 -1.70915E+00 -1.74591E+00 -1.77627E+00 -1.80253E+00 -1.82623E+00 -1.84838E+00 -1.86584E+00 -1.87567E+00 -1.87738E+00
  -1.87192E+00 -1.86045E+00 -1.84397E+00 -1.82445E+00 -1.80535E+00 -1.78776E+00 -1.77039E+00 -1.75062E+00 -1.72577E+00 -1.69476E+00
  -1.65754E+00 -1.61410E+00 -1.56472E+00 -1.51025E+00 -1.45164E+00 -1.38894E+00 -1.32101E+00 -1.24633E+00 -1.16353E+00 -1.07126E+00
  -9.68043E-01 -8.52280E-01 -7.22277E-01 -5.76274E-01 -4.12452E-01 -2.28950E-01 -2.39439E-02  2.04206E-01  4.56792E-01  7.34635E-01
   1.03802E+00  1.36659E+00  1.71926E+00  2.09400E+00  2.48777E+00  2.89655E+00  3.31533E+00  3.73821E+00  4.15851E+00  4.56889E+00
   4.96165E+00  5.32904E+00  5.66370E+00  5.95910E+00  6.21005E+00  6.41341E+00  6.56900E+00  6.68079E+00  6.75843E+00  6.81902E+00
   6.88934E+00  7.00937E+00  7.23295E+00  7.58354E+00  8.06738E+00  8.71607E+00  9.56032E+00  1.06032E+01  1.18029E+01  1.30785E+01
   1.43504E+01  1.55036E+01  1.63775E+01  1.68089E+01  1.66760E+01  1.59397E+01  1.46496E+01  1.29199E+01  1.09062E+01  8.78992E+00
   6.75310E+00  4.94015E+00  3.42973E+00  2.24072E+00  1.35493E+00  7.32435E-01  3.22162E-01  7.17174E-02 -6.56921E-02 -1.27714E-01
  -1.42070E-01 -1.27542E-01 -9.58209E-02 -5.34869E-02 -3.72294E-03  5.24047E-02  1.15078E-01  1.85181E-01  2.63956E-01  3.52820E-01
   4.53263E-01  5.66811E-01  6.94999E-01  8.39330E-01  1.00122E+00  1.18191E+00  1.38243E+00  1.60349E+00  1.84543E+00  2.10804E+00
   2.39048E+00  2.69115E+00  3.00761E+00  3.33652E+00  3.67363E+00  4.01379E+00  4.35101E+00  4.67858E+00  4.98937E+00  5.27598E+00
   5.53114E+00  5.74796E+00  5.92027E+00  6.04296E+00  6.11224E+00  6.12591E+00  6.08342E+00  5.98592E+00  5.83622E+00  5.63866E+00
   5.39888E+00  5.12355E+00  4.82000E+00  4.49590E+00  4.15890E+00  3.81637E+00  3.47511E+00  3.14113E+00  2.81953E+00  2.51439E+00
   2.22878E+00  1.96481E+00  1.72369E+00  1.50585E+00  1.31102E+00  1.13842E+00  9.86877E-01  8.54942E-01  7.41015E-01  6.43412E-01
   5.60435E-01  4.90438E-01  4.31884E-01  3.83361E-01  3.43589E-01  3.11410E-01  2.85794E-01  2.65842E-01  2.50786E-01  2.39968E-01
   2.32817E-01  2.28833E-01  2.27586E-01  2.28714E-01  2.31920E-01  2.36951E-01  2.43583E-01  2.51611E-01  2.60861E-01  2.71196E-01
   2.82502E-01  2.94679E-01  3.07626E-01  3.21252E-01  3.35481E-01  3.50260E-01  3.65543E-01  3.81283E-01  3.97427E-01  4.13927E-01
   4.30751E-01  4.47880E-01  4.65293E-01  4.82962E-01  5.00854E-01  5.18945E-01  5.37223E-01  5.55684E-01  5.74315E-01  5.93095E-01
   6.12004E-01  6.31029E-01  6.50171E-01  6.69431E-01  6.88797E-01  7.08252E-01  7.27784E-01  7.47390E-01  7.67077E-01  7.86844E-01
   8.06682E-01  8.26576E-01  8.46519E-01  8.66518E-01  8.86580E-01  9.06704E-01  9.26878E-01  9.47092E-01  9.67348E-01  9.87657E-01
   1.00802E+00  1.02845E+00  1.04892E+00  1.06943E+00  1.08999E+00  1.11062E+00  1.13132E+00  1.15209E+00
 NY background values follow
    -8.327E+00   -8.307E+00   -8.287E+00   -8.268E+00   -8.248E+00   -8.228E+00   -8.209E+00   -8.189E+00   -8.169E+00   -8.150E+00
    -8.130E+00   -8.110E+00   -8.090E+00   -8.071E+00   -8.051E+00   -8.031E+00   -8.012E+00   -7.992E+00   -7.972E+00   -7.953E+00
    -7.933E+00   -7.913E+00   -7.894E+00   -7.874E+00   -7.854E+00   -7.835E+00   -7.815E+00   -7.795E+00   -7.776E+00   -7.756E+00
    -7.736E+00   -7.717E+00   -7.697E+00   -7.677E+00   -7.657E+00   -7.638E+00   -7.618E+00   -7.598E+00   -7.579E+00   -7.559E+00
    -7.539E+00   -7.520E+00   -7.500E+00   -7.480E+00   -7.460E+00   -7.441E+00   -7.421E+00   -7.401E+00   -7.382E+00   -7.362E+00
    -7.342E+00   -7.323E+00   -7.303E+00   -7.283E+00   -7.263E+00   -7.244E+00   -7.224E+00   -7.204E+00   -7.185E+00   -7.165E+00
    -7.145E+00   -7.125E+00   -7.106E+00   -7.086E+00   -7.066E+00   -7.047E+00   -7.027E+00   -7.007E+00   -6.987E+00   -6.968E+00
    -6.948E+00   -6.928E+00   -6.909E+00   -6.889E+00   -6.869E+00   -6.849E+00   -6.830E+00   -6.810E+00   -6.790E+00   -6.771E+00
    -6.751E+00   -6.731E+00   -6.711E+00   -6.692E+00   -6.672E+00   -6.652E+00   -6.632E+00   -6.613E+00   -6.593E+00   -6.573E+00
    -6.554E+00   -6.534E+00   -6.514E+00   -6.494E+00   -6.475E+00   -6.455E+00   -6.435E+00   -6.416E+00   -6.396E+00   -6.376E+00
    -6.356E+00   -6.337E+00   -6.317E+00   -6.297E+00   -6.277E+00   -6.258E+00   -6.238E+00   -6.218E+00   -6.198E+00   -6.179E+00
    -6.159E+00   -6.139E+00   -6.120E+00   -6.100E+00   -6.080E+00   -6.060E+00   -6.041E+00   -6.021E+00   -6.001E+00   -5.981E+00
    -5.962E+00   -5.942E+00   -5.922E+00   -5.902E+00   -5.883E+00   -5.863E+00   -5.843E+00   -5.824E+00   -5.804E+00   -5.784E+00
    -5.764E+00   -5.745E+00   -5.725E+00   -5.705E+00   -5.685E+00   -5.666E+00   -5.646E+00   -5.626E+00   -5.606E+00   -5.587E+00
    -5.567E+00   -5.547E+00   -5.528E+00   -5.508E+00   -5.488E+00   -5.468E+00   -5.449E+00   -5.429E+00   -5.409E+00   -5.389E+00
    -5.370E+00   -5.350E+00   -5.330E+00   -5.310E+00   -5.291E+00   -5.271E+00   -5.251E+00   -5.232E+00   -5.212E+00   -5.192E+00
    -5.172E+00   -5.153E+00   -5.133E+00   -5.113E+00   -5.093E+00   -5.074E+00   -5.054E+00   -5.034E+00   -5.014E+00   -4.995E+00
    -4.975E+00   -4.955E+00   -4.936E+00   -4.916E+00   -4.896E+00   -4.876E+00   -4.857E+00   -4.837E+00   -4.817E+00   -4.797E+00
    -4.778E+00   -4.758E+00   -4.738E+00   -4.719E+00   -4.699E+00   -4.679E+00   -4.659E+00   -4.640E+00   -4.620E+00   -4.600E+00
    -4.581E+00   -4.561E+00   -4.541E+00   -4.521E+00   -4.502E+00   -4.482E+00   -4.462E+00   -4.442E+00   -4.423E+00   -4.403E+00
    -4.383E+00   -4.364E+00   -4.344E+00   -4.324E+00   -4.304E+00   -4.285E+00   -4.265E+00   -4.245E+00   -4.226E+00   -4.206E+00
    -4.186E+00   -4.166E+00   -4.147E+00   -4.127E+00   -4.107E+00   -4.088E+00   -4.068E+00   -4.048E+00   -4.028E+00   -4.009E+00
    -3.989E+00   -3.969E+00   -3.950E+00   -3.930E+00   -3.910E+00   -3.891E+00   -3.871E+00   -3.851E+00   -3.831E+00   -3.812E+00
    -3.792E+00   -3.772E+00   -3.753E+00   -3.733E+00   -3.713E+00   -3.694E+00   -3.674E+00   -3.654E+00   -3.634E+00   -3.615E+00
    -3.595E+00   -3.575E+00   -3.556E+00   -3.536E+00   -3.516E+00   -3.497E+00   -3.477E+00   -3.457E+00   -3.438E+00   -3.418E+00
    -3.398E+00   -3.379E+00   -3.359E+00   -3.339E+00   -3.320E+00   -3.300E+00   -3.280E+00   -3.260E+00   -3.241E+00   -3.221E+00
    -3.201E+00   -3.182E+00   -3.162E+00   -3.142E+00   -3.123E+00   -3.103E+00   -3.083E+00   -3.064E+00   -3.044E+00   -3.024E+00
    -3.005E+00   -2.985E+00   -2.965E+00   -2.946E+00   -2.926E+00   -2.907E+00   -2.887E+00   -2.867E+00   -2.848E+00   -2.828E+00
    -2.808E+00   -2.789E+00   -2.769E+00   -2.749E+00   -2.730E+00   -2.710E+00   -2.690E+00   -2.671E+00   -2.651E+00   -2.631E+00
    -2.612E+00   -2.592E+00   -2.573E+00   -2.553E+00   -2.533E+00   -2.514E+00   -2.494E+00   -2.474E+00   -2.455E+00   -2.435E+00
    -2.415E+00   -2.396E+00   -2.376E+00   -2.357E+00   -2.337E+00   -2.317E+00   -2.298E+00   -2.278E+00   -2.259E+00   -2.239E+00
    -2.219E+00   -2.200E+00   -2.180E+00   -2.160E+00   -2.141E+00   -2.121E+00   -2.102E+00   -2.082E+00   -2.062E+00   -2.043E+00
    -2.023E+00   -2.004E+00   -1.984E+00   -1.964E+00   -1.945E+00   -1.925E+00   -1.906E+00   -1.886E+00   -1.866E+00   -1.847E+00
    -1.827E+00   -1.808E+00   -1.788E+00   -1.769E+00   -1.749E+00   -1.729E+00   -1.710E+00   -1.690E+00   -1.671E+00   -1.651E+00
    -1.632E+00   -1.612E+00   -1.592E+00   -1.573E+00   -1.553E+00   -1.534E+00   -1.514E+00   -1.495E+00   -1.475E+00   -1.456E+00
    -1.436E+00   -1.416E+00   -1.397E+00   -1.377E+00   -1.358E+00   -1.338E+00   -1.319E+00   -1.299E+00   -1.280E+00   -1.260E+00
    -1.241E+00   -1.221E+00   -1.202E+00   -1.182E+00   -1.162E+00   -1.143E+00   -1.123E+00   -1.104E+00   -1.084E+00   -1.065E+00
    -1.045E+00   -1.026E+00   -1.006E+00   -9.868E-01   -9.673E-01   -9.478E-01   -9.283E-01   -9.088E-01   -8.893E-01   -8.698E-01
    -8.503E-01   -8.308E-01   -8.113E-01   -7.918E-01   -7.723E-01   -7.529E-01   -7.334E-01   -7.139E-01   -6.944E-01   -6.749E-01
    -6.555E-01   -6.360E-01   -6.165E-01   -5.970E-01   -5.776E-01   -5.581E-01   -5.387E-01   -5.192E-01   -4.997E-01   -4.803E-01
    -4.608E-01   -4.414E-01   -4.219E-01   -4.025E-01   -3.830E-01   -3.636E-01   -3.441E-01   -3.247E-01   -3.053E-01   -2.858E-01
    -2.664E-01   -2.470E-01   -2.275E-01   -2.081E-01   -1.887E-01   -1.693E-01   -1.498E-01   -1.304E-01   -1.110E-01   -9.158E-02
    -7.217E-02   -5.276E-02   -3.336E-02   -1.395E-02    5.450E-03    2.485E-02    4.425E-02    6.364E-02    8.304E-02    1.024E-01
     1.218E-01    1.412E-01    1.606E-01    1.800E-01    1.993E-01    2.187E-01    2.381E-01    2.575E-01    2.768E-01    2.962E-01
     3.156E-01    3.349E-01    3.543E-01    3.736E-01    3.930E-01    4.123E-01    4.317E-01    4.510E-01    4.704E-01    4.897E-01
     5.091E-01    5.284E-01    5.477E-01    5.671E-01    5.864E-01    6.057E-01    6.251E-01    6.444E-01    6.637E-01    6.830E-01
     7.023E-01    7.216E-01    7.409E-01    7.603E-01    7.796E-01    7.989E-01    8.182E-01    8.375E-01    8.567E-01    8.760E-01
     8.953E-01    9.146E-01    9.339E-01    9.532E-01    9.725E-01    9.917E-01    1.011E+00    1.030E+00    1.050E+00    1.069E+00
     1.088E+00    1.107E+00    1.127E+00    1.146E+00    1.165E+00    1.184E+00    1.204E+00    1.223E+00    1.242E+00    1.261E+00
     1.281E+00    1.300E+00    1.319E+00    1.338E+00    1.357E+00    1.377E+00    1.396E+00    1.415E+00
 Asp      Conc. = 2.36E+01
