 LCModel (Version 6.3-1L) Copyright: S.W. Provencher.          Ref.: Magn. Reson. Med. 30:672-679 (1993).                
 Slice#1 Row#3 Col#7  PD_05_press_2_raw_act
 36 lines in following concentration table = NCONC+1
    Conc.  %SD /Cr+PCr  Metabolite                                         
  322.211 118%   0.228 Ala                                                 
  374.891  81%   0.265 Asp                                                 
 1.02E+03  67%   0.719 Cr                                                  
  397.811 171%   0.281 PCr                                                 
  187.633  98%   0.133 GABA                                                
  207.018  89%   0.146 Glc                                                 
    0.000 999%   0.000 Gln                                                 
  374.390 228%   0.265 Glu                                                 
  195.917 275%   0.139 GPC                                                 
  290.228 186%   0.205 PCh                                                 
  131.683 188% 9.3E-02 GSH                                                 
 1.05E+03  79%   0.741 Ins                                                 
    0.000 999%   0.000 Lac                                                 
 2.40E+03  17%   1.696 NAA                                                 
  848.271  47%   0.600 NAAG                                                
   80.979  67% 5.7E-02 Scyllo                                              
  352.069  84%   0.249 Tau                                                 
  411.660  66%   0.291 -CrCH2                                              
  486.146  15%   0.344 GPC+PCh                                             
 3.25E+03   8%   2.296 NAA+NAAG                                            
 1.41E+03  14%   1.000 Cr+PCr                                              
  374.390 228%   0.265 Glu+Gln                                             
 2.80E+03  37%   1.978 Lip13a                                              
    0.000 999%   0.000 Lip13b                                              
  775.289  57%   0.548 Lip09                                               
 1.21E+03  46%   0.853 MM09                                                
  369.699  80%   0.262 Lip20                                               
 1.74E+03  52%   1.232 MM20                                                
  388.558  69%   0.275 MM12                                                
  669.945 109%   0.474 MM14                                                
  397.285 115%   0.281 MM17                                                
 2.80E+03  37%   1.978 Lip13a+Lip13b                                       
 3.85E+03  23%   2.727 MM14+Lip13a+Lip13b+MM12                             
 1.98E+03  23%   1.402 MM09+Lip09                                          
 2.11E+03  41%   1.493 MM20+Lip20                                          
   6 lines in following misc. output table
  FWHM = 0.054 ppm    S/N =   4                                            
  Data shift = 0.038 ppm                                                   
  Ph: -20 deg       6.8 deg/ppm                                            
  alphaB,S = 8.5E+01,   5.1E+01                                            
   14 spline knots.   Ns = 7(1)                                            
   2 inflections.     1 extrema                                            
  498 points on ppm-axis = NY
      4.000000     3.992357     3.984714     3.977070     3.969427     3.961784     3.954141     3.946497     3.938854     3.931211
      3.923568     3.915925     3.908281     3.900638     3.892995     3.885352     3.877708     3.870065     3.862422     3.854779
      3.847136     3.839492     3.831849     3.824206     3.816563     3.808919     3.801276     3.793633     3.785990     3.778347
      3.770703     3.763060     3.755417     3.747774     3.740130     3.732487     3.724844     3.717201     3.709558     3.701914
      3.694271     3.686628     3.678985     3.671341     3.663698     3.656055     3.648412     3.640769     3.633125     3.625482
      3.617839     3.610196     3.602552     3.594909     3.587266     3.579623     3.571980     3.564336     3.556693     3.549050
      3.541407     3.533763     3.526120     3.518477     3.510834     3.503191     3.495547     3.487904     3.480261     3.472618
      3.464974     3.457331     3.449688     3.442045     3.434402     3.426758     3.419115     3.411472     3.403829     3.396185
      3.388542     3.380899     3.373256     3.365613     3.357969     3.350326     3.342683     3.335040     3.327396     3.319753
      3.312110     3.304467     3.296824     3.289180     3.281537     3.273894     3.266251     3.258607     3.250964     3.243321
      3.235678     3.228034     3.220391     3.212748     3.205105     3.197462     3.189818     3.182175     3.174532     3.166889
      3.159245     3.151602     3.143959     3.136316     3.128673     3.121029     3.113386     3.105743     3.098100     3.090456
      3.082813     3.075170     3.067527     3.059884     3.052240     3.044597     3.036954     3.029311     3.021667     3.014024
      3.006381     2.998738     2.991095     2.983451     2.975808     2.968165     2.960522     2.952878     2.945235     2.937592
      2.929949     2.922306     2.914662     2.907019     2.899376     2.891733     2.884089     2.876446     2.868803     2.861160
      2.853517     2.845873     2.838230     2.830587     2.822944     2.815300     2.807657     2.800014     2.792371     2.784728
      2.777084     2.769441     2.761798     2.754155     2.746511     2.738868     2.731225     2.723582     2.715939     2.708295
      2.700652     2.693009     2.685366     2.677722     2.670079     2.662436     2.654793     2.647150     2.639506     2.631863
      2.624220     2.616577     2.608933     2.601290     2.593647     2.586004     2.578361     2.570717     2.563074     2.555431
      2.547788     2.540144     2.532501     2.524858     2.517215     2.509572     2.501928     2.494285     2.486642     2.478999
      2.471355     2.463712     2.456069     2.448426     2.440783     2.433139     2.425496     2.417853     2.410210     2.402566
      2.394923     2.387280     2.379637     2.371994     2.364350     2.356707     2.349064     2.341421     2.333777     2.326134
      2.318491     2.310848     2.303205     2.295561     2.287918     2.280275     2.272632     2.264988     2.257345     2.249702
      2.242059     2.234416     2.226772     2.219129     2.211486     2.203843     2.196199     2.188556     2.180913     2.173270
      2.165627     2.157983     2.150340     2.142697     2.135054     2.127410     2.119767     2.112124     2.104481     2.096838
      2.089194     2.081551     2.073908     2.066265     2.058621     2.050978     2.043335     2.035692     2.028049     2.020405
      2.012762     2.005119     1.997476     1.989833     1.982190     1.974546     1.966903     1.959260     1.951617     1.943974
      1.936331     1.928688     1.921045     1.913402     1.905759     1.898115     1.890472     1.882829     1.875186     1.867543
      1.859900     1.852257     1.844614     1.836971     1.829327     1.821684     1.814041     1.806398     1.798755     1.791112
      1.783469     1.775826     1.768183     1.760540     1.752896     1.745253     1.737610     1.729967     1.722324     1.714681
      1.707038     1.699395     1.691752     1.684108     1.676465     1.668822     1.661179     1.653536     1.645893     1.638250
      1.630607     1.622964     1.615321     1.607677     1.600034     1.592391     1.584748     1.577105     1.569462     1.561819
      1.554176     1.546533     1.538890     1.531246     1.523603     1.515960     1.508317     1.500674     1.493031     1.485388
      1.477745     1.470102     1.462458     1.454815     1.447172     1.439529     1.431886     1.424243     1.416600     1.408957
      1.401314     1.393671     1.386027     1.378384     1.370741     1.363098     1.355455     1.347812     1.340169     1.332526
      1.324883     1.317240     1.309596     1.301953     1.294310     1.286667     1.279024     1.271381     1.263738     1.256095
      1.248452     1.240808     1.233165     1.225522     1.217879     1.210236     1.202593     1.194950     1.187307     1.179664
      1.172021     1.164377     1.156734     1.149091     1.141448     1.133805     1.126162     1.118519     1.110876     1.103233
      1.095590     1.087946     1.080303     1.072660     1.065017     1.057374     1.049731     1.042088     1.034445     1.026802
      1.019158     1.011515     1.003872     0.996229     0.988586     0.980943     0.973300     0.965657     0.958014     0.950371
      0.942727     0.935084     0.927441     0.919798     0.912155     0.904512     0.896869     0.889226     0.881583     0.873940
      0.866296     0.858653     0.851010     0.843367     0.835724     0.828081     0.820438     0.812795     0.805152     0.797508
      0.789865     0.782222     0.774579     0.766936     0.759293     0.751650     0.744007     0.736364     0.728721     0.721077
      0.713434     0.705791     0.698148     0.690505     0.682862     0.675219     0.667576     0.659933     0.652290     0.644646
      0.637003     0.629360     0.621717     0.614074     0.606431     0.598788     0.591145     0.583502     0.575858     0.568215
      0.560572     0.552929     0.545286     0.537643     0.530000     0.522357     0.514714     0.507071     0.499427     0.491784
      0.484141     0.476498     0.468855     0.461212     0.453569     0.445925     0.438282     0.430639     0.422996     0.415353
      0.407710     0.400067     0.392424     0.384780     0.377137     0.369494     0.361851     0.354208     0.346565     0.338922
      0.331278     0.323635     0.315992     0.308349     0.300706     0.293063     0.285420     0.277777     0.270133     0.262490
      0.254847     0.247204     0.239561     0.231918     0.224275     0.216631     0.208988     0.201345
 NY phased data points follow
   1.22854E+01  6.89447E+00  3.70508E+00  4.59595E-01  3.34656E+01  1.33105E+01 -5.21007E+00 -6.79234E+00  1.98010E+01  4.98593E+00
   3.11263E+01  2.73817E+01  5.05388E+01  1.62993E+01 -6.37372E+00  6.07686E+00  7.93145E+00  1.55013E+01 -5.97843E+00 -1.49891E+01
   5.36270E+00 -8.65532E+00  2.28305E+01  3.55202E+00  1.24391E+00  1.23050E+01  1.87249E+00  1.99069E+01  7.20851E+00 -4.51180E+00
   8.86200E+00 -3.74786E+00 -6.17333E+00  1.03099E+01  1.60356E+01 -1.92567E+01  5.55091E+00 -8.69246E+00  2.46619E+01  2.53156E+01
   2.51012E+01  4.90262E+00 -9.82498E+00  7.58768E+00  1.31560E+01  5.42107E+00  1.83962E+01  7.18505E+00  1.03096E+01  6.72242E+00
   8.67056E+00  3.12804E+01  7.73617E+00  5.13588E+00  3.43893E+01  4.25855E+00  1.63761E+01 -4.42072E+00  1.42776E+00  1.31916E+01
   1.43045E+01  1.34667E+00  2.01838E+01  4.11823E+00  9.19783E+00  6.48380E-01  2.23408E+01  1.17344E+01  6.36778E+00 -2.02138E+01
  -6.72609E+00  8.43999E+00  1.35433E+01 -1.09483E+01  3.79053E+00 -3.29327E+00 -1.45180E+01  2.91046E+01  6.99653E+00  2.15274E+01
   6.24680E+00  3.49053E+00  3.67410E-01  7.00830E+00  8.29274E+00  8.58803E+00 -2.26085E-02 -1.11274E+01  1.95505E+01  1.00126E+01
   3.04706E+01  1.11800E+01  1.16392E+01  9.52646E+00  2.48966E+01  1.52705E+01  8.82626E+00  1.42200E+01  2.82534E+01 -6.12691E+00
   2.19857E+01  4.76294E+01  4.43135E+01  5.09800E+01  5.44620E+01  4.93292E+01  3.12703E+01  1.99425E+01  8.76111E+00  5.46503E+00
   1.03898E+01  1.03498E+00  2.80394E+01  1.88091E+01  6.15017E+00  7.83963E+00 -2.16979E+00  3.63683E+00 -1.38106E+00  1.75353E+01
  -2.42531E+00  1.47305E+00 -5.43226E+00  1.06754E+01  2.17504E+01  4.93357E+01  5.11370E+01  5.20766E+01  5.10213E+01  3.13829E+01
   5.45097E+01  2.65516E+01  1.63119E+01  2.54446E+01  5.73051E+00  1.11210E+01  2.74042E+01  1.17183E+01  5.30874E+00  3.52477E+01
   2.54272E+01  1.19282E+01  1.70965E+01  1.53012E+01  4.23723E+00 -1.77055E+01  2.87637E+01  7.72434E+00  3.02563E+00 -4.75515E+00
  -5.20840E+00  1.57990E+01 -1.06276E+01  1.87578E+01 -5.03391E+00 -1.47697E+01  2.43184E+00 -1.88405E+01  1.70085E+01  3.85371E+00
  -2.01226E+01 -1.88829E+01 -5.03220E+00 -8.90243E+00 -6.58914E+00 -1.04749E+01  1.13284E+01 -1.42090E-02  2.63731E-03 -2.52623E+01
  -1.66043E-01 -1.60584E+01 -2.12988E+00 -2.57685E+00 -6.15951E+00 -2.40581E+01 -1.32112E+01  9.57935E-01  2.22161E+00  1.99763E+00
  -2.99545E+01 -1.55616E+01 -2.04587E+00 -3.69676E+00 -5.56889E+00 -2.41860E+01  1.61918E+00 -1.48656E+01 -8.00144E-01  2.84024E+00
  -1.02959E+00  4.77457E+00  2.98158E+00 -1.69167E+01 -3.07653E+01 -1.39277E+01 -1.25595E+01  7.82752E+00 -1.95095E+01 -1.46686E+01
  -1.62914E+01 -2.31350E+01  3.98456E+00 -1.60161E+01  1.17537E+01 -8.37045E+00  1.04715E+01  2.62530E+00  1.47825E+01 -1.41552E+01
  -2.76935E+00  1.33731E+01  6.17745E+00  8.48967E-01 -7.90837E+00  3.08005E+01  1.76571E+01  1.16645E+01 -6.74895E+00  6.89334E+00
   1.35617E+01 -1.88611E+01  1.03941E+00  1.21904E+01 -1.08380E+01  8.83031E+00 -5.05564E-01  2.72998E+00 -2.71902E-01 -2.17160E+00
   1.74646E+00 -6.56315E+00  7.21400E+00 -1.28151E+01  8.12243E+00 -1.24651E+01  1.26565E+01  1.30679E+01  2.10964E+01 -2.55044E+01
   9.90172E+00 -8.62225E+00  1.92628E+01  1.06830E+01 -7.24434E+00 -7.10617E+00  3.43418E-01  1.51589E+01  2.47574E+01  4.36622E+00
   2.71468E+01  2.81828E+01  2.97850E+01  3.98971E+01  3.45795E+01  3.95624E+01  6.46393E+01  6.30254E+01  9.11692E+01  9.39629E+01
   1.05331E+02  9.93247E+01  9.27584E+01  4.39559E+01  5.72053E+01  5.03864E+01  1.17421E+01 -1.83499E+00  1.09929E+01 -1.30556E+01
  -3.71149E+00  1.85232E+00 -1.49765E+01 -4.75918E+00  1.40387E+01  6.15542E+00  1.17991E+00  1.88147E+00 -9.84225E+00  2.07720E+00
  -7.45257E-01 -2.48353E+01 -6.07892E+00 -1.65044E+00 -1.64407E+01 -1.65174E+01 -1.11234E-01  1.02645E+01 -4.66230E+00 -1.16857E+01
   8.64886E-02 -5.69367E+00 -2.69101E+01 -1.34488E+01 -3.25298E+00  6.12728E+00  7.10392E-01 -7.00581E+00  1.42415E+00 -4.22072E-01
  -1.64046E+01  3.60130E-01 -2.48356E+01  7.04154E+00  2.76401E+01  2.06399E+00 -1.32971E+01 -3.46692E+00  1.61329E+01 -3.67082E+00
   2.79883E+00 -3.68301E+00  3.71033E+00  1.36294E+01  7.04049E+00  6.31489E+00  4.68300E+00  7.87256E+00  2.30249E+01  1.38658E+01
   1.62029E+01  6.96921E-01  1.67688E+01  1.05125E+01 -3.07062E+00  1.76336E+01 -1.23573E+00  4.35092E+00  8.08425E+00  4.73246E+00
  -1.14102E+01 -6.58684E+00  1.81049E+00  1.52038E+01  9.03742E+00 -1.58717E+01  1.36201E+01 -6.11224E+00  6.59496E+00  1.15753E+01
  -3.55367E+00  1.31121E+00  2.25498E+01 -1.32268E+01 -1.30000E+00  1.50290E+00 -1.97939E+01  3.98807E+00  4.82592E+01  1.38151E+01
   1.20707E+01  1.16557E+01  2.47994E+01  3.78073E+00  1.76327E+01 -2.33994E+01  2.27164E+01  3.65438E+00  1.00803E+01  9.55339E+00
   1.95616E+01  5.71062E+00  1.55443E+01  1.73351E+01 -5.79266E+00  2.55006E+01  2.36700E+01  3.75965E+01  7.38835E+00  1.44871E+01
   2.36937E+01 -4.35234E+00 -5.58321E+00 -7.55405E+00 -2.95863E+00  1.92080E+01  9.22484E+00  1.12124E+01  3.08642E+00 -2.09809E+01
  -1.48960E+01  3.69418E+00  1.69593E+01  1.51415E+01  3.06015E+00  1.46114E+01 -3.60390E+01 -8.71631E+00  5.31860E+00 -9.56830E+00
   1.25212E+01  3.06235E+01 -4.63247E+00 -1.95633E+00 -2.06098E+00 -9.45429E+00  2.04798E+01  1.44070E+01  2.81504E+01  1.36143E+01
   2.47025E+01  1.30852E+01  1.23514E+01  7.18965E+00 -2.03400E+00  1.42666E+01  7.17788E+00  7.59532E+00  1.51468E+00  1.59770E+01
   1.07761E+00 -9.49227E-02  9.09731E+00  7.32676E+00  2.50190E+01  1.21154E+01  2.76225E+00 -9.81316E+00 -6.83443E-01 -8.85786E+00
   1.55017E+00  1.38785E+01  1.06032E+00 -4.79627E+00 -1.20532E+00  1.06546E+01 -5.00098E+00  1.16824E-02 -1.71033E+01  1.84496E+01
  -3.28686E+00  3.01543E+00 -4.67552E+00  1.79763E+01 -1.57192E+01 -1.10764E+01 -4.76516E+00 -1.81609E+01  1.96737E+00  8.94795E+00
   1.09486E+01 -2.15685E+00  2.14591E+01 -2.56001E+01  1.71981E+00 -2.28478E+01 -5.77634E+00  2.92308E+01 -2.07405E+01  1.37438E+01
  -1.71394E+01 -1.16723E+01 -4.79205E+00  2.14778E+01  3.54416E+00 -4.48047E+00 -3.66657E+01 -2.54792E+01  1.56482E+01 -3.41123E+01
  -1.78769E+01  1.68356E+01 -1.67950E+01 -2.81467E+01 -1.33842E+01  5.96532E-01 -1.77527E+00  2.54036E+00  1.81389E+00  1.02485E+01
   1.12142E+01 -5.83346E+00 -1.81941E+01 -7.26198E-01 -1.12628E+01  2.36070E+00 -1.05328E+01  1.43674E+01 -1.41567E+01 -9.63778E+00
  -1.23401E+01 -8.72465E+00  2.41639E+01 -1.70384E+01  1.53709E+01  7.98037E+00 -1.10221E+01 -1.27719E+01 -1.17036E+01 -2.05297E+00
   2.69015E+00 -1.07957E+01 -1.19116E+01  1.01309E+01  1.90810E+00 -1.25738E+01 -1.39867E+01  2.71913E-01
 NY points of the fit to the data follow
   5.99971E+00  5.55378E+00  5.32573E+00  5.37913E+00  5.89680E+00  6.84871E+00  8.26182E+00  1.08475E+01  1.50195E+01  2.01357E+01
   2.47101E+01  2.72962E+01  2.71811E+01  2.46610E+01  2.08287E+01  1.66618E+01  1.25530E+01  8.83654E+00  6.08813E+00  4.64481E+00
   4.28340E+00  4.46327E+00  4.78991E+00  5.11493E+00  5.31595E+00  5.39588E+00  5.50059E+00  5.74376E+00  6.11682E+00  6.55643E+00
   6.99692E+00  7.35551E+00  7.57217E+00  7.67005E+00  7.64011E+00  7.42567E+00  7.01197E+00  6.44717E+00  5.77521E+00  5.07598E+00
   4.51586E+00  4.26303E+00  4.40910E+00  5.07059E+00  6.33526E+00  8.06774E+00  9.79946E+00  1.09262E+01  1.10511E+01  1.01974E+01
   8.74527E+00  7.15280E+00  5.74500E+00  4.66893E+00  4.00083E+00  3.82949E+00  4.14731E+00  4.81124E+00  5.59012E+00  6.25848E+00
   6.63143E+00  6.59737E+00  6.22773E+00  5.69139E+00  5.16936E+00  4.80413E+00  4.62422E+00  4.61616E+00  4.80267E+00  5.17244E+00
   5.63420E+00  6.13413E+00  6.65083E+00  7.10194E+00  7.35934E+00  7.34191E+00  7.00876E+00  6.39534E+00  5.69215E+00  5.18345E+00
   4.96421E+00  5.02336E+00  5.42523E+00  6.13201E+00  6.86795E+00  7.26983E+00  7.10930E+00  6.40211E+00  5.39948E+00  4.45364E+00
   3.74625E+00  3.24435E+00  2.92150E+00  2.81812E+00  3.04019E+00  3.78032E+00  5.52543E+00  8.17101E+00  1.20152E+01  1.83844E+01
   2.76541E+01  3.81067E+01  4.67248E+01  5.09213E+01  4.95937E+01  4.36561E+01  3.54787E+01  2.70193E+01  1.90528E+01  1.21690E+01
   7.20095E+00  4.46317E+00  3.36735E+00  2.99057E+00  2.81827E+00  2.72638E+00  2.67233E+00  2.65807E+00  2.73909E+00  3.15677E+00
   4.59424E+00  7.03673E+00  1.08986E+01  1.75301E+01  2.72091E+01  3.80310E+01  4.68743E+01  5.11531E+01  4.98051E+01  4.38180E+01
   3.55958E+01  2.70340E+01  1.88576E+01  1.16898E+01  6.41386E+00  3.37419E+00  2.03774E+00  1.55923E+00  1.43759E+00  1.49942E+00
   1.63192E+00  1.76901E+00  1.90113E+00  2.01991E+00  2.08955E+00  2.06382E+00  1.92386E+00  1.68822E+00  1.40786E+00  1.12622E+00
   8.34837E-01  5.22446E-01  2.23861E-01 -1.82034E-02 -1.75041E-01 -2.31617E-01 -2.84345E-01 -5.11921E-01 -9.86533E-01 -1.63923E+00
  -2.23583E+00 -2.54133E+00 -2.49552E+00 -2.25452E+00 -2.03656E+00 -1.98675E+00 -2.14552E+00 -2.45417E+00 -2.82360E+00 -3.20695E+00
  -3.55717E+00 -3.85585E+00 -4.21454E+00 -4.68995E+00 -5.17981E+00 -5.47063E+00 -5.46797E+00 -5.27306E+00 -5.09151E+00 -5.04143E+00
  -5.02656E+00 -4.80359E+00 -4.30087E+00 -3.69297E+00 -3.11130E+00 -2.48525E+00 -1.66434E+00 -5.77607E-01  6.64127E-01  1.80406E+00
   2.61248E+00  3.01785E+00  3.15917E+00  3.15756E+00  3.01641E+00  2.74448E+00  2.41775E+00  2.13177E+00  1.91211E+00  1.84724E+00
   2.02059E+00  2.38944E+00  2.81093E+00  3.14413E+00  3.23809E+00  2.95211E+00  2.27332E+00  1.38890E+00  4.58936E-01 -4.45468E-01
  -1.23868E+00 -1.72122E+00 -1.71494E+00 -1.22592E+00 -4.46111E-01  3.27590E-01  8.38909E-01  9.97821E-01  8.68059E-01  5.88313E-01
   3.39532E-01  2.98946E-01  6.04985E-01  1.25377E+00  2.05729E+00  2.77958E+00  3.24527E+00  3.39561E+00  3.29317E+00  3.06910E+00
   2.90872E+00  3.00619E+00  3.46622E+00  4.21138E+00  5.02423E+00  5.68255E+00  6.05907E+00  6.11526E+00  5.87212E+00  5.44646E+00
   5.04243E+00  4.88709E+00  5.11818E+00  5.73590E+00  6.60932E+00  7.54227E+00  8.37142E+00  9.04859E+00  9.77591E+00  1.10172E+01
   1.27708E+01  1.55920E+01  2.05305E+01  2.85081E+01  3.85315E+01  4.87495E+01  5.99860E+01  7.31349E+01  8.67840E+01  9.73843E+01
   1.01137E+02  9.58891E+01  8.28198E+01  6.61900E+01  4.98849E+01  3.51055E+01  2.22157E+01  1.24314E+01  6.59106E+00  3.97722E+00
   3.00852E+00  2.59010E+00  2.39258E+00  2.26784E+00  2.11522E+00  1.88720E+00  1.57830E+00  1.20951E+00  8.25572E-01  4.81923E-01
   2.11063E-01  2.42690E-02 -7.75077E-02 -1.12498E-01 -1.17088E-01 -1.18957E-01 -1.32189E-01 -1.56796E-01 -1.77777E-01 -1.70615E-01
  -1.18740E-01 -2.54525E-02  9.03612E-02  2.08407E-01  3.10518E-01  3.88240E-01  4.42933E-01  4.82150E-01  5.19968E-01  5.74329E-01
   6.58127E-01  7.69115E-01  8.93078E-01  1.01745E+00  1.13500E+00  1.23914E+00  1.32420E+00  1.38864E+00  1.43584E+00  1.47085E+00
   1.49771E+00  1.51987E+00  1.54128E+00  1.56637E+00  1.60043E+00  1.64957E+00  1.72123E+00  1.82499E+00  1.97543E+00  2.20044E+00
   2.54151E+00  2.95510E+00  3.44893E+00  4.05971E+00  4.63300E+00  4.85793E+00  4.48344E+00  3.48220E+00  2.10811E+00  7.24318E-01
  -3.70179E-01 -9.00626E-01 -6.60679E-01  4.28253E-01  2.20278E+00  4.25807E+00  6.10537E+00  7.41811E+00  8.19497E+00  8.60751E+00
   8.77000E+00  8.75335E+00  8.68149E+00  8.69562E+00  8.85812E+00  9.13624E+00  9.47334E+00  9.83748E+00  1.02091E+01  1.05730E+01
   1.09160E+01  1.12264E+01  1.14933E+01  1.17071E+01  1.18595E+01  1.19433E+01  1.19536E+01  1.18874E+01  1.17437E+01  1.15236E+01
   1.12302E+01  1.08684E+01  1.04450E+01  9.96804E+00  9.44686E+00  8.89116E+00  8.31110E+00  7.71683E+00  7.11837E+00  6.52516E+00
   5.94597E+00  5.38849E+00  4.85960E+00  4.36523E+00  3.91055E+00  3.49977E+00  3.13643E+00  2.82325E+00  2.56264E+00  2.35663E+00
   2.20714E+00  2.11577E+00  2.08405E+00  2.11324E+00  2.20464E+00  2.35927E+00  2.57782E+00  2.86026E+00  3.20570E+00  3.61214E+00
   4.07635E+00  4.59345E+00  5.15679E+00  5.75757E+00  6.38506E+00  7.02655E+00  7.66776E+00  8.29293E+00  8.88547E+00  9.42829E+00
   9.90483E+00  1.02996E+01  1.05991E+01  1.07922E+01  1.08709E+01  1.08306E+01  1.06704E+01  1.03934E+01  1.00060E+01  9.51785E+00
   8.94135E+00  8.29070E+00  7.58159E+00  6.83019E+00  6.05267E+00  5.26421E+00  4.47878E+00  3.70855E+00  2.96394E+00  2.25318E+00
   1.58249E+00  9.55943E-01  3.75900E-01 -1.56907E-01 -6.42901E-01 -1.08364E+00 -1.48141E+00 -1.83920E+00 -2.16016E+00 -2.44766E+00
  -2.70491E+00 -2.93515E+00 -3.14140E+00 -3.32658E+00 -3.49322E+00 -3.64361E+00 -3.77970E+00 -3.90333E+00 -4.01608E+00 -4.11940E+00
  -4.21442E+00 -4.30215E+00 -4.38339E+00 -4.45897E+00 -4.52956E+00 -4.59580E+00 -4.65808E+00 -4.71683E+00 -4.77236E+00 -4.82508E+00
  -4.87528E+00 -4.92324E+00 -4.96909E+00 -5.01302E+00 -5.05516E+00 -5.09578E+00 -5.13498E+00 -5.17290E+00 -5.20956E+00 -5.24508E+00
  -5.27952E+00 -5.31308E+00 -5.34578E+00 -5.37768E+00 -5.40875E+00 -5.43909E+00 -5.46877E+00 -5.49789E+00 -5.52645E+00 -5.55446E+00
  -5.58189E+00 -5.60884E+00 -5.63536E+00 -5.66151E+00 -5.68725E+00 -5.71260E+00 -5.73751E+00 -5.76211E+00 -5.78641E+00 -5.81046E+00
  -5.83418E+00 -5.85758E+00 -5.88067E+00 -5.90354E+00 -5.92619E+00 -5.94863E+00 -5.97078E+00 -5.99267E+00 -6.01431E+00 -6.03579E+00
  -6.05707E+00 -6.07815E+00 -6.09894E+00 -6.11951E+00 -6.13984E+00 -6.16003E+00 -6.17998E+00 -6.19968E+00
 NY background values follow
     2.435E+00    2.417E+00    2.400E+00    2.382E+00    2.365E+00    2.347E+00    2.330E+00    2.312E+00    2.295E+00    2.277E+00
     2.260E+00    2.242E+00    2.225E+00    2.207E+00    2.190E+00    2.172E+00    2.155E+00    2.137E+00    2.120E+00    2.102E+00
     2.085E+00    2.067E+00    2.050E+00    2.032E+00    2.015E+00    1.997E+00    1.980E+00    1.962E+00    1.945E+00    1.927E+00
     1.910E+00    1.892E+00    1.875E+00    1.857E+00    1.839E+00    1.822E+00    1.804E+00    1.787E+00    1.769E+00    1.752E+00
     1.734E+00    1.717E+00    1.699E+00    1.682E+00    1.664E+00    1.647E+00    1.629E+00    1.612E+00    1.594E+00    1.577E+00
     1.559E+00    1.542E+00    1.524E+00    1.507E+00    1.489E+00    1.472E+00    1.454E+00    1.437E+00    1.419E+00    1.402E+00
     1.384E+00    1.367E+00    1.349E+00    1.332E+00    1.314E+00    1.297E+00    1.279E+00    1.262E+00    1.244E+00    1.227E+00
     1.209E+00    1.191E+00    1.174E+00    1.156E+00    1.139E+00    1.121E+00    1.104E+00    1.086E+00    1.069E+00    1.051E+00
     1.034E+00    1.016E+00    9.988E-01    9.813E-01    9.638E-01    9.463E-01    9.288E-01    9.113E-01    8.938E-01    8.762E-01
     8.587E-01    8.412E-01    8.237E-01    8.062E-01    7.887E-01    7.712E-01    7.536E-01    7.361E-01    7.186E-01    7.011E-01
     6.836E-01    6.661E-01    6.486E-01    6.311E-01    6.135E-01    5.960E-01    5.785E-01    5.610E-01    5.435E-01    5.260E-01
     5.085E-01    4.910E-01    4.734E-01    4.559E-01    4.384E-01    4.209E-01    4.034E-01    3.859E-01    3.684E-01    3.509E-01
     3.334E-01    3.158E-01    2.983E-01    2.808E-01    2.633E-01    2.458E-01    2.283E-01    2.108E-01    1.933E-01    1.758E-01
     1.582E-01    1.407E-01    1.232E-01    1.057E-01    8.820E-02    7.069E-02    5.318E-02    3.567E-02    1.816E-02    6.469E-04
    -1.686E-02   -3.437E-02   -5.188E-02   -6.939E-02   -8.690E-02   -1.044E-01   -1.219E-01   -1.394E-01   -1.569E-01   -1.744E-01
    -1.920E-01   -2.095E-01   -2.270E-01   -2.445E-01   -2.620E-01   -2.795E-01   -2.970E-01   -3.145E-01   -3.320E-01   -3.495E-01
    -3.670E-01   -3.846E-01   -4.021E-01   -4.196E-01   -4.371E-01   -4.546E-01   -4.721E-01   -4.896E-01   -5.071E-01   -5.246E-01
    -5.421E-01   -5.596E-01   -5.771E-01   -5.946E-01   -6.121E-01   -6.296E-01   -6.472E-01   -6.647E-01   -6.822E-01   -6.997E-01
    -7.172E-01   -7.347E-01   -7.522E-01   -7.697E-01   -7.872E-01   -8.047E-01   -8.222E-01   -8.397E-01   -8.572E-01   -8.747E-01
    -8.922E-01   -9.097E-01   -9.272E-01   -9.447E-01   -9.622E-01   -9.797E-01   -9.972E-01   -1.015E+00   -1.032E+00   -1.050E+00
    -1.067E+00   -1.085E+00   -1.102E+00   -1.120E+00   -1.137E+00   -1.155E+00   -1.172E+00   -1.190E+00   -1.207E+00   -1.225E+00
    -1.242E+00   -1.260E+00   -1.277E+00   -1.295E+00   -1.312E+00   -1.330E+00   -1.347E+00   -1.365E+00   -1.382E+00   -1.400E+00
    -1.417E+00   -1.435E+00   -1.452E+00   -1.470E+00   -1.487E+00   -1.505E+00   -1.522E+00   -1.540E+00   -1.557E+00   -1.575E+00
    -1.592E+00   -1.610E+00   -1.627E+00   -1.645E+00   -1.662E+00   -1.680E+00   -1.697E+00   -1.715E+00   -1.732E+00   -1.750E+00
    -1.767E+00   -1.785E+00   -1.802E+00   -1.820E+00   -1.837E+00   -1.855E+00   -1.872E+00   -1.890E+00   -1.907E+00   -1.925E+00
    -1.942E+00   -1.960E+00   -1.977E+00   -1.995E+00   -2.012E+00   -2.030E+00   -2.047E+00   -2.065E+00   -2.082E+00   -2.100E+00
    -2.117E+00   -2.135E+00   -2.152E+00   -2.170E+00   -2.187E+00   -2.205E+00   -2.222E+00   -2.240E+00   -2.257E+00   -2.274E+00
    -2.292E+00   -2.309E+00   -2.327E+00   -2.344E+00   -2.362E+00   -2.379E+00   -2.397E+00   -2.414E+00   -2.432E+00   -2.449E+00
    -2.467E+00   -2.484E+00   -2.502E+00   -2.519E+00   -2.537E+00   -2.554E+00   -2.572E+00   -2.589E+00   -2.607E+00   -2.624E+00
    -2.642E+00   -2.659E+00   -2.677E+00   -2.694E+00   -2.712E+00   -2.729E+00   -2.747E+00   -2.764E+00   -2.782E+00   -2.799E+00
    -2.817E+00   -2.834E+00   -2.852E+00   -2.869E+00   -2.886E+00   -2.904E+00   -2.921E+00   -2.939E+00   -2.956E+00   -2.974E+00
    -2.991E+00   -3.009E+00   -3.026E+00   -3.044E+00   -3.061E+00   -3.079E+00   -3.096E+00   -3.114E+00   -3.131E+00   -3.149E+00
    -3.166E+00   -3.184E+00   -3.201E+00   -3.219E+00   -3.236E+00   -3.254E+00   -3.271E+00   -3.288E+00   -3.306E+00   -3.323E+00
    -3.341E+00   -3.358E+00   -3.376E+00   -3.393E+00   -3.411E+00   -3.428E+00   -3.446E+00   -3.463E+00   -3.481E+00   -3.498E+00
    -3.516E+00   -3.533E+00   -3.551E+00   -3.568E+00   -3.586E+00   -3.603E+00   -3.621E+00   -3.638E+00   -3.655E+00   -3.673E+00
    -3.690E+00   -3.708E+00   -3.725E+00   -3.743E+00   -3.760E+00   -3.778E+00   -3.795E+00   -3.813E+00   -3.830E+00   -3.848E+00
    -3.865E+00   -3.883E+00   -3.900E+00   -3.917E+00   -3.935E+00   -3.952E+00   -3.970E+00   -3.987E+00   -4.005E+00   -4.022E+00
    -4.040E+00   -4.057E+00   -4.075E+00   -4.092E+00   -4.110E+00   -4.127E+00   -4.145E+00   -4.162E+00   -4.179E+00   -4.197E+00
    -4.214E+00   -4.232E+00   -4.249E+00   -4.267E+00   -4.284E+00   -4.302E+00   -4.319E+00   -4.337E+00   -4.354E+00   -4.372E+00
    -4.389E+00   -4.407E+00   -4.424E+00   -4.441E+00   -4.459E+00   -4.476E+00   -4.494E+00   -4.511E+00   -4.529E+00   -4.546E+00
    -4.564E+00   -4.581E+00   -4.599E+00   -4.616E+00   -4.633E+00   -4.651E+00   -4.668E+00   -4.686E+00   -4.703E+00   -4.721E+00
    -4.738E+00   -4.756E+00   -4.773E+00   -4.791E+00   -4.808E+00   -4.826E+00   -4.843E+00   -4.860E+00   -4.878E+00   -4.895E+00
    -4.913E+00   -4.930E+00   -4.948E+00   -4.965E+00   -4.983E+00   -5.000E+00   -5.018E+00   -5.035E+00   -5.052E+00   -5.070E+00
    -5.087E+00   -5.105E+00   -5.122E+00   -5.140E+00   -5.157E+00   -5.175E+00   -5.192E+00   -5.209E+00   -5.227E+00   -5.244E+00
    -5.262E+00   -5.279E+00   -5.297E+00   -5.314E+00   -5.332E+00   -5.349E+00   -5.367E+00   -5.384E+00   -5.401E+00   -5.419E+00
    -5.436E+00   -5.454E+00   -5.471E+00   -5.489E+00   -5.506E+00   -5.524E+00   -5.541E+00   -5.558E+00   -5.576E+00   -5.593E+00
    -5.611E+00   -5.628E+00   -5.646E+00   -5.663E+00   -5.681E+00   -5.698E+00   -5.715E+00   -5.733E+00   -5.750E+00   -5.768E+00
    -5.785E+00   -5.803E+00   -5.820E+00   -5.837E+00   -5.855E+00   -5.872E+00   -5.890E+00   -5.907E+00   -5.925E+00   -5.942E+00
    -5.960E+00   -5.977E+00   -5.994E+00   -6.012E+00   -6.029E+00   -6.047E+00   -6.064E+00   -6.082E+00   -6.099E+00   -6.117E+00
    -6.134E+00   -6.151E+00   -6.169E+00   -6.186E+00   -6.204E+00   -6.221E+00   -6.239E+00   -6.256E+00
 Ala      Conc. = 3.22E+02
