 LCModel (Version 6.3-1L) Copyright: S.W. Provencher.          Ref.: Magn. Reson. Med. 30:672-679 (1993).                
 Slice#3 Row#3 Col#1  PD_05_press_2_raw_act
 36 lines in following concentration table = NCONC+1
    Conc.  %SD /Cr+PCr  Metabolite                                         
 1.66E+03  66%   5.896 Ala                                                 
   18.538 231% 6.6E-02 Asp                                                 
    0.000 999%   0.000 Cr                                                  
  281.850  38%   1.000 PCr                                                 
   12.042 214% 4.3E-02 GABA                                                
   10.171 254% 3.6E-02 Glc                                                 
 5.38E+03  22%  19.103 Gln                                                 
 5.67E+03  28%  20.134 Glu                                                 
    0.000 999%   0.000 GPC                                                 
    0.000 999%   0.000 PCh                                                 
    0.000 999%   0.000 GSH                                                 
    0.000 999%   0.000 Ins                                                 
 2.46E+03  40%   8.730 Lac                                                 
    0.000 999%   0.000 NAA                                                 
  126.039 168%   0.447 NAAG                                                
    3.370 253% 1.2E-02 Scyllo                                              
   12.396 345% 4.4E-02 Tau                                                 
    0.000 999%   0.000 -CrCH2                                              
    0.000 999%   0.000 GPC+PCh                                             
  126.039 168%   0.447 NAA+NAAG                                            
  281.850  38%   1.000 Cr+PCr                                              
 1.11E+04  21%  39.237 Glu+Gln                                             
    0.000 999%   0.000 Lip13a                                              
    0.000 999%   0.000 Lip13b                                              
    0.000 999%   0.000 Lip09                                               
 1.85E+03  17%   6.554 MM09                                                
   89.002 174%   0.316 Lip20                                               
 3.60E+03  18%  12.775 MM20                                                
  609.885  31%   2.164 MM12                                                
 1.68E+03  34%   5.963 MM14                                                
 1.99E+03  18%   7.051 MM17                                                
    0.000 999%   0.000 Lip13a+Lip13b                                       
 2.29E+03  28%   8.127 MM14+Lip13a+Lip13b+MM12                             
 1.85E+03  17%   6.554 MM09+Lip09                                          
 3.69E+03  18%  13.091 MM20+Lip20                                          
   6 lines in following misc. output table
  FWHM = 0.153 ppm    S/N =   2                                            
  Data shift = 0.222 ppm                                                   
  Ph: 116 deg      -4.1 deg/ppm                                            
  alphaB,S = 8.5E+01,   2.3E+02                                            
    7 spline knots.   Ns = 9(2)                                            
  (14)11 infls.   (13) 3 extrs.                                            
  498 points on ppm-axis = NY
      4.000000     3.992357     3.984714     3.977070     3.969427     3.961784     3.954141     3.946497     3.938854     3.931211
      3.923568     3.915925     3.908281     3.900638     3.892995     3.885352     3.877708     3.870065     3.862422     3.854779
      3.847136     3.839492     3.831849     3.824206     3.816563     3.808919     3.801276     3.793633     3.785990     3.778347
      3.770703     3.763060     3.755417     3.747774     3.740130     3.732487     3.724844     3.717201     3.709558     3.701914
      3.694271     3.686628     3.678985     3.671341     3.663698     3.656055     3.648412     3.640769     3.633125     3.625482
      3.617839     3.610196     3.602552     3.594909     3.587266     3.579623     3.571980     3.564336     3.556693     3.549050
      3.541407     3.533763     3.526120     3.518477     3.510834     3.503191     3.495547     3.487904     3.480261     3.472618
      3.464974     3.457331     3.449688     3.442045     3.434402     3.426758     3.419115     3.411472     3.403829     3.396185
      3.388542     3.380899     3.373256     3.365613     3.357969     3.350326     3.342683     3.335040     3.327396     3.319753
      3.312110     3.304467     3.296824     3.289180     3.281537     3.273894     3.266251     3.258607     3.250964     3.243321
      3.235678     3.228034     3.220391     3.212748     3.205105     3.197462     3.189818     3.182175     3.174532     3.166889
      3.159245     3.151602     3.143959     3.136316     3.128673     3.121029     3.113386     3.105743     3.098100     3.090456
      3.082813     3.075170     3.067527     3.059884     3.052240     3.044597     3.036954     3.029311     3.021667     3.014024
      3.006381     2.998738     2.991095     2.983451     2.975808     2.968165     2.960522     2.952878     2.945235     2.937592
      2.929949     2.922306     2.914662     2.907019     2.899376     2.891733     2.884089     2.876446     2.868803     2.861160
      2.853517     2.845873     2.838230     2.830587     2.822944     2.815300     2.807657     2.800014     2.792371     2.784728
      2.777084     2.769441     2.761798     2.754155     2.746511     2.738868     2.731225     2.723582     2.715939     2.708295
      2.700652     2.693009     2.685366     2.677722     2.670079     2.662436     2.654793     2.647150     2.639506     2.631863
      2.624220     2.616577     2.608933     2.601290     2.593647     2.586004     2.578361     2.570717     2.563074     2.555431
      2.547788     2.540144     2.532501     2.524858     2.517215     2.509572     2.501928     2.494285     2.486642     2.478999
      2.471355     2.463712     2.456069     2.448426     2.440783     2.433139     2.425496     2.417853     2.410210     2.402566
      2.394923     2.387280     2.379637     2.371994     2.364350     2.356707     2.349064     2.341421     2.333777     2.326134
      2.318491     2.310848     2.303205     2.295561     2.287918     2.280275     2.272632     2.264988     2.257345     2.249702
      2.242059     2.234416     2.226772     2.219129     2.211486     2.203843     2.196199     2.188556     2.180913     2.173270
      2.165627     2.157983     2.150340     2.142697     2.135054     2.127410     2.119767     2.112124     2.104481     2.096838
      2.089194     2.081551     2.073908     2.066265     2.058621     2.050978     2.043335     2.035692     2.028049     2.020405
      2.012762     2.005119     1.997476     1.989833     1.982190     1.974546     1.966903     1.959260     1.951617     1.943974
      1.936331     1.928688     1.921045     1.913402     1.905759     1.898115     1.890472     1.882829     1.875186     1.867543
      1.859900     1.852257     1.844614     1.836971     1.829327     1.821684     1.814041     1.806398     1.798755     1.791112
      1.783469     1.775826     1.768183     1.760540     1.752896     1.745253     1.737610     1.729967     1.722324     1.714681
      1.707038     1.699395     1.691752     1.684108     1.676465     1.668822     1.661179     1.653536     1.645893     1.638250
      1.630607     1.622964     1.615321     1.607677     1.600034     1.592391     1.584748     1.577105     1.569462     1.561819
      1.554176     1.546533     1.538890     1.531246     1.523603     1.515960     1.508317     1.500674     1.493031     1.485388
      1.477745     1.470102     1.462458     1.454815     1.447172     1.439529     1.431886     1.424243     1.416600     1.408957
      1.401314     1.393671     1.386027     1.378384     1.370741     1.363098     1.355455     1.347812     1.340169     1.332526
      1.324883     1.317240     1.309596     1.301953     1.294310     1.286667     1.279024     1.271381     1.263738     1.256095
      1.248452     1.240808     1.233165     1.225522     1.217879     1.210236     1.202593     1.194950     1.187307     1.179664
      1.172021     1.164377     1.156734     1.149091     1.141448     1.133805     1.126162     1.118519     1.110876     1.103233
      1.095590     1.087946     1.080303     1.072660     1.065017     1.057374     1.049731     1.042088     1.034445     1.026802
      1.019158     1.011515     1.003872     0.996229     0.988586     0.980943     0.973300     0.965657     0.958014     0.950371
      0.942727     0.935084     0.927441     0.919798     0.912155     0.904512     0.896869     0.889226     0.881583     0.873940
      0.866296     0.858653     0.851010     0.843367     0.835724     0.828081     0.820438     0.812795     0.805152     0.797508
      0.789865     0.782222     0.774579     0.766936     0.759293     0.751650     0.744007     0.736364     0.728721     0.721077
      0.713434     0.705791     0.698148     0.690505     0.682862     0.675219     0.667576     0.659933     0.652290     0.644646
      0.637003     0.629360     0.621717     0.614074     0.606431     0.598788     0.591145     0.583502     0.575858     0.568215
      0.560572     0.552929     0.545286     0.537643     0.530000     0.522357     0.514714     0.507071     0.499427     0.491784
      0.484141     0.476498     0.468855     0.461212     0.453569     0.445925     0.438282     0.430639     0.422996     0.415353
      0.407710     0.400067     0.392424     0.384780     0.377137     0.369494     0.361851     0.354208     0.346565     0.338922
      0.331278     0.323635     0.315992     0.308349     0.300706     0.293063     0.285420     0.277777     0.270133     0.262490
      0.254847     0.247204     0.239561     0.231918     0.224275     0.216631     0.208988     0.201345
 NY phased data points follow
   6.56915E+01  6.76583E+01  6.03787E+01  6.03147E+01  6.85944E+01  6.34255E+01  6.42391E+01  6.46277E+01  6.04865E+01  7.37468E+01
   6.77568E+01  6.04223E+01  5.87843E+01  6.01788E+01  6.51605E+01  6.15897E+01  6.43533E+01  5.75958E+01  5.28690E+01  5.54859E+01
   5.81010E+01  5.87087E+01  5.57236E+01  5.71100E+01  5.38727E+01  5.38960E+01  5.81718E+01  5.27249E+01  5.94735E+01  5.81013E+01
   4.02418E+01  5.42606E+01  4.88562E+01  5.41710E+01  5.24304E+01  5.33491E+01  5.15874E+01  4.24491E+01  4.89911E+01  5.01399E+01
   4.24003E+01  4.86198E+01  3.84382E+01  4.60029E+01  4.57234E+01  3.47288E+01  5.50852E+01  4.57963E+01  4.08296E+01  4.74584E+01
   3.59277E+01  4.84794E+01  4.62679E+01  4.51288E+01  4.33522E+01  4.11722E+01  3.81468E+01  4.42706E+01  3.87426E+01  3.88160E+01
   4.97595E+01  4.28008E+01  4.54739E+01  3.36617E+01  4.18050E+01  4.50996E+01  3.38162E+01  4.12571E+01  3.71614E+01  3.12394E+01
   3.94656E+01  3.14681E+01  3.71051E+01  4.53824E+01  3.22752E+01  4.45930E+01  2.94412E+01  3.50594E+01  4.24190E+01  3.66704E+01
   3.18107E+01  3.36255E+01  3.25614E+01  3.43383E+01  4.26365E+01  3.24626E+01  3.46888E+01  3.23633E+01  4.16638E+01  3.39707E+01
   3.09544E+01  3.05349E+01  3.24804E+01  3.15002E+01  2.27882E+01  3.11557E+01  2.47353E+01  3.31117E+01  3.16023E+01  2.43761E+01
   3.11595E+01  2.69265E+01  3.34387E+01  2.79340E+01  3.00722E+01  3.39224E+01  3.58433E+01  3.32011E+01  2.72916E+01  3.75424E+01
   3.51472E+01  3.11069E+01  3.07702E+01  2.35589E+01  2.33658E+01  2.94841E+01  2.99648E+01  2.02231E+01  2.10996E+01  3.14469E+01
   2.00935E+01  3.09759E+01  1.84007E+01  2.99447E+01  3.02011E+01  2.19191E+01  2.89242E+01  3.01018E+01  2.47677E+01  2.34648E+01
   2.35513E+01  2.48055E+01  2.64752E+01  3.12898E+01  2.26162E+01  2.25429E+01  2.66383E+01  2.57967E+01  2.03237E+01  2.20872E+01
   2.73859E+01  2.20553E+01  2.07381E+01  1.77320E+01  1.78482E+01  2.01855E+01  2.19108E+01  2.85929E+01  1.81308E+01  2.46460E+01
   2.13007E+01  2.79514E+01  2.25290E+01  1.94661E+01  7.66633E+00  1.92661E+01  2.31255E+01  2.14195E+01  2.09581E+01  1.94877E+01
   1.18540E+01  1.07720E+01  1.48785E+01  1.41253E+01  1.69001E+01  1.32714E+01  6.03563E+00  1.39490E+01  2.05220E+01  9.04501E+00
   1.81098E+01  1.93569E+01  7.90121E+00  1.52800E+01  8.70900E+00  8.05310E+00  9.00362E+00  8.99883E+00  1.28696E+01  1.00892E+01
   1.16495E+01  8.46677E+00  4.25017E+00  1.87140E+01  5.15503E+00 -5.44361E-01  1.04317E+00  5.09365E+00  7.07462E+00  7.78658E+00
  -2.16593E+00  5.56998E-01  2.82214E+00  5.67070E+00  7.87425E+00  3.41142E+00  6.09955E+00  9.88386E+00  5.12587E+00  4.45606E+00
   5.21691E-01  2.58304E+00  9.84067E+00 -1.76694E-01  4.67222E+00  9.84038E+00  3.83629E+00  7.03316E+00  9.48843E+00  6.79966E+00
   1.70849E+00  2.18848E-01  3.41599E+00 -1.60333E+00  5.41803E+00 -7.98681E-01  4.88567E-01  6.67367E+00  2.17743E+00  1.96814E-01
   6.58021E+00 -3.03131E+00  7.63429E+00  1.00084E+00  2.93476E+00  2.04336E+00  2.07170E+00  4.65632E+00  2.36199E+00  8.33730E+00
   8.10571E+00  6.91456E+00  5.64176E+00  4.60054E+00  3.32889E+00  1.74235E+00  6.16569E-01  4.58678E+00  6.52525E+00  8.63310E+00
   9.96486E+00  4.90600E+00  9.52050E+00  5.45263E+00  9.40725E+00  1.14973E+01  9.94130E-01  8.94279E+00  8.16127E+00  7.59464E-01
   1.33664E-01  1.49649E+01  1.15549E+01  1.13115E+01  9.51744E+00  1.01300E+01  5.85889E+00  1.25467E+01  1.17478E+01  4.10808E+00
  -7.66329E-01  6.23449E+00  1.14640E+01  9.04126E+00  4.80023E+00  2.61858E+00  2.34260E+00  1.11121E+01  9.98661E+00  5.49330E+00
   6.49607E+00  3.06939E+00  8.39354E+00  6.55652E+00 -1.73536E+00  4.82722E+00 -2.79418E+00  7.74128E-01  4.89897E+00  5.93687E-01
  -3.07202E+00  1.25694E+00 -3.13896E+00 -1.11347E+01 -4.31132E+00 -1.01984E+01 -6.16346E+00 -2.64755E+00 -5.57310E+00 -4.54031E+00
   2.16851E-01 -3.78073E+00 -1.17246E+01 -6.44305E+00 -3.96317E+00 -8.72788E+00 -6.31585E+00 -1.02408E+01 -1.36031E+01 -3.35752E+00
  -1.12400E+01 -9.45836E+00 -1.62923E+01 -6.40638E+00 -1.14750E+01 -1.16888E+01 -7.69203E+00  2.49505E+00 -3.74069E+00 -6.05785E+00
   5.42541E+00  5.80869E+00  6.85212E+00 -1.09564E+00  9.83277E+00  8.96011E+00  7.61159E+00  6.45859E-01  4.53104E+00  5.74416E+00
   1.46537E+01  1.15970E+01  9.69515E+00  5.46458E+00  9.72832E+00  8.84349E+00  5.96641E+00 -4.74101E-01  6.30140E+00  7.45210E+00
   2.06907E+00 -5.92351E-01  1.16866E+01  3.27870E+00  4.76982E+00  1.02760E+01  1.11988E+01  4.67182E+00  6.79380E+00  6.34187E+00
   1.17663E+00  5.24668E+00  2.74887E+00  8.13302E+00  9.12331E+00  1.63898E+00  1.51784E+00  1.07923E+01  3.36907E+00  5.02459E+00
  -1.08436E+00  8.06186E+00  2.17516E+00 -5.76103E+00 -6.67656E+00  5.39969E-01 -1.60558E+00 -7.06339E+00 -5.25894E+00 -1.34177E+00
  -1.35401E+00 -3.31186E-01 -1.51718E+00  6.96197E+00 -5.16901E+00 -4.28273E+00 -9.63417E-01  1.44808E+00 -2.55411E+00 -5.77704E+00
   3.98872E+00  3.83694E-01 -2.56425E+00 -3.25454E-01 -6.97589E+00 -3.79267E+00 -7.88419E-01 -7.73456E+00  3.59632E+00 -3.25327E+00
  -2.23123E+00  4.73826E+00 -2.30719E+00 -3.02026E+00 -1.58636E+00  3.71235E+00 -5.94001E+00 -1.22526E+00 -6.18636E-01 -5.44664E+00
  -6.32885E+00  9.94942E+00 -4.14362E+00  1.17039E-01 -6.67256E-01 -6.03476E-01 -9.33970E+00 -1.08970E+00 -3.40006E+00  4.70493E-01
  -1.24392E+00  3.62258E-01  5.22991E+00  2.64482E+00  2.83806E-01  8.16186E-02  9.98729E-01 -1.65778E+00  3.27734E+00 -1.51954E-01
   8.06476E-01  2.09691E+00 -4.85814E-01  5.52893E-01  4.00824E+00  6.98235E+00 -5.15345E+00  1.04228E+00 -1.27188E+00 -3.40120E-01
   3.79761E+00 -4.98886E+00 -4.43518E+00  7.93528E-01 -4.20086E+00 -1.64301E+00 -3.78514E+00 -1.69906E+00 -8.14727E-01 -7.16247E+00
  -2.71732E-01 -1.73696E-01 -8.87080E+00  2.50454E+00  2.33124E+00  4.68382E-01 -1.73545E+00  7.38862E-02 -6.77742E+00 -8.16048E-01
  -3.25102E+00 -5.57032E+00 -1.24807E+00 -1.97230E+00  8.56951E-01 -5.22264E+00 -1.78457E+00  7.33772E-02 -2.70582E+00  4.14235E+00
  -1.21514E-01 -3.96078E+00 -9.68705E+00 -8.03690E+00 -3.47360E+00 -3.67178E-01 -2.72534E+00 -2.32285E+00 -6.05668E+00 -8.56263E+00
  -3.12814E+00 -6.45760E-01 -2.87800E+00 -1.51816E+00  1.64572E+00 -1.78920E+00 -2.96077E+00 -8.05940E+00 -3.76559E+00 -5.45560E+00
  -2.35012E+00 -7.69296E+00 -6.11913E+00  3.18524E+00 -2.70877E+00  3.56328E+00 -1.21606E+01 -5.14469E+00  1.54215E+00 -7.94815E+00
  -5.81650E+00 -7.04735E+00 -1.45705E+00 -1.65607E+00  8.85593E-01 -1.34069E+00 -4.58215E+00 -3.35205E+00 -1.64055E+00 -1.43635E+00
  -5.61354E+00 -1.03765E+01  3.84021E+00 -8.55279E+00 -2.14964E-01 -4.10282E+00 -4.28208E+00  2.10170E+00
 NY points of the fit to the data follow
   5.63716E+01  5.70428E+01  5.64734E+01  5.71509E+01  5.66355E+01  5.73591E+01  5.69854E+01  5.78475E+01  5.73465E+01  5.80065E+01
   5.71660E+01  5.76315E+01  5.64573E+01  5.69790E+01  5.60727E+01  5.66772E+01  5.61276E+01  5.65418E+01  5.62601E+01  5.62357E+01
   5.61995E+01  5.59547E+01  5.61928E+01  5.55895E+01  5.59936E+01  5.50117E+01  5.54605E+01  5.42032E+01  5.48026E+01  5.34373E+01
   5.42503E+01  5.28918E+01  5.39681E+01  5.26085E+01  5.36921E+01  5.22480E+01  5.30437E+01  5.14789E+01  5.18594E+01  5.03757E+01
   5.05463E+01  4.93311E+01  4.95364E+01  4.86538E+01  4.88613E+01  4.81017E+01  4.80577E+01  4.72314E+01  4.68359E+01  4.60433E+01
   4.55544E+01  4.49777E+01  4.46371E+01  4.42379E+01  4.39863E+01  4.35727E+01  4.32404E+01  4.27772E+01  4.23667E+01  4.19447E+01
   4.15465E+01  4.11902E+01  4.08351E+01  4.05170E+01  4.01886E+01  3.98939E+01  3.95821E+01  3.93029E+01  3.90061E+01  3.87373E+01
   3.84509E+01  3.81877E+01  3.79096E+01  3.76494E+01  3.73786E+01  3.71190E+01  3.68523E+01  3.65914E+01  3.63266E+01  3.60639E+01
   3.58008E+01  3.55381E+01  3.52760E+01  3.50145E+01  3.47535E+01  3.44935E+01  3.42332E+01  3.39753E+01  3.37138E+01  3.34573E+01
   3.31950E+01  3.29399E+01  3.26781E+01  3.24254E+01  3.21662E+01  3.19170E+01  3.16626E+01  3.14172E+01  3.11685E+01  3.09274E+01
   3.06847E+01  3.04483E+01  3.02117E+01  2.99806E+01  2.97514E+01  2.95258E+01  2.93052E+01  2.90921E+01  2.89489E+01  2.89399E+01
   2.88318E+01  2.90060E+01  2.88878E+01  2.92362E+01  2.90799E+01  2.95958E+01  2.93600E+01  2.99723E+01  2.96381E+01  3.02916E+01
   2.98533E+01  3.04913E+01  2.99649E+01  3.05650E+01  2.99633E+01  3.04920E+01  2.98337E+01  3.02768E+01  2.95615E+01  2.98515E+01
   2.90901E+01  2.91890E+01  2.84083E+01  2.83112E+01  2.75521E+01  2.73080E+01  2.66029E+01  2.62747E+01  2.56309E+01  2.52458E+01
   2.46556E+01  2.42197E+01  2.36727E+01  2.31913E+01  2.26974E+01  2.22260E+01  2.17892E+01  2.13696E+01  2.09688E+01  2.05849E+01
   2.01989E+01  1.98276E+01  1.94473E+01  1.90853E+01  1.87144E+01  1.83627E+01  1.80038E+01  1.76621E+01  1.73132E+01  1.69823E+01
   1.66417E+01  1.63198E+01  1.59863E+01  1.56716E+01  1.53443E+01  1.50343E+01  1.47197E+01  1.44186E+01  1.41173E+01  1.38306E+01
   1.35508E+01  1.32769E+01  1.30233E+01  1.27682E+01  1.25526E+01  1.23082E+01  1.20369E+01  1.17893E+01  1.13283E+01  1.09884E+01
   1.03238E+01  9.87278E+00  9.01349E+00  8.62814E+00  7.86125E+00  7.68712E+00  7.08685E+00  7.37052E+00  7.04636E+00  7.65522E+00
   7.54367E+00  8.05341E+00  7.21938E+00  7.50860E+00  6.17225E+00  6.26779E+00  4.62733E+00  4.84282E+00  3.64693E+00  3.92288E+00
   3.49879E+00  3.77791E+00  4.22191E+00  4.15465E+00  4.92922E+00  4.03913E+00  4.99332E+00  3.30041E+00  4.31481E+00  2.01445E+00
   3.02963E+00  5.93018E-01  2.06929E+00 -9.49839E-02  1.86081E+00  1.55304E-01  2.52817E+00  1.01736E+00  2.85673E+00  1.37978E+00
   2.44680E+00  1.25735E+00  1.65059E+00  1.32750E+00  1.48333E+00  1.83921E+00  2.20961E+00  2.94787E+00  3.31516E+00  3.90212E+00
   4.10394E+00  4.05725E+00  4.02324E+00  3.39366E+00  3.54453E+00  2.60093E+00  3.23110E+00  2.21665E+00  3.45975E+00  2.37467E+00
   3.91438E+00  2.63916E+00  4.32049E+00  2.85637E+00  4.59718E+00  3.17108E+00  4.86591E+00  3.64071E+00  5.23283E+00  4.42850E+00
   5.87256E+00  5.51074E+00  6.79948E+00  6.70761E+00  7.64380E+00  7.64987E+00  8.15256E+00  8.17553E+00  8.26719E+00  8.34932E+00
   8.17079E+00  8.29840E+00  7.96357E+00  8.02378E+00  7.60484E+00  7.54467E+00  7.04343E+00  6.84601E+00  6.23643E+00  5.88881E+00
   5.18763E+00  4.75160E+00  4.03911E+00  3.58643E+00  2.95455E+00  2.50400E+00  1.92921E+00  1.44038E+00  8.62377E-01  3.14017E-01
  -2.85973E-01 -8.73539E-01 -1.46777E+00 -2.07697E+00 -2.65013E+00 -3.27182E+00 -3.83270E+00 -4.45198E+00 -5.01280E+00 -5.62506E+00
  -6.19018E+00 -6.78658E+00 -7.33609E+00 -7.88193E+00 -8.36720E+00 -8.81235E+00 -9.17631E+00 -9.46393E+00 -9.64862E+00 -9.71978E+00
  -9.66402E+00 -9.46374E+00 -9.11502E+00 -8.60485E+00 -7.93819E+00 -7.11310E+00 -6.14207E+00 -5.02332E+00 -3.71544E+00 -2.01178E+00
  -4.01326E-01  1.37770E+00  3.04627E+00  4.55575E+00  6.05986E+00  6.95881E+00  7.87762E+00  7.86445E+00  8.60057E+00  7.69187E+00
   8.40745E+00  6.65457E+00  7.51211E+00  5.14300E+00  6.40832E+00  3.62044E+00  5.35244E+00  2.39442E+00  4.80201E+00  2.41379E+00
   5.09569E+00  3.04788E+00  5.67586E+00  3.94454E+00  6.19676E+00  4.63624E+00  6.04893E+00  5.17064E+00  5.81184E+00  5.63670E+00
   5.34498E+00  5.75785E+00  4.45349E+00  5.59441E+00  3.48928E+00  5.31566E+00  2.73201E+00  5.14520E+00  2.26904E+00  4.70562E+00
   1.58417E+00  3.79124E+00  5.37510E-01  2.44697E+00 -6.39118E-01  1.24731E+00 -1.20722E+00  7.12847E-01 -1.04159E+00  6.78566E-01
  -5.50331E-01  6.59591E-01 -2.66300E-01  3.63742E-01 -3.40546E-01  3.15149E-02 -4.27998E-01 -1.18785E-01 -4.02469E-01 -2.83253E-01
  -5.19171E-01 -7.57426E-01 -1.09679E+00 -1.57163E+00 -2.01838E+00 -2.49341E+00 -2.91952E+00 -3.30091E+00 -3.64356E+00 -3.94929E+00
  -4.21756E+00 -4.44639E+00 -4.63295E+00 -4.77392E+00 -4.86583E+00 -4.90533E+00 -4.88949E+00 -4.81603E+00 -4.68356E+00 -4.49172E+00
  -4.24145E+00 -3.93509E+00 -3.57645E+00 -3.17087E+00 -2.72512E+00 -2.24726E+00 -1.74646E+00 -1.23275E+00 -7.16691E-01 -2.08961E-01
   2.79982E-01  7.40299E-01  1.16310E+00  1.54075E+00  1.86710E+00  2.13768E+00  2.34971E+00  2.50221E+00  2.59575E+00  2.63243E+00
   2.61559E+00  2.54962E+00  2.43969E+00  2.29144E+00  2.11076E+00  1.90356E+00  1.67555E+00  1.43212E+00  1.17822E+00  9.18229E-01
   6.55986E-01  3.94708E-01  1.37085E-01 -1.14754E-01 -3.59130E-01 -5.94837E-01 -8.21006E-01 -1.03711E+00 -1.24283E+00 -1.43809E+00
  -1.62294E+00 -1.79757E+00 -1.96226E+00 -2.11732E+00 -2.26313E+00 -2.40005E+00 -2.52850E+00 -2.64884E+00 -2.76149E+00 -2.86678E+00
  -2.96511E+00 -3.05674E+00 -3.14206E+00 -3.22131E+00 -3.29483E+00 -3.36282E+00 -3.42558E+00 -3.48327E+00 -3.53617E+00 -3.58444E+00
  -3.62830E+00 -3.66787E+00 -3.70337E+00 -3.73491E+00 -3.76266E+00 -3.78675E+00 -3.80731E+00 -3.82445E+00 -3.83829E+00 -3.84893E+00
  -3.85648E+00 -3.86104E+00 -3.86270E+00 -3.86155E+00 -3.85767E+00 -3.85115E+00 -3.84206E+00 -3.83049E+00 -3.81651E+00 -3.80018E+00
  -3.78159E+00 -3.76081E+00 -3.73791E+00 -3.71296E+00 -3.68602E+00 -3.65719E+00 -3.62652E+00 -3.59411E+00 -3.56002E+00 -3.52434E+00
  -3.48715E+00 -3.44855E+00 -3.40863E+00 -3.36752E+00 -3.32531E+00 -3.28214E+00 -3.23815E+00 -3.19349E+00 -3.14834E+00 -3.10291E+00
  -3.05743E+00 -3.01217E+00 -2.96745E+00 -2.92366E+00 -2.88128E+00 -2.84087E+00 -2.80318E+00 -2.76915E+00
 NY background values follow
     5.328E+01    5.308E+01    5.289E+01    5.269E+01    5.250E+01    5.230E+01    5.211E+01    5.191E+01    5.171E+01    5.151E+01
     5.132E+01    5.112E+01    5.092E+01    5.072E+01    5.052E+01    5.031E+01    5.011E+01    4.991E+01    4.971E+01    4.950E+01
     4.930E+01    4.910E+01    4.889E+01    4.869E+01    4.848E+01    4.827E+01    4.807E+01    4.786E+01    4.765E+01    4.745E+01
     4.724E+01    4.703E+01    4.682E+01    4.661E+01    4.640E+01    4.619E+01    4.598E+01    4.577E+01    4.556E+01    4.534E+01
     4.513E+01    4.492E+01    4.471E+01    4.449E+01    4.428E+01    4.406E+01    4.385E+01    4.364E+01    4.342E+01    4.321E+01
     4.299E+01    4.277E+01    4.256E+01    4.234E+01    4.212E+01    4.191E+01    4.169E+01    4.147E+01    4.125E+01    4.104E+01
     4.082E+01    4.060E+01    4.038E+01    4.016E+01    3.994E+01    3.972E+01    3.950E+01    3.928E+01    3.906E+01    3.884E+01
     3.862E+01    3.840E+01    3.818E+01    3.796E+01    3.773E+01    3.751E+01    3.729E+01    3.707E+01    3.685E+01    3.663E+01
     3.640E+01    3.618E+01    3.596E+01    3.574E+01    3.551E+01    3.529E+01    3.507E+01    3.484E+01    3.462E+01    3.440E+01
     3.417E+01    3.395E+01    3.373E+01    3.350E+01    3.328E+01    3.306E+01    3.283E+01    3.261E+01    3.239E+01    3.216E+01
     3.194E+01    3.171E+01    3.149E+01    3.127E+01    3.104E+01    3.082E+01    3.060E+01    3.037E+01    3.015E+01    2.992E+01
     2.970E+01    2.948E+01    2.925E+01    2.903E+01    2.881E+01    2.858E+01    2.836E+01    2.814E+01    2.791E+01    2.769E+01
     2.747E+01    2.725E+01    2.702E+01    2.680E+01    2.658E+01    2.636E+01    2.613E+01    2.591E+01    2.569E+01    2.547E+01
     2.525E+01    2.503E+01    2.480E+01    2.458E+01    2.436E+01    2.414E+01    2.392E+01    2.370E+01    2.348E+01    2.326E+01
     2.304E+01    2.282E+01    2.260E+01    2.238E+01    2.217E+01    2.195E+01    2.173E+01    2.151E+01    2.129E+01    2.108E+01
     2.086E+01    2.064E+01    2.043E+01    2.021E+01    1.999E+01    1.978E+01    1.956E+01    1.935E+01    1.913E+01    1.892E+01
     1.870E+01    1.849E+01    1.828E+01    1.806E+01    1.785E+01    1.764E+01    1.743E+01    1.721E+01    1.700E+01    1.679E+01
     1.658E+01    1.637E+01    1.616E+01    1.595E+01    1.574E+01    1.554E+01    1.533E+01    1.512E+01    1.491E+01    1.471E+01
     1.450E+01    1.429E+01    1.409E+01    1.388E+01    1.368E+01    1.347E+01    1.327E+01    1.307E+01    1.286E+01    1.266E+01
     1.246E+01    1.226E+01    1.206E+01    1.186E+01    1.166E+01    1.146E+01    1.126E+01    1.106E+01    1.086E+01    1.067E+01
     1.047E+01    1.028E+01    1.008E+01    9.885E+00    9.690E+00    9.497E+00    9.303E+00    9.111E+00    8.919E+00    8.727E+00
     8.537E+00    8.346E+00    8.157E+00    7.968E+00    7.779E+00    7.591E+00    7.404E+00    7.218E+00    7.032E+00    6.846E+00
     6.662E+00    6.478E+00    6.294E+00    6.112E+00    5.930E+00    5.748E+00    5.568E+00    5.388E+00    5.208E+00    5.030E+00
     4.852E+00    4.674E+00    4.498E+00    4.322E+00    4.147E+00    3.973E+00    3.799E+00    3.626E+00    3.454E+00    3.282E+00
     3.111E+00    2.941E+00    2.772E+00    2.603E+00    2.436E+00    2.269E+00    2.102E+00    1.937E+00    1.772E+00    1.608E+00
     1.445E+00    1.283E+00    1.121E+00    9.604E-01    8.005E-01    6.413E-01    4.830E-01    3.255E-01    1.687E-01    1.286E-02
    -1.422E-01   -2.964E-01   -4.498E-01   -6.023E-01   -7.540E-01   -9.049E-01   -1.055E+00   -1.204E+00   -1.352E+00   -1.500E+00
    -1.646E+00   -1.792E+00   -1.937E+00   -2.081E+00   -2.224E+00   -2.366E+00   -2.507E+00   -2.647E+00   -2.787E+00   -2.925E+00
    -3.063E+00   -3.199E+00   -3.335E+00   -3.470E+00   -3.604E+00   -3.737E+00   -3.869E+00   -4.000E+00   -4.130E+00   -4.259E+00
    -4.388E+00   -4.515E+00   -4.641E+00   -4.766E+00   -4.891E+00   -5.014E+00   -5.137E+00   -5.258E+00   -5.379E+00   -5.498E+00
    -5.617E+00   -5.734E+00   -5.851E+00   -5.966E+00   -6.081E+00   -6.194E+00   -6.307E+00   -6.418E+00   -6.529E+00   -6.638E+00
    -6.747E+00   -6.854E+00   -6.960E+00   -7.066E+00   -7.170E+00   -7.273E+00   -7.375E+00   -7.476E+00   -7.576E+00   -7.675E+00
    -7.773E+00   -7.870E+00   -7.966E+00   -8.061E+00   -8.155E+00   -8.247E+00   -8.339E+00   -8.429E+00   -8.518E+00   -8.607E+00
    -8.694E+00   -8.780E+00   -8.865E+00   -8.949E+00   -9.032E+00   -9.113E+00   -9.194E+00   -9.273E+00   -9.351E+00   -9.429E+00
    -9.505E+00   -9.580E+00   -9.654E+00   -9.726E+00   -9.798E+00   -9.868E+00   -9.937E+00   -1.001E+01   -1.007E+01   -1.014E+01
    -1.020E+01   -1.027E+01   -1.033E+01   -1.039E+01   -1.045E+01   -1.051E+01   -1.057E+01   -1.062E+01   -1.068E+01   -1.073E+01
    -1.079E+01   -1.084E+01   -1.089E+01   -1.094E+01   -1.099E+01   -1.103E+01   -1.108E+01   -1.112E+01   -1.117E+01   -1.121E+01
    -1.125E+01   -1.129E+01   -1.133E+01   -1.137E+01   -1.140E+01   -1.144E+01   -1.147E+01   -1.150E+01   -1.154E+01   -1.157E+01
    -1.160E+01   -1.162E+01   -1.165E+01   -1.168E+01   -1.170E+01   -1.172E+01   -1.174E+01   -1.176E+01   -1.178E+01   -1.180E+01
    -1.182E+01   -1.183E+01   -1.185E+01   -1.186E+01   -1.187E+01   -1.188E+01   -1.189E+01   -1.190E+01   -1.191E+01   -1.191E+01
    -1.192E+01   -1.192E+01   -1.192E+01   -1.192E+01   -1.192E+01   -1.192E+01   -1.191E+01   -1.191E+01   -1.190E+01   -1.189E+01
    -1.189E+01   -1.188E+01   -1.187E+01   -1.185E+01   -1.184E+01   -1.182E+01   -1.181E+01   -1.179E+01   -1.177E+01   -1.175E+01
    -1.173E+01   -1.171E+01   -1.168E+01   -1.166E+01   -1.163E+01   -1.160E+01   -1.157E+01   -1.154E+01   -1.151E+01   -1.148E+01
    -1.144E+01   -1.141E+01   -1.137E+01   -1.133E+01   -1.129E+01   -1.125E+01   -1.121E+01   -1.117E+01   -1.112E+01   -1.108E+01
    -1.103E+01   -1.098E+01   -1.093E+01   -1.088E+01   -1.083E+01   -1.077E+01   -1.072E+01   -1.066E+01   -1.060E+01   -1.054E+01
    -1.048E+01   -1.042E+01   -1.036E+01   -1.029E+01   -1.023E+01   -1.016E+01   -1.009E+01   -1.002E+01   -9.950E+00   -9.878E+00
    -9.804E+00   -9.729E+00   -9.653E+00   -9.575E+00   -9.496E+00   -9.416E+00   -9.334E+00   -9.251E+00   -9.167E+00   -9.082E+00
    -8.995E+00   -8.906E+00   -8.817E+00   -8.726E+00   -8.634E+00   -8.540E+00   -8.446E+00   -8.349E+00   -8.252E+00   -8.153E+00
    -8.053E+00   -7.952E+00   -7.849E+00   -7.745E+00   -7.640E+00   -7.533E+00   -7.425E+00   -7.316E+00   -7.205E+00   -7.093E+00
    -6.980E+00   -6.865E+00   -6.749E+00   -6.632E+00   -6.514E+00   -6.394E+00   -6.273E+00   -6.150E+00
 Ala      Conc. = 1.66E+03
