 LCModel (Version 6.3-1L) Copyright: S.W. Provencher.          Ref.: Magn. Reson. Med. 30:672-679 (1993).                
 Slice#3 Row#10 Col#5  PD_05_press_2_raw_act
 36 lines in following concentration table = NCONC+1
    Conc.  %SD /Cr+PCr  Metabolite                                         
    0.000 999%   0.000 Ala                                                 
  211.352 128%   0.147 Asp                                                 
  620.215  67%   0.432 Cr                                                  
  814.420  53%   0.568 PCr                                                 
  204.859  90%   0.143 GABA                                                
    0.000 999%   0.000 Glc                                                 
 1.59E+03  34%   1.111 Gln                                                 
 2.34E+03  26%   1.630 Glu                                                 
  482.007   7%   0.336 GPC                                                 
    0.000 999%   0.000 PCh                                                 
 1.22E+03  12%   0.849 GSH                                                 
 2.63E+03  23%   1.833 Ins                                                 
  293.161  87%   0.204 Lac                                                 
 2.42E+03   4%   1.687 NAA                                                 
    0.000 999%   0.000 NAAG                                                
  154.577  28%   0.108 Scyllo                                              
    0.000 999%   0.000 Tau                                                 
 1.01E+03  20%   0.701 -CrCH2                                              
  482.007   7%   0.336 GPC+PCh                                             
 2.42E+03   4%   1.687 NAA+NAAG                                            
 1.43E+03   6%   1.000 Cr+PCr                                              
 3.93E+03  25%   2.742 Glu+Gln                                             
  680.192  77%   0.474 Lip13a                                              
    0.000 999%   0.000 Lip13b                                              
  139.643 128% 9.7E-02 Lip09                                               
  955.581  29%   0.666 MM09                                                
  105.635 105% 7.4E-02 Lip20                                               
 1.62E+03  29%   1.130 MM20                                                
  290.689  45%   0.203 MM12                                                
 1.39E+03  21%   0.966 MM14                                                
   76.374 332% 5.3E-02 MM17                                                
  680.192  77%   0.474 Lip13a+Lip13b                                       
 2.36E+03  24%   1.642 MM14+Lip13a+Lip13b+MM12                             
 1.10E+03  24%   0.763 MM09+Lip09                                          
 1.73E+03  27%   1.203 MM20+Lip20                                          
   6 lines in following misc. output table
  FWHM = 0.061 ppm    S/N =   8                                            
  Data shift =-0.015 ppm                                                   
  Ph: -17 deg      -8.4 deg/ppm                                            
  alphaB,S = 7.5E-01,   2.6E+01                                            
   14 spline knots.   Ns = 9(1)                                            
  (14) 7 infls.   (13) 3 extrs.                                            
  498 points on ppm-axis = NY
      4.000000     3.992357     3.984714     3.977070     3.969427     3.961784     3.954141     3.946497     3.938854     3.931211
      3.923568     3.915925     3.908281     3.900638     3.892995     3.885352     3.877708     3.870065     3.862422     3.854779
      3.847136     3.839492     3.831849     3.824206     3.816563     3.808919     3.801276     3.793633     3.785990     3.778347
      3.770703     3.763060     3.755417     3.747774     3.740130     3.732487     3.724844     3.717201     3.709558     3.701914
      3.694271     3.686628     3.678985     3.671341     3.663698     3.656055     3.648412     3.640769     3.633125     3.625482
      3.617839     3.610196     3.602552     3.594909     3.587266     3.579623     3.571980     3.564336     3.556693     3.549050
      3.541407     3.533763     3.526120     3.518477     3.510834     3.503191     3.495547     3.487904     3.480261     3.472618
      3.464974     3.457331     3.449688     3.442045     3.434402     3.426758     3.419115     3.411472     3.403829     3.396185
      3.388542     3.380899     3.373256     3.365613     3.357969     3.350326     3.342683     3.335040     3.327396     3.319753
      3.312110     3.304467     3.296824     3.289180     3.281537     3.273894     3.266251     3.258607     3.250964     3.243321
      3.235678     3.228034     3.220391     3.212748     3.205105     3.197462     3.189818     3.182175     3.174532     3.166889
      3.159245     3.151602     3.143959     3.136316     3.128673     3.121029     3.113386     3.105743     3.098100     3.090456
      3.082813     3.075170     3.067527     3.059884     3.052240     3.044597     3.036954     3.029311     3.021667     3.014024
      3.006381     2.998738     2.991095     2.983451     2.975808     2.968165     2.960522     2.952878     2.945235     2.937592
      2.929949     2.922306     2.914662     2.907019     2.899376     2.891733     2.884089     2.876446     2.868803     2.861160
      2.853517     2.845873     2.838230     2.830587     2.822944     2.815300     2.807657     2.800014     2.792371     2.784728
      2.777084     2.769441     2.761798     2.754155     2.746511     2.738868     2.731225     2.723582     2.715939     2.708295
      2.700652     2.693009     2.685366     2.677722     2.670079     2.662436     2.654793     2.647150     2.639506     2.631863
      2.624220     2.616577     2.608933     2.601290     2.593647     2.586004     2.578361     2.570717     2.563074     2.555431
      2.547788     2.540144     2.532501     2.524858     2.517215     2.509572     2.501928     2.494285     2.486642     2.478999
      2.471355     2.463712     2.456069     2.448426     2.440783     2.433139     2.425496     2.417853     2.410210     2.402566
      2.394923     2.387280     2.379637     2.371994     2.364350     2.356707     2.349064     2.341421     2.333777     2.326134
      2.318491     2.310848     2.303205     2.295561     2.287918     2.280275     2.272632     2.264988     2.257345     2.249702
      2.242059     2.234416     2.226772     2.219129     2.211486     2.203843     2.196199     2.188556     2.180913     2.173270
      2.165627     2.157983     2.150340     2.142697     2.135054     2.127410     2.119767     2.112124     2.104481     2.096838
      2.089194     2.081551     2.073908     2.066265     2.058621     2.050978     2.043335     2.035692     2.028049     2.020405
      2.012762     2.005119     1.997476     1.989833     1.982190     1.974546     1.966903     1.959260     1.951617     1.943974
      1.936331     1.928688     1.921045     1.913402     1.905759     1.898115     1.890472     1.882829     1.875186     1.867543
      1.859900     1.852257     1.844614     1.836971     1.829327     1.821684     1.814041     1.806398     1.798755     1.791112
      1.783469     1.775826     1.768183     1.760540     1.752896     1.745253     1.737610     1.729967     1.722324     1.714681
      1.707038     1.699395     1.691752     1.684108     1.676465     1.668822     1.661179     1.653536     1.645893     1.638250
      1.630607     1.622964     1.615321     1.607677     1.600034     1.592391     1.584748     1.577105     1.569462     1.561819
      1.554176     1.546533     1.538890     1.531246     1.523603     1.515960     1.508317     1.500674     1.493031     1.485388
      1.477745     1.470102     1.462458     1.454815     1.447172     1.439529     1.431886     1.424243     1.416600     1.408957
      1.401314     1.393671     1.386027     1.378384     1.370741     1.363098     1.355455     1.347812     1.340169     1.332526
      1.324883     1.317240     1.309596     1.301953     1.294310     1.286667     1.279024     1.271381     1.263738     1.256095
      1.248452     1.240808     1.233165     1.225522     1.217879     1.210236     1.202593     1.194950     1.187307     1.179664
      1.172021     1.164377     1.156734     1.149091     1.141448     1.133805     1.126162     1.118519     1.110876     1.103233
      1.095590     1.087946     1.080303     1.072660     1.065017     1.057374     1.049731     1.042088     1.034445     1.026802
      1.019158     1.011515     1.003872     0.996229     0.988586     0.980943     0.973300     0.965657     0.958014     0.950371
      0.942727     0.935084     0.927441     0.919798     0.912155     0.904512     0.896869     0.889226     0.881583     0.873940
      0.866296     0.858653     0.851010     0.843367     0.835724     0.828081     0.820438     0.812795     0.805152     0.797508
      0.789865     0.782222     0.774579     0.766936     0.759293     0.751650     0.744007     0.736364     0.728721     0.721077
      0.713434     0.705791     0.698148     0.690505     0.682862     0.675219     0.667576     0.659933     0.652290     0.644646
      0.637003     0.629360     0.621717     0.614074     0.606431     0.598788     0.591145     0.583502     0.575858     0.568215
      0.560572     0.552929     0.545286     0.537643     0.530000     0.522357     0.514714     0.507071     0.499427     0.491784
      0.484141     0.476498     0.468855     0.461212     0.453569     0.445925     0.438282     0.430639     0.422996     0.415353
      0.407710     0.400067     0.392424     0.384780     0.377137     0.369494     0.361851     0.354208     0.346565     0.338922
      0.331278     0.323635     0.315992     0.308349     0.300706     0.293063     0.285420     0.277777     0.270133     0.262490
      0.254847     0.247204     0.239561     0.231918     0.224275     0.216631     0.208988     0.201345
 NY phased data points follow
  -3.07310E+02 -3.07777E+02 -3.01807E+02 -2.97885E+02 -2.91058E+02 -2.90859E+02 -2.79318E+02 -2.78174E+02 -2.65177E+02 -2.58619E+02
  -2.54196E+02 -2.55956E+02 -2.49936E+02 -2.48640E+02 -2.49800E+02 -2.55151E+02 -2.47478E+02 -2.48383E+02 -2.43295E+02 -2.42834E+02
  -2.32316E+02 -2.35828E+02 -2.21585E+02 -2.24943E+02 -2.16676E+02 -2.15266E+02 -2.06212E+02 -2.09308E+02 -1.96942E+02 -2.02850E+02
  -1.92678E+02 -1.85740E+02 -1.89759E+02 -1.81360E+02 -1.80120E+02 -1.84874E+02 -1.87366E+02 -1.76305E+02 -1.74654E+02 -1.72923E+02
  -1.75280E+02 -1.66375E+02 -1.70093E+02 -1.63507E+02 -1.59118E+02 -1.68713E+02 -1.58601E+02 -1.58918E+02 -1.56365E+02 -1.52805E+02
  -1.53065E+02 -1.59535E+02 -1.51592E+02 -1.52910E+02 -1.52115E+02 -1.49823E+02 -1.44357E+02 -1.47732E+02 -1.44164E+02 -1.46390E+02
  -1.51237E+02 -1.40535E+02 -1.43563E+02 -1.43420E+02 -1.42764E+02 -1.45853E+02 -1.42445E+02 -1.47590E+02 -1.35712E+02 -1.35186E+02
  -1.35293E+02 -1.34012E+02 -1.35127E+02 -1.34765E+02 -1.33383E+02 -1.32023E+02 -1.30288E+02 -1.24516E+02 -1.23139E+02 -1.22447E+02
  -1.20469E+02 -1.16344E+02 -1.18583E+02 -1.10417E+02 -1.13274E+02 -1.11911E+02 -1.13688E+02 -1.08556E+02 -1.15413E+02 -1.04702E+02
  -1.03298E+02 -1.07196E+02 -1.09721E+02 -9.86900E+01 -9.35958E+01 -1.00174E+02 -8.89610E+01 -8.42910E+01 -9.21621E+01 -8.57694E+01
  -7.77632E+01 -7.37747E+01 -7.18390E+01 -6.78564E+01 -6.31688E+01 -7.17032E+01 -7.07645E+01 -7.60939E+01 -8.12457E+01 -8.23535E+01
  -8.31976E+01 -8.47485E+01 -8.26386E+01 -7.79467E+01 -8.08049E+01 -7.93038E+01 -8.04852E+01 -7.32126E+01 -7.74784E+01 -7.86132E+01
  -7.09692E+01 -7.18286E+01 -6.43520E+01 -5.83793E+01 -5.12035E+01 -4.88744E+01 -4.08454E+01 -3.62773E+01 -3.64947E+01 -4.02226E+01
  -4.38951E+01 -5.01461E+01 -5.51881E+01 -5.82998E+01 -6.20848E+01 -5.83790E+01 -6.36599E+01 -6.51825E+01 -6.66016E+01 -6.47111E+01
  -6.35447E+01 -6.48543E+01 -6.92714E+01 -6.68217E+01 -6.53948E+01 -6.38984E+01 -6.16101E+01 -6.18760E+01 -6.24911E+01 -6.57182E+01
  -6.21806E+01 -5.69028E+01 -6.02351E+01 -6.15915E+01 -6.34290E+01 -5.62044E+01 -6.13421E+01 -5.90122E+01 -5.92427E+01 -6.30155E+01
  -5.88412E+01 -5.88969E+01 -6.04735E+01 -5.47526E+01 -5.48438E+01 -4.99874E+01 -5.03148E+01 -4.81160E+01 -6.35114E+01 -5.38649E+01
  -5.37946E+01 -5.67452E+01 -4.96168E+01 -5.06624E+01 -5.31904E+01 -5.94503E+01 -5.81513E+01 -5.44549E+01 -5.46771E+01 -5.76879E+01
  -5.10537E+01 -5.50909E+01 -4.96047E+01 -5.42679E+01 -4.71794E+01 -4.90405E+01 -5.32426E+01 -4.62965E+01 -4.81899E+01 -4.67430E+01
  -3.73988E+01 -3.17381E+01 -4.43603E+01 -3.95897E+01 -3.98124E+01 -3.72665E+01 -3.70627E+01 -3.55077E+01 -4.29749E+01 -3.34477E+01
  -4.04562E+01 -3.10493E+01 -3.63122E+01 -3.67440E+01 -3.40461E+01 -3.16306E+01 -3.02573E+01 -3.56771E+01 -2.98299E+01 -3.38879E+01
  -3.39874E+01 -3.68983E+01 -2.76694E+01 -3.42342E+01 -2.53296E+01 -2.72761E+01 -2.04038E+01 -2.17088E+01 -2.84312E+01 -2.51497E+01
  -2.36252E+01 -2.85025E+01 -2.30989E+01 -2.38069E+01 -2.61755E+01 -2.99178E+01 -2.51900E+01 -3.00993E+01 -1.96527E+01 -1.62167E+01
  -1.66732E+01 -1.47692E+01 -1.65690E+01 -1.19616E+01 -2.05016E+01 -1.84361E+01 -1.83043E+01 -1.92727E+01 -1.72226E+01 -1.37918E+01
  -7.56668E+00 -1.06064E+01 -8.08361E+00 -1.88662E+01 -1.29797E+01 -1.09872E+01 -1.33277E+01 -1.05710E+01 -1.01484E+01 -3.82508E+00
  -8.61439E+00 -4.04088E+00 -2.80300E-02  6.08188E+00  1.36808E+01  1.51720E+01  2.43531E+01  3.00190E+01  4.56483E+01  5.09266E+01
   5.34967E+01  5.62470E+01  4.45118E+01  3.93636E+01  2.16762E+01  9.10973E+00  1.02898E+01  6.27533E+00  3.88122E+00  3.85005E+00
  -7.26565E+00 -4.86118E+00 -8.52504E-01 -5.17669E+00 -4.26908E+00 -8.72190E+00 -5.17800E+00 -5.25324E+00 -4.81691E+00 -9.48283E+00
  -8.41891E+00 -8.80429E+00 -8.73483E+00 -6.62871E+00 -9.06505E+00 -7.00169E+00 -8.71508E+00 -9.03140E+00 -1.20089E+01 -8.79905E-01
  -6.52332E+00 -7.32706E+00 -7.49942E+00 -2.00216E+00 -9.95860E+00 -2.20081E+00 -7.01739E+00 -9.55047E+00 -1.36857E+01 -6.52984E+00
  -9.96716E+00 -2.50725E+00 -7.54027E+00 -8.76889E-01 -1.71594E+00 -2.52635E+00 -4.17934E+00 -7.50098E+00 -9.23292E+00 -4.05403E+00
  -2.89961E+00  4.93342E+00 -2.79694E+00  3.86259E+00 -2.81167E+00 -1.95125E-01 -5.36354E+00 -4.10092E-01 -4.27559E+00  5.85903E-01
  -7.04036E+00  3.47611E+00  7.27932E+00  2.21955E+00 -2.76277E+00  3.51881E+00  7.70379E+00  3.29620E+00  2.10242E+00  5.44982E+00
   9.75023E+00  1.00679E+01  7.03265E+00  8.47245E+00  1.34572E+01  1.02102E+01  1.61030E+01  1.34578E+01  1.01856E+01  1.08707E+01
   1.03712E+01  1.03397E+01  7.45160E+00  1.29160E+01  8.38228E+00  1.27351E+01  1.01856E+01  9.54813E+00  1.01410E+01  8.34612E+00
   5.44515E+00  4.42504E+00  1.01172E+01  1.17505E+01  7.56592E+00  6.98275E+00  5.41337E+00  1.13033E+01  5.09902E+00  5.41962E+00
   1.22587E+01  1.00976E+01  9.94350E+00  6.26380E+00  7.58088E+00  9.41522E+00  6.33769E+00  9.90948E+00  8.39571E+00  4.53371E+00
   8.46572E+00  7.90426E+00  6.37326E+00  5.08628E-01  7.90259E+00 -9.60029E-01  1.01923E+01  8.83460E+00  8.30490E+00  9.01091E+00
   1.21333E+01  2.25731E+00  4.59985E+00  8.09970E+00  6.09714E+00  7.85594E+00  6.38379E+00  6.08706E+00  5.73040E+00  7.22312E+00
   8.03723E+00  9.70413E+00  9.95147E+00  4.79018E+00  1.35787E+01  1.03588E+01  1.09754E+01  1.02695E+01  3.62319E+00  7.98795E+00
   1.52751E+01  2.80932E+00  7.43859E+00  6.78703E+00  1.86383E+01  1.32654E+01  1.76611E+01  1.29896E+01  1.03598E+01  1.82522E+01
   1.03547E+01  1.06426E+01  1.03652E+01  5.37510E+00  7.47335E+00  1.03783E+01  8.84047E+00  1.18926E+01  5.04978E+00  6.04578E+00
   5.61874E+00  2.98040E+00  9.86976E+00  5.20311E+00  6.82013E+00  9.52060E+00  2.83734E+00  2.30738E+00  9.85365E+00  1.24676E+01
   9.84356E+00  8.18774E+00  9.53928E+00  2.98938E+00  6.82508E+00  4.35518E+00  9.39837E+00  1.20450E+01  6.85075E+00  4.47468E+00
   9.73452E-01  5.04209E+00  8.45276E+00  6.17095E+00  4.54788E+00  1.27506E+01  9.97587E+00  1.02509E+01  1.31816E+01  9.75870E+00
   6.23897E+00  8.31443E+00  1.21928E+01  1.18455E+00  9.78936E+00  6.14284E+00  2.48411E+00  1.00754E+00  5.57363E+00  1.02122E+01
   4.93429E+00  4.54534E+00  6.50777E+00  4.41802E+00  6.39071E+00  4.26281E+00  4.01789E+00  9.09317E+00  6.14389E+00  6.33510E+00
   1.31434E+00  5.62445E+00  4.99386E+00  1.46688E+00  9.89668E+00  9.13267E+00  4.69859E+00  1.08508E+01  9.99299E+00  1.43236E+01
   7.06778E+00  1.47171E+01  1.04913E+01  4.17052E+00  1.10436E+01  9.00129E+00  1.39658E+01  1.57045E+01  8.99063E+00  9.44639E+00
   8.08309E+00  9.92093E+00  7.10446E+00  1.22941E+01  1.01203E+01  5.79537E+00  1.04987E+01  1.19155E+01
 NY points of the fit to the data follow
  -2.99879E+02 -2.97084E+02 -2.93875E+02 -2.89890E+02 -2.86801E+02 -2.84726E+02 -2.81582E+02 -2.76883E+02 -2.71672E+02 -2.65698E+02
  -2.60073E+02 -2.55189E+02 -2.50393E+02 -2.47841E+02 -2.47918E+02 -2.47639E+02 -2.45699E+02 -2.42725E+02 -2.39397E+02 -2.37284E+02
  -2.36216E+02 -2.33881E+02 -2.29665E+02 -2.25322E+02 -2.20289E+02 -2.16250E+02 -2.12406E+02 -2.07564E+02 -2.01628E+02 -1.96021E+02
  -1.90667E+02 -1.85936E+02 -1.83068E+02 -1.81436E+02 -1.82304E+02 -1.85372E+02 -1.87021E+02 -1.85958E+02 -1.83918E+02 -1.81409E+02
  -1.78993E+02 -1.77250E+02 -1.74500E+02 -1.70696E+02 -1.66824E+02 -1.63780E+02 -1.61138E+02 -1.59314E+02 -1.58457E+02 -1.58099E+02
  -1.58775E+02 -1.59655E+02 -1.58860E+02 -1.56893E+02 -1.54938E+02 -1.53264E+02 -1.51939E+02 -1.50573E+02 -1.48666E+02 -1.46633E+02
  -1.45009E+02 -1.43661E+02 -1.42669E+02 -1.41929E+02 -1.40833E+02 -1.39404E+02 -1.37631E+02 -1.35589E+02 -1.33651E+02 -1.31986E+02
  -1.30534E+02 -1.29218E+02 -1.27986E+02 -1.26773E+02 -1.25648E+02 -1.24729E+02 -1.23815E+02 -1.22550E+02 -1.21054E+02 -1.20009E+02
  -1.18853E+02 -1.17986E+02 -1.17071E+02 -1.15740E+02 -1.14204E+02 -1.13001E+02 -1.11826E+02 -1.10800E+02 -1.10246E+02 -1.09572E+02
  -1.09029E+02 -1.08571E+02 -1.07239E+02 -1.04671E+02 -1.00266E+02 -9.67667E+01 -9.34538E+01 -9.07734E+01 -8.83532E+01 -8.43381E+01
  -7.82842E+01 -7.26680E+01 -6.84133E+01 -6.54563E+01 -6.55001E+01 -6.74899E+01 -7.12015E+01 -7.72287E+01 -8.13381E+01 -8.16396E+01
  -8.14601E+01 -8.21027E+01 -8.32180E+01 -8.54209E+01 -8.64113E+01 -8.58976E+01 -8.48538E+01 -8.28683E+01 -7.84792E+01 -7.42248E+01
  -7.03425E+01 -6.65235E+01 -6.34881E+01 -5.91672E+01 -5.25875E+01 -4.61410E+01 -4.14580E+01 -3.83077E+01 -3.81955E+01 -4.07106E+01
  -4.48419E+01 -5.10448E+01 -5.60744E+01 -5.72395E+01 -5.77407E+01 -5.96321E+01 -6.21545E+01 -6.54872E+01 -6.76892E+01 -6.74444E+01
  -6.57627E+01 -6.38925E+01 -6.24255E+01 -6.15085E+01 -6.13823E+01 -6.14922E+01 -6.14142E+01 -6.12471E+01 -6.08658E+01 -6.04466E+01
  -6.02989E+01 -6.03052E+01 -6.05117E+01 -6.06435E+01 -6.05989E+01 -6.03090E+01 -5.97931E+01 -5.94484E+01 -5.92094E+01 -5.90006E+01
  -5.87911E+01 -5.84786E+01 -5.79750E+01 -5.74609E+01 -5.69003E+01 -5.62462E+01 -5.59210E+01 -5.60025E+01 -5.61097E+01 -5.60951E+01
  -5.58240E+01 -5.52532E+01 -5.50616E+01 -5.50858E+01 -5.50532E+01 -5.48615E+01 -5.44727E+01 -5.41506E+01 -5.39210E+01 -5.35293E+01
  -5.28687E+01 -5.20938E+01 -5.13125E+01 -5.05028E+01 -4.94421E+01 -4.81358E+01 -4.68415E+01 -4.56069E+01 -4.43922E+01 -4.32080E+01
  -4.18836E+01 -4.05523E+01 -3.99487E+01 -3.96601E+01 -3.96319E+01 -3.99026E+01 -3.99158E+01 -3.91941E+01 -3.80856E+01 -3.64607E+01
  -3.45305E+01 -3.31670E+01 -3.19504E+01 -3.07525E+01 -3.09025E+01 -3.13885E+01 -3.20052E+01 -3.30584E+01 -3.35611E+01 -3.37702E+01
  -3.37906E+01 -3.32786E+01 -3.16253E+01 -2.95165E+01 -2.70504E+01 -2.47618E+01 -2.38212E+01 -2.37916E+01 -2.42952E+01 -2.54559E+01
  -2.72037E+01 -2.86287E+01 -2.89520E+01 -2.82194E+01 -2.69611E+01 -2.52042E+01 -2.32827E+01 -2.15260E+01 -2.00563E+01 -1.95007E+01
  -1.93249E+01 -1.86425E+01 -1.77647E+01 -1.68120E+01 -1.61335E+01 -1.54228E+01 -1.46124E+01 -1.39736E+01 -1.37261E+01 -1.38695E+01
  -1.42502E+01 -1.49372E+01 -1.58752E+01 -1.66263E+01 -1.63584E+01 -1.52979E+01 -1.40456E+01 -1.24274E+01 -1.09581E+01 -9.86324E+00
  -8.22442E+00 -2.10851E+00  4.55519E+00  1.02417E+01  1.63613E+01  2.01467E+01  2.49911E+01  3.34878E+01  4.18774E+01  4.72117E+01
   5.10005E+01  5.04569E+01  4.55625E+01  3.82442E+01  2.59598E+01  1.44830E+01  1.05136E+01  9.23843E+00  6.30955E+00  2.74653E+00
  -2.59507E+00 -6.94409E+00 -7.98390E+00 -8.12841E+00 -8.00573E+00 -7.89200E+00 -7.71137E+00 -7.57168E+00 -7.61304E+00 -7.71494E+00
  -7.77572E+00 -7.80162E+00 -7.75698E+00 -7.66098E+00 -7.58284E+00 -7.48372E+00 -7.35137E+00 -7.22410E+00 -7.08565E+00 -6.93916E+00
  -6.79991E+00 -6.63885E+00 -6.46333E+00 -6.29196E+00 -6.12473E+00 -5.95496E+00 -5.78378E+00 -5.60496E+00 -5.41873E+00 -5.22784E+00
  -5.03724E+00 -4.84017E+00 -4.63877E+00 -4.43381E+00 -4.22490E+00 -4.01302E+00 -3.79803E+00 -3.57699E+00 -3.35123E+00 -3.11583E+00
  -2.86976E+00 -2.60938E+00 -2.33375E+00 -2.03878E+00 -1.72453E+00 -1.38585E+00 -1.02205E+00 -6.29244E-01 -2.07498E-01  2.45455E-01
   7.27686E-01  1.24008E+00  1.77952E+00  2.34543E+00  2.93249E+00  3.53765E+00  4.15329E+00  4.77471E+00  5.39352E+00  6.00438E+00
   6.59834E+00  7.17018E+00  7.71219E+00  8.22200E+00  8.69681E+00  9.14198E+00  9.56984E+00  1.00269E+01  1.05558E+01  1.08406E+01
   1.09597E+01  1.09753E+01  1.08431E+01  1.07695E+01  1.06715E+01  1.03085E+01  9.94467E+00  9.46007E+00  8.80125E+00  8.10723E+00
   7.36835E+00  6.76727E+00  6.88417E+00  7.54467E+00  8.14306E+00  8.64136E+00  8.94933E+00  9.06831E+00  9.16875E+00  8.96222E+00
   8.58982E+00  8.45739E+00  8.41392E+00  8.32153E+00  8.18088E+00  7.84203E+00  7.50196E+00  7.26881E+00  7.08296E+00  6.92337E+00
   6.78058E+00  6.65316E+00  6.53860E+00  6.43878E+00  6.35282E+00  6.28326E+00  6.22955E+00  6.19448E+00  6.17786E+00  6.18276E+00
   6.20898E+00  6.25940E+00  6.33371E+00  6.43486E+00  6.56258E+00  6.71961E+00  6.90512E+00  7.12102E+00  7.36562E+00  7.63993E+00
   7.94105E+00  8.26829E+00  8.61668E+00  8.98337E+00  9.36138E+00  9.74593E+00  1.01282E+01  1.05015E+01  1.08555E+01  1.11831E+01
   1.14739E+01  1.17217E+01  1.19177E+01  1.20577E+01  1.21357E+01  1.21510E+01  1.21017E+01  1.19913E+01  1.18215E+01  1.15990E+01
   1.13289E+01  1.10205E+01  1.06809E+01  1.03204E+01  9.94645E+00  9.56872E+00  9.19339E+00  8.82891E+00  8.47950E+00  8.15127E+00
   7.84597E+00  7.56736E+00  7.31518E+00  7.09145E+00  6.89432E+00  6.72432E+00  6.57842E+00  6.45643E+00  6.35501E+00  6.27384E+00
   6.20945E+00  6.16141E+00  6.12635E+00  6.10417E+00  6.09194E+00  6.08993E+00  6.09535E+00  6.10862E+00  6.12723E+00  6.15197E+00
   6.18070E+00  6.21438E+00  6.25086E+00  6.29113E+00  6.33328E+00  6.37855E+00  6.42518E+00  6.47439E+00  6.52433E+00  6.57624E+00
   6.62847E+00  6.68243E+00  6.73648E+00  6.79197E+00  6.84726E+00  6.90383E+00  6.96027E+00  7.01814E+00  7.07594E+00  7.13511E+00
   7.19410E+00  7.25447E+00  7.31483E+00  7.37677E+00  7.43877E+00  7.50229E+00  7.56585E+00  7.63104E+00  7.69650E+00  7.76376E+00
   7.83132E+00  7.90065E+00  7.97034E+00  8.04199E+00  8.11425E+00  8.18861E+00  8.26356E+00  8.34061E+00  8.41839E+00  8.49852E+00
   8.57959E+00  8.66309E+00  8.74753E+00  8.83444E+00  8.92252E+00  9.01334E+00  9.10548E+00  9.20041E+00  9.29669E+00  9.39588E+00
   9.49670E+00  9.60070E+00  9.70644E+00  9.81541E+00  9.92622E+00  1.00405E+01  1.01569E+01  1.02771E+01
 NY background values follow
    -3.038E+02   -3.008E+02   -2.978E+02   -2.948E+02   -2.917E+02   -2.887E+02   -2.857E+02   -2.827E+02   -2.797E+02   -2.768E+02
    -2.738E+02   -2.708E+02   -2.679E+02   -2.650E+02   -2.620E+02   -2.591E+02   -2.562E+02   -2.533E+02   -2.505E+02   -2.476E+02
    -2.448E+02   -2.420E+02   -2.392E+02   -2.364E+02   -2.337E+02   -2.309E+02   -2.282E+02   -2.255E+02   -2.228E+02   -2.202E+02
    -2.176E+02   -2.150E+02   -2.124E+02   -2.099E+02   -2.074E+02   -2.049E+02   -2.024E+02   -2.000E+02   -1.976E+02   -1.952E+02
    -1.929E+02   -1.906E+02   -1.883E+02   -1.861E+02   -1.839E+02   -1.817E+02   -1.796E+02   -1.775E+02   -1.754E+02   -1.734E+02
    -1.714E+02   -1.694E+02   -1.675E+02   -1.656E+02   -1.638E+02   -1.619E+02   -1.601E+02   -1.584E+02   -1.566E+02   -1.549E+02
    -1.532E+02   -1.516E+02   -1.499E+02   -1.483E+02   -1.468E+02   -1.452E+02   -1.437E+02   -1.422E+02   -1.407E+02   -1.392E+02
    -1.378E+02   -1.364E+02   -1.350E+02   -1.336E+02   -1.323E+02   -1.309E+02   -1.296E+02   -1.283E+02   -1.270E+02   -1.258E+02
    -1.245E+02   -1.233E+02   -1.221E+02   -1.208E+02   -1.197E+02   -1.185E+02   -1.173E+02   -1.162E+02   -1.150E+02   -1.139E+02
    -1.128E+02   -1.116E+02   -1.105E+02   -1.094E+02   -1.084E+02   -1.073E+02   -1.062E+02   -1.051E+02   -1.041E+02   -1.031E+02
    -1.020E+02   -1.010E+02   -9.999E+01   -9.899E+01   -9.800E+01   -9.701E+01   -9.604E+01   -9.508E+01   -9.412E+01   -9.318E+01
    -9.224E+01   -9.131E+01   -9.040E+01   -8.949E+01   -8.859E+01   -8.771E+01   -8.683E+01   -8.596E+01   -8.510E+01   -8.426E+01
    -8.342E+01   -8.259E+01   -8.177E+01   -8.096E+01   -8.016E+01   -7.938E+01   -7.860E+01   -7.783E+01   -7.707E+01   -7.632E+01
    -7.559E+01   -7.486E+01   -7.414E+01   -7.343E+01   -7.274E+01   -7.205E+01   -7.137E+01   -7.071E+01   -7.005E+01   -6.940E+01
    -6.877E+01   -6.814E+01   -6.752E+01   -6.691E+01   -6.631E+01   -6.571E+01   -6.512E+01   -6.454E+01   -6.397E+01   -6.341E+01
    -6.285E+01   -6.230E+01   -6.175E+01   -6.121E+01   -6.068E+01   -6.015E+01   -5.962E+01   -5.910E+01   -5.859E+01   -5.808E+01
    -5.757E+01   -5.707E+01   -5.657E+01   -5.607E+01   -5.558E+01   -5.509E+01   -5.460E+01   -5.411E+01   -5.363E+01   -5.314E+01
    -5.266E+01   -5.218E+01   -5.170E+01   -5.122E+01   -5.074E+01   -5.026E+01   -4.978E+01   -4.930E+01   -4.882E+01   -4.834E+01
    -4.785E+01   -4.737E+01   -4.688E+01   -4.639E+01   -4.590E+01   -4.541E+01   -4.491E+01   -4.442E+01   -4.392E+01   -4.343E+01
    -4.293E+01   -4.243E+01   -4.194E+01   -4.144E+01   -4.094E+01   -4.044E+01   -3.995E+01   -3.945E+01   -3.896E+01   -3.846E+01
    -3.797E+01   -3.748E+01   -3.699E+01   -3.650E+01   -3.601E+01   -3.552E+01   -3.504E+01   -3.456E+01   -3.408E+01   -3.361E+01
    -3.313E+01   -3.266E+01   -3.219E+01   -3.173E+01   -3.127E+01   -3.081E+01   -3.036E+01   -2.991E+01   -2.946E+01   -2.902E+01
    -2.858E+01   -2.815E+01   -2.772E+01   -2.730E+01   -2.688E+01   -2.647E+01   -2.606E+01   -2.566E+01   -2.526E+01   -2.487E+01
    -2.448E+01   -2.410E+01   -2.372E+01   -2.335E+01   -2.299E+01   -2.263E+01   -2.227E+01   -2.192E+01   -2.157E+01   -2.123E+01
    -2.089E+01   -2.056E+01   -2.023E+01   -1.991E+01   -1.959E+01   -1.928E+01   -1.897E+01   -1.866E+01   -1.836E+01   -1.806E+01
    -1.777E+01   -1.748E+01   -1.719E+01   -1.691E+01   -1.663E+01   -1.635E+01   -1.608E+01   -1.582E+01   -1.555E+01   -1.529E+01
    -1.503E+01   -1.478E+01   -1.453E+01   -1.428E+01   -1.404E+01   -1.380E+01   -1.356E+01   -1.332E+01   -1.309E+01   -1.286E+01
    -1.263E+01   -1.241E+01   -1.219E+01   -1.197E+01   -1.175E+01   -1.154E+01   -1.132E+01   -1.111E+01   -1.091E+01   -1.070E+01
    -1.050E+01   -1.030E+01   -1.010E+01   -9.903E+00   -9.708E+00   -9.515E+00   -9.323E+00   -9.133E+00   -8.945E+00   -8.759E+00
    -8.574E+00   -8.390E+00   -8.208E+00   -8.027E+00   -7.848E+00   -7.669E+00   -7.492E+00   -7.316E+00   -7.141E+00   -6.967E+00
    -6.794E+00   -6.621E+00   -6.450E+00   -6.279E+00   -6.109E+00   -5.939E+00   -5.770E+00   -5.602E+00   -5.433E+00   -5.266E+00
    -5.098E+00   -4.931E+00   -4.764E+00   -4.597E+00   -4.430E+00   -4.263E+00   -4.096E+00   -3.929E+00   -3.762E+00   -3.594E+00
    -3.427E+00   -3.260E+00   -3.094E+00   -2.927E+00   -2.761E+00   -2.596E+00   -2.431E+00   -2.267E+00   -2.104E+00   -1.942E+00
    -1.781E+00   -1.620E+00   -1.461E+00   -1.304E+00   -1.147E+00   -9.922E-01   -8.388E-01   -6.869E-01   -5.368E-01   -3.884E-01
    -2.419E-01   -9.741E-02    4.503E-02    1.853E-01    3.234E-01    4.591E-01    5.924E-01    7.232E-01    8.515E-01    9.770E-01
     1.100E+00    1.220E+00    1.337E+00    1.450E+00    1.561E+00    1.669E+00    1.773E+00    1.874E+00    1.971E+00    2.065E+00
     2.155E+00    2.241E+00    2.324E+00    2.403E+00    2.478E+00    2.549E+00    2.617E+00    2.682E+00    2.743E+00    2.802E+00
     2.857E+00    2.910E+00    2.960E+00    3.007E+00    3.052E+00    3.095E+00    3.135E+00    3.174E+00    3.210E+00    3.245E+00
     3.278E+00    3.309E+00    3.340E+00    3.368E+00    3.396E+00    3.422E+00    3.448E+00    3.473E+00    3.497E+00    3.520E+00
     3.544E+00    3.566E+00    3.589E+00    3.612E+00    3.635E+00    3.657E+00    3.681E+00    3.704E+00    3.729E+00    3.754E+00
     3.779E+00    3.806E+00    3.834E+00    3.863E+00    3.894E+00    3.925E+00    3.959E+00    3.994E+00    4.031E+00    4.070E+00
     4.110E+00    4.152E+00    4.195E+00    4.241E+00    4.287E+00    4.335E+00    4.384E+00    4.435E+00    4.487E+00    4.541E+00
     4.595E+00    4.651E+00    4.707E+00    4.765E+00    4.824E+00    4.884E+00    4.945E+00    5.006E+00    5.069E+00    5.132E+00
     5.196E+00    5.260E+00    5.326E+00    5.392E+00    5.458E+00    5.525E+00    5.592E+00    5.660E+00    5.728E+00    5.796E+00
     5.865E+00    5.934E+00    6.003E+00    6.072E+00    6.141E+00    6.211E+00    6.280E+00    6.349E+00    6.418E+00    6.487E+00
     6.556E+00    6.624E+00    6.692E+00    6.760E+00    6.827E+00    6.894E+00    6.962E+00    7.029E+00    7.096E+00    7.163E+00
     7.230E+00    7.298E+00    7.365E+00    7.433E+00    7.502E+00    7.570E+00    7.640E+00    7.710E+00    7.780E+00    7.851E+00
     7.923E+00    7.996E+00    8.070E+00    8.145E+00    8.221E+00    8.297E+00    8.375E+00    8.455E+00    8.535E+00    8.617E+00
     8.700E+00    8.785E+00    8.872E+00    8.960E+00    9.049E+00    9.141E+00    9.234E+00    9.329E+00    9.426E+00    9.525E+00
     9.626E+00    9.729E+00    9.835E+00    9.942E+00    1.005E+01    1.016E+01    1.028E+01    1.040E+01
 Asp      Conc. = 2.11E+02
