 LCModel (Version 6.3-1L) Copyright: S.W. Provencher.          Ref.: Magn. Reson. Med. 30:672-679 (1993).                
 Slice#2 Row#5 Col#1  PD_05_press_2_raw_act
 36 lines in following concentration table = NCONC+1
    Conc.  %SD /Cr+PCr  Metabolite                                         
  215.551  62%   0.394 Ala                                                 
   50.466 222% 9.2E-02 Asp                                                 
    0.000 999%   0.000 Cr                                                  
  546.615  12%   1.000 PCr                                                 
   76.673  89%   0.140 GABA                                                
   63.714 107%   0.117 Glc                                                 
  589.679  47%   1.079 Gln                                                 
  807.059  39%   1.476 Glu                                                 
  162.701  15%   0.298 GPC                                                 
    0.000 999%   0.000 PCh                                                 
  165.095  54%   0.302 GSH                                                 
  917.727  34%   1.679 Ins                                                 
    0.000 999%   0.000 Lac                                                 
  965.513   8%   1.766 NAA                                                 
    0.000 999%   0.000 NAAG                                                
   49.639  40% 9.1E-02 Scyllo                                              
  154.586  72%   0.283 Tau                                                 
  541.992  20%   0.992 -CrCH2                                              
  162.701  15%   0.298 GPC+PCh                                             
  965.513   8%   1.766 NAA+NAAG                                            
  546.615  12%   1.000 Cr+PCr                                              
 1.40E+03  32%   2.555 Glu+Gln                                             
    0.000 999%   0.000 Lip13a                                              
   29.162 433% 5.3E-02 Lip13b                                              
    7.779 433% 1.4E-02 Lip09                                               
  968.310  21%   1.771 MM09                                                
    4.378 433% 8.0E-03 Lip20                                               
 1.60E+03  20%   2.934 MM20                                                
  281.856  27%   0.516 MM12                                                
  418.755  55%   0.766 MM14                                                
  495.204  28%   0.906 MM17                                                
   29.162 433% 5.3E-02 Lip13a+Lip13b                                       
  729.772  43%   1.335 MM14+Lip13a+Lip13b+MM12                             
  976.089  21%   1.786 MM09+Lip09                                          
 1.61E+03  20%   2.942 MM20+Lip20                                          
   6 lines in following misc. output table
  FWHM = 0.054 ppm    S/N =   4                                            
  Data shift = 0.023 ppm                                                   
  Ph:  -7 deg     -13.2 deg/ppm                                            
  alphaB,S = 1.3E+00,   2.8E+01                                            
   14 spline knots.   Ns = 6(1)                                            
  (11) 4 infls.   (11) 1 extrs.                                            
  498 points on ppm-axis = NY
      4.000000     3.992357     3.984714     3.977070     3.969427     3.961784     3.954141     3.946497     3.938854     3.931211
      3.923568     3.915925     3.908281     3.900638     3.892995     3.885352     3.877708     3.870065     3.862422     3.854779
      3.847136     3.839492     3.831849     3.824206     3.816563     3.808919     3.801276     3.793633     3.785990     3.778347
      3.770703     3.763060     3.755417     3.747774     3.740130     3.732487     3.724844     3.717201     3.709558     3.701914
      3.694271     3.686628     3.678985     3.671341     3.663698     3.656055     3.648412     3.640769     3.633125     3.625482
      3.617839     3.610196     3.602552     3.594909     3.587266     3.579623     3.571980     3.564336     3.556693     3.549050
      3.541407     3.533763     3.526120     3.518477     3.510834     3.503191     3.495547     3.487904     3.480261     3.472618
      3.464974     3.457331     3.449688     3.442045     3.434402     3.426758     3.419115     3.411472     3.403829     3.396185
      3.388542     3.380899     3.373256     3.365613     3.357969     3.350326     3.342683     3.335040     3.327396     3.319753
      3.312110     3.304467     3.296824     3.289180     3.281537     3.273894     3.266251     3.258607     3.250964     3.243321
      3.235678     3.228034     3.220391     3.212748     3.205105     3.197462     3.189818     3.182175     3.174532     3.166889
      3.159245     3.151602     3.143959     3.136316     3.128673     3.121029     3.113386     3.105743     3.098100     3.090456
      3.082813     3.075170     3.067527     3.059884     3.052240     3.044597     3.036954     3.029311     3.021667     3.014024
      3.006381     2.998738     2.991095     2.983451     2.975808     2.968165     2.960522     2.952878     2.945235     2.937592
      2.929949     2.922306     2.914662     2.907019     2.899376     2.891733     2.884089     2.876446     2.868803     2.861160
      2.853517     2.845873     2.838230     2.830587     2.822944     2.815300     2.807657     2.800014     2.792371     2.784728
      2.777084     2.769441     2.761798     2.754155     2.746511     2.738868     2.731225     2.723582     2.715939     2.708295
      2.700652     2.693009     2.685366     2.677722     2.670079     2.662436     2.654793     2.647150     2.639506     2.631863
      2.624220     2.616577     2.608933     2.601290     2.593647     2.586004     2.578361     2.570717     2.563074     2.555431
      2.547788     2.540144     2.532501     2.524858     2.517215     2.509572     2.501928     2.494285     2.486642     2.478999
      2.471355     2.463712     2.456069     2.448426     2.440783     2.433139     2.425496     2.417853     2.410210     2.402566
      2.394923     2.387280     2.379637     2.371994     2.364350     2.356707     2.349064     2.341421     2.333777     2.326134
      2.318491     2.310848     2.303205     2.295561     2.287918     2.280275     2.272632     2.264988     2.257345     2.249702
      2.242059     2.234416     2.226772     2.219129     2.211486     2.203843     2.196199     2.188556     2.180913     2.173270
      2.165627     2.157983     2.150340     2.142697     2.135054     2.127410     2.119767     2.112124     2.104481     2.096838
      2.089194     2.081551     2.073908     2.066265     2.058621     2.050978     2.043335     2.035692     2.028049     2.020405
      2.012762     2.005119     1.997476     1.989833     1.982190     1.974546     1.966903     1.959260     1.951617     1.943974
      1.936331     1.928688     1.921045     1.913402     1.905759     1.898115     1.890472     1.882829     1.875186     1.867543
      1.859900     1.852257     1.844614     1.836971     1.829327     1.821684     1.814041     1.806398     1.798755     1.791112
      1.783469     1.775826     1.768183     1.760540     1.752896     1.745253     1.737610     1.729967     1.722324     1.714681
      1.707038     1.699395     1.691752     1.684108     1.676465     1.668822     1.661179     1.653536     1.645893     1.638250
      1.630607     1.622964     1.615321     1.607677     1.600034     1.592391     1.584748     1.577105     1.569462     1.561819
      1.554176     1.546533     1.538890     1.531246     1.523603     1.515960     1.508317     1.500674     1.493031     1.485388
      1.477745     1.470102     1.462458     1.454815     1.447172     1.439529     1.431886     1.424243     1.416600     1.408957
      1.401314     1.393671     1.386027     1.378384     1.370741     1.363098     1.355455     1.347812     1.340169     1.332526
      1.324883     1.317240     1.309596     1.301953     1.294310     1.286667     1.279024     1.271381     1.263738     1.256095
      1.248452     1.240808     1.233165     1.225522     1.217879     1.210236     1.202593     1.194950     1.187307     1.179664
      1.172021     1.164377     1.156734     1.149091     1.141448     1.133805     1.126162     1.118519     1.110876     1.103233
      1.095590     1.087946     1.080303     1.072660     1.065017     1.057374     1.049731     1.042088     1.034445     1.026802
      1.019158     1.011515     1.003872     0.996229     0.988586     0.980943     0.973300     0.965657     0.958014     0.950371
      0.942727     0.935084     0.927441     0.919798     0.912155     0.904512     0.896869     0.889226     0.881583     0.873940
      0.866296     0.858653     0.851010     0.843367     0.835724     0.828081     0.820438     0.812795     0.805152     0.797508
      0.789865     0.782222     0.774579     0.766936     0.759293     0.751650     0.744007     0.736364     0.728721     0.721077
      0.713434     0.705791     0.698148     0.690505     0.682862     0.675219     0.667576     0.659933     0.652290     0.644646
      0.637003     0.629360     0.621717     0.614074     0.606431     0.598788     0.591145     0.583502     0.575858     0.568215
      0.560572     0.552929     0.545286     0.537643     0.530000     0.522357     0.514714     0.507071     0.499427     0.491784
      0.484141     0.476498     0.468855     0.461212     0.453569     0.445925     0.438282     0.430639     0.422996     0.415353
      0.407710     0.400067     0.392424     0.384780     0.377137     0.369494     0.361851     0.354208     0.346565     0.338922
      0.331278     0.323635     0.315992     0.308349     0.300706     0.293063     0.285420     0.277777     0.270133     0.262490
      0.254847     0.247204     0.239561     0.231918     0.224275     0.216631     0.208988     0.201345
 NY phased data points follow
  -6.45680E+01 -6.80339E+01 -7.24865E+01 -6.58355E+01 -5.43205E+01 -5.75611E+01 -5.57542E+01 -5.89380E+01 -5.42140E+01 -4.64223E+01
  -3.76973E+01 -4.50577E+01 -5.16356E+01 -4.97961E+01 -5.07287E+01 -5.76161E+01 -4.87858E+01 -4.63813E+01 -4.58804E+01 -3.76507E+01
  -4.50645E+01 -4.35559E+01 -4.58039E+01 -3.88700E+01 -3.70181E+01 -3.51917E+01 -3.43187E+01 -3.92625E+01 -3.91645E+01 -3.77921E+01
  -3.30871E+01 -3.21015E+01 -2.58282E+01 -3.23301E+01 -2.20422E+01 -3.24868E+01 -2.65167E+01 -3.13571E+01 -3.07145E+01 -2.88097E+01
  -2.79842E+01 -2.34163E+01 -1.62099E+01 -2.58288E+01 -2.26781E+01 -1.79339E+01 -2.19960E+01 -2.26716E+01 -2.69767E+01 -2.33698E+01
  -2.25047E+01 -2.68426E+01 -2.49698E+01 -2.32102E+01 -1.90402E+01 -1.61439E+01 -2.00499E+01 -1.87962E+01 -1.83516E+01 -1.64404E+01
  -1.73882E+01 -1.91194E+01 -1.40138E+01 -1.41193E+01 -1.11575E+01 -1.67756E+01 -1.99058E+01 -1.38401E+01 -1.90830E+01 -2.08157E+01
  -1.54055E+01 -1.66103E+01 -1.54677E+01 -1.20984E+01 -1.50628E+01 -1.06625E+01 -5.40687E+00 -1.69150E+01 -1.23155E+01 -1.09716E+01
  -8.18375E+00 -1.92276E+00 -1.12028E+00 -1.02738E+01 -1.07952E+01 -1.40526E+01 -2.62899E+00 -3.71668E+00 -1.21441E+00 -3.23022E-01
  -4.70330E+00 -5.36315E+00 -1.31350E+00 -6.15654E+00 -4.75902E+00 -5.20226E+00  4.92296E+00 -3.71884E-01  3.52226E+00  1.65540E+00
   1.31561E+01  1.59176E+01  9.41597E+00  7.78893E+00  9.82636E+00  7.55472E+00  3.92399E+00  1.89609E+00  1.71725E+00 -1.81178E+00
   4.55603E-01 -5.25514E-01 -8.26517E-01  2.18072E+00  2.51777E+00  3.04685E+00  7.45205E+00 -8.74668E-01  6.99586E+00  2.23040E+00
   8.25400E+00  1.06503E+01  1.21466E+01  7.88408E+00  1.64271E+01  2.58542E+01  2.42976E+01  2.39986E+01  2.12380E+01  2.32457E+01
   2.40778E+01  1.19882E+01  1.14358E+01  7.55909E+00  8.02032E+00  7.65096E+00  9.14087E+00  1.17630E+01  4.20405E+00  7.94207E+00
   7.77939E+00  1.38700E+01  5.38755E+00  6.49061E+00  4.26698E+00  1.52101E+01  9.51495E+00  9.76576E+00  7.04309E+00  9.06161E+00
   9.87164E+00  1.27530E+01  3.33379E+00  1.04798E+01  1.47346E+01  1.26022E+01  1.58818E+01  1.25002E+01  2.10931E+01  1.12936E+01
   1.27007E+01  1.49281E+01  9.72909E+00  1.39502E+01  1.36693E+01  1.72753E+01  1.41964E+01  1.87581E+01  1.58303E+01  2.13873E+01
   1.21057E+01  9.06410E+00  8.03174E+00  1.57272E+01  9.79008E+00  1.05622E+01  4.86380E+00  1.20338E+01  9.37864E+00  1.38470E+01
   1.03794E+01  5.97832E+00  1.78040E+01  1.34703E+01  1.28063E+01  3.61971E+00  1.87412E+01  8.22195E+00  2.00524E+01  9.15500E+00
   2.01327E+01  1.46346E+01  1.14225E+01  1.88364E+01  1.49520E+01  1.17059E+01  1.17134E+01  1.40963E+01  2.25693E+01  1.26139E+01
   1.97102E+01  2.11202E+01  1.81018E+01  1.42604E+01  2.05779E+01  2.00668E+01  1.22547E+01  1.77930E+01  1.17362E+01  1.76651E+01
   1.99747E+01  1.87259E+01  2.72664E+01  2.40926E+01  2.21042E+01  2.70239E+01  2.12364E+01  2.86867E+01  2.71762E+01  2.18894E+01
   2.02223E+01  1.19493E+01  2.59931E+01  2.82485E+01  2.57903E+01  2.53626E+01  2.89815E+01  2.36652E+01  2.59622E+01  2.77899E+01
   3.16557E+01  2.08122E+01  3.21760E+01  3.01555E+01  2.49648E+01  2.79379E+01  2.55870E+01  2.82928E+01  2.86690E+01  3.28349E+01
   2.66419E+01  2.81822E+01  2.95017E+01  3.06410E+01  2.49891E+01  3.02263E+01  3.62657E+01  3.03744E+01  3.71720E+01  2.73358E+01
   3.15347E+01  3.59969E+01  2.59083E+01  3.27648E+01  2.98182E+01  4.37035E+01  4.62280E+01  4.59592E+01  5.55490E+01  5.70816E+01
   6.51017E+01  6.25103E+01  6.02254E+01  5.08070E+01  4.96123E+01  3.54386E+01  3.39103E+01  4.23431E+01  3.58075E+01  2.85288E+01
   3.00094E+01  3.07877E+01  2.76383E+01  3.15588E+01  3.53583E+01  3.12621E+01  3.07688E+01  2.78911E+01  3.45462E+01  2.97339E+01
   3.21724E+01  2.20027E+01  2.52954E+01  3.18873E+01  3.26589E+01  2.64994E+01  2.51032E+01  2.35883E+01  2.74110E+01  2.31963E+01
   3.21990E+01  3.36824E+01  3.09855E+01  2.34009E+01  3.00549E+01  2.84217E+01  3.28660E+01  2.74818E+01  3.06385E+01  2.78658E+01
   2.87198E+01  2.39225E+01  2.57859E+01  2.93503E+01  3.39938E+01  2.62826E+01  2.66877E+01  2.35168E+01  3.18033E+01  3.31698E+01
   2.59675E+01  3.27269E+01  3.09345E+01  3.19328E+01  3.65761E+01  3.63820E+01  3.59105E+01  3.75579E+01  2.85644E+01  2.49788E+01
   3.37144E+01  2.93758E+01  3.72336E+01  2.73859E+01  2.24960E+01  2.33811E+01  2.80886E+01  2.52329E+01  2.10078E+01  2.90520E+01
   2.25391E+01  2.06269E+01  2.17902E+01  2.69097E+01  2.33965E+01  2.54192E+01  3.25990E+01  2.82326E+01  2.30859E+01  2.41440E+01
   2.47400E+01  2.92024E+01  2.00696E+01  1.85863E+01  2.35772E+01  1.63918E+01  2.24178E+01  2.44900E+01  2.02443E+01  1.24599E+01
   2.38891E+01  2.01129E+01  3.11934E+01  2.31685E+01  2.45397E+01  2.58539E+01  2.49863E+01  3.02458E+01  2.38083E+01  2.93139E+01
   2.86411E+01  2.37170E+01  2.95575E+01  2.32790E+01  1.84741E+01  2.58735E+01  1.39811E+01  2.67195E+01  2.23299E+01  2.26221E+01
   2.68007E+01  2.91580E+01  2.70529E+01  2.23162E+01  2.05442E+01  2.66035E+01  2.89516E+01  2.09904E+01  1.88295E+01  1.93724E+01
   2.53770E+01  2.67841E+01  2.61069E+01  2.69842E+01  2.37635E+01  2.33922E+01  2.68579E+01  2.73187E+01  2.75005E+01  2.74677E+01
   3.34041E+01  3.06567E+01  2.84853E+01  3.17343E+01  2.39535E+01  2.77767E+01  2.95554E+01  3.04187E+01  3.26994E+01  3.16954E+01
   2.71170E+01  2.82813E+01  2.85389E+01  3.23780E+01  2.81855E+01  2.22724E+01  2.85025E+01  2.50970E+01  2.65000E+01  2.60036E+01
   2.75578E+01  2.27987E+01  2.22398E+01  3.49225E+01  2.03659E+01  2.79246E+01  2.20830E+01  2.38255E+01  2.36377E+01  2.16990E+01
   2.64498E+01  1.90015E+01  3.22152E+01  2.97267E+01  3.07268E+01  2.14123E+01  3.04987E+01  2.30550E+01  3.01021E+01  2.91788E+01
   2.67601E+01  1.73649E+01  2.46952E+01  1.90118E+01  2.73292E+01  2.35359E+01  2.41061E+01  1.99414E+01  2.42320E+01  3.10222E+01
   2.58498E+01  2.88412E+01  1.98746E+01  2.38828E+01  2.27478E+01  1.96470E+01  1.93261E+01  1.94162E+01  2.54967E+01  2.43688E+01
   2.53998E+01  2.49048E+01  2.30484E+01  2.33206E+01  2.60508E+01  1.93315E+01  1.73006E+01  2.82913E+01  2.21689E+01  2.66585E+01
   2.44047E+01  2.49167E+01  2.59641E+01  2.94365E+01  2.38180E+01  2.47140E+01  1.82002E+01  3.41810E+01  2.48458E+01  2.19188E+01
   2.67401E+01  2.17522E+01  2.31016E+01  2.38057E+01  2.38200E+01  3.10574E+01  2.12528E+01  2.57354E+01  2.50248E+01  1.95199E+01
   2.34536E+01  1.94730E+01  2.67109E+01  2.14483E+01  1.91906E+01  2.22732E+01  1.83211E+01  2.83562E+01  2.88630E+01  3.03638E+01
   2.65615E+01  2.49600E+01  2.21979E+01  1.97976E+01  2.78734E+01  2.14366E+01  2.51113E+01  2.83087E+01
 NY points of the fit to the data follow
  -5.63142E+01 -5.63004E+01 -5.74457E+01 -5.73701E+01 -5.54780E+01 -5.47585E+01 -5.46793E+01 -5.34861E+01 -5.11107E+01 -4.86274E+01
  -4.68096E+01 -4.57458E+01 -4.53117E+01 -4.55928E+01 -4.60750E+01 -4.56449E+01 -4.51209E+01 -4.48397E+01 -4.41650E+01 -4.32712E+01
  -4.24722E+01 -4.19260E+01 -4.15854E+01 -4.11931E+01 -4.04062E+01 -3.96642E+01 -3.88656E+01 -3.75573E+01 -3.57486E+01 -3.38095E+01
  -3.20495E+01 -3.06700E+01 -3.00769E+01 -3.03419E+01 -3.11273E+01 -3.20216E+01 -3.26956E+01 -3.30580E+01 -3.29709E+01 -3.23738E+01
  -3.10674E+01 -2.90871E+01 -2.70703E+01 -2.54512E+01 -2.39949E+01 -2.24955E+01 -2.13816E+01 -2.11420E+01 -2.17001E+01 -2.27294E+01
  -2.38299E+01 -2.46808E+01 -2.49157E+01 -2.43794E+01 -2.35156E+01 -2.25419E+01 -2.15034E+01 -2.04866E+01 -1.95750E+01 -1.89059E+01
  -1.85140E+01 -1.83300E+01 -1.83416E+01 -1.83365E+01 -1.81612E+01 -1.76562E+01 -1.68748E+01 -1.60479E+01 -1.52962E+01 -1.44806E+01
  -1.36168E+01 -1.29666E+01 -1.25049E+01 -1.21193E+01 -1.18081E+01 -1.15817E+01 -1.14216E+01 -1.12407E+01 -1.10631E+01 -1.08047E+01
  -1.02109E+01 -9.44417E+00 -8.99132E+00 -8.62131E+00 -8.11024E+00 -7.69976E+00 -7.55527E+00 -7.59585E+00 -7.64857E+00 -7.57608E+00
  -7.26873E+00 -6.85385E+00 -6.33530E+00 -5.79516E+00 -5.35368E+00 -4.62416E+00 -2.28150E+00  1.21601E+00  3.48282E+00  5.52888E+00
   8.42189E+00  1.11369E+01  1.23078E+01  1.15243E+01  9.45726E+00  6.83071E+00  4.16186E+00  2.20271E+00  1.42862E+00  1.00353E+00
   5.84279E-01  6.78155E-01  9.19033E-01  1.19391E+00  1.46697E+00  1.74068E+00  2.04694E+00  2.34908E+00  2.68066E+00  3.15525E+00
   4.19764E+00  7.43566E+00  1.15315E+01  1.41678E+01  1.68672E+01  2.04979E+01  2.35873E+01  2.46392E+01  2.34555E+01  2.06824E+01
   1.72164E+01  1.37861E+01  1.12555E+01  1.00122E+01  8.99133E+00  8.10892E+00  7.91024E+00  7.99697E+00  8.28727E+00  8.76150E+00
   9.27928E+00  9.68814E+00  9.97400E+00  1.01444E+01  1.02244E+01  1.02666E+01  1.02956E+01  1.03348E+01  1.03975E+01  1.04520E+01
   1.05386E+01  1.06578E+01  1.07938E+01  1.09369E+01  1.10841E+01  1.11488E+01  1.11432E+01  1.12046E+01  1.12997E+01  1.14200E+01
   1.15316E+01  1.16106E+01  1.18115E+01  1.21382E+01  1.24533E+01  1.26572E+01  1.27277E+01  1.26939E+01  1.26433E+01  1.26017E+01
   1.25273E+01  1.24422E+01  1.25004E+01  1.26269E+01  1.27039E+01  1.27121E+01  1.27866E+01  1.30768E+01  1.34454E+01  1.36990E+01
   1.38322E+01  1.38934E+01  1.39744E+01  1.42751E+01  1.47127E+01  1.51445E+01  1.56464E+01  1.62271E+01  1.68378E+01  1.74699E+01
   1.79157E+01  1.81086E+01  1.80067E+01  1.77196E+01  1.75051E+01  1.75272E+01  1.77883E+01  1.82812E+01  1.90879E+01  2.02123E+01
   2.13637E+01  2.22163E+01  2.27313E+01  2.27247E+01  2.17468E+01  2.05335E+01  1.94839E+01  1.82228E+01  1.70798E+01  1.68845E+01
   1.80911E+01  1.97690E+01  2.14286E+01  2.32505E+01  2.49146E+01  2.55640E+01  2.48473E+01  2.35385E+01  2.22533E+01  2.10377E+01
   1.99417E+01  1.95664E+01  2.01707E+01  2.13799E+01  2.29223E+01  2.43360E+01  2.53770E+01  2.60343E+01  2.62490E+01  2.61013E+01
   2.57142E+01  2.55604E+01  2.58150E+01  2.61761E+01  2.65253E+01  2.71431E+01  2.78413E+01  2.81366E+01  2.83708E+01  2.86219E+01
   2.85617E+01  2.81289E+01  2.77329E+01  2.76414E+01  2.77215E+01  2.79840E+01  2.84849E+01  2.91430E+01  2.96898E+01  3.01444E+01
   3.06613E+01  3.11377E+01  3.15292E+01  3.21861E+01  3.51113E+01  4.16509E+01  4.64816E+01  4.97565E+01  5.46984E+01  6.02967E+01
   6.33919E+01  6.24745E+01  5.82412E+01  5.21370E+01  4.53946E+01  3.94355E+01  3.58368E+01  3.37721E+01  3.16075E+01  3.04755E+01
   2.99838E+01  2.96962E+01  2.95514E+01  2.94894E+01  2.94259E+01  2.93208E+01  2.91666E+01  2.89575E+01  2.87001E+01  2.84420E+01
   2.82106E+01  2.80072E+01  2.78444E+01  2.77268E+01  2.76516E+01  2.76028E+01  2.75651E+01  2.75375E+01  2.75199E+01  2.75056E+01
   2.74997E+01  2.75087E+01  2.75347E+01  2.75756E+01  2.76355E+01  2.77174E+01  2.78204E+01  2.79404E+01  2.80775E+01  2.82258E+01
   2.83810E+01  2.85396E+01  2.86972E+01  2.88474E+01  2.89860E+01  2.91069E+01  2.92069E+01  2.92817E+01  2.93301E+01  2.93500E+01
   2.93416E+01  2.93051E+01  2.92444E+01  2.91624E+01  2.90657E+01  2.89602E+01  2.88557E+01  2.87630E+01  2.87018E+01  2.87069E+01
   2.88735E+01  2.92615E+01  2.93273E+01  2.90596E+01  2.88529E+01  2.85694E+01  2.78763E+01  2.67135E+01  2.53347E+01  2.44441E+01
   2.41544E+01  2.40595E+01  2.43318E+01  2.50953E+01  2.60418E+01  2.69692E+01  2.76342E+01  2.79142E+01  2.78554E+01  2.75156E+01
   2.70908E+01  2.67938E+01  2.65101E+01  2.62132E+01  2.59943E+01  2.58233E+01  2.56844E+01  2.55704E+01  2.54798E+01  2.54097E+01
   2.53594E+01  2.53252E+01  2.53045E+01  2.52914E+01  2.52813E+01  2.52678E+01  2.52473E+01  2.52157E+01  2.51730E+01  2.51189E+01
   2.50569E+01  2.49891E+01  2.49204E+01  2.48530E+01  2.47903E+01  2.47329E+01  2.46819E+01  2.46365E+01  2.45972E+01  2.45628E+01
   2.45342E+01  2.45106E+01  2.44939E+01  2.44843E+01  2.44846E+01  2.44960E+01  2.45217E+01  2.45631E+01  2.46236E+01  2.47047E+01
   2.48099E+01  2.49402E+01  2.50982E+01  2.52843E+01  2.54999E+01  2.57438E+01  2.60161E+01  2.63136E+01  2.66340E+01  2.69718E+01
   2.73226E+01  2.76790E+01  2.80343E+01  2.83796E+01  2.87071E+01  2.90074E+01  2.92730E+01  2.94957E+01  2.96697E+01  2.97890E+01
   2.98510E+01  2.98531E+01  2.97965E+01  2.96824E+01  2.95155E+01  2.93002E+01  2.90438E+01  2.87528E+01  2.84361E+01  2.81007E+01
   2.77552E+01  2.74060E+01  2.70605E+01  2.67235E+01  2.64005E+01  2.60943E+01  2.58082E+01  2.55430E+01  2.53005E+01  2.50799E+01
   2.48817E+01  2.47041E+01  2.45467E+01  2.44073E+01  2.42852E+01  2.41780E+01  2.40851E+01  2.40041E+01  2.39345E+01  2.38742E+01
   2.38230E+01  2.37790E+01  2.37421E+01  2.37107E+01  2.36849E+01  2.36633E+01  2.36462E+01  2.36325E+01  2.36224E+01  2.36147E+01
   2.36100E+01  2.36073E+01  2.36072E+01  2.36085E+01  2.36120E+01  2.36165E+01  2.36229E+01  2.36302E+01  2.36391E+01  2.36487E+01
   2.36596E+01  2.36710E+01  2.36835E+01  2.36965E+01  2.37105E+01  2.37248E+01  2.37400E+01  2.37553E+01  2.37716E+01  2.37880E+01
   2.38053E+01  2.38225E+01  2.38405E+01  2.38585E+01  2.38773E+01  2.38960E+01  2.39155E+01  2.39347E+01  2.39547E+01  2.39745E+01
   2.39951E+01  2.40154E+01  2.40364E+01  2.40571E+01  2.40785E+01  2.40996E+01  2.41214E+01  2.41430E+01  2.41651E+01  2.41869E+01
   2.42093E+01  2.42314E+01  2.42541E+01  2.42765E+01  2.42994E+01  2.43220E+01  2.43452E+01  2.43681E+01  2.43914E+01  2.44144E+01
   2.44379E+01  2.44611E+01  2.44848E+01  2.45081E+01  2.45319E+01  2.45553E+01  2.45791E+01  2.46026E+01
 NY background values follow
    -5.795E+01   -5.732E+01   -5.668E+01   -5.605E+01   -5.542E+01   -5.478E+01   -5.415E+01   -5.352E+01   -5.288E+01   -5.225E+01
    -5.162E+01   -5.099E+01   -5.036E+01   -4.973E+01   -4.910E+01   -4.847E+01   -4.784E+01   -4.722E+01   -4.659E+01   -4.597E+01
    -4.534E+01   -4.472E+01   -4.410E+01   -4.348E+01   -4.286E+01   -4.225E+01   -4.163E+01   -4.102E+01   -4.041E+01   -3.980E+01
    -3.919E+01   -3.859E+01   -3.798E+01   -3.738E+01   -3.678E+01   -3.619E+01   -3.559E+01   -3.500E+01   -3.441E+01   -3.383E+01
    -3.324E+01   -3.266E+01   -3.208E+01   -3.151E+01   -3.094E+01   -3.037E+01   -2.980E+01   -2.924E+01   -2.868E+01   -2.812E+01
    -2.757E+01   -2.702E+01   -2.647E+01   -2.593E+01   -2.539E+01   -2.485E+01   -2.432E+01   -2.379E+01   -2.326E+01   -2.274E+01
    -2.222E+01   -2.170E+01   -2.119E+01   -2.068E+01   -2.017E+01   -1.967E+01   -1.917E+01   -1.868E+01   -1.819E+01   -1.770E+01
    -1.721E+01   -1.673E+01   -1.625E+01   -1.578E+01   -1.531E+01   -1.484E+01   -1.438E+01   -1.392E+01   -1.347E+01   -1.302E+01
    -1.257E+01   -1.212E+01   -1.168E+01   -1.125E+01   -1.082E+01   -1.039E+01   -9.962E+00   -9.541E+00   -9.124E+00   -8.711E+00
    -8.302E+00   -7.897E+00   -7.496E+00   -7.099E+00   -6.706E+00   -6.317E+00   -5.932E+00   -5.550E+00   -5.172E+00   -4.799E+00
    -4.428E+00   -4.062E+00   -3.700E+00   -3.341E+00   -2.985E+00   -2.634E+00   -2.286E+00   -1.942E+00   -1.601E+00   -1.264E+00
    -9.301E-01   -6.000E-01   -2.734E-01    4.972E-02    3.694E-01    6.857E-01    9.985E-01    1.308E+00    1.614E+00    1.917E+00
     2.217E+00    2.513E+00    2.806E+00    3.095E+00    3.382E+00    3.665E+00    3.946E+00    4.223E+00    4.497E+00    4.767E+00
     5.035E+00    5.300E+00    5.562E+00    5.820E+00    6.076E+00    6.329E+00    6.579E+00    6.826E+00    7.070E+00    7.312E+00
     7.550E+00    7.786E+00    8.020E+00    8.250E+00    8.479E+00    8.704E+00    8.928E+00    9.149E+00    9.367E+00    9.584E+00
     9.798E+00    1.001E+01    1.022E+01    1.043E+01    1.063E+01    1.084E+01    1.104E+01    1.124E+01    1.144E+01    1.163E+01
     1.183E+01    1.202E+01    1.221E+01    1.240E+01    1.259E+01    1.278E+01    1.296E+01    1.314E+01    1.333E+01    1.351E+01
     1.369E+01    1.387E+01    1.405E+01    1.422E+01    1.440E+01    1.457E+01    1.475E+01    1.492E+01    1.509E+01    1.526E+01
     1.543E+01    1.560E+01    1.577E+01    1.594E+01    1.611E+01    1.628E+01    1.644E+01    1.661E+01    1.677E+01    1.694E+01
     1.710E+01    1.726E+01    1.743E+01    1.759E+01    1.775E+01    1.791E+01    1.806E+01    1.822E+01    1.838E+01    1.853E+01
     1.869E+01    1.884E+01    1.899E+01    1.914E+01    1.929E+01    1.944E+01    1.958E+01    1.973E+01    1.987E+01    2.002E+01
     2.016E+01    2.030E+01    2.044E+01    2.058E+01    2.071E+01    2.085E+01    2.098E+01    2.111E+01    2.124E+01    2.137E+01
     2.150E+01    2.162E+01    2.175E+01    2.187E+01    2.199E+01    2.211E+01    2.223E+01    2.234E+01    2.246E+01    2.257E+01
     2.268E+01    2.279E+01    2.290E+01    2.300E+01    2.310E+01    2.321E+01    2.331E+01    2.340E+01    2.350E+01    2.359E+01
     2.368E+01    2.377E+01    2.386E+01    2.395E+01    2.403E+01    2.411E+01    2.419E+01    2.427E+01    2.435E+01    2.442E+01
     2.449E+01    2.456E+01    2.463E+01    2.469E+01    2.476E+01    2.482E+01    2.488E+01    2.493E+01    2.499E+01    2.504E+01
     2.509E+01    2.514E+01    2.518E+01    2.522E+01    2.526E+01    2.530E+01    2.534E+01    2.537E+01    2.540E+01    2.543E+01
     2.545E+01    2.548E+01    2.550E+01    2.552E+01    2.553E+01    2.555E+01    2.556E+01    2.557E+01    2.557E+01    2.558E+01
     2.558E+01    2.558E+01    2.558E+01    2.557E+01    2.557E+01    2.556E+01    2.555E+01    2.554E+01    2.553E+01    2.551E+01
     2.549E+01    2.547E+01    2.545E+01    2.543E+01    2.541E+01    2.538E+01    2.536E+01    2.533E+01    2.530E+01    2.527E+01
     2.524E+01    2.520E+01    2.517E+01    2.513E+01    2.509E+01    2.505E+01    2.502E+01    2.497E+01    2.493E+01    2.489E+01
     2.485E+01    2.480E+01    2.476E+01    2.471E+01    2.466E+01    2.461E+01    2.457E+01    2.452E+01    2.447E+01    2.442E+01
     2.437E+01    2.431E+01    2.426E+01    2.421E+01    2.416E+01    2.410E+01    2.405E+01    2.400E+01    2.394E+01    2.389E+01
     2.384E+01    2.378E+01    2.373E+01    2.367E+01    2.362E+01    2.357E+01    2.351E+01    2.346E+01    2.341E+01    2.335E+01
     2.330E+01    2.325E+01    2.320E+01    2.315E+01    2.310E+01    2.305E+01    2.300E+01    2.295E+01    2.290E+01    2.285E+01
     2.281E+01    2.276E+01    2.272E+01    2.267E+01    2.263E+01    2.259E+01    2.255E+01    2.251E+01    2.247E+01    2.243E+01
     2.240E+01    2.236E+01    2.233E+01    2.230E+01    2.226E+01    2.224E+01    2.221E+01    2.218E+01    2.215E+01    2.213E+01
     2.211E+01    2.209E+01    2.206E+01    2.204E+01    2.203E+01    2.201E+01    2.199E+01    2.198E+01    2.196E+01    2.195E+01
     2.194E+01    2.193E+01    2.192E+01    2.191E+01    2.190E+01    2.190E+01    2.189E+01    2.189E+01    2.189E+01    2.188E+01
     2.188E+01    2.188E+01    2.188E+01    2.188E+01    2.188E+01    2.189E+01    2.189E+01    2.189E+01    2.190E+01    2.191E+01
     2.191E+01    2.192E+01    2.193E+01    2.194E+01    2.195E+01    2.196E+01    2.197E+01    2.198E+01    2.199E+01    2.201E+01
     2.202E+01    2.204E+01    2.205E+01    2.207E+01    2.208E+01    2.210E+01    2.212E+01    2.214E+01    2.215E+01    2.217E+01
     2.219E+01    2.221E+01    2.223E+01    2.225E+01    2.228E+01    2.230E+01    2.232E+01    2.234E+01    2.236E+01    2.239E+01
     2.241E+01    2.243E+01    2.246E+01    2.248E+01    2.251E+01    2.253E+01    2.256E+01    2.258E+01    2.261E+01    2.264E+01
     2.266E+01    2.269E+01    2.271E+01    2.274E+01    2.277E+01    2.279E+01    2.282E+01    2.285E+01    2.288E+01    2.290E+01
     2.293E+01    2.296E+01    2.299E+01    2.301E+01    2.304E+01    2.307E+01    2.310E+01    2.312E+01    2.315E+01    2.318E+01
     2.321E+01    2.323E+01    2.326E+01    2.329E+01    2.332E+01    2.334E+01    2.337E+01    2.340E+01    2.343E+01    2.345E+01
     2.348E+01    2.351E+01    2.354E+01    2.356E+01    2.359E+01    2.362E+01    2.365E+01    2.368E+01    2.370E+01    2.373E+01
     2.376E+01    2.379E+01    2.382E+01    2.384E+01    2.387E+01    2.390E+01    2.393E+01    2.396E+01    2.398E+01    2.401E+01
     2.404E+01    2.407E+01    2.410E+01    2.412E+01    2.415E+01    2.418E+01    2.421E+01    2.424E+01
 Ala      Conc. = 2.16E+02
