 LCModel (Version 6.3-1L) Copyright: S.W. Provencher.          Ref.: Magn. Reson. Med. 30:672-679 (1993).                
 Slice#2 Row#6 Col#5  PD_05_press_2_raw_act
 36 lines in following concentration table = NCONC+1
    Conc.  %SD /Cr+PCr  Metabolite                                         
  123.506 220% 9.7E-02 Ala                                                 
  382.805  92%   0.301 Asp                                                 
  441.265  96%   0.347 Cr                                                  
  830.043  51%   0.653 PCr                                                 
   84.340 261% 6.6E-02 GABA                                                
  193.869 113%   0.152 Glc                                                 
  591.294  93%   0.465 Gln                                                 
 2.06E+03  30%   1.620 Glu                                                 
  630.647   8%   0.496 GPC                                                 
    0.000 999%   0.000 PCh                                                 
 1.02E+03  18%   0.799 GSH                                                 
 3.37E+03  19%   2.650 Ins                                                 
  252.303 122%   0.198 Lac                                                 
 2.37E+03   9%   1.865 NAA                                                 
  614.350  37%   0.483 NAAG                                                
   58.063  91% 4.6E-02 Scyllo                                              
    0.000 999%   0.000 Tau                                                 
    0.000 999%   0.000 -CrCH2                                              
  630.647   8%   0.496 GPC+PCh                                             
 2.98E+03   6%   2.348 NAA+NAAG                                            
 1.27E+03  10%   1.000 Cr+PCr                                              
 2.65E+03  32%   2.085 Glu+Gln                                             
 2.61E+03  57%   2.053 Lip13a                                              
   66.887 796% 5.3E-02 Lip13b                                              
  552.877  83%   0.435 Lip09                                               
 2.32E+03  24%   1.826 MM09                                                
  298.994 103%   0.235 Lip20                                               
 3.65E+03  24%   2.870 MM20                                                
  924.565  44%   0.727 MM12                                                
 1.27E+03  57%   1.001 MM14                                                
 2.46E+03  21%   1.935 MM17                                                
 2.68E+03  42%   2.105 Lip13a+Lip13b                                       
 4.87E+03  18%   3.833 MM14+Lip13a+Lip13b+MM12                             
 2.87E+03  14%   2.261 MM09+Lip09                                          
 3.95E+03  22%   3.105 MM20+Lip20                                          
   6 lines in following misc. output table
  FWHM = 0.054 ppm    S/N =   5                                            
  Data shift = 0.008 ppm                                                   
  Ph:   3 deg      11.7 deg/ppm                                            
  alphaB,S = 1.6E+00,   8.7E+01                                            
   14 spline knots.   Ns = 6(1)                                            
  ( 9) 2 infls.   ( 9) 1 extrs.                                            
  498 points on ppm-axis = NY
      4.000000     3.992357     3.984714     3.977070     3.969427     3.961784     3.954141     3.946497     3.938854     3.931211
      3.923568     3.915925     3.908281     3.900638     3.892995     3.885352     3.877708     3.870065     3.862422     3.854779
      3.847136     3.839492     3.831849     3.824206     3.816563     3.808919     3.801276     3.793633     3.785990     3.778347
      3.770703     3.763060     3.755417     3.747774     3.740130     3.732487     3.724844     3.717201     3.709558     3.701914
      3.694271     3.686628     3.678985     3.671341     3.663698     3.656055     3.648412     3.640769     3.633125     3.625482
      3.617839     3.610196     3.602552     3.594909     3.587266     3.579623     3.571980     3.564336     3.556693     3.549050
      3.541407     3.533763     3.526120     3.518477     3.510834     3.503191     3.495547     3.487904     3.480261     3.472618
      3.464974     3.457331     3.449688     3.442045     3.434402     3.426758     3.419115     3.411472     3.403829     3.396185
      3.388542     3.380899     3.373256     3.365613     3.357969     3.350326     3.342683     3.335040     3.327396     3.319753
      3.312110     3.304467     3.296824     3.289180     3.281537     3.273894     3.266251     3.258607     3.250964     3.243321
      3.235678     3.228034     3.220391     3.212748     3.205105     3.197462     3.189818     3.182175     3.174532     3.166889
      3.159245     3.151602     3.143959     3.136316     3.128673     3.121029     3.113386     3.105743     3.098100     3.090456
      3.082813     3.075170     3.067527     3.059884     3.052240     3.044597     3.036954     3.029311     3.021667     3.014024
      3.006381     2.998738     2.991095     2.983451     2.975808     2.968165     2.960522     2.952878     2.945235     2.937592
      2.929949     2.922306     2.914662     2.907019     2.899376     2.891733     2.884089     2.876446     2.868803     2.861160
      2.853517     2.845873     2.838230     2.830587     2.822944     2.815300     2.807657     2.800014     2.792371     2.784728
      2.777084     2.769441     2.761798     2.754155     2.746511     2.738868     2.731225     2.723582     2.715939     2.708295
      2.700652     2.693009     2.685366     2.677722     2.670079     2.662436     2.654793     2.647150     2.639506     2.631863
      2.624220     2.616577     2.608933     2.601290     2.593647     2.586004     2.578361     2.570717     2.563074     2.555431
      2.547788     2.540144     2.532501     2.524858     2.517215     2.509572     2.501928     2.494285     2.486642     2.478999
      2.471355     2.463712     2.456069     2.448426     2.440783     2.433139     2.425496     2.417853     2.410210     2.402566
      2.394923     2.387280     2.379637     2.371994     2.364350     2.356707     2.349064     2.341421     2.333777     2.326134
      2.318491     2.310848     2.303205     2.295561     2.287918     2.280275     2.272632     2.264988     2.257345     2.249702
      2.242059     2.234416     2.226772     2.219129     2.211486     2.203843     2.196199     2.188556     2.180913     2.173270
      2.165627     2.157983     2.150340     2.142697     2.135054     2.127410     2.119767     2.112124     2.104481     2.096838
      2.089194     2.081551     2.073908     2.066265     2.058621     2.050978     2.043335     2.035692     2.028049     2.020405
      2.012762     2.005119     1.997476     1.989833     1.982190     1.974546     1.966903     1.959260     1.951617     1.943974
      1.936331     1.928688     1.921045     1.913402     1.905759     1.898115     1.890472     1.882829     1.875186     1.867543
      1.859900     1.852257     1.844614     1.836971     1.829327     1.821684     1.814041     1.806398     1.798755     1.791112
      1.783469     1.775826     1.768183     1.760540     1.752896     1.745253     1.737610     1.729967     1.722324     1.714681
      1.707038     1.699395     1.691752     1.684108     1.676465     1.668822     1.661179     1.653536     1.645893     1.638250
      1.630607     1.622964     1.615321     1.607677     1.600034     1.592391     1.584748     1.577105     1.569462     1.561819
      1.554176     1.546533     1.538890     1.531246     1.523603     1.515960     1.508317     1.500674     1.493031     1.485388
      1.477745     1.470102     1.462458     1.454815     1.447172     1.439529     1.431886     1.424243     1.416600     1.408957
      1.401314     1.393671     1.386027     1.378384     1.370741     1.363098     1.355455     1.347812     1.340169     1.332526
      1.324883     1.317240     1.309596     1.301953     1.294310     1.286667     1.279024     1.271381     1.263738     1.256095
      1.248452     1.240808     1.233165     1.225522     1.217879     1.210236     1.202593     1.194950     1.187307     1.179664
      1.172021     1.164377     1.156734     1.149091     1.141448     1.133805     1.126162     1.118519     1.110876     1.103233
      1.095590     1.087946     1.080303     1.072660     1.065017     1.057374     1.049731     1.042088     1.034445     1.026802
      1.019158     1.011515     1.003872     0.996229     0.988586     0.980943     0.973300     0.965657     0.958014     0.950371
      0.942727     0.935084     0.927441     0.919798     0.912155     0.904512     0.896869     0.889226     0.881583     0.873940
      0.866296     0.858653     0.851010     0.843367     0.835724     0.828081     0.820438     0.812795     0.805152     0.797508
      0.789865     0.782222     0.774579     0.766936     0.759293     0.751650     0.744007     0.736364     0.728721     0.721077
      0.713434     0.705791     0.698148     0.690505     0.682862     0.675219     0.667576     0.659933     0.652290     0.644646
      0.637003     0.629360     0.621717     0.614074     0.606431     0.598788     0.591145     0.583502     0.575858     0.568215
      0.560572     0.552929     0.545286     0.537643     0.530000     0.522357     0.514714     0.507071     0.499427     0.491784
      0.484141     0.476498     0.468855     0.461212     0.453569     0.445925     0.438282     0.430639     0.422996     0.415353
      0.407710     0.400067     0.392424     0.384780     0.377137     0.369494     0.361851     0.354208     0.346565     0.338922
      0.331278     0.323635     0.315992     0.308349     0.300706     0.293063     0.285420     0.277777     0.270133     0.262490
      0.254847     0.247204     0.239561     0.231918     0.224275     0.216631     0.208988     0.201345
 NY phased data points follow
   6.96367E+01  6.17777E+01  5.72930E+01  7.55678E+01  6.94059E+01  8.38878E+01  8.83214E+01  9.09705E+01  7.68853E+01  1.03713E+02
   8.82745E+01  9.44166E+01  8.24238E+01  8.95477E+01  8.61713E+01  7.34208E+01  7.79126E+01  7.80098E+01  6.20989E+01  7.41761E+01
   6.04605E+01  6.63556E+01  6.92203E+01  7.35041E+01  6.80184E+01  8.13377E+01  8.23686E+01  7.92996E+01  8.27886E+01  7.51518E+01
   6.73882E+01  7.44143E+01  7.04267E+01  6.44278E+01  7.15401E+01  7.11180E+01  6.20399E+01  5.86836E+01  5.68862E+01  6.06901E+01
   6.84311E+01  5.59410E+01  5.49609E+01  5.10995E+01  4.90852E+01  6.15532E+01  7.28338E+01  7.38445E+01  7.14775E+01  8.21015E+01
   6.15116E+01  6.54144E+01  4.51882E+01  5.00493E+01  4.84603E+01  4.87298E+01  4.71487E+01  6.62737E+01  5.80951E+01  6.05438E+01
   6.43340E+01  5.13615E+01  5.57342E+01  3.92987E+01  3.92571E+01  5.26323E+01  4.13459E+01  2.95265E+01  3.09121E+01  5.08150E+01
   2.37075E+01  3.15841E+01  4.22112E+01  5.81221E+01  3.22882E+01  3.97091E+01  4.07796E+01  5.09089E+01  4.53801E+01  3.06420E+01
   3.52172E+01  5.21229E+01  2.00694E+01  4.13792E+01  2.91207E+01  3.99855E+01  3.60607E+01  2.42049E+01  3.36697E+01  3.18560E+01
   3.55138E+01  4.03173E+01  3.41942E+01  4.00121E+01  1.71389E+01  5.44861E+01  2.90455E+01  3.11343E+01  3.67742E+01  3.55653E+01
   4.37181E+01  5.97412E+01  8.63782E+01  8.86789E+01  9.92776E+01  7.60344E+01  6.99304E+01  5.97444E+01  5.24339E+01  4.97040E+01
   4.38312E+01  3.86635E+01  3.35522E+01  3.09714E+01  3.68265E+01  3.88635E+01  3.24869E+01  4.97059E+01  2.11424E+01  3.38060E+01
   3.05219E+01  3.62925E+01  3.64481E+01  1.57314E+01  3.43508E+01  4.98545E+01  5.92337E+01  7.59638E+01  6.34593E+01  5.96179E+01
   6.96148E+01  4.68984E+01  3.98272E+01  4.99985E+01  3.39125E+01  3.02193E+01  2.01400E+01  2.58795E+01  2.62839E+01  1.76006E+01
   1.43474E+01  2.22289E+01  1.84004E+01  1.94112E+01  1.04863E+01  1.90101E+01  9.37460E+00  2.50625E+01  7.58998E+00  1.66564E+01
   1.72487E+01  2.79615E+01  1.43163E+01  1.64118E+01  1.28992E+01  1.15696E+01  2.00303E+01  2.23919E+01  1.42417E+01  1.76349E+01
   1.47941E+01 -1.92828E+00  1.13127E+01  1.08404E+01  1.44855E+01  8.51371E+00  1.92031E+01  2.40948E+01  1.77742E+01  1.07933E+01
   3.68306E+00  2.36767E+01 -1.26283E+01  9.73941E+00  2.71168E+00  7.93471E+00 -6.96975E+00 -6.29335E+00 -2.12920E+01 -1.32158E+01
   3.53211E+00 -5.81020E+00 -4.51743E-01  9.92458E+00 -3.70184E-01  5.91831E+00 -2.61836E+00 -3.37769E+00  7.29617E+00  1.24463E+01
   1.79331E+00 -5.62025E+00  2.16498E+01  1.55943E+01 -5.35926E+00 -5.81032E-01 -6.71805E-02  1.19148E+01  9.83561E+00  5.21870E+00
   5.66104E-01  1.00886E+01  2.10964E+01  4.16936E+00  1.42146E+01  2.06261E+01  8.40050E+00  6.50390E+00  1.57656E+01  1.32669E+01
   4.79959E+00  7.43700E+00  1.19626E+01 -5.23937E+00  1.92266E+01  1.45863E+01  5.10803E+00  3.51114E+01  2.01589E+01  2.07393E+00
   1.85053E+01  1.30298E+01  1.12612E+00  1.72393E+01 -1.67086E+00 -3.38115E+00  5.88995E+00  2.84418E+01  1.72031E+01  2.22135E+01
   9.88422E+00  2.37124E+01  1.71972E+01  2.41684E+01  2.99955E+01  1.31611E+01  1.94870E+01  2.60070E+01  1.61991E+01  2.00436E+01
   1.03778E+01  6.10924E+00  2.23565E+00  3.50909E+00  7.46386E+00  6.67523E+00  9.96728E+00  2.73099E+01  2.30030E+01  3.10258E+01
   2.38519E+01  3.33240E+01  3.45921E+01  3.37357E+01  3.73944E+01  4.65991E+01  5.43671E+01  6.89656E+01  8.82960E+01  8.90952E+01
   1.06044E+02  1.11947E+02  1.14619E+02  8.58009E+01  5.14715E+01  3.50133E+01  1.32264E+01  3.07618E+01  2.15830E+01  1.69225E+01
   2.40295E+01  1.12185E+01  8.16573E+00  1.97989E+01  1.20684E+01  4.95109E+00  1.58042E+01  8.92408E+00  1.23272E+00  2.23109E+01
   7.98135E+00  1.06482E+01 -6.08712E+00  9.14982E+00  1.12952E+01  1.72517E+01  9.04134E+00  1.62678E+01  1.98300E+01  2.72304E+01
  -3.14070E+00  1.08761E+01  1.25146E+01  9.96435E+00  7.29057E+00  1.65927E+01  6.98543E-01  1.39213E+01  7.50366E+00  1.99926E+01
   2.29140E+00  6.61205E+00  1.06983E+01  2.08444E+01  6.71188E+00  1.51784E+01  2.14977E+01  3.03486E+01  1.27986E+01  2.77503E+01
   6.69920E+00 -7.23045E+00  1.25708E+01  5.25612E+00  2.02123E+01  7.89587E+00  1.89715E+01  1.61448E+01  1.30744E+01  1.93463E+01
   5.19758E+00  2.36820E+01  2.38739E+01  3.36436E+01  1.38678E+01  1.69974E+01 -3.95865E+00  1.00957E+01  1.87440E+01 -8.69806E+00
   7.23783E+00  7.76609E+00  2.84073E+01  1.03489E+01 -6.65862E-01  2.03827E+00  1.80155E+01 -1.00570E+01  5.62292E+00 -8.10525E-01
  -2.87805E+00  1.73985E+01  2.67257E+01  1.64710E+00  1.53035E+00  1.60092E+01  2.20291E+01  9.23755E+00  1.47300E+01  9.19079E+00
   1.24682E+01  1.39598E+01 -1.39242E+00  1.53748E+01  3.28156E+00  1.81878E+01  3.52376E+01  2.27198E+01  1.13285E+01  1.41788E+01
   1.16595E+01 -4.40641E-01  1.61031E+01  1.64644E+01  2.40121E+01  1.90745E+01  3.25246E+00  6.00839E+00  9.72717E+00  8.36469E+00
   1.98148E+01  7.77921E+00  1.63663E+01  1.04896E+01  8.59988E+00  7.53468E+00  1.17087E+01  1.83886E+01  1.72147E+01  2.02436E+01
   4.33246E+00  4.98916E+00  6.91421E+00  1.17096E+01  1.07695E+01  1.01456E+01  1.64471E+01  2.54193E+01  1.92649E+01  9.03705E+00
  -7.76005E+00  4.07809E+00 -9.74537E-01  5.45657E+00  1.10688E+01  1.82578E+01  1.22850E+01  7.89712E+00  1.70661E+01  2.03776E+01
   2.52354E+01  1.49566E+01  1.09175E+01  1.03770E+01  1.42216E+01  2.42108E+01  1.38538E+01  4.11323E+00  7.67714E+00  1.35396E+01
   1.49482E+01  2.54849E+01  5.30330E+00  5.05695E+00  1.08193E+01  1.70810E+01  2.79897E+00  5.15908E-02 -5.23451E+00  1.61008E+01
  -2.59899E+00  1.78442E+00 -1.14657E+01  1.43613E+01  5.23205E+00  1.99153E+00 -2.67393E+00  8.18994E+00  1.52793E+00 -1.29525E+01
   1.04700E+00 -1.58250E+00 -3.52712E+00  1.32643E+01 -2.48831E+01 -4.67359E+00  9.56788E+00  1.00266E+01 -3.41551E-01 -1.16771E+01
  -3.78103E+00 -3.73579E-01 -1.04273E+00 -9.71716E+00 -1.43843E+01 -1.00492E+01 -1.34653E+01 -8.36949E-01  3.87862E-02 -3.34713E+00
  -1.28617E+01 -1.54043E+01 -1.16823E+01 -3.90412E+00 -8.93857E+00  6.26569E-01 -2.11211E+01 -3.46911E+00 -1.33159E+01 -4.95014E+00
  -6.75873E+00 -4.96477E+00 -3.10618E+00 -3.59861E+00  1.38861E+01 -1.26904E+01 -1.28580E+01  6.53141E+00 -1.21620E+01 -9.64333E+00
  -1.99707E+00 -1.40361E+01  2.06265E+00  8.36494E+00 -1.46560E+01 -6.48224E+00 -4.08408E+00 -8.89518E+00 -2.65824E+00 -3.79086E+00
   1.31543E-01 -3.63961E+00  4.12558E+00 -4.49177E+00 -1.10841E+01 -1.90007E+01 -2.54609E+00 -1.61445E+01 -3.90713E+00  8.55795E+00
   7.37354E+00  2.62209E+00  1.10318E+00 -7.95182E+00 -1.36293E+00 -9.30520E+00 -4.69385E+00 -9.22199E+00
 NY points of the fit to the data follow
   6.64945E+01  6.48737E+01  6.40644E+01  6.43126E+01  6.59674E+01  6.88134E+01  7.28586E+01  7.76871E+01  8.25649E+01  8.65464E+01
   8.86327E+01  8.81744E+01  8.52231E+01  8.05613E+01  7.52880E+01  7.02548E+01  6.59656E+01  6.28880E+01  6.09512E+01  5.97012E+01
   5.90634E+01  5.87056E+01  5.85243E+01  5.90149E+01  6.05424E+01  6.29611E+01  6.64341E+01  7.07342E+01  7.50171E+01  7.83416E+01
   7.98482E+01  7.91080E+01  7.64383E+01  7.26579E+01  6.85725E+01  6.44975E+01  6.04104E+01  5.70756E+01  5.47787E+01  5.29067E+01
   5.17419E+01  5.19757E+01  5.39004E+01  5.72442E+01  6.15796E+01  6.65071E+01  7.10919E+01  7.39274E+01  7.39504E+01  7.08564E+01
   6.52870E+01  5.87942E+01  5.29292E+01  4.85311E+01  4.59076E+01  4.53101E+01  4.65873E+01  4.87985E+01  5.10515E+01  5.28226E+01
   5.36579E+01  5.32688E+01  5.16347E+01  4.91801E+01  4.66242E+01  4.45739E+01  4.34227E+01  4.33144E+01  4.41003E+01  4.53808E+01
   4.67576E+01  4.78062E+01  4.82964E+01  4.81496E+01  4.74224E+01  4.63443E+01  4.51688E+01  4.40757E+01  4.30835E+01  4.22009E+01
   4.15695E+01  4.09990E+01  4.02845E+01  3.93190E+01  3.80259E+01  3.63304E+01  3.42719E+01  3.21111E+01  3.02873E+01  2.92272E+01
   2.92201E+01  3.01806E+01  3.16585E+01  3.32076E+01  3.45382E+01  3.53237E+01  3.56114E+01  3.67605E+01  4.03336E+01  4.62915E+01
   5.51464E+01  6.65031E+01  7.81730E+01  8.70262E+01  9.02937E+01  8.66835E+01  7.71961E+01  6.48762E+01  5.29903E+01  4.30727E+01
   3.52732E+01  3.05499E+01  2.91655E+01  2.87915E+01  2.86040E+01  2.84311E+01  2.82303E+01  2.80009E+01  2.78121E+01  2.77781E+01
   2.82060E+01  3.01277E+01  3.40951E+01  3.98091E+01  4.73409E+01  5.60933E+01  6.44744E+01  7.05135E+01  7.24345E+01  6.95832E+01
   6.29158E+01  5.43780E+01  4.57470E+01  3.77360E+01  3.05569E+01  2.55149E+01  2.29742E+01  2.19668E+01  2.22136E+01  2.33047E+01
   2.47330E+01  2.60573E+01  2.67947E+01  2.67530E+01  2.61265E+01  2.51477E+01  2.40122E+01  2.29015E+01  2.18190E+01  2.08729E+01
   2.00159E+01  1.92122E+01  1.85062E+01  1.79539E+01  1.75573E+01  1.72309E+01  1.69171E+01  1.65295E+01  1.59704E+01  1.52813E+01
   1.45549E+01  1.39661E+01  1.36407E+01  1.35759E+01  1.36453E+01  1.36501E+01  1.34749E+01  1.31325E+01  1.26705E+01  1.21174E+01
   1.15168E+01  1.08993E+01  1.02957E+01  9.69391E+00  9.03101E+00  8.36548E+00  7.84565E+00  7.55156E+00  7.40495E+00  7.27762E+00
   7.08440E+00  6.80520E+00  6.61515E+00  6.69628E+00  7.06640E+00  7.81879E+00  9.12641E+00  1.09476E+01  1.30970E+01  1.51416E+01
   1.65422E+01  1.68692E+01  1.60283E+01  1.42970E+01  1.21323E+01  1.00347E+01  8.58839E+00  8.21257E+00  8.99020E+00  1.07110E+01
   1.29604E+01  1.51903E+01  1.69664E+01  1.80659E+01  1.81820E+01  1.71485E+01  1.51220E+01  1.23780E+01  9.38808E+00  6.78872E+00
   5.23194E+00  5.27225E+00  6.92666E+00  9.94515E+00  1.37388E+01  1.73522E+01  1.96819E+01  1.98584E+01  1.75688E+01  1.34626E+01
   8.63399E+00  4.16347E+00  1.11510E+00  1.69914E-01  1.51947E+00  4.69020E+00  8.39390E+00  1.15905E+01  1.37016E+01  1.47350E+01
   1.49840E+01  1.48852E+01  1.49852E+01  1.57051E+01  1.69337E+01  1.81551E+01  1.88587E+01  1.86598E+01  1.75054E+01  1.56335E+01
   1.35502E+01  1.18987E+01  1.11967E+01  1.16473E+01  1.31239E+01  1.53237E+01  1.75737E+01  1.92479E+01  2.01699E+01  2.06708E+01
   2.15892E+01  2.31587E+01  2.57458E+01  3.00316E+01  3.73740E+01  4.78738E+01  5.98759E+01  7.30412E+01  8.65937E+01  9.84186E+01
   1.05774E+02  1.06051E+02  9.79858E+01  8.31973E+01  6.60569E+01  5.00527E+01  3.63659E+01  2.50967E+01  1.79626E+01  1.50033E+01
   1.34147E+01  1.23471E+01  1.16487E+01  1.12391E+01  1.09439E+01  1.06585E+01  1.03176E+01  9.87941E+00  9.35870E+00  8.81971E+00
   8.31876E+00  7.88780E+00  7.56842E+00  7.38014E+00  7.29286E+00  7.25916E+00  7.26088E+00  7.30151E+00  7.39174E+00  7.53568E+00
   7.74918E+00  8.05189E+00  8.43949E+00  8.88533E+00  9.37026E+00  9.87507E+00  1.03875E+01  1.09046E+01  1.14241E+01  1.19438E+01
   1.24679E+01  1.29883E+01  1.34855E+01  1.39364E+01  1.43205E+01  1.46232E+01  1.48333E+01  1.49410E+01  1.49479E+01  1.48594E+01
   1.46816E+01  1.44230E+01  1.40950E+01  1.37101E+01  1.32825E+01  1.28277E+01  1.23621E+01  1.19020E+01  1.14642E+01  1.10671E+01
   1.07365E+01  1.05091E+01  1.03667E+01  1.02709E+01  1.01985E+01  1.00851E+01  9.84834E+00  9.43305E+00  8.83749E+00  8.17079E+00
   7.60516E+00  7.26545E+00  7.23502E+00  7.52724E+00  8.10482E+00  8.90327E+00  9.74651E+00  1.04560E+01  1.09742E+01  1.13337E+01
   1.16424E+01  1.20272E+01  1.24728E+01  1.29552E+01  1.34862E+01  1.39055E+01  1.40160E+01  1.36822E+01  1.28973E+01  1.19124E+01
   1.10490E+01  1.05837E+01  1.07068E+01  1.14148E+01  1.25779E+01  1.40228E+01  1.53722E+01  1.62562E+01  1.65890E+01  1.64624E+01
   1.60403E+01  1.54240E+01  1.46684E+01  1.39464E+01  1.33148E+01  1.27156E+01  1.21255E+01  1.15380E+01  1.09525E+01  1.03713E+01
   9.79855E+00  9.23958E+00  8.70051E+00  8.18802E+00  7.70908E+00  7.27077E+00  6.88005E+00  6.54365E+00  6.26798E+00  6.05906E+00
   5.92245E+00  5.86317E+00  5.88554E+00  5.99306E+00  6.18820E+00  6.47223E+00  6.84498E+00  7.30450E+00  7.84682E+00  8.46569E+00
   9.15241E+00  9.89577E+00  1.06820E+01  1.14950E+01  1.23163E+01  1.31261E+01  1.39033E+01  1.46265E+01  1.52748E+01  1.58286E+01
   1.62705E+01  1.65857E+01  1.67634E+01  1.67965E+01  1.66825E+01  1.64231E+01  1.60242E+01  1.54956E+01  1.48503E+01  1.41041E+01
   1.32743E+01  1.23793E+01  1.14376E+01  1.04675E+01  9.48584E+00  8.50797E+00  7.54723E+00  6.61476E+00  5.71945E+00  4.86801E+00
   4.06505E+00  3.31331E+00  2.61386E+00  1.96643E+00  1.36968E+00  8.21485E-01  3.19111E-01 -1.40555E-01 -5.60840E-01 -9.45104E-01
  -1.29663E+00 -1.61857E+00 -1.91389E+00 -2.18536E+00 -2.43552E+00 -2.66665E+00 -2.88079E+00 -3.07974E+00 -3.26513E+00 -3.43842E+00
  -3.60088E+00 -3.75362E+00 -3.89759E+00 -4.03364E+00 -4.16256E+00 -4.28502E+00 -4.40164E+00 -4.51291E+00 -4.61929E+00 -4.72119E+00
  -4.81901E+00 -4.91309E+00 -5.00371E+00 -5.09112E+00 -5.17553E+00 -5.25718E+00 -5.33629E+00 -5.41303E+00 -5.48756E+00 -5.56001E+00
  -5.63052E+00 -5.69924E+00 -5.76628E+00 -5.83176E+00 -5.89574E+00 -5.95831E+00 -6.01955E+00 -6.07957E+00 -6.13844E+00 -6.19622E+00
  -6.25296E+00 -6.30870E+00 -6.36353E+00 -6.41749E+00 -6.47064E+00 -6.52301E+00 -6.57462E+00 -6.62552E+00 -6.67578E+00 -6.72543E+00
  -6.77452E+00 -6.82305E+00 -6.87105E+00 -6.91856E+00 -6.96564E+00 -7.01231E+00 -7.05859E+00 -7.10449E+00 -7.15005E+00 -7.19530E+00
  -7.24029E+00 -7.28505E+00 -7.32957E+00 -7.37389E+00 -7.41804E+00 -7.46208E+00 -7.50604E+00 -7.54994E+00
 NY background values follow
     5.632E+01    5.604E+01    5.576E+01    5.548E+01    5.520E+01    5.492E+01    5.464E+01    5.436E+01    5.408E+01    5.380E+01
     5.352E+01    5.324E+01    5.296E+01    5.268E+01    5.240E+01    5.212E+01    5.184E+01    5.156E+01    5.128E+01    5.100E+01
     5.072E+01    5.044E+01    5.016E+01    4.988E+01    4.961E+01    4.933E+01    4.905E+01    4.877E+01    4.849E+01    4.821E+01
     4.793E+01    4.765E+01    4.737E+01    4.709E+01    4.681E+01    4.654E+01    4.626E+01    4.598E+01    4.570E+01    4.542E+01
     4.515E+01    4.487E+01    4.459E+01    4.432E+01    4.404E+01    4.376E+01    4.349E+01    4.321E+01    4.293E+01    4.266E+01
     4.238E+01    4.211E+01    4.183E+01    4.156E+01    4.129E+01    4.101E+01    4.074E+01    4.047E+01    4.019E+01    3.992E+01
     3.965E+01    3.938E+01    3.911E+01    3.884E+01    3.857E+01    3.830E+01    3.803E+01    3.776E+01    3.749E+01    3.722E+01
     3.695E+01    3.669E+01    3.642E+01    3.615E+01    3.589E+01    3.562E+01    3.536E+01    3.509E+01    3.483E+01    3.457E+01
     3.431E+01    3.404E+01    3.378E+01    3.352E+01    3.326E+01    3.300E+01    3.274E+01    3.249E+01    3.223E+01    3.197E+01
     3.172E+01    3.146E+01    3.121E+01    3.095E+01    3.070E+01    3.044E+01    3.019E+01    2.994E+01    2.969E+01    2.944E+01
     2.919E+01    2.894E+01    2.870E+01    2.845E+01    2.820E+01    2.796E+01    2.771E+01    2.747E+01    2.723E+01    2.698E+01
     2.674E+01    2.650E+01    2.626E+01    2.602E+01    2.579E+01    2.555E+01    2.531E+01    2.508E+01    2.484E+01    2.461E+01
     2.438E+01    2.414E+01    2.391E+01    2.368E+01    2.345E+01    2.323E+01    2.300E+01    2.277E+01    2.255E+01    2.232E+01
     2.210E+01    2.188E+01    2.165E+01    2.143E+01    2.121E+01    2.099E+01    2.078E+01    2.056E+01    2.034E+01    2.013E+01
     1.992E+01    1.970E+01    1.949E+01    1.928E+01    1.907E+01    1.886E+01    1.866E+01    1.845E+01    1.825E+01    1.804E+01
     1.784E+01    1.764E+01    1.744E+01    1.724E+01    1.704E+01    1.684E+01    1.664E+01    1.645E+01    1.625E+01    1.606E+01
     1.587E+01    1.568E+01    1.549E+01    1.530E+01    1.511E+01    1.492E+01    1.474E+01    1.455E+01    1.437E+01    1.419E+01
     1.401E+01    1.383E+01    1.365E+01    1.347E+01    1.330E+01    1.312E+01    1.295E+01    1.277E+01    1.260E+01    1.243E+01
     1.226E+01    1.210E+01    1.193E+01    1.176E+01    1.160E+01    1.144E+01    1.128E+01    1.112E+01    1.096E+01    1.080E+01
     1.064E+01    1.049E+01    1.033E+01    1.018E+01    1.002E+01    9.873E+00    9.723E+00    9.573E+00    9.425E+00    9.278E+00
     9.132E+00    8.988E+00    8.844E+00    8.701E+00    8.560E+00    8.419E+00    8.280E+00    8.141E+00    8.004E+00    7.867E+00
     7.732E+00    7.598E+00    7.464E+00    7.332E+00    7.201E+00    7.070E+00    6.941E+00    6.812E+00    6.685E+00    6.558E+00
     6.433E+00    6.308E+00    6.184E+00    6.062E+00    5.940E+00    5.819E+00    5.699E+00    5.580E+00    5.461E+00    5.344E+00
     5.227E+00    5.112E+00    4.997E+00    4.883E+00    4.770E+00    4.658E+00    4.547E+00    4.436E+00    4.326E+00    4.218E+00
     4.110E+00    4.002E+00    3.896E+00    3.790E+00    3.685E+00    3.581E+00    3.478E+00    3.376E+00    3.274E+00    3.173E+00
     3.073E+00    2.973E+00    2.875E+00    2.777E+00    2.679E+00    2.583E+00    2.487E+00    2.392E+00    2.298E+00    2.204E+00
     2.111E+00    2.019E+00    1.927E+00    1.836E+00    1.746E+00    1.656E+00    1.567E+00    1.479E+00    1.391E+00    1.304E+00
     1.218E+00    1.132E+00    1.047E+00    9.624E-01    8.785E-01    7.951E-01    7.124E-01    6.302E-01    5.487E-01    4.677E-01
     3.873E-01    3.075E-01    2.283E-01    1.496E-01    7.153E-02   -6.016E-03   -8.300E-02   -1.594E-01   -2.353E-01   -3.107E-01
    -3.855E-01   -4.598E-01   -5.335E-01   -6.067E-01   -6.794E-01   -7.516E-01   -8.233E-01   -8.945E-01   -9.652E-01   -1.035E+00
    -1.105E+00   -1.174E+00   -1.243E+00   -1.311E+00   -1.379E+00   -1.446E+00   -1.513E+00   -1.579E+00   -1.645E+00   -1.711E+00
    -1.776E+00   -1.840E+00   -1.904E+00   -1.968E+00   -2.031E+00   -2.094E+00   -2.157E+00   -2.219E+00   -2.280E+00   -2.341E+00
    -2.402E+00   -2.462E+00   -2.522E+00   -2.582E+00   -2.641E+00   -2.700E+00   -2.758E+00   -2.816E+00   -2.874E+00   -2.931E+00
    -2.988E+00   -3.044E+00   -3.100E+00   -3.156E+00   -3.212E+00   -3.267E+00   -3.321E+00   -3.376E+00   -3.430E+00   -3.483E+00
    -3.536E+00   -3.589E+00   -3.642E+00   -3.694E+00   -3.746E+00   -3.798E+00   -3.849E+00   -3.900E+00   -3.951E+00   -4.001E+00
    -4.051E+00   -4.101E+00   -4.150E+00   -4.199E+00   -4.248E+00   -4.297E+00   -4.345E+00   -4.393E+00   -4.441E+00   -4.488E+00
    -4.535E+00   -4.582E+00   -4.628E+00   -4.675E+00   -4.721E+00   -4.766E+00   -4.812E+00   -4.857E+00   -4.902E+00   -4.947E+00
    -4.991E+00   -5.035E+00   -5.079E+00   -5.123E+00   -5.166E+00   -5.210E+00   -5.253E+00   -5.295E+00   -5.338E+00   -5.380E+00
    -5.422E+00   -5.463E+00   -5.505E+00   -5.546E+00   -5.587E+00   -5.628E+00   -5.669E+00   -5.709E+00   -5.749E+00   -5.789E+00
    -5.828E+00   -5.868E+00   -5.907E+00   -5.946E+00   -5.985E+00   -6.023E+00   -6.062E+00   -6.100E+00   -6.138E+00   -6.176E+00
    -6.213E+00   -6.250E+00   -6.287E+00   -6.324E+00   -6.361E+00   -6.398E+00   -6.434E+00   -6.470E+00   -6.506E+00   -6.542E+00
    -6.577E+00   -6.613E+00   -6.648E+00   -6.683E+00   -6.718E+00   -6.752E+00   -6.787E+00   -6.821E+00   -6.855E+00   -6.889E+00
    -6.923E+00   -6.956E+00   -6.990E+00   -7.023E+00   -7.056E+00   -7.089E+00   -7.122E+00   -7.154E+00   -7.187E+00   -7.219E+00
    -7.251E+00   -7.283E+00   -7.315E+00   -7.347E+00   -7.378E+00   -7.409E+00   -7.441E+00   -7.472E+00   -7.503E+00   -7.533E+00
    -7.564E+00   -7.595E+00   -7.625E+00   -7.655E+00   -7.685E+00   -7.715E+00   -7.745E+00   -7.775E+00   -7.804E+00   -7.834E+00
    -7.863E+00   -7.892E+00   -7.921E+00   -7.950E+00   -7.979E+00   -8.008E+00   -8.036E+00   -8.065E+00   -8.093E+00   -8.122E+00
    -8.150E+00   -8.178E+00   -8.206E+00   -8.234E+00   -8.262E+00   -8.290E+00   -8.317E+00   -8.345E+00   -8.372E+00   -8.400E+00
    -8.427E+00   -8.454E+00   -8.482E+00   -8.509E+00   -8.536E+00   -8.563E+00   -8.590E+00   -8.617E+00   -8.644E+00   -8.671E+00
    -8.698E+00   -8.725E+00   -8.752E+00   -8.778E+00   -8.805E+00   -8.832E+00   -8.859E+00   -8.885E+00   -8.912E+00   -8.939E+00
    -8.965E+00   -8.992E+00   -9.019E+00   -9.045E+00   -9.072E+00   -9.099E+00   -9.125E+00   -9.152E+00
 Ala      Conc. = 1.24E+02
