 LCModel (Version 6.3-1L) Copyright: S.W. Provencher.          Ref.: Magn. Reson. Med. 30:672-679 (1993).                
 Slice#1 Row#6 Col#3  PD_05_press_2_raw_act
 36 lines in following concentration table = NCONC+1
    Conc.  %SD /Cr+PCr  Metabolite                                         
  456.194  57%   0.269 Ala                                                 
   10.828 999% 6.4E-03 Asp                                                 
  922.740  47%   0.545 Cr                                                  
  770.605  58%   0.455 PCr                                                 
   39.590 651% 2.3E-02 GABA                                                
  123.951 208% 7.3E-02 Glc                                                 
  704.276  75%   0.416 Gln                                                 
 1.96E+03  31%   1.156 Glu                                                 
  813.720   6%   0.481 GPC                                                 
    0.000 999%   0.000 PCh                                                 
  723.979  24%   0.428 GSH                                                 
 2.34E+03  24%   1.384 Ins                                                 
    0.000 999%   0.000 Lac                                                 
 3.45E+03   7%   2.039 NAA                                                 
  612.266  44%   0.362 NAAG                                                
  109.183  52% 6.4E-02 Scyllo                                              
  144.923 259% 8.6E-02 Tau                                                 
  196.798 116%   0.116 -CrCH2                                              
  813.720   6%   0.481 GPC+PCh                                             
 4.06E+03   4%   2.400 NAA+NAAG                                            
 1.69E+03   8%   1.000 Cr+PCr                                              
 2.66E+03  31%   1.572 Glu+Gln                                             
    0.000 999%   0.000 Lip13a                                              
    0.000 999%   0.000 Lip13b                                              
    0.000 999%   0.000 Lip09                                               
 1.81E+03  18%   1.067 MM09                                                
    0.000 999%   0.000 Lip20                                               
 3.23E+03  19%   1.906 MM20                                                
  518.735  33%   0.306 MM12                                                
 1.97E+03  25%   1.164 MM14                                                
 1.70E+03  19%   1.002 MM17                                                
    0.000 999%   0.000 Lip13a+Lip13b                                       
 2.49E+03  22%   1.470 MM14+Lip13a+Lip13b+MM12                             
 1.81E+03  18%   1.067 MM09+Lip09                                          
 3.23E+03  19%   1.906 MM20+Lip20                                          
   6 lines in following misc. output table
  FWHM = 0.046 ppm    S/N =   8                                            
  Data shift = 0.008 ppm                                                   
  Ph: -27 deg      -3.0 deg/ppm                                            
  alphaB,S = 2.7E+00,   9.7E+01                                            
   14 spline knots.   Ns = 6(1)                                            
  (12) 4 infls.   (13) 1 extrs.                                            
  498 points on ppm-axis = NY
      4.000000     3.992357     3.984714     3.977070     3.969427     3.961784     3.954141     3.946497     3.938854     3.931211
      3.923568     3.915925     3.908281     3.900638     3.892995     3.885352     3.877708     3.870065     3.862422     3.854779
      3.847136     3.839492     3.831849     3.824206     3.816563     3.808919     3.801276     3.793633     3.785990     3.778347
      3.770703     3.763060     3.755417     3.747774     3.740130     3.732487     3.724844     3.717201     3.709558     3.701914
      3.694271     3.686628     3.678985     3.671341     3.663698     3.656055     3.648412     3.640769     3.633125     3.625482
      3.617839     3.610196     3.602552     3.594909     3.587266     3.579623     3.571980     3.564336     3.556693     3.549050
      3.541407     3.533763     3.526120     3.518477     3.510834     3.503191     3.495547     3.487904     3.480261     3.472618
      3.464974     3.457331     3.449688     3.442045     3.434402     3.426758     3.419115     3.411472     3.403829     3.396185
      3.388542     3.380899     3.373256     3.365613     3.357969     3.350326     3.342683     3.335040     3.327396     3.319753
      3.312110     3.304467     3.296824     3.289180     3.281537     3.273894     3.266251     3.258607     3.250964     3.243321
      3.235678     3.228034     3.220391     3.212748     3.205105     3.197462     3.189818     3.182175     3.174532     3.166889
      3.159245     3.151602     3.143959     3.136316     3.128673     3.121029     3.113386     3.105743     3.098100     3.090456
      3.082813     3.075170     3.067527     3.059884     3.052240     3.044597     3.036954     3.029311     3.021667     3.014024
      3.006381     2.998738     2.991095     2.983451     2.975808     2.968165     2.960522     2.952878     2.945235     2.937592
      2.929949     2.922306     2.914662     2.907019     2.899376     2.891733     2.884089     2.876446     2.868803     2.861160
      2.853517     2.845873     2.838230     2.830587     2.822944     2.815300     2.807657     2.800014     2.792371     2.784728
      2.777084     2.769441     2.761798     2.754155     2.746511     2.738868     2.731225     2.723582     2.715939     2.708295
      2.700652     2.693009     2.685366     2.677722     2.670079     2.662436     2.654793     2.647150     2.639506     2.631863
      2.624220     2.616577     2.608933     2.601290     2.593647     2.586004     2.578361     2.570717     2.563074     2.555431
      2.547788     2.540144     2.532501     2.524858     2.517215     2.509572     2.501928     2.494285     2.486642     2.478999
      2.471355     2.463712     2.456069     2.448426     2.440783     2.433139     2.425496     2.417853     2.410210     2.402566
      2.394923     2.387280     2.379637     2.371994     2.364350     2.356707     2.349064     2.341421     2.333777     2.326134
      2.318491     2.310848     2.303205     2.295561     2.287918     2.280275     2.272632     2.264988     2.257345     2.249702
      2.242059     2.234416     2.226772     2.219129     2.211486     2.203843     2.196199     2.188556     2.180913     2.173270
      2.165627     2.157983     2.150340     2.142697     2.135054     2.127410     2.119767     2.112124     2.104481     2.096838
      2.089194     2.081551     2.073908     2.066265     2.058621     2.050978     2.043335     2.035692     2.028049     2.020405
      2.012762     2.005119     1.997476     1.989833     1.982190     1.974546     1.966903     1.959260     1.951617     1.943974
      1.936331     1.928688     1.921045     1.913402     1.905759     1.898115     1.890472     1.882829     1.875186     1.867543
      1.859900     1.852257     1.844614     1.836971     1.829327     1.821684     1.814041     1.806398     1.798755     1.791112
      1.783469     1.775826     1.768183     1.760540     1.752896     1.745253     1.737610     1.729967     1.722324     1.714681
      1.707038     1.699395     1.691752     1.684108     1.676465     1.668822     1.661179     1.653536     1.645893     1.638250
      1.630607     1.622964     1.615321     1.607677     1.600034     1.592391     1.584748     1.577105     1.569462     1.561819
      1.554176     1.546533     1.538890     1.531246     1.523603     1.515960     1.508317     1.500674     1.493031     1.485388
      1.477745     1.470102     1.462458     1.454815     1.447172     1.439529     1.431886     1.424243     1.416600     1.408957
      1.401314     1.393671     1.386027     1.378384     1.370741     1.363098     1.355455     1.347812     1.340169     1.332526
      1.324883     1.317240     1.309596     1.301953     1.294310     1.286667     1.279024     1.271381     1.263738     1.256095
      1.248452     1.240808     1.233165     1.225522     1.217879     1.210236     1.202593     1.194950     1.187307     1.179664
      1.172021     1.164377     1.156734     1.149091     1.141448     1.133805     1.126162     1.118519     1.110876     1.103233
      1.095590     1.087946     1.080303     1.072660     1.065017     1.057374     1.049731     1.042088     1.034445     1.026802
      1.019158     1.011515     1.003872     0.996229     0.988586     0.980943     0.973300     0.965657     0.958014     0.950371
      0.942727     0.935084     0.927441     0.919798     0.912155     0.904512     0.896869     0.889226     0.881583     0.873940
      0.866296     0.858653     0.851010     0.843367     0.835724     0.828081     0.820438     0.812795     0.805152     0.797508
      0.789865     0.782222     0.774579     0.766936     0.759293     0.751650     0.744007     0.736364     0.728721     0.721077
      0.713434     0.705791     0.698148     0.690505     0.682862     0.675219     0.667576     0.659933     0.652290     0.644646
      0.637003     0.629360     0.621717     0.614074     0.606431     0.598788     0.591145     0.583502     0.575858     0.568215
      0.560572     0.552929     0.545286     0.537643     0.530000     0.522357     0.514714     0.507071     0.499427     0.491784
      0.484141     0.476498     0.468855     0.461212     0.453569     0.445925     0.438282     0.430639     0.422996     0.415353
      0.407710     0.400067     0.392424     0.384780     0.377137     0.369494     0.361851     0.354208     0.346565     0.338922
      0.331278     0.323635     0.315992     0.308349     0.300706     0.293063     0.285420     0.277777     0.270133     0.262490
      0.254847     0.247204     0.239561     0.231918     0.224275     0.216631     0.208988     0.201345
 NY phased data points follow
   1.29305E+01  6.75561E+00  1.36372E+01  4.23556E+00  1.02273E+01  3.01651E+01  2.19322E+01  2.57963E+01  2.41127E+01  3.55012E+01
   5.15855E+01  2.29585E+01  3.50078E+01  3.74711E+01  3.14779E+01  1.84947E+01  2.92282E+01  1.32506E+01  2.31776E+01  1.01732E+01
   2.26727E+00  2.52632E+00  9.42839E+00  1.42000E+01  2.10660E+01  2.21024E+01  1.50953E+01  1.05379E+01  1.42264E+01  2.41920E+01
   2.24047E+01  5.82087E+00  1.66781E+01  1.63996E+01  1.27733E+01  2.00846E+01  1.40025E+01  2.68227E+01  1.12220E+01  1.91986E+01
   1.31849E+01  1.75380E+01  2.16942E+01  2.18114E+01  1.58158E+01  2.25594E+01  2.54037E+01  2.76257E+01  1.57880E+01  1.74756E+01
   2.60655E+01  1.91459E+01  1.43683E+01  1.07049E+01  1.66557E+01  2.64001E+01  7.61935E+00  9.80949E+00  1.05929E+01  2.15049E+00
   1.94967E+01  1.23126E+01 -4.10892E+00  5.70262E+00 -5.10051E+00 -5.43595E+00  5.15734E+00  3.18260E+00  4.38658E+00  1.29566E+00
  -5.23725E+00  5.16036E+00 -6.87748E+00 -5.11899E-01  3.19512E+00 -2.20713E+00 -7.04896E+00 -5.29544E-01  1.18338E+01  5.59686E+00
   2.24240E+00  5.19219E+00  2.27099E-01  6.40198E+00  2.82289E+00  8.04916E+00  8.86924E-01 -1.71578E+00 -4.41046E+00  4.93058E+00
   6.03570E+00  1.17670E+01  1.77724E+01  1.65924E+01  1.78509E+01  1.19666E+01  6.20508E+00  1.65954E+01  1.21506E+01  2.05722E+01
   3.81832E+01  5.52834E+01  8.10115E+01  8.07201E+01  7.34421E+01  5.12801E+01  4.79505E+01  3.37859E+01  3.42619E+01  2.87427E+01
   1.58210E+01  7.05402E+00  1.43717E+01  1.09526E+01  6.84121E+00  4.38830E+00  1.01397E+01  2.21899E+01 -1.89008E+00  6.23266E+00
   5.52600E+00  3.38939E+00  4.32460E+00  2.20158E+01  3.49636E+01  3.21213E+01  5.85433E+01  6.90840E+01  5.92492E+01  5.68311E+01
   2.57291E+01  2.52345E+01  1.64750E+01  1.51637E+01  1.26328E+01  9.51131E+00  6.50513E+00  4.74429E+00  9.33317E+00  1.10750E+01
   8.46879E+00  2.89605E+00  2.24414E+01  3.08310E+00 -1.47377E+00 -1.51462E+00  6.12931E+00  6.06450E+00 -3.34203E+00 -2.47134E+00
  -9.75867E-01  1.52062E+01  1.45850E+01 -4.11632E-01 -5.01745E+00 -1.42841E+01 -3.67681E+00  1.67949E+00 -8.73699E+00 -1.04506E+00
  -1.28256E+01 -8.03465E+00 -5.18657E+00 -7.30368E+00  1.24996E+00 -4.14052E+00 -5.19185E+00 -1.35845E+01 -1.79757E+01 -2.37851E+01
  -1.94502E+01 -2.12576E+01 -2.34535E+01 -2.37851E+01 -3.81407E+01 -3.84553E+01 -2.44918E+01 -2.87609E+01 -2.84798E+01 -3.24551E+01
  -2.81339E+01 -2.16669E+01 -2.39989E+01 -1.56418E+01 -1.01650E+01 -6.01864E+00 -1.65733E+01 -2.52090E+01 -1.92344E+01 -1.89287E+01
  -9.24999E+00 -2.47931E+00 -1.55109E+01 -1.28056E+01 -7.17005E+00 -9.94555E+00 -1.83746E+01 -2.02900E+01  1.21187E+00 -2.61572E+01
  -1.40074E+01 -1.11428E+01 -6.32171E+00  7.42084E+00 -1.90461E+00  1.50268E+01  4.28285E+00 -9.15591E+00  7.39454E+00 -8.92355E+00
  -9.25600E+00 -9.48817E+00  2.09389E+00  7.63935E+00 -1.59549E+00  6.11763E+00  2.04523E+01  1.12239E+01  6.19548E+00  5.96543E+00
   6.16415E+00 -8.46982E+00 -6.71862E+00 -8.70938E+00  3.75954E+00 -1.14173E+01 -1.38773E+00  5.05451E+00  3.61676E+00 -2.20620E+00
   1.35741E+01  1.46579E+01  1.00342E+01  1.78359E+01  5.06671E+00 -3.09757E-01  1.02159E+01  1.50878E+01 -1.97930E+00  7.94858E+00
  -2.11453E+00 -5.92362E+00 -9.72022E+00  3.42483E+00  7.82634E+00  7.55004E+00 -5.81197E-01  1.58025E+01  2.35070E+01  6.93300E+00
   2.42967E+01  2.32948E+01  1.41630E+01  3.52197E+01  4.00737E+01  4.88494E+01  6.56288E+01  7.78345E+01  9.05852E+01  1.27691E+02
   1.42729E+02  1.51324E+02  1.06313E+02  8.24830E+01  4.83717E+01  3.86009E+01  2.45170E+01  1.15323E+01  8.28396E+00  1.05576E+01
   5.02951E+00  1.04363E+01  5.71514E+00 -1.36843E+00  8.69975E+00  4.18238E+00 -3.16779E+00 -6.66684E+00 -7.22582E+00  2.23725E+00
  -1.61736E+00 -3.05234E+00 -1.43554E+01  6.10612E-01  1.09997E+00 -1.66901E+01 -6.66709E+00 -5.66632E+00 -2.09590E+01 -3.28442E+00
  -6.32251E+00 -1.02230E+01  2.07634E+00 -3.88742E+00 -6.28808E+00 -9.11273E+00 -5.23806E+00 -7.98731E+00 -1.10244E+01 -4.26100E+00
  -6.90897E+00 -1.22066E+01 -1.84152E+00 -9.06317E+00  4.48167E+00 -9.10459E+00  9.83845E+00  3.29936E+00  6.04807E+00 -2.18744E+00
   1.14085E+01  2.39453E+01  2.60495E+00  5.56490E+00  1.99463E+01  1.42573E+01  1.77732E+01  1.68536E+01  1.01389E+01  9.72545E+00
   1.83526E+01  2.07156E+01  2.94201E+01  2.24526E+01  2.93362E+01  2.24222E+01  2.87611E+01  1.71361E+01  1.94497E+01  1.80752E+01
   1.62405E+01  3.14707E+00  2.04800E+00  3.63773E+00 -2.45933E+00  2.44717E+00  3.73098E+00  4.40346E-01  7.72729E+00 -6.76124E+00
  -2.31455E+00 -8.73384E+00 -4.03937E+00  9.91163E+00  2.64857E+00  2.59160E+00  2.28871E+00 -6.73708E-01  1.25142E+01  3.36094E+00
  -3.53649E+00 -5.96663E+00  1.23472E+00  1.67011E+00 -1.08932E+01 -2.99300E-02 -1.39855E+01  4.89771E+00 -4.11548E+00 -5.45523E+00
  -6.67193E+00 -1.20290E+01 -1.35780E+01  6.71066E+00  2.61289E+00 -7.22509E+00 -7.84270E+00 -4.42773E+00  1.70320E+00 -5.65718E+00
  -1.97554E+00  8.40517E+00 -7.50261E+00 -3.43757E+00  9.37098E+00 -2.01255E+00 -7.51701E-01  5.52949E+00 -4.04388E+00 -4.97151E+00
   6.13781E+00 -7.93585E+00 -4.83851E+00  3.37041E+00 -7.05826E+00 -7.78090E-02 -8.49609E+00 -4.90331E+00  3.85055E+00  1.27260E+00
  -1.70890E+01 -7.55475E+00  6.47584E+00 -6.62401E-01 -9.43289E+00 -5.14669E+00 -2.67397E+00  3.84232E+00  5.63256E+00  6.78155E+00
   2.18604E+01  2.02993E+00  1.51881E+01  3.92605E+00  7.11477E+00  3.27551E+00  1.36372E+01  2.17938E-01  1.03643E+01  7.05404E+00
   7.65866E+00  1.13626E+01 -1.27719E+00 -1.98143E+01  1.71975E+00 -5.16470E+00 -1.64554E+00  9.07510E-01 -1.26434E+01 -8.97068E+00
  -5.35578E+00  7.63358E+00 -1.14816E+01 -5.71962E+00  6.53945E+00 -6.89232E+00 -2.15708E+01 -1.50133E+01  3.66089E+00  9.22712E-01
  -6.13097E+00 -9.65496E+00 -6.61960E-01 -1.95156E+01 -2.25944E+01 -2.53744E+00  4.55386E+00 -1.03744E+01 -1.33762E+01 -1.09591E+00
  -2.44160E+00  2.06511E-01  1.17910E+00 -1.31087E+00  9.33587E+00 -1.58155E+01 -9.26691E+00 -6.97701E+00 -1.81223E+00 -1.20668E+01
   2.32803E+00 -1.10086E+01 -1.66261E+00 -2.82997E+00 -1.06940E+01  2.62488E+00  1.54055E-01 -2.51299E-01 -5.99927E+00 -8.58081E-01
  -4.78251E+00  2.28353E+00 -5.38753E+00 -5.61494E+00 -1.33550E+01 -2.51523E+00  2.00142E+00 -1.58602E+00 -3.22674E+00  3.79759E+00
   6.16466E+00 -5.42232E+00  3.22581E+00 -4.43713E-01  2.78583E+00  1.41929E+00 -2.30770E+00 -2.02245E+00  9.86089E+00 -2.08146E-01
  -3.78719E+00  1.36700E+01 -3.59178E-01 -5.54772E+00 -1.08883E+00 -5.15770E+00 -6.06668E+00 -1.78761E+00 -2.08653E+00 -8.22186E+00
  -3.05762E+00 -1.04965E+01  2.35889E+00  1.05484E+01 -7.52692E+00 -7.28126E+00 -7.46473E+00 -1.17283E+01
 NY points of the fit to the data follow
   7.86846E+00  7.36372E+00  7.46176E+00  8.59860E+00  1.08532E+01  1.43528E+01  1.94288E+01  2.54084E+01  3.14020E+01  3.64701E+01
   3.96483E+01  4.01308E+01  3.76660E+01  3.29558E+01  2.73780E+01  2.21210E+01  1.78168E+01  1.45695E+01  1.17913E+01  9.82728E+00
   9.15059E+00  8.90108E+00  8.61278E+00  8.57868E+00  9.31062E+00  1.05306E+01  1.22615E+01  1.47892E+01  1.79988E+01  2.10170E+01
   2.27644E+01  2.29422E+01  2.20135E+01  2.05504E+01  1.86859E+01  1.61113E+01  1.27908E+01  9.73029E+00  7.83074E+00  6.59451E+00
   6.22631E+00  7.25693E+00  9.58073E+00  1.26595E+01  1.61577E+01  1.99444E+01  2.31268E+01  2.42785E+01  2.27435E+01  1.90862E+01
   1.47704E+01  1.11028E+01  8.35505E+00  6.26308E+00  4.95178E+00  4.88955E+00  5.91521E+00  7.35817E+00  8.76620E+00  9.75416E+00
   9.90382E+00  9.07497E+00  7.50943E+00  5.82736E+00  4.54676E+00  3.85976E+00  3.76501E+00  4.17549E+00  4.88909E+00  5.76755E+00
   6.68511E+00  7.39491E+00  7.71702E+00  7.60327E+00  7.17095E+00  6.61464E+00  6.00804E+00  5.38811E+00  4.73430E+00  4.22075E+00
   4.11626E+00  4.32844E+00  4.56488E+00  4.77656E+00  4.93656E+00  4.78219E+00  4.02862E+00  2.72260E+00  1.33273E+00  4.30583E-01
   3.14077E-01  7.30630E-01  1.23489E+00  1.65173E+00  2.14842E+00  2.81187E+00  4.06405E+00  8.30688E+00  1.62772E+01  2.72272E+01
   4.15148E+01  5.82417E+01  7.32391E+01  8.05337E+01  7.69686E+01  6.48035E+01  4.97558E+01  3.64516E+01  2.57461E+01  1.60745E+01
   7.30027E+00  2.37713E+00  1.03638E+00  6.33015E-01  4.62261E-01  3.74329E-01  3.44907E-01  3.62969E-01  4.84952E-01  8.77305E-01
   2.15551E+00  5.93910E+00  1.25023E+01  2.11654E+01  3.20163E+01  4.43124E+01  5.51012E+01  6.03384E+01  5.78969E+01  4.94502E+01
   3.90328E+01  2.96642E+01  2.15994E+01  1.36028E+01  5.79562E+00  7.24843E-01 -1.27438E+00 -1.69836E+00 -1.16081E+00 -1.71152E-01
   8.29088E-01  1.61220E+00  1.98009E+00  1.85746E+00  1.43339E+00  8.65199E-01  2.18818E-01 -4.11573E-01 -1.05072E+00 -1.61964E+00
  -2.09812E+00 -2.52698E+00 -2.88515E+00 -3.11680E+00 -3.21509E+00 -3.30328E+00 -3.44277E+00 -3.70909E+00 -4.22073E+00 -4.90104E+00
  -5.57411E+00 -5.93507E+00 -5.78717E+00 -5.32045E+00 -5.02674E+00 -5.30689E+00 -6.10455E+00 -7.00465E+00 -7.70593E+00 -8.29741E+00
  -8.92793E+00 -9.65750E+00 -1.03733E+01 -1.09921E+01 -1.15793E+01 -1.20420E+01 -1.20626E+01 -1.15978E+01 -1.10614E+01 -1.08902E+01
  -1.10914E+01 -1.13427E+01 -1.12204E+01 -1.06819E+01 -1.00803E+01 -9.39763E+00 -8.08041E+00 -5.87358E+00 -3.05592E+00 -4.25880E-01
   1.30016E+00  1.85417E+00  1.33559E+00  1.89211E-01 -1.16461E+00 -2.53580E+00 -3.56496E+00 -3.84773E+00 -3.22435E+00 -1.81533E+00
   1.05089E-01  2.12912E+00  3.83295E+00  4.89655E+00  4.84767E+00  3.47037E+00  9.47388E-01 -2.30201E+00 -5.62485E+00 -8.24195E+00
  -9.44630E+00 -8.79672E+00 -6.51169E+00 -3.01242E+00  1.11248E+00  4.83539E+00  6.79556E+00  6.11533E+00  2.97853E+00 -1.27791E+00
  -5.41339E+00 -8.86287E+00 -1.08880E+01 -1.07708E+01 -8.39194E+00 -4.63381E+00 -1.12359E+00  1.38820E+00  2.89745E+00  3.69113E+00
   3.92554E+00  3.84915E+00  3.97690E+00  4.62107E+00  5.55730E+00  6.39519E+00  6.88817E+00  6.78673E+00  6.07783E+00  4.93754E+00
   3.67980E+00  2.69422E+00  2.37748E+00  2.98867E+00  4.40827E+00  6.28080E+00  8.00792E+00  9.18571E+00  9.96700E+00  1.09221E+01
   1.28857E+01  1.57141E+01  1.95951E+01  2.53768E+01  3.56312E+01  5.08014E+01  6.74167E+01  8.55924E+01  1.06218E+02  1.25942E+02
   1.36549E+02  1.31415E+02  1.11851E+02  8.64792E+01  6.40671E+01  4.65699E+01  3.12141E+01  1.64748E+01  6.56837E+00  3.31292E+00
   2.01222E+00  1.23408E+00  7.87980E-01  5.85194E-01  4.13555E-01  1.61506E-01 -1.96503E-01 -6.25707E-01 -1.06403E+00 -1.46856E+00
  -1.84028E+00 -2.17773E+00 -2.44108E+00 -2.62117E+00 -2.77245E+00 -2.94217E+00 -3.12188E+00 -3.28784E+00 -3.42848E+00 -3.54548E+00
  -3.62191E+00 -3.63841E+00 -3.61150E+00 -3.57447E+00 -3.53417E+00 -3.48369E+00 -3.40985E+00 -3.29847E+00 -3.13539E+00 -2.89837E+00
  -2.55956E+00 -2.11080E+00 -1.55445E+00 -8.91870E-01 -1.20819E-01  7.61401E-01  1.75025E+00  2.83397E+00  4.00564E+00  5.25183E+00
   6.55046E+00  7.87532E+00  9.19699E+00  1.04839E+01  1.17048E+01  1.28305E+01  1.38362E+01  1.47043E+01  1.54285E+01  1.60198E+01
   1.65212E+01  1.70428E+01  1.75934E+01  1.79254E+01  1.79799E+01  1.76483E+01  1.66162E+01  1.45505E+01  1.14808E+01  8.02049E+00
   5.15148E+00  3.28464E+00  2.38253E+00  2.36806E+00  3.26455E+00  4.96364E+00  6.79497E+00  7.78393E+00  7.77919E+00  7.15394E+00
   6.32062E+00  5.41116E+00  4.30077E+00  3.04298E+00  2.03919E+00  1.27924E+00  6.52777E-01  1.17851E-01 -3.44135E-01 -7.43468E-01
  -1.08718E+00 -1.38032E+00 -1.62718E+00 -1.83163E+00 -1.99802E+00 -2.13089E+00 -2.23504E+00 -2.31482E+00 -2.37450E+00 -2.41811E+00
  -2.44993E+00 -2.47389E+00 -2.49348E+00 -2.51123E+00 -2.52922E+00 -2.54896E+00 -2.57179E+00 -2.59824E+00 -2.62815E+00 -2.66038E+00
  -2.69347E+00 -2.72557E+00 -2.75471E+00 -2.77827E+00 -2.79318E+00 -2.79585E+00 -2.78278E+00 -2.75042E+00 -2.69526E+00 -2.61337E+00
  -2.50068E+00 -2.35303E+00 -2.16676E+00 -1.93846E+00 -1.66514E+00 -1.34393E+00 -9.72753E-01 -5.50441E-01 -7.74812E-02  4.44252E-01
   1.01116E+00  1.61811E+00  2.25773E+00  2.92049E+00  3.59448E+00  4.26612E+00  4.92039E+00  5.54159E+00  6.11328E+00  6.61928E+00
   7.04412E+00  7.37440E+00  7.59922E+00  7.71093E+00  7.70500E+00  7.58061E+00  7.34051E+00  6.99146E+00  6.54338E+00  6.00902E+00
   5.40275E+00  4.74028E+00  4.03777E+00  3.31158E+00  2.57706E+00  1.84824E+00  1.13698E+00  4.53224E-01 -1.95235E-01 -8.02425E-01
  -1.36460E+00 -1.87985E+00 -2.34816E+00 -2.77053E+00 -3.14893E+00 -3.48580E+00 -3.78432E+00 -4.04792E+00 -4.28034E+00 -4.48491E+00
  -4.66482E+00 -4.82285E+00 -4.96183E+00 -5.08431E+00 -5.19268E+00 -5.28869E+00 -5.37392E+00 -5.44962E+00 -5.51720E+00 -5.57779E+00
  -5.63243E+00 -5.68166E+00 -5.72606E+00 -5.76612E+00 -5.80253E+00 -5.83576E+00 -5.86622E+00 -5.89397E+00 -5.91928E+00 -5.94235E+00
  -5.96365E+00 -5.98332E+00 -6.00151E+00 -6.01812E+00 -6.03332E+00 -6.04726E+00 -6.06026E+00 -6.07233E+00 -6.08348E+00 -6.09360E+00
  -6.10286E+00 -6.11141E+00 -6.11946E+00 -6.12689E+00 -6.13368E+00 -6.13974E+00 -6.14528E+00 -6.15041E+00 -6.15525E+00 -6.15963E+00
  -6.16351E+00 -6.16687E+00 -6.16995E+00 -6.17278E+00 -6.17541E+00 -6.17761E+00 -6.17943E+00 -6.18088E+00 -6.18220E+00 -6.18336E+00
  -6.18434E+00 -6.18493E+00 -6.18523E+00 -6.18528E+00 -6.18529E+00 -6.18514E+00 -6.18479E+00 -6.18407E+00 -6.18313E+00 -6.18203E+00
  -6.18091E+00 -6.17958E+00 -6.17801E+00 -6.17607E+00 -6.17395E+00 -6.17169E+00 -6.16935E+00 -6.16669E+00
 NY background values follow
     1.209E+00    1.176E+00    1.143E+00    1.109E+00    1.076E+00    1.043E+00    1.010E+00    9.763E-01    9.430E-01    9.097E-01
     8.764E-01    8.432E-01    8.099E-01    7.766E-01    7.433E-01    7.101E-01    6.768E-01    6.435E-01    6.103E-01    5.770E-01
     5.438E-01    5.105E-01    4.773E-01    4.440E-01    4.108E-01    3.775E-01    3.443E-01    3.110E-01    2.778E-01    2.446E-01
     2.114E-01    1.782E-01    1.449E-01    1.117E-01    7.855E-02    4.536E-02    1.217E-02   -2.100E-02   -5.417E-02   -8.734E-02
    -1.205E-01   -1.536E-01   -1.868E-01   -2.199E-01   -2.530E-01   -2.861E-01   -3.193E-01   -3.523E-01   -3.854E-01   -4.185E-01
    -4.516E-01   -4.846E-01   -5.177E-01   -5.507E-01   -5.837E-01   -6.167E-01   -6.497E-01   -6.826E-01   -7.156E-01   -7.485E-01
    -7.814E-01   -8.143E-01   -8.472E-01   -8.801E-01   -9.129E-01   -9.458E-01   -9.785E-01   -1.011E+00   -1.044E+00   -1.077E+00
    -1.110E+00   -1.142E+00   -1.175E+00   -1.208E+00   -1.240E+00   -1.273E+00   -1.305E+00   -1.338E+00   -1.370E+00   -1.403E+00
    -1.435E+00   -1.468E+00   -1.500E+00   -1.532E+00   -1.565E+00   -1.597E+00   -1.629E+00   -1.661E+00   -1.694E+00   -1.726E+00
    -1.758E+00   -1.790E+00   -1.822E+00   -1.854E+00   -1.886E+00   -1.918E+00   -1.950E+00   -1.982E+00   -2.013E+00   -2.045E+00
    -2.077E+00   -2.108E+00   -2.140E+00   -2.172E+00   -2.203E+00   -2.235E+00   -2.266E+00   -2.297E+00   -2.329E+00   -2.360E+00
    -2.391E+00   -2.422E+00   -2.454E+00   -2.485E+00   -2.516E+00   -2.547E+00   -2.577E+00   -2.608E+00   -2.639E+00   -2.670E+00
    -2.700E+00   -2.731E+00   -2.761E+00   -2.792E+00   -2.822E+00   -2.853E+00   -2.883E+00   -2.913E+00   -2.943E+00   -2.973E+00
    -3.003E+00   -3.033E+00   -3.063E+00   -3.093E+00   -3.122E+00   -3.152E+00   -3.182E+00   -3.211E+00   -3.240E+00   -3.270E+00
    -3.299E+00   -3.328E+00   -3.357E+00   -3.386E+00   -3.415E+00   -3.444E+00   -3.472E+00   -3.501E+00   -3.530E+00   -3.558E+00
    -3.586E+00   -3.614E+00   -3.643E+00   -3.671E+00   -3.698E+00   -3.726E+00   -3.754E+00   -3.781E+00   -3.809E+00   -3.836E+00
    -3.863E+00   -3.890E+00   -3.917E+00   -3.944E+00   -3.971E+00   -3.998E+00   -4.024E+00   -4.050E+00   -4.077E+00   -4.103E+00
    -4.129E+00   -4.154E+00   -4.180E+00   -4.206E+00   -4.231E+00   -4.256E+00   -4.281E+00   -4.306E+00   -4.331E+00   -4.356E+00
    -4.380E+00   -4.405E+00   -4.429E+00   -4.453E+00   -4.477E+00   -4.501E+00   -4.524E+00   -4.548E+00   -4.571E+00   -4.594E+00
    -4.617E+00   -4.640E+00   -4.662E+00   -4.685E+00   -4.707E+00   -4.730E+00   -4.752E+00   -4.774E+00   -4.795E+00   -4.817E+00
    -4.839E+00   -4.860E+00   -4.881E+00   -4.902E+00   -4.923E+00   -4.944E+00   -4.965E+00   -4.985E+00   -5.005E+00   -5.026E+00
    -5.046E+00   -5.066E+00   -5.085E+00   -5.105E+00   -5.124E+00   -5.144E+00   -5.163E+00   -5.182E+00   -5.201E+00   -5.220E+00
    -5.239E+00   -5.257E+00   -5.276E+00   -5.294E+00   -5.312E+00   -5.330E+00   -5.348E+00   -5.366E+00   -5.383E+00   -5.401E+00
    -5.418E+00   -5.435E+00   -5.452E+00   -5.469E+00   -5.486E+00   -5.503E+00   -5.519E+00   -5.536E+00   -5.552E+00   -5.568E+00
    -5.584E+00   -5.600E+00   -5.616E+00   -5.631E+00   -5.647E+00   -5.662E+00   -5.677E+00   -5.692E+00   -5.707E+00   -5.722E+00
    -5.737E+00   -5.752E+00   -5.766E+00   -5.780E+00   -5.794E+00   -5.809E+00   -5.822E+00   -5.836E+00   -5.850E+00   -5.863E+00
    -5.877E+00   -5.890E+00   -5.903E+00   -5.916E+00   -5.929E+00   -5.942E+00   -5.954E+00   -5.967E+00   -5.979E+00   -5.992E+00
    -6.004E+00   -6.016E+00   -6.028E+00   -6.039E+00   -6.051E+00   -6.062E+00   -6.074E+00   -6.085E+00   -6.096E+00   -6.107E+00
    -6.118E+00   -6.128E+00   -6.139E+00   -6.150E+00   -6.160E+00   -6.170E+00   -6.180E+00   -6.190E+00   -6.200E+00   -6.210E+00
    -6.219E+00   -6.229E+00   -6.238E+00   -6.247E+00   -6.257E+00   -6.266E+00   -6.274E+00   -6.283E+00   -6.292E+00   -6.300E+00
    -6.309E+00   -6.317E+00   -6.325E+00   -6.333E+00   -6.341E+00   -6.349E+00   -6.357E+00   -6.364E+00   -6.372E+00   -6.379E+00
    -6.387E+00   -6.394E+00   -6.401E+00   -6.408E+00   -6.414E+00   -6.421E+00   -6.428E+00   -6.434E+00   -6.441E+00   -6.447E+00
    -6.453E+00   -6.459E+00   -6.465E+00   -6.471E+00   -6.476E+00   -6.482E+00   -6.488E+00   -6.493E+00   -6.498E+00   -6.503E+00
    -6.508E+00   -6.513E+00   -6.518E+00   -6.523E+00   -6.528E+00   -6.532E+00   -6.537E+00   -6.541E+00   -6.545E+00   -6.549E+00
    -6.553E+00   -6.557E+00   -6.561E+00   -6.565E+00   -6.569E+00   -6.572E+00   -6.576E+00   -6.579E+00   -6.582E+00   -6.585E+00
    -6.588E+00   -6.591E+00   -6.594E+00   -6.597E+00   -6.599E+00   -6.602E+00   -6.604E+00   -6.607E+00   -6.609E+00   -6.611E+00
    -6.613E+00   -6.615E+00   -6.617E+00   -6.619E+00   -6.621E+00   -6.622E+00   -6.624E+00   -6.625E+00   -6.627E+00   -6.628E+00
    -6.629E+00   -6.630E+00   -6.631E+00   -6.632E+00   -6.633E+00   -6.634E+00   -6.634E+00   -6.635E+00   -6.635E+00   -6.636E+00
    -6.636E+00   -6.636E+00   -6.636E+00   -6.636E+00   -6.636E+00   -6.636E+00   -6.636E+00   -6.636E+00   -6.635E+00   -6.635E+00
    -6.634E+00   -6.634E+00   -6.633E+00   -6.632E+00   -6.631E+00   -6.630E+00   -6.629E+00   -6.628E+00   -6.627E+00   -6.626E+00
    -6.624E+00   -6.623E+00   -6.622E+00   -6.620E+00   -6.618E+00   -6.617E+00   -6.615E+00   -6.613E+00   -6.611E+00   -6.609E+00
    -6.607E+00   -6.605E+00   -6.603E+00   -6.601E+00   -6.598E+00   -6.596E+00   -6.594E+00   -6.591E+00   -6.589E+00   -6.586E+00
    -6.583E+00   -6.581E+00   -6.578E+00   -6.575E+00   -6.572E+00   -6.569E+00   -6.566E+00   -6.563E+00   -6.560E+00   -6.557E+00
    -6.553E+00   -6.550E+00   -6.547E+00   -6.544E+00   -6.540E+00   -6.537E+00   -6.533E+00   -6.530E+00   -6.526E+00   -6.523E+00
    -6.519E+00   -6.515E+00   -6.512E+00   -6.508E+00   -6.504E+00   -6.500E+00   -6.497E+00   -6.493E+00   -6.489E+00   -6.485E+00
    -6.481E+00   -6.477E+00   -6.473E+00   -6.469E+00   -6.465E+00   -6.461E+00   -6.457E+00   -6.453E+00   -6.449E+00   -6.445E+00
    -6.441E+00   -6.437E+00   -6.432E+00   -6.428E+00   -6.424E+00   -6.420E+00   -6.416E+00   -6.411E+00   -6.407E+00   -6.403E+00
    -6.399E+00   -6.394E+00   -6.390E+00   -6.386E+00   -6.381E+00   -6.377E+00   -6.373E+00   -6.368E+00   -6.364E+00   -6.360E+00
    -6.355E+00   -6.351E+00   -6.347E+00   -6.342E+00   -6.338E+00   -6.334E+00   -6.329E+00   -6.325E+00   -6.321E+00   -6.316E+00
    -6.312E+00   -6.308E+00   -6.303E+00   -6.299E+00   -6.294E+00   -6.290E+00   -6.286E+00   -6.282E+00
 Ala      Conc. = 4.56E+02
