 LCModel (Version 6.3-1L) Copyright: S.W. Provencher.          Ref.: Magn. Reson. Med. 30:672-679 (1993).                
 Slice#1 Row#8 Col#3  PD_05_press_2_raw_act
 36 lines in following concentration table = NCONC+1
    Conc.  %SD /Cr+PCr  Metabolite                                         
  161.071 110% 6.9E-02 Ala                                                 
    0.000 999%   0.000 Asp                                                 
 1.09E+03  28%   0.469 Cr                                                  
 1.23E+03  26%   0.531 PCr                                                 
    0.000 999%   0.000 GABA                                                
   40.162 684% 1.7E-02 Glc                                                 
 1.35E+03  27%   0.580 Gln                                                 
 3.54E+03  12%   1.524 Glu                                                 
  663.140   6%   0.285 GPC                                                 
    0.000 999%   0.000 PCh                                                 
  546.000  23%   0.235 GSH                                                 
 1.48E+03  29%   0.635 Ins                                                 
  421.391  47%   0.181 Lac                                                 
 5.01E+03   4%   2.152 NAA                                                 
  710.431  28%   0.306 NAAG                                                
   69.711  67% 3.0E-02 Scyllo                                              
   84.071 431% 3.6E-02 Tau                                                 
  352.614  56%   0.152 -CrCH2                                              
  663.140   6%   0.285 GPC+PCh                                             
 5.72E+03   3%   2.458 NAA+NAAG                                            
 2.33E+03   5%   1.000 Cr+PCr                                              
 4.89E+03  12%   2.104 Glu+Gln                                             
 2.23E+03  30%   0.961 Lip13a                                              
    0.000 999%   0.000 Lip13b                                              
    0.000 999%   0.000 Lip09                                               
 3.21E+03  13%   1.382 MM09                                                
  523.988  44%   0.225 Lip20                                               
 7.62E+03   9%   3.277+MM20                                                
 1.07E+03  22%   0.461 MM12                                                
 3.66E+03  11%   1.573 MM14                                                
 1.08E+03  35%   0.462 MM17                                                
 2.23E+03  30%   0.961 Lip13a+Lip13b                                       
 6.97E+03   9%   2.995 MM14+Lip13a+Lip13b+MM12                             
 3.21E+03  13%   1.382 MM09+Lip09                                          
 8.14E+03   9%   3.502 MM20+Lip20                                          
   6 lines in following misc. output table
  FWHM = 0.046 ppm    S/N =  16                                            
  Data shift = 0.015 ppm                                                   
  Ph:  -1 deg       0.4 deg/ppm                                            
  alphaB,S = 7.4E-01,   8.6E+01                                            
   14 spline knots.   Ns = 6(1)                                            
  ( 9) 3 infls.   ( 7) 1 extrs.                                            
  498 points on ppm-axis = NY
      4.000000     3.992357     3.984714     3.977070     3.969427     3.961784     3.954141     3.946497     3.938854     3.931211
      3.923568     3.915925     3.908281     3.900638     3.892995     3.885352     3.877708     3.870065     3.862422     3.854779
      3.847136     3.839492     3.831849     3.824206     3.816563     3.808919     3.801276     3.793633     3.785990     3.778347
      3.770703     3.763060     3.755417     3.747774     3.740130     3.732487     3.724844     3.717201     3.709558     3.701914
      3.694271     3.686628     3.678985     3.671341     3.663698     3.656055     3.648412     3.640769     3.633125     3.625482
      3.617839     3.610196     3.602552     3.594909     3.587266     3.579623     3.571980     3.564336     3.556693     3.549050
      3.541407     3.533763     3.526120     3.518477     3.510834     3.503191     3.495547     3.487904     3.480261     3.472618
      3.464974     3.457331     3.449688     3.442045     3.434402     3.426758     3.419115     3.411472     3.403829     3.396185
      3.388542     3.380899     3.373256     3.365613     3.357969     3.350326     3.342683     3.335040     3.327396     3.319753
      3.312110     3.304467     3.296824     3.289180     3.281537     3.273894     3.266251     3.258607     3.250964     3.243321
      3.235678     3.228034     3.220391     3.212748     3.205105     3.197462     3.189818     3.182175     3.174532     3.166889
      3.159245     3.151602     3.143959     3.136316     3.128673     3.121029     3.113386     3.105743     3.098100     3.090456
      3.082813     3.075170     3.067527     3.059884     3.052240     3.044597     3.036954     3.029311     3.021667     3.014024
      3.006381     2.998738     2.991095     2.983451     2.975808     2.968165     2.960522     2.952878     2.945235     2.937592
      2.929949     2.922306     2.914662     2.907019     2.899376     2.891733     2.884089     2.876446     2.868803     2.861160
      2.853517     2.845873     2.838230     2.830587     2.822944     2.815300     2.807657     2.800014     2.792371     2.784728
      2.777084     2.769441     2.761798     2.754155     2.746511     2.738868     2.731225     2.723582     2.715939     2.708295
      2.700652     2.693009     2.685366     2.677722     2.670079     2.662436     2.654793     2.647150     2.639506     2.631863
      2.624220     2.616577     2.608933     2.601290     2.593647     2.586004     2.578361     2.570717     2.563074     2.555431
      2.547788     2.540144     2.532501     2.524858     2.517215     2.509572     2.501928     2.494285     2.486642     2.478999
      2.471355     2.463712     2.456069     2.448426     2.440783     2.433139     2.425496     2.417853     2.410210     2.402566
      2.394923     2.387280     2.379637     2.371994     2.364350     2.356707     2.349064     2.341421     2.333777     2.326134
      2.318491     2.310848     2.303205     2.295561     2.287918     2.280275     2.272632     2.264988     2.257345     2.249702
      2.242059     2.234416     2.226772     2.219129     2.211486     2.203843     2.196199     2.188556     2.180913     2.173270
      2.165627     2.157983     2.150340     2.142697     2.135054     2.127410     2.119767     2.112124     2.104481     2.096838
      2.089194     2.081551     2.073908     2.066265     2.058621     2.050978     2.043335     2.035692     2.028049     2.020405
      2.012762     2.005119     1.997476     1.989833     1.982190     1.974546     1.966903     1.959260     1.951617     1.943974
      1.936331     1.928688     1.921045     1.913402     1.905759     1.898115     1.890472     1.882829     1.875186     1.867543
      1.859900     1.852257     1.844614     1.836971     1.829327     1.821684     1.814041     1.806398     1.798755     1.791112
      1.783469     1.775826     1.768183     1.760540     1.752896     1.745253     1.737610     1.729967     1.722324     1.714681
      1.707038     1.699395     1.691752     1.684108     1.676465     1.668822     1.661179     1.653536     1.645893     1.638250
      1.630607     1.622964     1.615321     1.607677     1.600034     1.592391     1.584748     1.577105     1.569462     1.561819
      1.554176     1.546533     1.538890     1.531246     1.523603     1.515960     1.508317     1.500674     1.493031     1.485388
      1.477745     1.470102     1.462458     1.454815     1.447172     1.439529     1.431886     1.424243     1.416600     1.408957
      1.401314     1.393671     1.386027     1.378384     1.370741     1.363098     1.355455     1.347812     1.340169     1.332526
      1.324883     1.317240     1.309596     1.301953     1.294310     1.286667     1.279024     1.271381     1.263738     1.256095
      1.248452     1.240808     1.233165     1.225522     1.217879     1.210236     1.202593     1.194950     1.187307     1.179664
      1.172021     1.164377     1.156734     1.149091     1.141448     1.133805     1.126162     1.118519     1.110876     1.103233
      1.095590     1.087946     1.080303     1.072660     1.065017     1.057374     1.049731     1.042088     1.034445     1.026802
      1.019158     1.011515     1.003872     0.996229     0.988586     0.980943     0.973300     0.965657     0.958014     0.950371
      0.942727     0.935084     0.927441     0.919798     0.912155     0.904512     0.896869     0.889226     0.881583     0.873940
      0.866296     0.858653     0.851010     0.843367     0.835724     0.828081     0.820438     0.812795     0.805152     0.797508
      0.789865     0.782222     0.774579     0.766936     0.759293     0.751650     0.744007     0.736364     0.728721     0.721077
      0.713434     0.705791     0.698148     0.690505     0.682862     0.675219     0.667576     0.659933     0.652290     0.644646
      0.637003     0.629360     0.621717     0.614074     0.606431     0.598788     0.591145     0.583502     0.575858     0.568215
      0.560572     0.552929     0.545286     0.537643     0.530000     0.522357     0.514714     0.507071     0.499427     0.491784
      0.484141     0.476498     0.468855     0.461212     0.453569     0.445925     0.438282     0.430639     0.422996     0.415353
      0.407710     0.400067     0.392424     0.384780     0.377137     0.369494     0.361851     0.354208     0.346565     0.338922
      0.331278     0.323635     0.315992     0.308349     0.300706     0.293063     0.285420     0.277777     0.270133     0.262490
      0.254847     0.247204     0.239561     0.231918     0.224275     0.216631     0.208988     0.201345
 NY phased data points follow
   1.13450E+01  1.81578E+01  2.15922E+01  3.64466E+01  2.42561E+01  3.75228E+01  4.64593E+01  4.46474E+01  5.47501E+01  5.46153E+01
   6.84226E+01  7.05334E+01  5.89963E+01  5.92330E+01  4.91147E+01  5.01243E+01  3.79241E+01  3.77177E+01  3.05260E+01  3.58074E+01
   3.54330E+01  2.79072E+01  2.44068E+01  3.04333E+01  2.43583E+01  2.67639E+01  2.52840E+01  2.27673E+01  3.11871E+01  3.26052E+01
   4.06123E+01  3.68250E+01  4.37578E+01  3.27176E+01  2.47104E+01  2.17677E+01  2.02837E+01  2.48795E+01  2.72664E+01  2.98786E+01
   2.12229E+01  2.70808E+01  2.22694E+01  2.76101E+01  2.50524E+01  3.51957E+01  3.71606E+01  4.58526E+01  3.78365E+01  3.46563E+01
   2.82849E+01  3.04146E+01  2.56239E+01  2.03744E+01  2.41901E+01  3.07163E+01  2.41992E+01  3.04588E+01  2.80890E+01  2.07757E+01
   1.83819E+01  2.66155E+01  1.29423E+01  1.01747E+01  8.97544E+00  9.96134E+00  1.60187E+01  1.31688E+01  7.70918E+00  1.63601E+01
   1.12096E+01  6.44078E+00  9.14851E+00  8.54622E+00  1.42595E+01  2.21586E+01  1.28532E+01  2.10879E+01  1.35650E+01  1.10784E+01
   1.09900E+01  1.36489E+01  9.73615E+00  2.18507E+01  1.61040E+01  8.89695E+00  1.26775E+01  1.68512E+01  1.21791E+01  1.38511E+01
   6.24091E+00  8.54608E+00  5.37974E+00  1.41873E+01  1.34390E+01  2.12382E+01  1.52398E+01  1.45132E+01  2.35444E+01  3.14261E+01
   4.49195E+01  5.76654E+01  7.15686E+01  8.44339E+01  6.81646E+01  6.32544E+01  5.84179E+01  3.82105E+01  3.58524E+01  2.32306E+01
   2.73430E+01  2.44616E+01  1.40504E+01  1.29300E+01  1.17829E+01  1.69042E+01  7.79806E+00  1.57655E+01  1.45201E+01  1.22700E+01
   1.41367E+01  1.65030E+01  2.11723E+01  3.42427E+01  4.65546E+01  7.19278E+01  8.66644E+01  1.02250E+02  9.44932E+01  8.70523E+01
   6.88576E+01  5.34855E+01  3.48424E+01  3.79160E+01  2.98268E+01  1.98991E+01  2.06122E+01  2.04037E+01  1.54456E+01  1.26731E+01
   1.47787E+01  1.47738E+01  1.43055E+01  8.04677E+00  1.15364E+01  1.01144E+01  5.50724E+00  4.46534E+00  1.25598E+00  3.54250E+00
   1.16431E+01  4.32507E+00  4.96208E+00  1.38134E+01  5.34262E+00  8.11492E+00  9.20181E+00  1.38669E+01  5.45115E+00 -2.79466E+00
   4.76661E+00  4.03320E+00  4.99849E+00  7.98703E+00  5.53319E+00  8.84741E-01 -2.10990E+00 -6.52681E+00 -1.19643E+00 -7.51511E+00
  -1.48577E+01 -3.32724E+00 -1.06885E+01 -1.77266E+01 -2.51055E+01 -2.68955E+01 -2.13915E+01 -3.16365E+01 -2.29941E+01 -1.96033E+01
  -2.38170E+01 -1.79118E+01 -1.12717E+01 -5.94418E+00 -4.80799E+00 -1.09261E+00 -1.09410E+01 -3.99088E+00 -2.80967E+00  1.95663E+00
   4.04698E+00  2.81065E+00  3.66798E-01  1.20545E+01 -2.66485E+00 -5.53402E+00 -6.81874E+00 -9.27469E+00 -1.19396E+01 -1.02715E+01
   2.32362E+00 -3.59703E-01  7.16791E+00  4.83333E+00  7.10666E-01  1.00196E+01  1.68734E+00 -4.33824E+00 -9.63782E+00 -5.83548E+00
  -5.79382E+00 -1.61581E+00  1.39684E+01  1.88051E+01  2.20188E+01  2.87002E+01  3.56816E+01  3.42004E+01  1.11394E+01  9.59488E+00
  -1.23626E+01 -9.81047E+00 -1.47226E+01 -8.75840E+00  8.63622E+00  3.79790E+00  1.40117E+01  1.98958E+01  2.05739E+01  2.48646E+01
   1.46960E+01  1.82227E+01  2.02621E+01  7.67996E+00  1.36200E+01  1.56202E+01  1.83937E+01  1.22331E+01  1.55702E+01  1.15160E+01
   1.78786E+01  1.03261E+01  6.08675E+00  8.78785E+00  1.11317E+01  2.45858E+01  2.40282E+01  3.25026E+01  3.56498E+01  3.50634E+01
   2.56666E+01  3.84643E+01  3.92795E+01  5.44932E+01  6.64519E+01  7.08846E+01  8.59433E+01  1.17708E+02  1.64011E+02  2.01809E+02
   2.33062E+02  2.13379E+02  1.74203E+02  1.23230E+02  9.07316E+01  6.62860E+01  4.46197E+01  3.19395E+01  2.73497E+01  2.40292E+01
   1.45827E+01  1.44676E+01  7.28050E+00  5.09381E+00  6.36624E+00  2.62928E+00  7.33403E+00  2.24585E+00  7.57619E+00  5.79045E+00
   1.83146E+00  3.54824E+00 -6.75469E-01 -4.68788E+00 -4.36759E+00 -6.22923E+00 -4.78115E+00 -1.44934E+00  2.52463E+00 -7.54192E+00
   2.79854E+00  1.30071E-01 -7.95541E+00 -3.21197E+00 -1.35536E+01 -4.35133E+00 -1.73121E+00 -8.52775E+00 -7.82000E+00 -7.12775E+00
  -5.06100E+00  7.60756E+00 -4.08336E+00  4.24859E-01 -5.58889E+00  9.84990E+00 -1.78003E+00 -3.92676E-01  7.13329E+00 -3.96038E+00
   2.26913E+00 -2.61800E+00 -1.01938E+01 -4.38863E+00 -1.78836E+01 -1.04657E+01 -1.87475E+01 -1.30473E+01 -1.03073E+01 -1.10666E+01
  -1.91308E+01 -1.65298E+01 -1.60315E+01 -9.86227E+00 -1.38416E+01 -1.88157E+01 -2.02926E+01 -1.43745E+01 -1.08190E+01 -1.03053E+01
  -6.30929E+00 -3.82388E+00 -3.92756E+00 -1.37226E+00  2.20686E+00  9.44335E+00  1.02036E+01  1.86213E+01  2.20642E+01  3.22457E+01
   3.20099E+01  2.12757E+01  3.27840E+01  3.55857E+01  2.65304E+01  3.02105E+01  2.31846E+01  2.63582E+01  2.79237E+01  1.97804E+01
   1.77677E+01  2.05207E+01  1.27300E+01  1.68763E+01  7.12749E+00  1.03757E+01  5.53159E+00  1.13923E+01  1.15874E+01  2.43711E+01
   8.40652E+00  8.75447E+00  1.32627E+01  1.24741E+01  1.86797E+01  6.87760E+00  1.17004E+01  1.15401E+01  7.96814E+00  9.48808E+00
   9.00029E+00  8.68337E+00  5.35919E+00 -6.97091E-01 -4.03299E+00  4.64528E+00 -2.71144E+00 -5.72905E+00 -1.15730E+01 -3.36297E+00
  -1.05740E+01 -1.07124E+01 -4.16730E+00 -8.93787E-01 -1.11484E+01 -1.20178E+01 -1.08280E+00 -1.78307E+00 -6.68594E+00 -2.35994E+00
  -4.24002E+00 -9.47653E+00 -5.79140E+00  1.01665E+01  2.38149E+00  5.97278E+00  3.59302E+00  1.39749E+01  1.17809E+01  6.35299E+00
   1.61340E+01  1.63901E+01  8.33918E+00  1.15475E+01  1.60061E+01  1.29907E+01  9.73892E+00  1.70382E+00  1.46560E+01  6.53527E+00
   1.26329E+01  3.69353E+00 -3.85723E+00  8.41327E+00 -2.84108E+00  1.81041E+00 -2.59548E+00 -4.99245E+00 -3.66093E+00 -8.79165E+00
  -1.02734E+01 -4.89775E+00 -7.19709E+00 -3.22574E+00 -9.93339E-01 -3.10637E+00  5.12488E-01 -5.21882E+00 -8.14836E+00 -7.01120E+00
  -6.42324E+00 -7.37519E+00 -6.50065E+00 -1.35305E+00 -3.28449E+00 -2.91932E+00 -7.36191E+00 -2.97057E+00 -4.36515E+00 -3.66852E+00
  -9.47139E+00 -4.84389E+00  1.96217E+00 -4.07471E+00  2.45374E+00 -9.65238E+00 -6.97894E+00  2.75902E-01 -5.42827E+00 -1.29442E+01
  -3.53645E+00 -1.93348E+00 -5.43507E-01  4.75322E+00 -4.55774E+00 -5.71657E+00 -7.37640E+00 -5.03692E+00  4.07118E+00  6.37837E-01
   3.41646E+00  8.70775E-01  1.90575E+00 -1.89910E+00  1.10250E+00 -1.61755E+00  7.00287E-01  1.22931E+01  9.67096E-01  6.21486E+00
   7.92747E+00 -7.21835E-01  4.80809E+00  1.70844E+00  2.66425E+00  2.67788E+00  1.81824E+00  3.08430E+00  1.06129E+01  2.29218E+00
   1.99989E+00  6.92471E+00  3.45574E+00  4.59443E+00  2.65835E+00 -2.36817E+00 -1.08410E+00  4.04140E+00  1.49554E+00  2.03581E+00
  -1.53367E+00  4.91903E+00  5.45340E+00  1.65486E+00  5.75464E+00  1.32022E+00  8.10710E+00  5.33967E+00
 NY points of the fit to the data follow
   2.43764E+01  2.39275E+01  2.40380E+01  2.49920E+01  2.72746E+01  3.13424E+01  3.77099E+01  4.57758E+01  5.41069E+01  6.13123E+01
   6.61135E+01  6.76098E+01  6.53641E+01  5.98743E+01  5.27388E+01  4.56545E+01  3.97357E+01  3.57264E+01  3.30761E+01  3.07358E+01
   2.92307E+01  2.87102E+01  2.80987E+01  2.70689E+01  2.57193E+01  2.43548E+01  2.39548E+01  2.55836E+01  2.95980E+01  3.50556E+01
   4.00371E+01  4.28978E+01  4.28074E+01  3.98669E+01  3.50336E+01  2.97168E+01  2.48836E+01  2.16202E+01  2.06680E+01  2.12324E+01
   2.23537E+01  2.35449E+01  2.48975E+01  2.67004E+01  2.90427E+01  3.17956E+01  3.41580E+01  3.49132E+01  3.36534E+01  3.07828E+01
   2.72697E+01  2.41745E+01  2.19700E+01  2.04547E+01  1.93860E+01  1.88893E+01  1.91370E+01  1.99120E+01  2.08567E+01  2.15845E+01
   2.16818E+01  2.09774E+01  1.96325E+01  1.81104E+01  1.68976E+01  1.62253E+01  1.60373E+01  1.61839E+01  1.65572E+01  1.70321E+01
   1.75297E+01  1.78894E+01  1.79833E+01  1.77796E+01  1.73329E+01  1.67673E+01  1.61733E+01  1.56134E+01  1.51091E+01  1.46851E+01
   1.45194E+01  1.46225E+01  1.49340E+01  1.53734E+01  1.56640E+01  1.53938E+01  1.43456E+01  1.27712E+01  1.12703E+01  1.03633E+01
   1.01911E+01  1.05110E+01  1.09348E+01  1.12407E+01  1.15110E+01  1.17577E+01  1.21107E+01  1.38177E+01  1.85123E+01  2.75977E+01
   4.22192E+01  6.01161E+01  7.55113E+01  8.21258E+01  7.75614E+01  6.51182E+01  5.07139E+01  3.88019E+01  3.04420E+01  2.41764E+01
   1.83563E+01  1.41501E+01  1.26896E+01  1.21896E+01  1.19662E+01  1.18537E+01  1.18030E+01  1.17979E+01  1.18767E+01  1.21633E+01
   1.30810E+01  1.59124E+01  2.22137E+01  3.35430E+01  5.07327E+01  7.15935E+01  9.01120E+01  9.93673E+01  9.61363E+01  8.31882E+01
   6.68624E+01  5.23790E+01  4.12788E+01  3.21606E+01  2.34618E+01  1.64528E+01  1.26903E+01  1.14987E+01  1.16000E+01  1.22479E+01
   1.28325E+01  1.30502E+01  1.28502E+01  1.22635E+01  1.14857E+01  1.07069E+01  9.96117E+00  9.25910E+00  8.55453E+00  7.83614E+00
   7.14209E+00  6.45098E+00  5.82952E+00  5.39560E+00  5.21871E+00  5.17885E+00  5.02266E+00  4.43649E+00  3.16913E+00  1.46990E+00
  -1.06278E-02 -5.50698E-01  8.04897E-02  1.23675E+00  1.87625E+00  1.30371E+00 -3.44176E-01 -2.25059E+00 -3.65439E+00 -4.51893E+00
  -5.23519E+00 -6.18030E+00 -7.54249E+00 -9.11267E+00 -1.04508E+01 -1.11347E+01 -1.08328E+01 -9.83379E+00 -9.03004E+00 -8.97937E+00
  -9.45801E+00 -9.83567E+00 -9.67231E+00 -9.11187E+00 -8.67628E+00 -8.33335E+00 -7.11821E+00 -4.48273E+00 -7.70306E-01  2.75319E+00
   4.83549E+00  5.25013E+00  4.37708E+00  2.97813E+00  1.76381E+00  9.18013E-01  5.12747E-01  8.56951E-01  2.09893E+00  4.15004E+00
   6.80996E+00  9.59626E+00  1.18273E+01  1.26249E+01  1.10591E+01  7.05766E+00  1.05706E+00 -5.53051E+00 -1.07098E+01 -1.30081E+01
  -1.18973E+01 -7.89443E+00 -1.32573E+00  6.99143E+00  1.50694E+01  2.02059E+01  2.02183E+01  1.47974E+01  5.56572E+00 -4.53913E+00
  -1.30577E+01 -1.81011E+01 -1.83865E+01 -1.39297E+01 -6.03156E+00  2.33802E+00  8.68763E+00  1.24191E+01  1.40040E+01  1.42034E+01
   1.34499E+01  1.22491E+01  1.15393E+01  1.20242E+01  1.35635E+01  1.58098E+01  1.80739E+01  1.95033E+01  1.95345E+01  1.79836E+01
   1.55055E+01  1.34886E+01  1.31642E+01  1.47332E+01  1.75566E+01  2.07290E+01  2.33416E+01  2.50309E+01  2.60527E+01  2.72349E+01
   2.95651E+01  3.36071E+01  3.99571E+01  4.83266E+01  5.89599E+01  7.35238E+01  9.36532E+01  1.24681E+02  1.65515E+02  2.03827E+02
   2.22269E+02  2.10737E+02  1.74969E+02  1.31362E+02  9.45880E+01  6.87497E+01  4.99458E+01  3.25886E+01  1.79811E+01  1.18540E+01
   9.23644E+00  7.65205E+00  6.73033E+00  6.12017E+00  5.39324E+00  4.45996E+00  3.34547E+00  2.17247E+00  1.06239E+00  9.04569E-02
  -7.49656E-01 -1.44588E+00 -1.97783E+00 -2.38702E+00 -2.75628E+00 -3.12441E+00 -3.46537E+00 -3.73312E+00 -3.90005E+00 -3.96267E+00
  -3.90757E+00 -3.74309E+00 -3.51999E+00 -3.29081E+00 -3.07897E+00 -2.89229E+00 -2.73166E+00 -2.59273E+00 -2.47608E+00 -2.37944E+00
  -2.30295E+00 -2.26607E+00 -2.29251E+00 -2.39842E+00 -2.58892E+00 -2.85775E+00 -3.19739E+00 -3.60151E+00 -4.05316E+00 -4.53752E+00
  -5.04157E+00 -5.54908E+00 -6.04369E+00 -6.50977E+00 -6.93316E+00 -7.30003E+00 -7.59683E+00 -7.80841E+00 -7.91853E+00 -7.90716E+00
  -7.74427E+00 -7.38321E+00 -6.82358E+00 -6.08498E+00 -5.25280E+00 -4.52172E+00 -4.06230E+00 -3.87586E+00 -3.74616E+00 -3.33341E+00
  -2.40222E+00 -8.88882E-01  1.21392E+00  3.83585E+00  6.80750E+00  9.88380E+00  1.26962E+01  1.50469E+01  1.70348E+01  1.88357E+01
   2.05750E+01  2.23107E+01  2.40199E+01  2.56524E+01  2.71752E+01  2.81407E+01  2.79471E+01  2.62651E+01  2.33388E+01  2.00141E+01
   1.72174E+01  1.54288E+01  1.48410E+01  1.53434E+01  1.65062E+01  1.77565E+01  1.84920E+01  1.81306E+01  1.68562E+01  1.51950E+01
   1.35303E+01  1.19465E+01  1.02908E+01  8.58776E+00  7.11382E+00  5.81044E+00  4.61079E+00  3.49297E+00  2.44961E+00  1.47960E+00
   5.83772E-01 -2.35360E-01 -9.74821E-01 -1.63052E+00 -2.19876E+00 -2.67592E+00 -3.05948E+00 -3.34684E+00 -3.53582E+00 -3.62382E+00
  -3.60918E+00 -3.49055E+00 -3.26773E+00 -2.94045E+00 -2.50929E+00 -1.97523E+00 -1.34128E+00 -6.11940E-01  2.05940E-01  1.10405E+00
   2.07151E+00  3.09515E+00  4.15838E+00  5.24225E+00  6.32528E+00  7.38500E+00  8.39745E+00  9.33853E+00  1.01840E+01  1.09113E+01
   1.15007E+01  1.19362E+01  1.22059E+01  1.23028E+01  1.22245E+01  1.19743E+01  1.15607E+01  1.09974E+01  1.03015E+01  9.49314E+00
   8.59422E+00  7.62832E+00  6.61898E+00  5.58928E+00  4.55998E+00  3.54971E+00  2.57407E+00  1.64637E+00  7.76722E-01 -2.74685E-02
  -7.62215E-01 -1.42565E+00 -2.01816E+00 -2.54108E+00 -2.99740E+00 -3.39085E+00 -3.72642E+00 -4.00895E+00 -4.24352E+00 -4.43447E+00
  -4.58643E+00 -4.70362E+00 -4.79046E+00 -4.85044E+00 -4.88679E+00 -4.90190E+00 -4.89840E+00 -4.87849E+00 -4.84448E+00 -4.79782E+00
  -4.73989E+00 -4.67154E+00 -4.59413E+00 -4.50865E+00 -4.41627E+00 -4.31737E+00 -4.21253E+00 -4.10204E+00 -3.98674E+00 -3.86712E+00
  -3.74377E+00 -3.61661E+00 -3.48595E+00 -3.35191E+00 -3.21513E+00 -3.07581E+00 -2.93422E+00 -2.79013E+00 -2.64377E+00 -2.49525E+00
  -2.34511E+00 -2.19333E+00 -2.04003E+00 -1.88490E+00 -1.72824E+00 -1.57016E+00 -1.41111E+00 -1.25093E+00 -1.08964E+00 -9.26979E-01
  -7.63310E-01 -5.98725E-01 -4.33546E-01 -2.67477E-01 -1.00539E-01  6.74404E-02  2.36037E-01  4.05199E-01  5.74724E-01  7.44979E-01
   9.15903E-01  1.08757E+00  1.25955E+00  1.43188E+00  1.60448E+00  1.77772E+00  1.95148E+00  2.12573E+00  2.30009E+00  2.47468E+00
   2.64953E+00  2.82498E+00  3.00080E+00  3.17695E+00  3.35311E+00  3.52954E+00  3.70631E+00  3.88371E+00
 NY background values follow
     2.209E+01    2.196E+01    2.184E+01    2.172E+01    2.159E+01    2.147E+01    2.135E+01    2.122E+01    2.110E+01    2.097E+01
     2.085E+01    2.072E+01    2.060E+01    2.048E+01    2.035E+01    2.023E+01    2.010E+01    1.998E+01    1.985E+01    1.973E+01
     1.961E+01    1.948E+01    1.936E+01    1.923E+01    1.911E+01    1.898E+01    1.886E+01    1.873E+01    1.861E+01    1.848E+01
     1.836E+01    1.823E+01    1.811E+01    1.798E+01    1.786E+01    1.773E+01    1.761E+01    1.748E+01    1.736E+01    1.723E+01
     1.710E+01    1.698E+01    1.685E+01    1.673E+01    1.660E+01    1.647E+01    1.635E+01    1.622E+01    1.610E+01    1.597E+01
     1.584E+01    1.572E+01    1.559E+01    1.546E+01    1.534E+01    1.521E+01    1.508E+01    1.496E+01    1.483E+01    1.470E+01
     1.458E+01    1.445E+01    1.432E+01    1.420E+01    1.407E+01    1.394E+01    1.381E+01    1.369E+01    1.356E+01    1.343E+01
     1.331E+01    1.318E+01    1.305E+01    1.292E+01    1.279E+01    1.267E+01    1.254E+01    1.241E+01    1.228E+01    1.216E+01
     1.203E+01    1.190E+01    1.177E+01    1.164E+01    1.152E+01    1.139E+01    1.126E+01    1.113E+01    1.100E+01    1.088E+01
     1.075E+01    1.062E+01    1.049E+01    1.036E+01    1.023E+01    1.011E+01    9.977E+00    9.848E+00    9.720E+00    9.591E+00
     9.462E+00    9.334E+00    9.205E+00    9.076E+00    8.948E+00    8.819E+00    8.690E+00    8.561E+00    8.432E+00    8.303E+00
     8.174E+00    8.045E+00    7.916E+00    7.787E+00    7.658E+00    7.529E+00    7.400E+00    7.270E+00    7.141E+00    7.012E+00
     6.882E+00    6.753E+00    6.624E+00    6.494E+00    6.364E+00    6.235E+00    6.105E+00    5.976E+00    5.846E+00    5.716E+00
     5.586E+00    5.456E+00    5.326E+00    5.197E+00    5.067E+00    4.936E+00    4.806E+00    4.676E+00    4.546E+00    4.416E+00
     4.286E+00    4.156E+00    4.026E+00    3.896E+00    3.766E+00    3.636E+00    3.506E+00    3.377E+00    3.247E+00    3.118E+00
     2.989E+00    2.861E+00    2.732E+00    2.604E+00    2.476E+00    2.348E+00    2.221E+00    2.094E+00    1.968E+00    1.841E+00
     1.716E+00    1.590E+00    1.465E+00    1.341E+00    1.217E+00    1.093E+00    9.700E-01    8.475E-01    7.255E-01    6.041E-01
     4.833E-01    3.631E-01    2.435E-01    1.246E-01    6.309E-03   -1.113E-01   -2.282E-01   -3.444E-01   -4.598E-01   -5.745E-01
    -6.884E-01   -8.015E-01   -9.139E-01   -1.025E+00   -1.136E+00   -1.246E+00   -1.356E+00   -1.464E+00   -1.572E+00   -1.680E+00
    -1.787E+00   -1.893E+00   -1.998E+00   -2.104E+00   -2.208E+00   -2.312E+00   -2.416E+00   -2.519E+00   -2.622E+00   -2.725E+00
    -2.827E+00   -2.928E+00   -3.030E+00   -3.131E+00   -3.232E+00   -3.333E+00   -3.433E+00   -3.534E+00   -3.634E+00   -3.734E+00
    -3.834E+00   -3.933E+00   -4.033E+00   -4.133E+00   -4.233E+00   -4.332E+00   -4.432E+00   -4.532E+00   -4.632E+00   -4.732E+00
    -4.832E+00   -4.932E+00   -5.033E+00   -5.134E+00   -5.235E+00   -5.336E+00   -5.437E+00   -5.539E+00   -5.641E+00   -5.744E+00
    -5.846E+00   -5.949E+00   -6.052E+00   -6.156E+00   -6.259E+00   -6.363E+00   -6.467E+00   -6.571E+00   -6.675E+00   -6.779E+00
    -6.884E+00   -6.988E+00   -7.093E+00   -7.197E+00   -7.302E+00   -7.406E+00   -7.511E+00   -7.615E+00   -7.720E+00   -7.824E+00
    -7.929E+00   -8.033E+00   -8.137E+00   -8.241E+00   -8.345E+00   -8.449E+00   -8.553E+00   -8.656E+00   -8.760E+00   -8.863E+00
    -8.966E+00   -9.068E+00   -9.171E+00   -9.273E+00   -9.375E+00   -9.476E+00   -9.577E+00   -9.678E+00   -9.778E+00   -9.878E+00
    -9.978E+00   -1.008E+01   -1.018E+01   -1.027E+01   -1.037E+01   -1.047E+01   -1.057E+01   -1.066E+01   -1.076E+01   -1.085E+01
    -1.095E+01   -1.104E+01   -1.113E+01   -1.123E+01   -1.132E+01   -1.141E+01   -1.150E+01   -1.159E+01   -1.168E+01   -1.176E+01
    -1.185E+01   -1.193E+01   -1.202E+01   -1.210E+01   -1.218E+01   -1.226E+01   -1.234E+01   -1.242E+01   -1.250E+01   -1.257E+01
    -1.265E+01   -1.272E+01   -1.280E+01   -1.287E+01   -1.294E+01   -1.300E+01   -1.307E+01   -1.313E+01   -1.320E+01   -1.326E+01
    -1.332E+01   -1.338E+01   -1.344E+01   -1.349E+01   -1.355E+01   -1.360E+01   -1.365E+01   -1.370E+01   -1.374E+01   -1.379E+01
    -1.383E+01   -1.387E+01   -1.391E+01   -1.395E+01   -1.399E+01   -1.402E+01   -1.405E+01   -1.409E+01   -1.411E+01   -1.414E+01
    -1.417E+01   -1.419E+01   -1.421E+01   -1.423E+01   -1.425E+01   -1.427E+01   -1.428E+01   -1.429E+01   -1.430E+01   -1.431E+01
    -1.432E+01   -1.433E+01   -1.433E+01   -1.433E+01   -1.433E+01   -1.433E+01   -1.433E+01   -1.432E+01   -1.432E+01   -1.431E+01
    -1.430E+01   -1.428E+01   -1.427E+01   -1.425E+01   -1.424E+01   -1.422E+01   -1.420E+01   -1.417E+01   -1.415E+01   -1.412E+01
    -1.409E+01   -1.406E+01   -1.403E+01   -1.399E+01   -1.396E+01   -1.392E+01   -1.388E+01   -1.384E+01   -1.380E+01   -1.375E+01
    -1.371E+01   -1.366E+01   -1.361E+01   -1.355E+01   -1.350E+01   -1.344E+01   -1.339E+01   -1.333E+01   -1.327E+01   -1.320E+01
    -1.314E+01   -1.307E+01   -1.300E+01   -1.293E+01   -1.286E+01   -1.278E+01   -1.271E+01   -1.263E+01   -1.255E+01   -1.247E+01
    -1.238E+01   -1.230E+01   -1.221E+01   -1.212E+01   -1.203E+01   -1.194E+01   -1.184E+01   -1.174E+01   -1.165E+01   -1.154E+01
    -1.144E+01   -1.134E+01   -1.123E+01   -1.112E+01   -1.101E+01   -1.090E+01   -1.079E+01   -1.067E+01   -1.055E+01   -1.043E+01
    -1.031E+01   -1.019E+01   -1.006E+01   -9.934E+00   -9.806E+00   -9.675E+00   -9.543E+00   -9.409E+00   -9.274E+00   -9.137E+00
    -8.999E+00   -8.859E+00   -8.717E+00   -8.574E+00   -8.430E+00   -8.285E+00   -8.138E+00   -7.989E+00   -7.840E+00   -7.689E+00
    -7.537E+00   -7.383E+00   -7.229E+00   -7.073E+00   -6.917E+00   -6.759E+00   -6.600E+00   -6.440E+00   -6.279E+00   -6.117E+00
    -5.955E+00   -5.791E+00   -5.627E+00   -5.462E+00   -5.295E+00   -5.129E+00   -4.961E+00   -4.793E+00   -4.624E+00   -4.454E+00
    -4.284E+00   -4.113E+00   -3.942E+00   -3.770E+00   -3.598E+00   -3.425E+00   -3.252E+00   -3.078E+00   -2.904E+00   -2.729E+00
    -2.554E+00   -2.379E+00   -2.203E+00   -2.027E+00   -1.850E+00   -1.673E+00   -1.496E+00   -1.319E+00   -1.141E+00   -9.630E-01
    -7.847E-01   -6.062E-01   -4.275E-01   -2.485E-01   -6.937E-02    1.099E-01    2.894E-01    4.690E-01    6.488E-01    8.286E-01
     1.009E+00    1.189E+00    1.369E+00    1.549E+00    1.729E+00    1.909E+00    2.090E+00    2.270E+00    2.450E+00    2.630E+00
     2.810E+00    2.990E+00    3.170E+00    3.350E+00    3.529E+00    3.709E+00    3.888E+00    4.068E+00
 Ala      Conc. = 1.61E+02
