 LCModel (Version 6.3-1L) Copyright: S.W. Provencher.          Ref.: Magn. Reson. Med. 30:672-679 (1993).                
 Slice#2 Row#12 Col#7  PD_05_press_2_raw_act
 36 lines in following concentration table = NCONC+1
    Conc.  %SD /Cr+PCr  Metabolite                                         
    0.000 999%   0.000 Ala                                                 
    6.852  45%   0.152 Asp                                                 
   45.093  54%   1.000 Cr                                                  
    0.000 999%   0.000 PCr                                                 
    4.108  45% 9.1E-02 GABA                                                
    4.100  45% 9.1E-02 Glc                                                 
    0.000 999%   0.000 Gln                                                 
    0.000 999%   0.000 Glu                                                 
    0.000 999%   0.000 GPC                                                 
    3.568 258% 7.9E-02 PCh                                                 
    0.000 999%   0.000 GSH                                                 
  214.031  51%   4.746 Ins                                                 
    0.000 999%   0.000 Lac                                                 
   81.317  34%   1.803 NAA                                                 
    0.000 999%   0.000 NAAG                                                
    1.360  45% 3.0E-02 Scyllo                                              
    6.845  45%   0.152 Tau                                                 
    4.532  65%   0.101 -CrCH2                                              
    3.568 258% 7.9E-02 GPC+PCh                                             
   81.317  34%   1.803 NAA+NAAG                                            
   45.093  54%   1.000 Cr+PCr                                              
    0.000 999%   0.000 Glu+Gln                                             
    0.000 999%   0.000 Lip13a                                              
  295.125  19%   6.545 Lip13b                                              
   54.702  56%   1.213 Lip09                                               
    0.000 999%   0.000 MM09                                                
   47.235  46%   1.047 Lip20                                               
    0.353 999% 7.8E-03 MM20                                                
    0.000 999%   0.000 MM12                                                
    3.278 393% 7.3E-02 MM14                                                
    0.000 999%   0.000 MM17                                                
  295.125  19%   6.545 Lip13a+Lip13b                                       
  298.403  19%   6.617 MM14+Lip13a+Lip13b+MM12                             
   54.702  56%   1.213 MM09+Lip09                                          
   47.587  51%   1.055 MM20+Lip20                                          
   6 lines in following misc. output table
  FWHM = 0.046 ppm    S/N =   1                                            
  Data shift = 0.107 ppm                                                   
  Ph: 133 deg     -48.5 deg/ppm                                            
  alphaB,S = 8.5E+01,   2.6E+01                                            
   14 spline knots.   Ns = 6(1)                                            
   2 inflections.     1 extrema                                            
  498 points on ppm-axis = NY
      4.000000     3.992357     3.984714     3.977070     3.969427     3.961784     3.954141     3.946497     3.938854     3.931211
      3.923568     3.915925     3.908281     3.900638     3.892995     3.885352     3.877708     3.870065     3.862422     3.854779
      3.847136     3.839492     3.831849     3.824206     3.816563     3.808919     3.801276     3.793633     3.785990     3.778347
      3.770703     3.763060     3.755417     3.747774     3.740130     3.732487     3.724844     3.717201     3.709558     3.701914
      3.694271     3.686628     3.678985     3.671341     3.663698     3.656055     3.648412     3.640769     3.633125     3.625482
      3.617839     3.610196     3.602552     3.594909     3.587266     3.579623     3.571980     3.564336     3.556693     3.549050
      3.541407     3.533763     3.526120     3.518477     3.510834     3.503191     3.495547     3.487904     3.480261     3.472618
      3.464974     3.457331     3.449688     3.442045     3.434402     3.426758     3.419115     3.411472     3.403829     3.396185
      3.388542     3.380899     3.373256     3.365613     3.357969     3.350326     3.342683     3.335040     3.327396     3.319753
      3.312110     3.304467     3.296824     3.289180     3.281537     3.273894     3.266251     3.258607     3.250964     3.243321
      3.235678     3.228034     3.220391     3.212748     3.205105     3.197462     3.189818     3.182175     3.174532     3.166889
      3.159245     3.151602     3.143959     3.136316     3.128673     3.121029     3.113386     3.105743     3.098100     3.090456
      3.082813     3.075170     3.067527     3.059884     3.052240     3.044597     3.036954     3.029311     3.021667     3.014024
      3.006381     2.998738     2.991095     2.983451     2.975808     2.968165     2.960522     2.952878     2.945235     2.937592
      2.929949     2.922306     2.914662     2.907019     2.899376     2.891733     2.884089     2.876446     2.868803     2.861160
      2.853517     2.845873     2.838230     2.830587     2.822944     2.815300     2.807657     2.800014     2.792371     2.784728
      2.777084     2.769441     2.761798     2.754155     2.746511     2.738868     2.731225     2.723582     2.715939     2.708295
      2.700652     2.693009     2.685366     2.677722     2.670079     2.662436     2.654793     2.647150     2.639506     2.631863
      2.624220     2.616577     2.608933     2.601290     2.593647     2.586004     2.578361     2.570717     2.563074     2.555431
      2.547788     2.540144     2.532501     2.524858     2.517215     2.509572     2.501928     2.494285     2.486642     2.478999
      2.471355     2.463712     2.456069     2.448426     2.440783     2.433139     2.425496     2.417853     2.410210     2.402566
      2.394923     2.387280     2.379637     2.371994     2.364350     2.356707     2.349064     2.341421     2.333777     2.326134
      2.318491     2.310848     2.303205     2.295561     2.287918     2.280275     2.272632     2.264988     2.257345     2.249702
      2.242059     2.234416     2.226772     2.219129     2.211486     2.203843     2.196199     2.188556     2.180913     2.173270
      2.165627     2.157983     2.150340     2.142697     2.135054     2.127410     2.119767     2.112124     2.104481     2.096838
      2.089194     2.081551     2.073908     2.066265     2.058621     2.050978     2.043335     2.035692     2.028049     2.020405
      2.012762     2.005119     1.997476     1.989833     1.982190     1.974546     1.966903     1.959260     1.951617     1.943974
      1.936331     1.928688     1.921045     1.913402     1.905759     1.898115     1.890472     1.882829     1.875186     1.867543
      1.859900     1.852257     1.844614     1.836971     1.829327     1.821684     1.814041     1.806398     1.798755     1.791112
      1.783469     1.775826     1.768183     1.760540     1.752896     1.745253     1.737610     1.729967     1.722324     1.714681
      1.707038     1.699395     1.691752     1.684108     1.676465     1.668822     1.661179     1.653536     1.645893     1.638250
      1.630607     1.622964     1.615321     1.607677     1.600034     1.592391     1.584748     1.577105     1.569462     1.561819
      1.554176     1.546533     1.538890     1.531246     1.523603     1.515960     1.508317     1.500674     1.493031     1.485388
      1.477745     1.470102     1.462458     1.454815     1.447172     1.439529     1.431886     1.424243     1.416600     1.408957
      1.401314     1.393671     1.386027     1.378384     1.370741     1.363098     1.355455     1.347812     1.340169     1.332526
      1.324883     1.317240     1.309596     1.301953     1.294310     1.286667     1.279024     1.271381     1.263738     1.256095
      1.248452     1.240808     1.233165     1.225522     1.217879     1.210236     1.202593     1.194950     1.187307     1.179664
      1.172021     1.164377     1.156734     1.149091     1.141448     1.133805     1.126162     1.118519     1.110876     1.103233
      1.095590     1.087946     1.080303     1.072660     1.065017     1.057374     1.049731     1.042088     1.034445     1.026802
      1.019158     1.011515     1.003872     0.996229     0.988586     0.980943     0.973300     0.965657     0.958014     0.950371
      0.942727     0.935084     0.927441     0.919798     0.912155     0.904512     0.896869     0.889226     0.881583     0.873940
      0.866296     0.858653     0.851010     0.843367     0.835724     0.828081     0.820438     0.812795     0.805152     0.797508
      0.789865     0.782222     0.774579     0.766936     0.759293     0.751650     0.744007     0.736364     0.728721     0.721077
      0.713434     0.705791     0.698148     0.690505     0.682862     0.675219     0.667576     0.659933     0.652290     0.644646
      0.637003     0.629360     0.621717     0.614074     0.606431     0.598788     0.591145     0.583502     0.575858     0.568215
      0.560572     0.552929     0.545286     0.537643     0.530000     0.522357     0.514714     0.507071     0.499427     0.491784
      0.484141     0.476498     0.468855     0.461212     0.453569     0.445925     0.438282     0.430639     0.422996     0.415353
      0.407710     0.400067     0.392424     0.384780     0.377137     0.369494     0.361851     0.354208     0.346565     0.338922
      0.331278     0.323635     0.315992     0.308349     0.300706     0.293063     0.285420     0.277777     0.270133     0.262490
      0.254847     0.247204     0.239561     0.231918     0.224275     0.216631     0.208988     0.201345
 NY phased data points follow
   8.40829E-01 -1.21894E+00 -3.43084E+00 -2.45119E+00  2.09913E+00  3.80763E+00  1.08714E+00  3.14131E+00 -2.00536E+00 -2.28170E-01
   1.71238E-01  2.63985E+00  3.39826E+00  2.60275E+00  6.78632E-01  1.86982E+00  1.44417E+00 -1.86116E+00 -1.64172E-01 -4.13487E-02
   1.40776E+00  3.12583E+00  1.71703E+00  6.31864E+00  4.98545E+00 -1.25522E+00 -7.73972E-01 -1.36840E+00 -4.10998E-01 -3.57900E+00
   1.15644E-02  1.04887E+00  7.37602E-01 -4.48396E-01 -6.47109E-01  9.06566E-01  2.30099E+00 -2.66748E-01  1.91949E+00  2.34191E+00
  -3.70486E-01 -1.86738E+00 -1.54328E+00 -4.15737E+00  2.97538E+00  4.82297E-01  4.59486E+00  1.85427E+00 -1.49442E+00  4.59608E+00
   2.80151E+00  1.89003E+00  3.49795E+00  1.00499E-01  5.57472E+00 -3.10028E-01  2.93264E+00  1.90865E+00 -1.29409E+00  1.62002E+00
   1.91712E+00  4.96844E+00  1.79687E+00  2.54321E+00  5.92967E-01  9.46494E-01  3.23656E-01 -1.67295E+00 -1.84470E+00  1.46770E+00
   1.19694E+00  1.53119E+00 -4.07490E-01  1.78199E+00 -5.46871E-02  1.82854E+00  6.84423E-01  7.05630E-01 -1.86658E-01 -1.95462E+00
  -1.66475E+00  5.18692E+00  1.87567E+00  3.06237E+00  2.36847E+00  1.62075E+00  9.94271E-01 -1.39135E+00  7.74324E-01 -2.81475E+00
  -5.27383E+00 -5.69232E-01 -5.63051E-01  5.14058E-01  3.48506E+00  1.41747E-01  2.53043E+00  2.84793E+00  1.34720E+00  3.89909E+00
   1.70016E+00  2.31762E+00 -1.54611E+00  2.17633E+00  6.73350E-01  5.34171E-02 -1.15416E+00  1.78865E+00  1.58178E+00  4.36721E-01
   4.08080E+00  4.07547E+00  1.72840E+00 -9.75197E-01 -2.03768E+00 -2.52066E+00 -8.51810E-01  2.87114E+00  1.32019E+00 -2.75978E-01
   2.20869E-01  1.86860E+00  2.33181E+00  2.03812E+00  8.80868E-01  1.31011E+00  4.01227E+00 -2.32659E+00  4.68162E+00  2.39604E+00
   2.41391E+00 -6.95061E-01  4.25290E+00  2.81554E+00 -5.67172E-01  2.15093E+00  1.75676E+00  4.64384E+00  1.98156E+00  3.72238E+00
   1.71905E+00  1.84314E+00  3.37501E+00  3.85631E-01 -1.10168E+00  8.86394E-01  2.13530E+00  1.34973E+00 -2.18880E+00  2.15256E+00
   1.44677E+00  3.42647E+00 -2.66928E+00  5.24086E+00 -1.95230E+00  1.84420E+00  2.29802E+00  1.51791E+00  1.03289E+00  1.33142E+00
   2.70953E-01  3.05773E-01 -2.50099E-01  9.26409E-01  1.19115E-01  8.63382E-01 -8.25611E-01  1.75907E+00  5.86652E-01  2.05959E-03
   2.83903E+00  6.08667E-01  2.63110E+00  1.53946E+00  3.97928E+00  1.62755E+00  2.09671E+00 -8.02413E-02  6.23753E-01 -5.25008E-01
   2.94990E+00 -1.22353E+00  3.40490E-01  2.60151E+00 -3.57035E+00  6.71027E-01 -1.60965E+00  3.82551E+00 -9.78761E-01  4.69074E+00
   1.92210E+00  5.01151E-01 -4.51334E-01  2.93165E-01  1.30248E+00 -6.77660E-03 -4.04555E-01  1.29297E+00  2.11884E+00  1.69390E+00
   2.05533E+00 -1.23427E+00  1.22090E+00  2.89188E+00  6.71891E-01  7.39860E-01 -2.15891E+00  1.71593E+00  2.01139E+00  3.61079E+00
   5.85592E-01 -4.73596E-01  1.28842E+00 -7.89550E-01 -6.34407E-01  2.52783E+00  9.88159E-01 -7.38964E-01  1.15316E+00  1.72561E+00
  -1.29174E+00  1.71860E+00  5.61029E+00 -1.57626E+00  1.06611E+00 -1.51646E+00  2.44501E+00  1.46506E+00 -1.57659E+00 -2.94476E+00
  -8.72825E-01  1.91768E+00 -1.79483E+00 -1.66978E+00  1.25353E-01 -1.50218E+00 -1.00136E+00  1.22961E+00 -4.18410E-01  1.13991E+00
   2.21860E+00  9.65199E-01  9.61429E-01  4.77731E-01 -2.10420E+00 -1.35779E-01  7.04252E-02  2.07575E+00 -4.39305E-01  2.84162E+00
   1.70550E+00 -1.65008E+00 -4.28525E+00 -2.72512E-01  3.90446E+00 -1.30658E-01 -4.71921E-01  2.23976E+00  1.60776E+00  1.58674E+00
   4.37972E+00  3.61947E+00  4.52181E+00  5.21189E+00 -1.66756E-01 -3.59909E-01  2.18426E+00 -6.03467E-01  2.73530E+00  5.40455E+00
   1.51030E+00  4.92387E-01  7.16304E-01  1.26017E+00 -4.40862E+00  2.30244E+00  2.67546E+00  2.55996E+00  6.39529E-02  3.91918E-01
  -5.42369E-01  5.96039E-01 -1.41809E+00  2.23144E+00  2.49735E+00  5.07438E+00 -2.08880E-02  1.06680E+00  2.89962E+00  2.36859E+00
  -3.35510E-01  1.70714E+00  8.37458E-01 -6.68379E-01 -2.47506E-01 -3.26426E+00 -5.75491E+00  2.07756E-01  8.20265E-01  3.78912E-01
  -4.99618E-02 -1.54027E+00  1.22919E+00 -7.54639E-02  1.11281E+00 -2.08526E+00 -8.04255E-01  1.22297E-01 -1.87314E+00  5.84847E-01
  -3.28569E+00 -4.09201E-01 -9.81350E-01 -2.28048E+00 -4.03016E+00 -3.55957E-01  3.70332E+00  1.31231E+00  4.18933E+00  1.31503E+00
   1.22094E+00  3.85958E+00  2.57733E+00  1.86780E+00  2.00361E+00  4.02802E+00  7.20072E-01  5.30459E+00  2.09074E+00  3.72812E+00
   3.34883E+00  2.62944E+00  4.20947E+00  5.45526E+00  2.89185E+00  4.45005E-01  5.85379E-01  2.25460E-01 -3.14471E+00  1.50196E+00
  -3.41364E+00 -1.62248E+00 -4.26889E-02 -4.31914E+00  1.43277E+00 -1.28811E+00 -3.39515E-01  4.14958E+00  1.13365E+00 -3.71465E-01
   2.03384E+00  3.55343E+00  2.77415E+00  3.68780E+00  5.48165E+00  4.70576E+00  4.64548E+00  3.54269E+00  5.52485E+00  3.66985E+00
   3.95191E+00  4.78618E+00  1.93449E+00  1.19817E+00 -1.98069E+00  8.48132E-01  1.03254E+00  1.51181E+00  1.66459E+00  2.85825E+00
  -3.00455E+00 -2.19503E+00 -4.35578E+00  1.01619E+00 -5.30338E+00  2.87737E-01 -3.32314E+00  1.57760E+00  6.42537E-01  9.87422E-01
   1.83642E+00 -1.25985E+00  1.16727E+00  2.23121E+00  1.02893E+00  5.32509E+00  3.54247E-01  3.27849E+00  1.48198E-01 -1.58118E+00
   3.71643E-01  9.83876E-02 -2.64778E-01 -2.00052E+00 -1.09326E+00 -1.40774E+00  5.61770E-01 -2.81124E+00 -3.99262E+00  1.42138E+00
   1.08535E+00 -3.68105E+00 -2.16546E+00 -1.99621E+00 -1.07656E+00 -2.15313E+00 -8.74410E-01  1.86598E+00  3.03580E+00 -2.14489E+00
   3.01798E-02 -7.59416E-01  1.46220E+00 -1.06530E+00  6.86355E-02 -6.71741E-01  2.60928E+00 -1.49689E+00 -2.08336E+00 -1.53202E+00
   1.14385E+00  1.73722E+00  2.31234E+00 -1.76063E+00 -3.39506E+00  2.17358E+00  2.52453E+00 -3.35125E+00 -6.70046E-01 -1.04064E+00
  -6.86240E-01  2.54299E+00  2.02212E+00 -2.57155E-01  9.28801E-01 -2.57439E+00  1.60278E+00 -8.86972E-01  2.20301E+00 -5.47259E+00
   1.34242E+00 -2.41750E+00 -3.86293E+00 -4.73032E-02 -1.38650E+00 -6.28821E-01 -8.99219E-01  2.29394E+00  1.00707E+00  2.07518E-01
  -1.63241E+00  2.60132E+00 -5.32529E-01  1.25105E+00  1.09218E+00  8.32417E-01  4.58789E-01 -1.43296E+00 -7.95654E-01  5.94875E-02
   2.10557E+00  5.33604E-01  2.54925E+00  9.23209E-01 -5.87577E-01  2.63660E+00 -5.85987E-01 -1.92290E+00  2.63906E+00  1.54852E+00
  -3.13997E-01 -6.36461E+00 -1.02441E+00 -2.28514E+00 -1.23144E+00  1.33835E+00  3.51555E+00  7.81387E-01  1.02242E+00  3.83755E+00
  -3.42246E+00 -2.01498E+00 -3.58826E-01  4.17049E+00  1.17140E+00 -2.40091E+00  1.33927E+00  5.68292E-01  1.75907E+00  3.79924E-02
  -3.79917E-01  1.69814E+00  2.01333E-01  3.01888E+00 -3.12133E+00 -2.86661E+00 -2.45296E-01 -4.77443E-01
 NY points of the fit to the data follow
   1.40524E+00  1.23806E+00  1.11369E+00  1.02949E+00  9.78895E-01  9.37187E-01  9.11107E-01  9.47344E-01  1.07695E+00  1.29015E+00
   1.54622E+00  1.78810E+00  1.94922E+00  1.97093E+00  1.83904E+00  1.60278E+00  1.34149E+00  1.11732E+00  9.64959E-01  8.92990E-01
   8.72598E-01  8.69449E-01  8.74353E-01  8.83825E-01  8.95011E-01  9.05801E-01  9.15349E-01  9.23692E-01  9.31372E-01  9.39453E-01
   9.48883E-01  9.60808E-01  9.78582E-01  1.01296E+00  1.07137E+00  1.14212E+00  1.19984E+00  1.21998E+00  1.18692E+00  1.09742E+00
   9.63663E-01  8.13986E-01  7.05002E-01  7.23775E-01  9.37547E-01  1.33717E+00  1.83264E+00  2.29028E+00  2.58127E+00  2.61117E+00
   2.35131E+00  1.87728E+00  1.34504E+00  9.00540E-01  6.26410E-01  5.50711E-01  6.45177E-01  8.43017E-01  1.08164E+00  1.31627E+00
   1.50550E+00  1.60582E+00  1.58846E+00  1.46076E+00  1.26925E+00  1.07689E+00  9.36702E-01  8.86943E-01  9.33520E-01  1.04743E+00
   1.18618E+00  1.30971E+00  1.39614E+00  1.43567E+00  1.42624E+00  1.37607E+00  1.30214E+00  1.22324E+00  1.15151E+00  1.09456E+00
   1.05745E+00  1.03764E+00  1.02646E+00  1.00637E+00  9.52779E-01  8.49151E-01  6.98031E-01  5.21030E-01  3.53167E-01  2.37656E-01
   2.08785E-01  2.74675E-01  4.15683E-01  5.90383E-01  7.49741E-01  8.51539E-01  8.77698E-01  8.31417E-01  7.36350E-01  6.32632E-01
   5.59257E-01  5.40061E-01  5.75654E-01  6.46703E-01  7.24161E-01  7.76356E-01  7.83626E-01  7.52429E-01  7.03437E-01  6.56329E-01
   6.23341E-01  6.09851E-01  6.10410E-01  6.14108E-01  6.17099E-01  6.16322E-01  6.11090E-01  6.02133E-01  5.91645E-01  5.81912E-01
   5.73093E-01  5.61856E-01  5.86133E-01  7.17578E-01  9.89002E-01  1.36910E+00  1.78328E+00  2.13814E+00  2.33668E+00  2.30740E+00
   2.05247E+00  1.66343E+00  1.26254E+00  9.34893E-01  7.20893E-01  6.23914E-01  5.93687E-01  5.82523E-01  5.78297E-01  5.76993E-01
   5.76616E-01  5.76607E-01  5.77172E-01  5.78754E-01  5.81672E-01  5.85379E-01  5.88825E-01  5.90879E-01  5.90733E-01  5.88589E-01
   5.85532E-01  5.82986E-01  5.81771E-01  5.81933E-01  5.83324E-01  5.85440E-01  5.85206E-01  5.78148E-01  5.61917E-01  5.38015E-01
   5.13189E-01  4.95588E-01  4.90505E-01  4.99029E-01  5.16962E-01  5.35207E-01  5.43949E-01  5.37832E-01  5.18078E-01  4.91146E-01
   4.65356E-01  4.43351E-01  4.21972E-01  3.99773E-01  3.78040E-01  3.61789E-01  3.54085E-01  3.54071E-01  3.60090E-01  3.69360E-01
   3.77527E-01  3.81507E-01  3.80472E-01  3.75924E-01  3.71643E-01  3.72271E-01  3.80739E-01  3.96739E-01  4.19837E-01  4.48650E-01
   4.79904E-01  5.07456E-01  5.28181E-01  5.43519E-01  5.54652E-01  5.61649E-01  5.64788E-01  5.61002E-01  5.45927E-01  5.22595E-01
   5.00092E-01  4.87745E-01  4.89897E-01  5.04316E-01  5.24437E-01  5.41048E-01  5.45300E-01  5.35780E-01  5.14892E-01  4.85005E-01
   4.49874E-01  4.15368E-01  3.86642E-01  3.66206E-01  3.57671E-01  3.63693E-01  3.82368E-01  4.07106E-01  4.31187E-01  4.51468E-01
   4.67528E-01  4.80210E-01  4.92019E-01  5.03364E-01  5.12182E-01  5.16067E-01  5.13072E-01  5.03205E-01  4.89119E-01  4.74906E-01
   4.64309E-01  4.59759E-01  4.61884E-01  4.69326E-01  4.79164E-01  4.88249E-01  4.94524E-01  4.97490E-01  4.97746E-01  4.96592E-01
   4.95485E-01  4.95122E-01  4.95489E-01  4.96501E-01  4.98102E-01  5.00246E-01  5.02892E-01  5.06018E-01  5.09635E-01  5.13805E-01
   5.18658E-01  5.24423E-01  5.31341E-01  5.37706E-01  5.33038E-01  5.59092E-01  7.43025E-01  1.16893E+00  1.80612E+00  2.53445E+00
   3.19262E+00  3.60702E+00  3.63410E+00  3.24371E+00  2.57076E+00  1.83514E+00  1.20805E+00  7.74675E-01  5.55200E-01  4.77634E-01
   4.40871E-01  4.16900E-01  4.00594E-01  3.89950E-01  3.83128E-01  3.78354E-01  3.74068E-01  3.68937E-01  3.62183E-01  3.53749E-01
   3.44087E-01  3.34147E-01  3.24979E-01  3.17315E-01  3.11570E-01  3.07728E-01  3.05341E-01  3.03816E-01  3.02552E-01  3.01014E-01
   2.98953E-01  2.96328E-01  2.93219E-01  2.89856E-01  2.86465E-01  2.83160E-01  2.80041E-01  2.77204E-01  2.74649E-01  2.72296E-01
   2.70081E-01  2.67954E-01  2.65857E-01  2.63782E-01  2.61735E-01  2.59722E-01  2.57748E-01  2.55818E-01  2.53934E-01  2.52095E-01
   2.50302E-01  2.48557E-01  2.46860E-01  2.45212E-01  2.43613E-01  2.42062E-01  2.40563E-01  2.39119E-01  2.37728E-01  2.36389E-01
   2.35094E-01  2.33840E-01  2.32622E-01  2.31437E-01  2.30279E-01  2.29139E-01  2.28007E-01  2.26873E-01  2.25726E-01  2.24556E-01
   2.23352E-01  2.22106E-01  2.20815E-01  2.19490E-01  2.18165E-01  2.16927E-01  2.15962E-01  2.15652E-01  2.16725E-01  2.20494E-01
   2.29200E-01  2.46441E-01  2.77659E-01  3.30551E-01  4.15213E-01  5.43755E-01  7.29132E-01  9.83024E-01  1.31286E+00  1.71835E+00
   2.18839E+00  2.69922E+00  3.21493E+00  3.69075E+00  4.07911E+00  4.33725E+00  4.43499E+00  4.36042E+00  4.12230E+00  3.74831E+00
   3.27972E+00  2.76389E+00  2.24650E+00  1.76514E+00  1.34555E+00  1.00076E+00  7.32566E-01  5.34525E-01  3.95427E-01  3.02377E-01
   2.43058E-01  2.07048E-01  1.86305E-01  1.75090E-01  1.69582E-01  1.67396E-01  1.67134E-01  1.68033E-01  1.69708E-01  1.71991E-01
   1.74827E-01  1.78219E-01  1.82203E-01  1.86827E-01  1.92146E-01  1.98217E-01  2.05091E-01  2.12814E-01  2.21421E-01  2.30933E-01
   2.41351E-01  2.52654E-01  2.64791E-01  2.77679E-01  2.91200E-01  3.05199E-01  3.19486E-01  3.33834E-01  3.47981E-01  3.61644E-01
   3.74521E-01  3.86302E-01  3.96683E-01  4.05375E-01  4.12117E-01  4.16689E-01  4.18925E-01  4.18717E-01  4.16020E-01  4.10858E-01
   4.03317E-01  3.93550E-01  3.81759E-01  3.68193E-01  3.53133E-01  3.36881E-01  3.19744E-01  3.02030E-01  2.84030E-01  2.66011E-01
   2.48210E-01  2.30830E-01  2.14038E-01  1.97963E-01  1.82699E-01  1.68305E-01  1.54812E-01  1.42224E-01  1.30527E-01  1.19690E-01
   1.09669E-01  1.00413E-01  9.18655E-02  8.39677E-02  7.66624E-02  6.98936E-02  6.36076E-02  5.77539E-02  5.22861E-02  4.71628E-02
   4.23466E-02  3.78039E-02  3.35043E-02  2.94207E-02  2.55297E-02  2.18111E-02  1.82469E-02  1.48213E-02  1.15195E-02  8.32891E-03
   5.23866E-03  2.23960E-03 -6.76552E-04 -3.51756E-03 -6.29075E-03 -9.00217E-03 -1.16568E-02 -1.42590E-02 -1.68130E-02 -1.93232E-02
  -2.17933E-02 -2.42264E-02 -2.66249E-02 -2.89909E-02 -3.13272E-02 -3.36362E-02 -3.59202E-02 -3.81804E-02 -4.04181E-02 -4.26346E-02
  -4.48317E-02 -4.70109E-02 -4.91735E-02 -5.13200E-02 -5.34512E-02 -5.55677E-02 -5.76713E-02 -5.97626E-02 -6.18424E-02 -6.39105E-02
  -6.59677E-02 -6.80146E-02 -7.00523E-02 -7.20811E-02 -7.41013E-02 -7.61128E-02 -7.81160E-02 -8.01114E-02 -8.21001E-02 -8.40819E-02
  -8.60566E-02 -8.80240E-02 -8.99848E-02 -9.19394E-02 -9.38882E-02 -9.58308E-02 -9.77668E-02 -9.96959E-02
 NY background values follow
     7.922E-01    7.904E-01    7.886E-01    7.868E-01    7.850E-01    7.832E-01    7.814E-01    7.796E-01    7.777E-01    7.759E-01
     7.741E-01    7.723E-01    7.705E-01    7.687E-01    7.669E-01    7.651E-01    7.633E-01    7.615E-01    7.597E-01    7.578E-01
     7.560E-01    7.542E-01    7.524E-01    7.506E-01    7.488E-01    7.470E-01    7.452E-01    7.434E-01    7.416E-01    7.398E-01
     7.379E-01    7.361E-01    7.343E-01    7.325E-01    7.307E-01    7.289E-01    7.271E-01    7.253E-01    7.235E-01    7.217E-01
     7.198E-01    7.180E-01    7.162E-01    7.144E-01    7.126E-01    7.108E-01    7.090E-01    7.072E-01    7.054E-01    7.036E-01
     7.018E-01    6.999E-01    6.981E-01    6.963E-01    6.945E-01    6.927E-01    6.909E-01    6.891E-01    6.873E-01    6.855E-01
     6.837E-01    6.819E-01    6.800E-01    6.782E-01    6.764E-01    6.746E-01    6.728E-01    6.710E-01    6.692E-01    6.674E-01
     6.656E-01    6.638E-01    6.619E-01    6.601E-01    6.583E-01    6.565E-01    6.547E-01    6.529E-01    6.511E-01    6.493E-01
     6.475E-01    6.457E-01    6.439E-01    6.420E-01    6.402E-01    6.384E-01    6.366E-01    6.348E-01    6.330E-01    6.312E-01
     6.294E-01    6.276E-01    6.258E-01    6.240E-01    6.221E-01    6.203E-01    6.185E-01    6.167E-01    6.149E-01    6.131E-01
     6.113E-01    6.095E-01    6.077E-01    6.059E-01    6.040E-01    6.022E-01    6.004E-01    5.986E-01    5.968E-01    5.950E-01
     5.932E-01    5.914E-01    5.896E-01    5.878E-01    5.860E-01    5.841E-01    5.823E-01    5.805E-01    5.787E-01    5.769E-01
     5.751E-01    5.733E-01    5.715E-01    5.697E-01    5.679E-01    5.660E-01    5.642E-01    5.624E-01    5.606E-01    5.588E-01
     5.570E-01    5.552E-01    5.534E-01    5.516E-01    5.498E-01    5.480E-01    5.461E-01    5.443E-01    5.425E-01    5.407E-01
     5.389E-01    5.371E-01    5.353E-01    5.335E-01    5.317E-01    5.299E-01    5.280E-01    5.262E-01    5.244E-01    5.226E-01
     5.208E-01    5.190E-01    5.172E-01    5.154E-01    5.136E-01    5.118E-01    5.099E-01    5.081E-01    5.063E-01    5.045E-01
     5.027E-01    5.009E-01    4.991E-01    4.973E-01    4.955E-01    4.937E-01    4.919E-01    4.900E-01    4.882E-01    4.864E-01
     4.846E-01    4.828E-01    4.810E-01    4.792E-01    4.774E-01    4.756E-01    4.738E-01    4.719E-01    4.701E-01    4.683E-01
     4.665E-01    4.647E-01    4.629E-01    4.611E-01    4.593E-01    4.575E-01    4.557E-01    4.538E-01    4.520E-01    4.502E-01
     4.484E-01    4.466E-01    4.448E-01    4.430E-01    4.412E-01    4.394E-01    4.376E-01    4.358E-01    4.339E-01    4.321E-01
     4.303E-01    4.285E-01    4.267E-01    4.249E-01    4.231E-01    4.213E-01    4.195E-01    4.177E-01    4.158E-01    4.140E-01
     4.122E-01    4.104E-01    4.086E-01    4.068E-01    4.050E-01    4.032E-01    4.014E-01    3.996E-01    3.977E-01    3.959E-01
     3.941E-01    3.923E-01    3.905E-01    3.887E-01    3.869E-01    3.851E-01    3.833E-01    3.815E-01    3.796E-01    3.778E-01
     3.760E-01    3.742E-01    3.724E-01    3.706E-01    3.688E-01    3.670E-01    3.652E-01    3.634E-01    3.615E-01    3.597E-01
     3.579E-01    3.561E-01    3.543E-01    3.525E-01    3.507E-01    3.489E-01    3.471E-01    3.453E-01    3.434E-01    3.416E-01
     3.398E-01    3.380E-01    3.362E-01    3.344E-01    3.326E-01    3.308E-01    3.290E-01    3.272E-01    3.254E-01    3.235E-01
     3.217E-01    3.199E-01    3.181E-01    3.163E-01    3.145E-01    3.127E-01    3.109E-01    3.091E-01    3.073E-01    3.054E-01
     3.036E-01    3.018E-01    3.000E-01    2.982E-01    2.964E-01    2.946E-01    2.928E-01    2.910E-01    2.892E-01    2.873E-01
     2.855E-01    2.837E-01    2.819E-01    2.801E-01    2.783E-01    2.765E-01    2.747E-01    2.729E-01    2.711E-01    2.692E-01
     2.674E-01    2.656E-01    2.638E-01    2.620E-01    2.602E-01    2.584E-01    2.566E-01    2.548E-01    2.530E-01    2.511E-01
     2.493E-01    2.475E-01    2.457E-01    2.439E-01    2.421E-01    2.403E-01    2.385E-01    2.367E-01    2.348E-01    2.330E-01
     2.312E-01    2.294E-01    2.276E-01    2.258E-01    2.240E-01    2.222E-01    2.204E-01    2.186E-01    2.167E-01    2.149E-01
     2.131E-01    2.113E-01    2.095E-01    2.077E-01    2.059E-01    2.041E-01    2.023E-01    2.005E-01    1.986E-01    1.968E-01
     1.950E-01    1.932E-01    1.914E-01    1.896E-01    1.878E-01    1.860E-01    1.842E-01    1.824E-01    1.805E-01    1.787E-01
     1.769E-01    1.751E-01    1.733E-01    1.715E-01    1.697E-01    1.679E-01    1.661E-01    1.643E-01    1.624E-01    1.606E-01
     1.588E-01    1.570E-01    1.552E-01    1.534E-01    1.516E-01    1.498E-01    1.480E-01    1.462E-01    1.443E-01    1.425E-01
     1.407E-01    1.389E-01    1.371E-01    1.353E-01    1.335E-01    1.317E-01    1.299E-01    1.281E-01    1.262E-01    1.244E-01
     1.226E-01    1.208E-01    1.190E-01    1.172E-01    1.154E-01    1.136E-01    1.118E-01    1.100E-01    1.081E-01    1.063E-01
     1.045E-01    1.027E-01    1.009E-01    9.909E-02    9.728E-02    9.547E-02    9.366E-02    9.185E-02    9.004E-02    8.823E-02
     8.642E-02    8.461E-02    8.280E-02    8.099E-02    7.918E-02    7.737E-02    7.556E-02    7.375E-02    7.194E-02    7.013E-02
     6.832E-02    6.651E-02    6.470E-02    6.289E-02    6.108E-02    5.927E-02    5.746E-02    5.565E-02    5.384E-02    5.203E-02
     5.022E-02    4.841E-02    4.660E-02    4.479E-02    4.298E-02    4.117E-02    3.936E-02    3.755E-02    3.574E-02    3.393E-02
     3.212E-02    3.031E-02    2.850E-02    2.669E-02    2.488E-02    2.307E-02    2.126E-02    1.945E-02    1.764E-02    1.582E-02
     1.401E-02    1.220E-02    1.039E-02    8.584E-03    6.774E-03    4.964E-03    3.154E-03    1.344E-03   -4.663E-04   -2.276E-03
    -4.087E-03   -5.897E-03   -7.707E-03   -9.517E-03   -1.133E-02   -1.314E-02   -1.495E-02   -1.676E-02   -1.857E-02   -2.038E-02
    -2.219E-02   -2.400E-02   -2.581E-02   -2.762E-02   -2.943E-02   -3.124E-02   -3.305E-02   -3.486E-02   -3.667E-02   -3.848E-02
    -4.029E-02   -4.210E-02   -4.391E-02   -4.572E-02   -4.753E-02   -4.934E-02   -5.115E-02   -5.296E-02   -5.477E-02   -5.658E-02
    -5.839E-02   -6.020E-02   -6.201E-02   -6.382E-02   -6.563E-02   -6.744E-02   -6.925E-02   -7.106E-02   -7.287E-02   -7.468E-02
    -7.649E-02   -7.830E-02   -8.011E-02   -8.192E-02   -8.373E-02   -8.554E-02   -8.735E-02   -8.916E-02   -9.097E-02   -9.278E-02
    -9.459E-02   -9.640E-02   -9.821E-02   -1.000E-01   -1.018E-01   -1.036E-01   -1.055E-01   -1.073E-01
 Asp      Conc. = 6.85E+00
