 LCModel (Version 6.3-1L) Copyright: S.W. Provencher.          Ref.: Magn. Reson. Med. 30:672-679 (1993).                
 Slice#2 Row#7 Col#3  PD_05_press_2_raw_act
 36 lines in following concentration table = NCONC+1
    Conc.  %SD /Cr+PCr  Metabolite                                         
    0.000 999%   0.000 Ala                                                 
    0.000 999%   0.000 Asp                                                 
 2.36E+03  22%   0.703 Cr                                                  
  998.214  53%   0.297 PCr                                                 
  127.444 306% 3.8E-02 GABA                                                
    0.000 999%   0.000 Glc                                                 
 1.02E+03  56%   0.303 Gln                                                 
 4.23E+03  16%   1.260 Glu                                                 
 1.42E+03   4%   0.422 GPC                                                 
    0.000 999%   0.000 PCh                                                 
 1.06E+03  17%   0.316 GSH                                                 
 2.50E+03  24%   0.743 Ins                                                 
  505.003  60%   0.150 Lac                                                 
 6.12E+03   6%   1.823 NAA                                                 
  448.511  84%   0.134 NAAG                                                
  162.751  40% 4.8E-02 Scyllo                                              
    0.000 999%   0.000 Tau                                                 
    0.000 999%   0.000 -CrCH2                                              
 1.42E+03   4%   0.422 GPC+PCh                                             
 6.57E+03   4%   1.957 NAA+NAAG                                            
 3.36E+03   4%   1.000 Cr+PCr                                              
 5.25E+03  18%   1.563 Glu+Gln                                             
 3.49E+03  30%   1.040 Lip13a                                              
    0.000 999%   0.000 Lip13b                                              
    0.000 999%   0.000 Lip09                                               
 4.80E+03  12%   1.429 MM09                                                
  650.575  61%   0.194 Lip20                                               
 1.11E+04   9%   3.312 MM20                                                
 1.62E+03  24%   0.483 MM12                                                
 6.50E+03  14%   1.937 MM14                                                
 1.36E+03  41%   0.406 MM17                                                
 3.49E+03  30%   1.040 Lip13a+Lip13b                                       
 1.16E+04   8%   3.461 MM14+Lip13a+Lip13b+MM12                             
 4.80E+03  12%   1.429 MM09+Lip09                                          
 1.18E+04   9%   3.506 MM20+Lip20                                          
   6 lines in following misc. output table
  FWHM = 0.046 ppm    S/N =  14                                            
  Data shift = 0.008 ppm                                                   
  Ph: -23 deg      -6.6 deg/ppm                                            
  alphaB,S = 1.3E+00,   1.1E+02                                            
   14 spline knots.   Ns = 7(1)                                            
  (12) 4 infls.   ( 9) 1 extrs.                                            
  498 points on ppm-axis = NY
      4.000000     3.992357     3.984714     3.977070     3.969427     3.961784     3.954141     3.946497     3.938854     3.931211
      3.923568     3.915925     3.908281     3.900638     3.892995     3.885352     3.877708     3.870065     3.862422     3.854779
      3.847136     3.839492     3.831849     3.824206     3.816563     3.808919     3.801276     3.793633     3.785990     3.778347
      3.770703     3.763060     3.755417     3.747774     3.740130     3.732487     3.724844     3.717201     3.709558     3.701914
      3.694271     3.686628     3.678985     3.671341     3.663698     3.656055     3.648412     3.640769     3.633125     3.625482
      3.617839     3.610196     3.602552     3.594909     3.587266     3.579623     3.571980     3.564336     3.556693     3.549050
      3.541407     3.533763     3.526120     3.518477     3.510834     3.503191     3.495547     3.487904     3.480261     3.472618
      3.464974     3.457331     3.449688     3.442045     3.434402     3.426758     3.419115     3.411472     3.403829     3.396185
      3.388542     3.380899     3.373256     3.365613     3.357969     3.350326     3.342683     3.335040     3.327396     3.319753
      3.312110     3.304467     3.296824     3.289180     3.281537     3.273894     3.266251     3.258607     3.250964     3.243321
      3.235678     3.228034     3.220391     3.212748     3.205105     3.197462     3.189818     3.182175     3.174532     3.166889
      3.159245     3.151602     3.143959     3.136316     3.128673     3.121029     3.113386     3.105743     3.098100     3.090456
      3.082813     3.075170     3.067527     3.059884     3.052240     3.044597     3.036954     3.029311     3.021667     3.014024
      3.006381     2.998738     2.991095     2.983451     2.975808     2.968165     2.960522     2.952878     2.945235     2.937592
      2.929949     2.922306     2.914662     2.907019     2.899376     2.891733     2.884089     2.876446     2.868803     2.861160
      2.853517     2.845873     2.838230     2.830587     2.822944     2.815300     2.807657     2.800014     2.792371     2.784728
      2.777084     2.769441     2.761798     2.754155     2.746511     2.738868     2.731225     2.723582     2.715939     2.708295
      2.700652     2.693009     2.685366     2.677722     2.670079     2.662436     2.654793     2.647150     2.639506     2.631863
      2.624220     2.616577     2.608933     2.601290     2.593647     2.586004     2.578361     2.570717     2.563074     2.555431
      2.547788     2.540144     2.532501     2.524858     2.517215     2.509572     2.501928     2.494285     2.486642     2.478999
      2.471355     2.463712     2.456069     2.448426     2.440783     2.433139     2.425496     2.417853     2.410210     2.402566
      2.394923     2.387280     2.379637     2.371994     2.364350     2.356707     2.349064     2.341421     2.333777     2.326134
      2.318491     2.310848     2.303205     2.295561     2.287918     2.280275     2.272632     2.264988     2.257345     2.249702
      2.242059     2.234416     2.226772     2.219129     2.211486     2.203843     2.196199     2.188556     2.180913     2.173270
      2.165627     2.157983     2.150340     2.142697     2.135054     2.127410     2.119767     2.112124     2.104481     2.096838
      2.089194     2.081551     2.073908     2.066265     2.058621     2.050978     2.043335     2.035692     2.028049     2.020405
      2.012762     2.005119     1.997476     1.989833     1.982190     1.974546     1.966903     1.959260     1.951617     1.943974
      1.936331     1.928688     1.921045     1.913402     1.905759     1.898115     1.890472     1.882829     1.875186     1.867543
      1.859900     1.852257     1.844614     1.836971     1.829327     1.821684     1.814041     1.806398     1.798755     1.791112
      1.783469     1.775826     1.768183     1.760540     1.752896     1.745253     1.737610     1.729967     1.722324     1.714681
      1.707038     1.699395     1.691752     1.684108     1.676465     1.668822     1.661179     1.653536     1.645893     1.638250
      1.630607     1.622964     1.615321     1.607677     1.600034     1.592391     1.584748     1.577105     1.569462     1.561819
      1.554176     1.546533     1.538890     1.531246     1.523603     1.515960     1.508317     1.500674     1.493031     1.485388
      1.477745     1.470102     1.462458     1.454815     1.447172     1.439529     1.431886     1.424243     1.416600     1.408957
      1.401314     1.393671     1.386027     1.378384     1.370741     1.363098     1.355455     1.347812     1.340169     1.332526
      1.324883     1.317240     1.309596     1.301953     1.294310     1.286667     1.279024     1.271381     1.263738     1.256095
      1.248452     1.240808     1.233165     1.225522     1.217879     1.210236     1.202593     1.194950     1.187307     1.179664
      1.172021     1.164377     1.156734     1.149091     1.141448     1.133805     1.126162     1.118519     1.110876     1.103233
      1.095590     1.087946     1.080303     1.072660     1.065017     1.057374     1.049731     1.042088     1.034445     1.026802
      1.019158     1.011515     1.003872     0.996229     0.988586     0.980943     0.973300     0.965657     0.958014     0.950371
      0.942727     0.935084     0.927441     0.919798     0.912155     0.904512     0.896869     0.889226     0.881583     0.873940
      0.866296     0.858653     0.851010     0.843367     0.835724     0.828081     0.820438     0.812795     0.805152     0.797508
      0.789865     0.782222     0.774579     0.766936     0.759293     0.751650     0.744007     0.736364     0.728721     0.721077
      0.713434     0.705791     0.698148     0.690505     0.682862     0.675219     0.667576     0.659933     0.652290     0.644646
      0.637003     0.629360     0.621717     0.614074     0.606431     0.598788     0.591145     0.583502     0.575858     0.568215
      0.560572     0.552929     0.545286     0.537643     0.530000     0.522357     0.514714     0.507071     0.499427     0.491784
      0.484141     0.476498     0.468855     0.461212     0.453569     0.445925     0.438282     0.430639     0.422996     0.415353
      0.407710     0.400067     0.392424     0.384780     0.377137     0.369494     0.361851     0.354208     0.346565     0.338922
      0.331278     0.323635     0.315992     0.308349     0.300706     0.293063     0.285420     0.277777     0.270133     0.262490
      0.254847     0.247204     0.239561     0.231918     0.224275     0.216631     0.208988     0.201345
 NY phased data points follow
   1.88965E+01  1.40015E+01  2.11838E+01  3.25195E+01  3.94010E+01  5.51639E+01  5.98634E+01  6.73935E+01  7.82768E+01  7.37267E+01
   1.19446E+02  9.26415E+01  1.02671E+02  7.33124E+01  7.79521E+01  4.63775E+01  5.16281E+01  4.60204E+01  4.25168E+01  3.05518E+01
   3.03502E+01  3.16637E+01  3.56134E+01  2.55146E+01  3.69287E+01  1.39514E+01  4.06881E+01  2.70699E+01  4.07107E+01  2.81594E+01
   5.15813E+01  2.86084E+01  4.34401E+01  3.26978E+01  2.99288E+01  2.59032E+01  3.08990E+01  2.51093E+01  2.86221E+01  2.60148E+01
   2.53278E+01  2.99738E+01  3.43142E+01  3.62147E+01  4.53050E+01  3.57773E+01  4.86047E+01  3.59474E+01  5.43940E+01  2.51664E+01
   3.99807E+01  1.90561E+01  2.69253E+01  2.68860E+01  2.09261E+01  2.45825E+01  2.35574E+01  1.32024E+01  2.17539E+01  7.56670E+00
   1.87826E+01  7.23783E+00  3.91072E+00 -1.01343E+00  1.03125E+01 -2.33678E+00  6.61305E+00 -3.31463E+00  6.52412E+00  2.18226E+00
   7.61841E+00 -1.42157E+01 -2.72463E+00 -8.96035E+00  1.27191E+00  1.91769E+00 -1.94028E+00 -6.73574E-01  8.41817E+00 -7.23147E-01
   1.17043E+01 -5.80903E+00 -2.60413E+00  9.92273E-01  1.35114E+01 -3.74221E+00  1.34694E+01  7.57925E+00  1.05754E+01 -3.03157E-01
   1.35746E+01  7.27877E+00  1.11783E+01  1.53846E+01  3.47601E+00  7.69280E+00  2.95117E+01  2.23265E+01  3.47745E+01  3.92706E+01
   7.70322E+01  9.30937E+01  1.16358E+02  1.34021E+02  1.28925E+02  9.69479E+01  9.56391E+01  6.87176E+01  4.68854E+01  3.13089E+01
   2.28901E+01  2.13505E+01  1.06399E+01  1.28725E+01  1.37547E+01  7.12730E+00  4.77415E-01  1.47846E+01  5.36851E+00  1.03601E+01
   1.68642E+01  2.49670E+01  3.48292E+01  4.47087E+01  6.32799E+01  8.84982E+01  1.05219E+02  1.20427E+02  1.04890E+02  9.10321E+01
   7.14883E+01  5.72709E+01  2.98488E+01  2.36254E+01  2.32566E+01  3.48765E+00  1.35117E+01 -3.02039E-01  1.35842E+01  5.18802E+00
   5.02175E+00 -4.29650E+00  7.38305E+00  6.15627E+00  2.32645E+00  1.18730E+01  8.46824E-01  1.90438E+00 -3.69142E+00 -3.66498E+00
  -5.79335E+00  2.26395E+00  1.29865E+00  4.26375E-02 -4.27358E+00 -1.32284E+01 -2.61164E+00 -1.12233E+01 -4.13827E+00 -2.36951E+00
  -6.84812E+00 -1.08594E+01 -1.08429E+01 -4.75222E+00 -1.45592E+01 -7.30491E+00 -1.11772E+01 -8.57427E+00 -2.18830E+01 -1.85659E+01
  -2.16137E+01 -2.39543E+01 -4.14431E+01 -2.87915E+01 -4.11096E+01 -4.22712E+01 -3.55015E+01 -3.79190E+01 -4.27096E+01 -4.40562E+01
  -4.52991E+01 -4.53293E+01 -4.14865E+01 -4.13952E+01 -3.70140E+01 -2.56062E+01 -2.99180E+01 -2.56161E+01 -7.28761E+00 -9.23089E+00
   3.31096E+00  6.57288E+00  5.37323E-01  1.37711E+01 -2.65053E-01 -5.75289E+00 -1.16941E+01 -1.86255E+01 -1.41946E+01 -1.70325E+01
  -1.37944E+01 -1.02168E+01 -2.38602E+01 -4.58176E-01 -1.03973E+01 -4.39372E+00 -7.81945E+00 -1.96129E+01 -1.42932E+01 -8.70386E+00
  -1.42847E+01 -1.06315E+01 -7.56622E+00  2.00000E+01  1.25449E+01  1.71246E+01  1.82700E+01  1.26247E+01  9.49965E-01  2.23699E+00
  -8.54629E+00 -1.53563E+01 -1.53915E+01 -1.01520E+01 -3.44152E+00  9.34135E+00  1.07390E+01  1.83172E+01  1.64919E+01  1.53667E+01
   2.07369E+01  2.43701E+01  1.80480E+01  1.91848E+01  1.88375E+01  2.73760E+01  1.74092E+01  2.43517E+01  1.64431E+01  2.15110E+01
   2.31901E+01  1.68560E+01  5.00372E+00  2.26353E+01  2.52860E+01  2.59414E+01  3.33422E+01  3.68465E+01  4.65535E+01  4.50093E+01
   5.53990E+01  5.02697E+01  4.75599E+01  7.05015E+01  9.13743E+01  1.15878E+02  1.27876E+02  1.63613E+02  1.92251E+02  2.27459E+02
   2.45022E+02  2.46403E+02  1.87433E+02  1.45000E+02  9.17196E+01  6.60762E+01  3.84067E+01  2.77238E+01  7.97914E+00  2.07503E+01
   8.31779E+00  1.89022E+01  1.75322E+01  1.14015E+01  1.53698E+01  2.19180E+01  1.81291E-01  1.24506E+01  7.00686E+00  8.66852E+00
   9.27617E+00  5.14148E-01 -2.28788E+00  2.50678E+00  4.71930E+00 -6.29127E+00 -4.62245E+00  8.74704E-02  5.01894E-01  2.90202E+00
   7.44884E-01 -2.64473E+00  7.98081E+00  6.84632E-01 -6.15517E+00 -1.01317E+00  5.64074E+00  3.37963E+00 -8.88763E+00  3.07120E+00
  -8.48590E+00 -6.97099E+00  1.75189E-01  1.96240E+00 -8.27757E+00 -2.42197E+00  5.98272E+00  1.00049E+01  7.41194E+00  1.01413E+00
  -1.43324E+01  8.23977E+00 -9.21949E+00 -7.05917E+00  3.69451E+00  1.11143E+01 -4.88481E+00  7.84004E+00  6.93006E+00  1.59476E+01
   1.37793E+01  1.12046E+01  1.38854E+01  8.52285E-01  2.23540E+01  1.68384E+01  3.10349E+01  2.59548E+01  4.00603E+01  4.24052E+01
   4.42110E+01  3.92428E+01  3.18943E+01  4.70921E+01  3.46538E+01  4.17939E+01  4.91563E+01  2.87246E+01  4.42029E+01  4.51821E+01
   5.22985E+01  4.07945E+01  1.59263E+01  3.90616E+01  3.99917E+01  3.44758E+01  3.05864E+01  2.55526E+01  2.55619E+01  2.10325E+01
   2.65565E+01  2.14031E+01  1.14617E+01  2.28355E+01  1.90389E+01  2.05083E+01  1.82683E+01  2.22079E+01  2.83389E+01  2.86754E+01
   3.05269E+01  2.33586E+01  1.22626E+01  2.24463E+01  2.32362E+01  1.03584E+01  1.17303E+01  1.27122E+01  2.46142E+01  1.59393E+01
   1.61257E+01  2.08518E+01  1.53841E+01  1.72945E+00  1.39886E+01  1.34650E+01  5.76068E+00  1.57302E+01  1.23809E+01  1.42011E+01
   7.89490E+00  1.10639E+01  1.22842E+01  1.86837E+01  1.43624E+01  1.62322E+01  9.09170E+00  1.50214E+01  1.61110E+01  1.48969E+01
   2.35960E+01  4.59630E+00  1.96037E+01  1.46743E+01  2.13797E+01  1.88508E+01  1.64394E+01  1.45409E+01  1.59998E+01  1.71911E+01
   1.93951E+01  1.82575E+01  1.88553E+01  2.04981E+01  2.57944E+01  2.81964E+01  1.42323E+01  3.34960E+01  1.46109E+01  2.53176E+01
   1.42310E+01  2.59686E+01  1.30612E+01  8.36715E+00  1.22934E+01  3.65218E+00  4.95794E+00  1.59523E+01  7.10578E+00 -3.73998E+00
  -4.76796E-01  7.78599E+00  4.80528E+00  6.61967E+00  1.19286E+01  1.49293E+01 -2.34123E+00  2.68192E+00  1.02439E+01 -4.02079E-01
   1.12250E+01  1.01498E+01  4.02474E+00  5.32437E+00  2.91826E+00 -1.99825E+00  1.37519E+00 -1.25806E+00  4.38714E+00 -2.62360E+00
   8.30218E+00  4.61882E+00  1.57023E+00  2.38920E+00  1.93610E+00  1.63217E+00 -7.47533E-01  8.55414E+00  1.30246E+01  6.66245E+00
   1.67528E+00  5.13200E+00  6.90619E+00  3.79331E+00 -2.05280E+00 -3.51215E+00  3.68814E+00  1.00596E+01  4.29406E+00  1.73937E+00
   4.35834E+00 -3.57594E+00  6.20009E+00  5.58666E+00 -5.58576E+00  2.87143E+00  1.84888E+00  6.21704E+00  9.74775E+00 -4.35756E-01
   1.17262E-01  2.86541E+00  6.96872E+00  1.24512E+01 -3.43263E+00 -5.79657E+00 -8.42040E-01  5.68516E+00 -8.40041E+00 -3.50336E+00
  -3.95253E+00  3.97021E+00  7.87750E+00  1.33085E+01  6.90569E+00 -1.31712E-01 -1.05565E+00  1.06626E+00  4.89404E+00  8.53528E+00
   2.39113E+00  1.50281E+00 -1.86887E+00  7.28336E+00 -3.33307E+00 -1.00291E+01 -5.33095E+00  6.47690E+00
 NY points of the fit to the data follow
   2.29958E+01  2.30406E+01  2.48970E+01  2.85100E+01  3.47336E+01  4.33559E+01  5.29199E+01  6.36173E+01  7.55670E+01  8.70624E+01
   9.50660E+01  9.67419E+01  9.10261E+01  7.97171E+01  6.65325E+01  5.46161E+01  4.53284E+01  3.85353E+01  3.36395E+01  2.99586E+01
   2.74122E+01  2.54588E+01  2.40908E+01  2.41979E+01  2.48212E+01  2.55997E+01  2.72707E+01  3.05089E+01  3.52414E+01  4.05940E+01
   4.51181E+01  4.70948E+01  4.58410E+01  4.20937E+01  3.65567E+01  3.02799E+01  2.46657E+01  2.05058E+01  1.81247E+01  1.81368E+01
   2.03176E+01  2.33070E+01  2.59805E+01  2.85231E+01  3.13426E+01  3.41568E+01  3.62071E+01  3.63424E+01  3.39866E+01  2.98725E+01
   2.51221E+01  2.08274E+01  1.78182E+01  1.60902E+01  1.51579E+01  1.47834E+01  1.50079E+01  1.56354E+01  1.62487E+01  1.64842E+01
   1.60752E+01  1.48534E+01  1.30087E+01  1.09568E+01  9.34028E+00  8.53750E+00  8.42029E+00  8.75509E+00  9.35850E+00  1.00273E+01
   1.05808E+01  1.08445E+01  1.06890E+01  1.01209E+01  9.29552E+00  8.41577E+00  7.64660E+00  7.05133E+00  6.64449E+00  6.51570E+00
   6.75402E+00  6.90758E+00  6.97125E+00  7.22365E+00  7.67018E+00  8.01110E+00  7.87375E+00  7.01597E+00  5.59254E+00  4.22221E+00
   3.32696E+00  3.01349E+00  3.20611E+00  3.68715E+00  4.35196E+00  6.09768E+00  1.28129E+01  2.49149E+01  3.76002E+01  5.17635E+01
   7.07920E+01  9.44889E+01  1.17782E+02  1.32608E+02  1.32015E+02  1.15698E+02  9.04128E+01  6.43602E+01  4.29075E+01  2.76949E+01
   1.71959E+01  9.55173E+00  5.05856E+00  3.56942E+00  3.13229E+00  3.05669E+00  3.17870E+00  3.51676E+00  4.32566E+00  6.95232E+00
   1.51302E+01  2.66071E+01  3.80858E+01  5.15725E+01  6.93447E+01  8.99082E+01  1.08191E+02  1.17282E+02  1.12442E+02  9.57064E+01
   7.39552E+01  5.33059E+01  3.69805E+01  2.49620E+01  1.53856E+01  7.53279E+00  2.78831E+00  8.85197E-01  6.97460E-01  1.65832E+00
   3.01618E+00  4.05709E+00  4.42335E+00  4.04459E+00  3.06892E+00  1.83383E+00  5.95473E-01 -5.70947E-01 -1.63957E+00 -2.59090E+00
  -3.43128E+00 -4.15283E+00 -4.76715E+00 -5.38357E+00 -6.21230E+00 -6.95233E+00 -7.48477E+00 -7.97387E+00 -8.57732E+00 -9.68037E+00
  -1.09729E+01 -1.16977E+01 -1.15124E+01 -1.08319E+01 -1.04110E+01 -1.08382E+01 -1.22171E+01 -1.40804E+01 -1.59031E+01 -1.75944E+01
  -1.89322E+01 -1.97579E+01 -2.05392E+01 -2.15716E+01 -2.27717E+01 -2.35403E+01 -2.33919E+01 -2.24930E+01 -2.16101E+01 -2.13959E+01
  -2.19119E+01 -2.22564E+01 -2.19033E+01 -2.10137E+01 -1.98740E+01 -1.84975E+01 -1.65324E+01 -1.35908E+01 -9.75376E+00 -5.79925E+00
  -2.84158E+00 -1.68863E+00 -2.04027E+00 -3.28251E+00 -4.90742E+00 -6.53749E+00 -7.71185E+00 -7.91174E+00 -7.04845E+00 -5.13029E+00
  -2.52588E+00  2.97972E-01  2.63636E+00  3.46660E+00  2.66936E+00  2.20998E-01 -3.89192E+00 -8.60699E+00 -1.24647E+01 -1.40498E+01
  -1.35240E+01 -1.10490E+01 -6.38943E+00 -4.99906E-03  6.39360E+00  1.02360E+01  9.88852E+00  5.73526E+00 -1.00559E+00 -9.02471E+00
  -1.61988E+01 -2.05527E+01 -2.08820E+01 -1.69111E+01 -9.92720E+00 -1.87644E+00  5.25573E+00  1.02229E+01  1.27583E+01  1.34484E+01
   1.34553E+01  1.34691E+01  1.38629E+01  1.50290E+01  1.69983E+01  1.91699E+01  2.07872E+01  2.16716E+01  2.18156E+01  2.12362E+01
   2.02177E+01  1.96432E+01  2.02999E+01  2.24314E+01  2.57588E+01  2.95684E+01  3.31715E+01  3.59790E+01  3.79529E+01  3.98116E+01
   4.18243E+01  4.44069E+01  5.03890E+01  6.80213E+01  9.21613E+01  1.14181E+02  1.37309E+02  1.66604E+02  2.00306E+02  2.29707E+02
   2.42217E+02  2.28877E+02  1.93134E+02  1.47946E+02  1.05499E+02  7.26532E+01  4.98875E+01  3.34334E+01  2.08576E+01  1.39734E+01
   1.11506E+01  9.46533E+00  8.38993E+00  7.72180E+00  7.14202E+00  6.41862E+00  5.50882E+00  4.43360E+00  3.27898E+00  2.16102E+00
   1.16381E+00  3.26469E-01 -3.14941E-01 -7.59588E-01 -1.06036E+00 -1.26616E+00 -1.41136E+00 -1.51068E+00 -1.55638E+00 -1.54087E+00
  -1.46601E+00 -1.33383E+00 -1.16002E+00 -9.64159E-01 -7.65364E-01 -5.75880E-01 -4.03178E-01 -2.51358E-01 -1.18342E-01  1.17557E-03
   1.09785E-01  2.07921E-01  2.91185E-01  3.55174E-01  4.00936E-01  4.36484E-01  4.75308E-01  5.32728E-01  6.25280E-01  7.73921E-01
   1.00011E+00  1.32413E+00  1.76592E+00  2.34431E+00  3.07746E+00  3.98267E+00  5.07432E+00  6.36218E+00  7.85065E+00  9.53892E+00
   1.14209E+01  1.34840E+01  1.57085E+01  1.80659E+01  2.05209E+01  2.30324E+01  2.55548E+01  2.80383E+01  3.04308E+01  3.26793E+01
   3.47336E+01  3.65488E+01  3.80876E+01  3.93215E+01  4.02326E+01  4.08156E+01  4.10805E+01  4.10556E+01  4.07936E+01  4.03961E+01
   4.00316E+01  3.95083E+01  3.85603E+01  3.74216E+01  3.62273E+01  3.47557E+01  3.26212E+01  2.95931E+01  2.61272E+01  2.28527E+01
   2.01845E+01  1.85122E+01  1.80854E+01  1.88506E+01  2.04313E+01  2.22476E+01  2.36907E+01  2.42950E+01  2.40014E+01  2.31399E+01
   2.20691E+01  2.10090E+01  1.99793E+01  1.89318E+01  1.79630E+01  1.71098E+01  1.63074E+01  1.55305E+01  1.47738E+01  1.40401E+01
   1.33364E+01  1.26723E+01  1.20582E+01  1.15041E+01  1.10192E+01  1.06125E+01  1.02924E+01  1.00664E+01  9.94084E+00  9.91988E+00
   1.00064E+01  1.02023E+01  1.05081E+01  1.09230E+01  1.14437E+01  1.20651E+01  1.27798E+01  1.35792E+01  1.44525E+01  1.53865E+01
   1.63656E+01  1.73718E+01  1.83858E+01  1.93873E+01  2.03549E+01  2.12666E+01  2.21002E+01  2.28345E+01  2.34506E+01  2.39319E+01
   2.42651E+01  2.44398E+01  2.44495E+01  2.42923E+01  2.39709E+01  2.34923E+01  2.28669E+01  2.21084E+01  2.12329E+01  2.02592E+01
   1.92072E+01  1.80977E+01  1.69507E+01  1.57849E+01  1.46182E+01  1.34667E+01  1.23446E+01  1.12634E+01  1.02322E+01  9.25756E+00
   8.34414E+00  7.49504E+00  6.71157E+00  5.99326E+00  5.33826E+00  4.74396E+00  4.20740E+00  3.72533E+00  3.29409E+00  2.90954E+00
   2.56753E+00  2.26427E+00  1.99642E+00  1.76087E+00  1.55445E+00  1.37399E+00  1.21669E+00  1.08031E+00  9.62993E-01  8.62990E-01
   7.78425E-01  7.07497E-01  6.48779E-01  6.01283E-01  5.64189E-01  5.36535E-01  5.17208E-01  5.05228E-01  4.99977E-01  5.01119E-01
   5.08276E-01  5.20825E-01  5.38049E-01  5.59452E-01  5.84868E-01  6.14243E-01  6.47326E-01  6.83628E-01  7.22673E-01  7.64270E-01
   8.08475E-01  8.55300E-01  9.04494E-01  9.55646E-01  1.00849E+00  1.06304E+00  1.11945E+00  1.17767E+00  1.23743E+00  1.29838E+00
   1.36046E+00  1.42380E+00  1.48856E+00  1.55461E+00  1.62166E+00  1.68948E+00  1.75814E+00  1.82785E+00  1.89866E+00  1.97037E+00
   2.04271E+00  2.11560E+00  2.18922E+00  2.26377E+00  2.33921E+00  2.41528E+00  2.49180E+00  2.56882E+00  2.64659E+00  2.72524E+00
   2.80462E+00  2.88449E+00  2.96479E+00  3.04570E+00  3.12748E+00  3.21018E+00  3.29360E+00  3.37757E+00
 NY background values follow
     1.653E+01    1.633E+01    1.613E+01    1.593E+01    1.572E+01    1.552E+01    1.532E+01    1.511E+01    1.491E+01    1.471E+01
     1.450E+01    1.430E+01    1.410E+01    1.390E+01    1.369E+01    1.349E+01    1.329E+01    1.308E+01    1.288E+01    1.268E+01
     1.247E+01    1.227E+01    1.207E+01    1.187E+01    1.166E+01    1.146E+01    1.126E+01    1.106E+01    1.086E+01    1.065E+01
     1.045E+01    1.025E+01    1.005E+01    9.848E+00    9.647E+00    9.446E+00    9.246E+00    9.045E+00    8.845E+00    8.645E+00
     8.445E+00    8.246E+00    8.046E+00    7.847E+00    7.648E+00    7.450E+00    7.251E+00    7.053E+00    6.856E+00    6.658E+00
     6.461E+00    6.264E+00    6.068E+00    5.872E+00    5.676E+00    5.481E+00    5.286E+00    5.092E+00    4.898E+00    4.704E+00
     4.511E+00    4.318E+00    4.126E+00    3.934E+00    3.743E+00    3.552E+00    3.362E+00    3.172E+00    2.983E+00    2.794E+00
     2.606E+00    2.419E+00    2.232E+00    2.046E+00    1.860E+00    1.675E+00    1.491E+00    1.307E+00    1.124E+00    9.414E-01
     7.598E-01    5.788E-01    3.986E-01    2.191E-01    4.033E-02   -1.377E-01   -3.149E-01   -4.914E-01   -6.670E-01   -8.419E-01
    -1.016E+00   -1.189E+00   -1.361E+00   -1.533E+00   -1.704E+00   -1.873E+00   -2.042E+00   -2.210E+00   -2.378E+00   -2.544E+00
    -2.709E+00   -2.874E+00   -3.038E+00   -3.200E+00   -3.362E+00   -3.523E+00   -3.683E+00   -3.842E+00   -4.000E+00   -4.158E+00
    -4.314E+00   -4.469E+00   -4.624E+00   -4.777E+00   -4.930E+00   -5.081E+00   -5.232E+00   -5.381E+00   -5.530E+00   -5.677E+00
    -5.824E+00   -5.969E+00   -6.114E+00   -6.257E+00   -6.400E+00   -6.541E+00   -6.682E+00   -6.821E+00   -6.960E+00   -7.097E+00
    -7.233E+00   -7.369E+00   -7.503E+00   -7.636E+00   -7.768E+00   -7.899E+00   -8.029E+00   -8.157E+00   -8.285E+00   -8.412E+00
    -8.537E+00   -8.661E+00   -8.784E+00   -8.906E+00   -9.027E+00   -9.146E+00   -9.265E+00   -9.382E+00   -9.498E+00   -9.612E+00
    -9.725E+00   -9.837E+00   -9.948E+00   -1.006E+01   -1.017E+01   -1.027E+01   -1.038E+01   -1.048E+01   -1.058E+01   -1.068E+01
    -1.078E+01   -1.088E+01   -1.098E+01   -1.107E+01   -1.117E+01   -1.126E+01   -1.135E+01   -1.144E+01   -1.153E+01   -1.162E+01
    -1.170E+01   -1.178E+01   -1.187E+01   -1.195E+01   -1.202E+01   -1.210E+01   -1.218E+01   -1.225E+01   -1.232E+01   -1.239E+01
    -1.246E+01   -1.253E+01   -1.259E+01   -1.266E+01   -1.272E+01   -1.278E+01   -1.284E+01   -1.289E+01   -1.295E+01   -1.300E+01
    -1.305E+01   -1.310E+01   -1.315E+01   -1.320E+01   -1.325E+01   -1.329E+01   -1.333E+01   -1.337E+01   -1.341E+01   -1.345E+01
    -1.349E+01   -1.352E+01   -1.356E+01   -1.359E+01   -1.362E+01   -1.365E+01   -1.368E+01   -1.371E+01   -1.374E+01   -1.376E+01
    -1.379E+01   -1.381E+01   -1.383E+01   -1.385E+01   -1.387E+01   -1.389E+01   -1.390E+01   -1.392E+01   -1.393E+01   -1.395E+01
    -1.396E+01   -1.397E+01   -1.398E+01   -1.399E+01   -1.400E+01   -1.400E+01   -1.401E+01   -1.401E+01   -1.402E+01   -1.402E+01
    -1.402E+01   -1.402E+01   -1.402E+01   -1.402E+01   -1.402E+01   -1.402E+01   -1.401E+01   -1.401E+01   -1.400E+01   -1.400E+01
    -1.399E+01   -1.398E+01   -1.397E+01   -1.396E+01   -1.395E+01   -1.394E+01   -1.393E+01   -1.392E+01   -1.390E+01   -1.389E+01
    -1.387E+01   -1.386E+01   -1.384E+01   -1.382E+01   -1.380E+01   -1.378E+01   -1.376E+01   -1.374E+01   -1.372E+01   -1.370E+01
    -1.367E+01   -1.365E+01   -1.363E+01   -1.360E+01   -1.357E+01   -1.355E+01   -1.352E+01   -1.349E+01   -1.346E+01   -1.343E+01
    -1.340E+01   -1.337E+01   -1.334E+01   -1.331E+01   -1.327E+01   -1.324E+01   -1.321E+01   -1.317E+01   -1.314E+01   -1.310E+01
    -1.306E+01   -1.302E+01   -1.299E+01   -1.295E+01   -1.291E+01   -1.287E+01   -1.283E+01   -1.279E+01   -1.275E+01   -1.270E+01
    -1.266E+01   -1.262E+01   -1.257E+01   -1.253E+01   -1.248E+01   -1.244E+01   -1.239E+01   -1.234E+01   -1.230E+01   -1.225E+01
    -1.220E+01   -1.215E+01   -1.210E+01   -1.205E+01   -1.200E+01   -1.195E+01   -1.190E+01   -1.184E+01   -1.179E+01   -1.174E+01
    -1.168E+01   -1.163E+01   -1.158E+01   -1.152E+01   -1.146E+01   -1.141E+01   -1.135E+01   -1.129E+01   -1.123E+01   -1.118E+01
    -1.112E+01   -1.106E+01   -1.100E+01   -1.094E+01   -1.088E+01   -1.081E+01   -1.075E+01   -1.069E+01   -1.063E+01   -1.057E+01
    -1.050E+01   -1.044E+01   -1.037E+01   -1.031E+01   -1.024E+01   -1.018E+01   -1.011E+01   -1.004E+01   -9.977E+00   -9.910E+00
    -9.842E+00   -9.774E+00   -9.706E+00   -9.637E+00   -9.567E+00   -9.498E+00   -9.428E+00   -9.357E+00   -9.286E+00   -9.215E+00
    -9.144E+00   -9.072E+00   -8.999E+00   -8.927E+00   -8.854E+00   -8.781E+00   -8.707E+00   -8.633E+00   -8.559E+00   -8.484E+00
    -8.409E+00   -8.334E+00   -8.259E+00   -8.183E+00   -8.107E+00   -8.030E+00   -7.954E+00   -7.877E+00   -7.799E+00   -7.722E+00
    -7.644E+00   -7.566E+00   -7.487E+00   -7.408E+00   -7.329E+00   -7.250E+00   -7.170E+00   -7.091E+00   -7.010E+00   -6.930E+00
    -6.849E+00   -6.768E+00   -6.687E+00   -6.605E+00   -6.523E+00   -6.441E+00   -6.359E+00   -6.276E+00   -6.193E+00   -6.110E+00
    -6.027E+00   -5.943E+00   -5.859E+00   -5.775E+00   -5.690E+00   -5.606E+00   -5.521E+00   -5.435E+00   -5.350E+00   -5.264E+00
    -5.178E+00   -5.092E+00   -5.005E+00   -4.919E+00   -4.832E+00   -4.745E+00   -4.657E+00   -4.570E+00   -4.482E+00   -4.394E+00
    -4.305E+00   -4.217E+00   -4.128E+00   -4.039E+00   -3.950E+00   -3.861E+00   -3.771E+00   -3.681E+00   -3.592E+00   -3.502E+00
    -3.412E+00   -3.321E+00   -3.231E+00   -3.140E+00   -3.050E+00   -2.959E+00   -2.868E+00   -2.777E+00   -2.686E+00   -2.595E+00
    -2.504E+00   -2.413E+00   -2.322E+00   -2.230E+00   -2.139E+00   -2.047E+00   -1.956E+00   -1.864E+00   -1.773E+00   -1.681E+00
    -1.590E+00   -1.498E+00   -1.407E+00   -1.315E+00   -1.224E+00   -1.133E+00   -1.041E+00   -9.499E-01   -8.587E-01   -7.675E-01
    -6.763E-01   -5.853E-01   -4.943E-01   -4.034E-01   -3.127E-01   -2.219E-01   -1.313E-01   -4.078E-02    4.968E-02    1.401E-01
     2.304E-01    3.206E-01    4.108E-01    5.008E-01    5.909E-01    6.808E-01    7.707E-01    8.605E-01    9.503E-01    1.040E+00
     1.130E+00    1.219E+00    1.309E+00    1.398E+00    1.488E+00    1.577E+00    1.666E+00    1.756E+00    1.845E+00    1.934E+00
     2.023E+00    2.113E+00    2.202E+00    2.291E+00    2.380E+00    2.469E+00    2.558E+00    2.647E+00    2.736E+00    2.825E+00
     2.914E+00    3.002E+00    3.091E+00    3.180E+00    3.269E+00    3.358E+00    3.447E+00    3.536E+00
 Cr       Conc. = 2.36E+03
