 LCModel (Version 6.3-1L) Copyright: S.W. Provencher.          Ref.: Magn. Reson. Med. 30:672-679 (1993).                
 Slice#3 Row#12 Col#2  PD_05_press_2_raw_act
 36 lines in following concentration table = NCONC+1
    Conc.  %SD /Cr+PCr  Metabolite                                         
 3.55E+03  19%  53.001 Ala                                                 
    9.114 354%   0.136 Asp                                                 
    0.000 999%   0.000 Cr                                                  
   66.923  77%   1.000 PCr                                                 
    0.000 999%   0.000 GABA                                                
    0.000 999%   0.000 Glc                                                 
    0.000 999%   0.000 Gln                                                 
    0.000 999%   0.000 Glu                                                 
    0.000 999%   0.000 GPC                                                 
   12.643 165%   0.189 PCh                                                 
  138.779  62%   2.074 GSH                                                 
    0.000 999%   0.000 Ins                                                 
 1.55E+03  38%  23.157 Lac                                                 
    0.000 999%   0.000 NAA                                                 
    0.000 999%   0.000 NAAG                                                
    0.602 999% 9.0E-03 Scyllo                                              
    0.000 999%   0.000 Tau                                                 
    0.000 999%   0.000 -CrCH2                                              
   12.643 165%   0.189 GPC+PCh                                             
    0.000 999%   0.000 NAA+NAAG                                            
   66.923  77%   1.000 Cr+PCr                                              
    0.000 999%   0.000 Glu+Gln                                             
    0.000 999%   0.000 Lip13a                                              
   50.072 214%   0.748 Lip13b                                              
   13.317 215%   0.199 Lip09                                               
  888.621  14%  13.278 MM09                                                
    7.507 215%   0.112 Lip20                                               
 1.24E+03  15%  18.599 MM20                                                
  266.893  23%   3.988 MM12                                                
 1.43E+03  13%  21.297+MM14                                                
  691.109  19%  10.327 MM17                                                
   50.072 214%   0.748 Lip13a+Lip13b                                       
 1.74E+03  14%  26.033 MM14+Lip13a+Lip13b+MM12                             
  901.938  15%  13.477 MM09+Lip09                                          
 1.25E+03  15%  18.711 MM20+Lip20                                          
   6 lines in following misc. output table
  FWHM = 0.168 ppm    S/N =   4                                            
  Data shift = 0.107 ppm                                                   
  Ph: -25 deg      16.3 deg/ppm                                            
  alphaB,S = 8.5E+01,   5.2E+02                                            
    6 spline knots.   Ns = 9(2)                                            
  (13) 4 infls.   ( 7) 1 extrs.                                            
  498 points on ppm-axis = NY
      4.000000     3.992357     3.984714     3.977070     3.969427     3.961784     3.954141     3.946497     3.938854     3.931211
      3.923568     3.915925     3.908281     3.900638     3.892995     3.885352     3.877708     3.870065     3.862422     3.854779
      3.847136     3.839492     3.831849     3.824206     3.816563     3.808919     3.801276     3.793633     3.785990     3.778347
      3.770703     3.763060     3.755417     3.747774     3.740130     3.732487     3.724844     3.717201     3.709558     3.701914
      3.694271     3.686628     3.678985     3.671341     3.663698     3.656055     3.648412     3.640769     3.633125     3.625482
      3.617839     3.610196     3.602552     3.594909     3.587266     3.579623     3.571980     3.564336     3.556693     3.549050
      3.541407     3.533763     3.526120     3.518477     3.510834     3.503191     3.495547     3.487904     3.480261     3.472618
      3.464974     3.457331     3.449688     3.442045     3.434402     3.426758     3.419115     3.411472     3.403829     3.396185
      3.388542     3.380899     3.373256     3.365613     3.357969     3.350326     3.342683     3.335040     3.327396     3.319753
      3.312110     3.304467     3.296824     3.289180     3.281537     3.273894     3.266251     3.258607     3.250964     3.243321
      3.235678     3.228034     3.220391     3.212748     3.205105     3.197462     3.189818     3.182175     3.174532     3.166889
      3.159245     3.151602     3.143959     3.136316     3.128673     3.121029     3.113386     3.105743     3.098100     3.090456
      3.082813     3.075170     3.067527     3.059884     3.052240     3.044597     3.036954     3.029311     3.021667     3.014024
      3.006381     2.998738     2.991095     2.983451     2.975808     2.968165     2.960522     2.952878     2.945235     2.937592
      2.929949     2.922306     2.914662     2.907019     2.899376     2.891733     2.884089     2.876446     2.868803     2.861160
      2.853517     2.845873     2.838230     2.830587     2.822944     2.815300     2.807657     2.800014     2.792371     2.784728
      2.777084     2.769441     2.761798     2.754155     2.746511     2.738868     2.731225     2.723582     2.715939     2.708295
      2.700652     2.693009     2.685366     2.677722     2.670079     2.662436     2.654793     2.647150     2.639506     2.631863
      2.624220     2.616577     2.608933     2.601290     2.593647     2.586004     2.578361     2.570717     2.563074     2.555431
      2.547788     2.540144     2.532501     2.524858     2.517215     2.509572     2.501928     2.494285     2.486642     2.478999
      2.471355     2.463712     2.456069     2.448426     2.440783     2.433139     2.425496     2.417853     2.410210     2.402566
      2.394923     2.387280     2.379637     2.371994     2.364350     2.356707     2.349064     2.341421     2.333777     2.326134
      2.318491     2.310848     2.303205     2.295561     2.287918     2.280275     2.272632     2.264988     2.257345     2.249702
      2.242059     2.234416     2.226772     2.219129     2.211486     2.203843     2.196199     2.188556     2.180913     2.173270
      2.165627     2.157983     2.150340     2.142697     2.135054     2.127410     2.119767     2.112124     2.104481     2.096838
      2.089194     2.081551     2.073908     2.066265     2.058621     2.050978     2.043335     2.035692     2.028049     2.020405
      2.012762     2.005119     1.997476     1.989833     1.982190     1.974546     1.966903     1.959260     1.951617     1.943974
      1.936331     1.928688     1.921045     1.913402     1.905759     1.898115     1.890472     1.882829     1.875186     1.867543
      1.859900     1.852257     1.844614     1.836971     1.829327     1.821684     1.814041     1.806398     1.798755     1.791112
      1.783469     1.775826     1.768183     1.760540     1.752896     1.745253     1.737610     1.729967     1.722324     1.714681
      1.707038     1.699395     1.691752     1.684108     1.676465     1.668822     1.661179     1.653536     1.645893     1.638250
      1.630607     1.622964     1.615321     1.607677     1.600034     1.592391     1.584748     1.577105     1.569462     1.561819
      1.554176     1.546533     1.538890     1.531246     1.523603     1.515960     1.508317     1.500674     1.493031     1.485388
      1.477745     1.470102     1.462458     1.454815     1.447172     1.439529     1.431886     1.424243     1.416600     1.408957
      1.401314     1.393671     1.386027     1.378384     1.370741     1.363098     1.355455     1.347812     1.340169     1.332526
      1.324883     1.317240     1.309596     1.301953     1.294310     1.286667     1.279024     1.271381     1.263738     1.256095
      1.248452     1.240808     1.233165     1.225522     1.217879     1.210236     1.202593     1.194950     1.187307     1.179664
      1.172021     1.164377     1.156734     1.149091     1.141448     1.133805     1.126162     1.118519     1.110876     1.103233
      1.095590     1.087946     1.080303     1.072660     1.065017     1.057374     1.049731     1.042088     1.034445     1.026802
      1.019158     1.011515     1.003872     0.996229     0.988586     0.980943     0.973300     0.965657     0.958014     0.950371
      0.942727     0.935084     0.927441     0.919798     0.912155     0.904512     0.896869     0.889226     0.881583     0.873940
      0.866296     0.858653     0.851010     0.843367     0.835724     0.828081     0.820438     0.812795     0.805152     0.797508
      0.789865     0.782222     0.774579     0.766936     0.759293     0.751650     0.744007     0.736364     0.728721     0.721077
      0.713434     0.705791     0.698148     0.690505     0.682862     0.675219     0.667576     0.659933     0.652290     0.644646
      0.637003     0.629360     0.621717     0.614074     0.606431     0.598788     0.591145     0.583502     0.575858     0.568215
      0.560572     0.552929     0.545286     0.537643     0.530000     0.522357     0.514714     0.507071     0.499427     0.491784
      0.484141     0.476498     0.468855     0.461212     0.453569     0.445925     0.438282     0.430639     0.422996     0.415353
      0.407710     0.400067     0.392424     0.384780     0.377137     0.369494     0.361851     0.354208     0.346565     0.338922
      0.331278     0.323635     0.315992     0.308349     0.300706     0.293063     0.285420     0.277777     0.270133     0.262490
      0.254847     0.247204     0.239561     0.231918     0.224275     0.216631     0.208988     0.201345
 NY phased data points follow
  -2.05810E+00 -1.18887E+00 -2.34860E+00  1.92252E+00  6.10004E-01 -4.15885E+00 -3.03770E+00 -5.42796E-01 -2.54883E+00 -2.48671E+00
  -2.60073E+00 -1.81448E+00 -3.90948E+00  3.23975E-01 -2.63145E+00 -3.87614E+00 -4.62810E+00 -3.90730E+00 -3.75371E+00 -2.28346E+00
  -1.02218E+00 -2.47886E+00 -1.24031E-01 -2.66222E+00 -1.55747E+00 -4.80320E+00 -2.74521E+00 -2.80556E+00 -3.23978E+00 -2.48287E+00
  -3.84845E+00 -1.70675E+00 -3.61284E+00 -1.62677E+00 -3.80828E-01 -2.94519E+00 -4.48130E+00 -4.36057E+00 -4.48072E+00 -4.79031E+00
  -2.20444E+00 -9.95323E-01 -1.90925E+00 -1.33735E+00 -4.89193E+00 -1.51744E+00  5.30729E-01 -7.14165E+00 -3.85516E+00 -1.41640E+00
  -1.85597E+00 -4.17109E+00 -4.06620E+00 -8.54811E+00 -4.31494E+00 -2.03452E+00 -2.56663E+00 -1.10428E+00 -4.08927E+00 -1.33321E+00
  -5.58354E-01 -2.01444E+00 -2.54969E+00 -6.08641E+00 -1.54369E+00 -1.80302E+00 -2.09957E+00 -4.02412E-01 -6.92524E-01  1.01870E+00
  -3.44209E+00  1.35144E-02 -4.16794E+00 -4.31943E+00 -2.35529E-02 -2.34888E+00 -2.08957E+00  1.69101E+00 -5.46508E-02 -4.64714E+00
   4.15756E-01 -3.50833E+00  1.15043E+00 -3.13060E+00 -2.12042E+00 -3.09170E+00  8.47517E-01 -2.85941E+00  3.85720E-02 -2.75528E+00
   2.42842E+00  4.83749E-01  2.61283E+00  2.43665E-01 -4.33185E-01 -3.98033E-01  7.70902E-01 -2.74260E-01 -1.73968E+00 -2.19790E+00
  -2.12228E+00  1.52604E+00 -1.12112E+00 -1.86678E-01 -4.28102E-02 -9.55036E-01 -1.26871E+00 -1.83408E+00 -3.45476E+00 -2.14934E+00
  -1.16806E+00 -3.59510E-01  3.90546E-01 -8.45857E-01  3.32943E+00  2.84821E+00  7.70767E-01  1.13520E+00 -1.61012E-03  3.37256E+00
  -1.49107E+00  1.38983E+00 -3.93125E+00  8.44160E-01 -2.03653E+00 -6.06999E-01  2.06406E+00 -1.12536E+00 -2.20095E+00 -1.97837E+00
   1.52890E-01 -9.32469E-01 -2.38458E+00 -5.36988E+00 -6.10335E-01  1.50153E+00 -7.46975E-01 -1.22562E+00 -2.17369E+00 -3.19662E+00
  -1.88102E+00 -1.93049E+00 -5.13800E-01 -4.95657E-01 -2.93792E+00  2.90823E-01 -2.06884E+00 -1.53608E+00 -3.65352E+00 -1.13942E+00
  -5.19264E+00 -7.30885E-01 -2.56624E+00 -1.52529E+00 -3.61331E+00 -6.18543E-01 -1.33614E+00 -3.41048E-01 -2.15520E+00 -1.64729E+00
  -2.06143E+00  2.88848E-01  7.06139E-02  7.66436E-01 -1.99501E+00 -3.42096E+00 -3.04821E+00 -1.12072E+00 -1.72494E+00  1.01119E+00
   1.81464E-01 -1.67340E+00 -6.02386E-01 -5.01529E+00 -1.01579E+00 -2.20655E+00 -3.14400E+00 -1.83391E+00 -5.15363E-01  1.59072E+00
   1.40044E+00  2.54007E-01  8.35713E-01 -1.68605E+00  2.89988E+00 -2.33309E+00  2.19620E+00  4.25469E+00  3.35005E-02  3.17182E+00
   5.27124E+00  1.56192E+00  3.19424E+00  1.13220E+00  4.75336E+00  2.67498E+00  3.48347E+00  5.42095E+00  2.35503E+00  2.33560E+00
   4.62498E+00  7.59301E+00  2.32004E+00  7.37317E+00  4.17982E+00  2.28469E+00  5.09334E+00  2.94040E+00  6.12043E+00  2.59032E+00
   4.01475E+00  2.93334E+00  1.15046E+00  6.26775E+00  1.38473E+00  4.24591E+00  3.65610E+00  6.28164E+00  3.02793E+00  4.88811E+00
   4.92037E+00  2.89093E+00  5.57540E-01  1.48044E+00  3.30648E+00  4.19867E+00  1.38026E+00 -7.62759E-01  1.56678E+00  2.90333E+00
   1.96615E+00  1.28812E+00  4.50594E+00  3.40548E+00 -9.17041E-01 -1.95743E+00  2.80297E+00  1.64909E+00  1.90756E+00  9.36521E-01
   6.27335E-01 -2.16309E+00  1.97942E+00  3.54505E+00  2.16573E-01  8.41965E-01  3.24556E+00  3.87393E+00  7.45781E+00  3.55620E+00
   6.38555E+00  4.26366E+00  9.59878E-02  9.59575E-01 -1.80273E-01 -1.49312E+00  4.00460E-01 -2.06409E+00 -3.52762E+00 -1.56123E+00
  -4.16055E+00 -3.10524E+00 -2.45773E+00 -5.03245E-01 -1.41291E+00 -3.17362E+00 -1.99695E+00  1.49584E+00 -2.71222E-01 -3.54112E+00
  -3.50060E+00 -3.43109E+00  3.07115E-01  4.37663E-01  1.25916E+00 -1.41817E+00  1.17771E+00  6.00836E-01 -1.22187E+00 -3.21623E-01
  -1.01339E+00  2.66676E+00 -2.92605E+00 -7.30531E-01  3.10897E-01  1.34364E-01  1.89496E-01  2.47284E+00  1.67049E+00  5.44173E+00
   1.72271E+00  2.47885E+00 -1.68102E-01  3.67849E+00  2.08649E+00  4.17553E+00 -1.93564E-02  1.20022E+00  1.86385E+00  1.78832E+00
   3.41504E+00  4.78051E+00  7.35043E+00  7.80709E+00  6.49271E+00  7.61180E+00  1.06317E+01  9.78407E+00  1.30082E+01  1.36946E+01
   1.57104E+01  1.75498E+01  1.37575E+01  1.88248E+01  1.64463E+01  1.79144E+01  1.97463E+01  2.12370E+01  1.95166E+01  1.89235E+01
   1.85347E+01  2.23985E+01  2.13325E+01  2.05905E+01  2.21393E+01  1.73038E+01  1.94725E+01  1.84000E+01  1.36549E+01  1.52136E+01
   1.12139E+01  1.46555E+01  1.34532E+01  1.48187E+01  1.01044E+01  1.17289E+01  9.96920E+00  1.12890E+01  8.53916E+00  9.27528E+00
   7.26797E+00  1.08247E+01  4.97072E+00  5.70014E+00  2.84738E+00  4.07753E+00  5.18471E+00  3.54921E+00  5.07799E+00  4.68975E+00
   3.26494E+00  4.75448E+00  4.01640E+00  4.01760E+00  8.50071E-01  1.13808E+00 -1.48730E+00  1.07393E+00  1.28758E+00  1.47428E+00
   2.02838E-01 -4.00583E-01  3.47177E-02 -2.10325E-01  2.81659E+00 -1.14084E+00 -2.02953E+00  7.37143E-01 -1.22674E+00 -6.28842E-01
   1.88545E-01 -1.08314E+00 -2.39612E+00  1.07790E+00 -8.18004E-01  2.22084E-01  2.87336E+00 -5.61947E-01 -4.78961E-01  7.62768E-01
  -6.96941E-01  3.65498E-01  1.55904E+00  5.99566E-01  2.53516E+00  3.27823E+00  8.95356E-01 -2.86234E+00  1.01418E+00  4.70898E+00
  -6.14994E-01 -3.42218E-01 -1.11070E+00 -2.17109E+00  1.41346E+00  2.42723E+00 -2.61840E+00 -8.64964E-01  2.22977E+00  2.00858E+00
   1.89719E+00  1.43317E+00  2.90938E+00 -4.34489E-01  6.39808E-01  1.25027E+00  2.68691E+00  4.21605E-01 -1.17303E+00  1.81764E+00
  -1.53485E+00  2.60187E+00  4.19883E+00 -1.38810E+00  3.95689E+00 -2.35742E+00 -8.20057E-02  4.63626E-01 -2.70698E+00 -7.72360E-01
  -1.66047E+00  9.71813E-01  4.62030E-01  2.26835E+00 -1.31257E+00 -1.22046E+00 -7.84795E-01 -4.75919E-02 -1.58415E+00 -1.13648E+00
  -4.65770E-01 -2.35576E+00 -3.89384E+00 -4.24961E-01  4.53393E-01 -5.67394E-01 -1.81222E+00  1.55212E+00 -8.39313E-01 -1.09128E+00
  -9.11227E-01 -1.32803E-02  1.04550E+00  3.79278E-01  2.03774E-01  7.90210E-01 -1.11534E+00 -2.44834E+00  8.82183E-02 -2.90232E+00
  -1.61244E+00 -3.45669E-01  1.71419E+00 -2.17423E-01 -7.71803E-01 -7.82013E-01 -1.54622E+00  3.97700E-01 -4.64512E+00  1.76196E+00
  -1.67916E+00 -2.13244E+00 -3.26278E+00 -1.04631E+00 -1.37441E+00 -2.08306E+00 -2.82792E+00 -3.01242E-01 -2.59194E+00  7.54909E-01
   1.76499E+00 -2.41353E+00  1.04925E+00 -6.95168E-01 -2.31727E-01 -9.95834E-02  1.53247E+00 -6.13527E-02  3.05530E+00  1.71204E-01
  -3.24946E-01 -2.24964E+00  1.77223E+00 -4.13467E-01  1.64127E-01 -1.36113E+00 -1.65137E+00 -3.07580E+00 -2.31866E+00 -2.06765E+00
   3.81484E-01 -2.84420E+00 -2.02403E+00  2.42627E+00  2.43363E+00 -1.92989E+00 -9.74030E-01  1.14745E+00
 NY points of the fit to the data follow
  -1.83515E+00 -1.32577E+00 -1.68896E+00 -1.25685E+00 -1.47459E+00 -1.13578E+00 -1.30804E+00 -1.22009E+00 -1.31558E+00 -1.46275E+00
  -1.43516E+00 -1.74407E+00 -1.55124E+00 -1.94864E+00 -1.51034E+00 -2.02568E+00 -1.39025E+00 -2.03819E+00 -1.26598E+00 -2.04832E+00
  -1.21638E+00 -2.12782E+00 -1.27689E+00 -2.24779E+00 -1.40092E+00 -2.34951E+00 -1.52303E+00 -2.38219E+00 -1.59484E+00 -2.32109E+00
  -1.62758E+00 -2.21281E+00 -1.69860E+00 -2.14740E+00 -1.84465E+00 -2.16714E+00 -2.07785E+00 -2.27288E+00 -2.34172E+00 -2.38070E+00
  -2.49127E+00 -2.34400E+00 -2.48146E+00 -2.19529E+00 -2.36162E+00 -2.04577E+00 -2.28709E+00 -2.11906E+00 -2.43587E+00 -2.28632E+00
  -2.57916E+00 -2.41253E+00 -2.59687E+00 -2.42349E+00 -2.40769E+00 -2.21538E+00 -2.17859E+00 -2.03695E+00 -2.00375E+00 -1.93141E+00
  -1.92026E+00 -1.92662E+00 -1.92721E+00 -1.92577E+00 -1.92025E+00 -1.91351E+00 -1.90396E+00 -1.89351E+00 -1.88086E+00 -1.86781E+00
  -1.85301E+00 -1.83805E+00 -1.82114E+00 -1.80470E+00 -1.78546E+00 -1.76761E+00 -1.74628E+00 -1.72697E+00 -1.70334E+00 -1.68220E+00
  -1.65576E+00 -1.63196E+00 -1.60148E+00 -1.57274E+00 -1.53315E+00 -1.49032E+00 -1.44929E+00 -1.39809E+00 -1.36034E+00 -1.30378E+00
  -1.27190E+00 -1.21200E+00 -1.18689E+00 -1.12462E+00 -1.10688E+00 -1.04356E+00 -1.03307E+00 -9.69717E-01 -9.66116E-01 -9.04049E-01
  -9.07385E-01 -8.49948E-01 -8.58829E-01 -8.06956E-01 -8.16829E-01 -7.68099E-01 -7.71092E-01 -7.17751E-01 -6.95828E-01 -6.32067E-01
  -6.04255E-01 -5.30742E-01 -5.08019E-01 -4.22944E-01 -4.12010E-01 -3.13528E-01 -3.27431E-01 -2.26752E-01 -2.72932E-01 -1.73866E-01
  -2.51868E-01 -1.48217E-01 -2.55548E-01 -1.40619E-01 -2.83043E-01 -1.61727E-01 -3.52013E-01 -2.46251E-01 -4.74579E-01 -3.85590E-01
  -6.37286E-01 -5.65645E-01 -8.25121E-01 -7.69131E-01 -1.02263E+00 -9.78747E-01 -1.21423E+00 -1.17952E+00 -1.38930E+00 -1.36415E+00
  -1.54517E+00 -1.53111E+00 -1.67839E+00 -1.67209E+00 -1.77841E+00 -1.77453E+00 -1.83357E+00 -1.82538E+00 -1.84050E+00 -1.82721E+00
  -1.83657E+00 -1.82234E+00 -1.82119E+00 -1.80286E+00 -1.79252E+00 -1.77358E+00 -1.76395E+00 -1.75573E+00 -1.74268E+00 -1.73363E+00
  -1.71250E+00 -1.69193E+00 -1.66381E+00 -1.63395E+00 -1.60460E+00 -1.57374E+00 -1.54533E+00 -1.51580E+00 -1.48645E+00 -1.45830E+00
  -1.42566E+00 -1.39583E+00 -1.35684E+00 -1.32410E+00 -1.27916E+00 -1.24764E+00 -1.19865E+00 -1.17138E+00 -1.12023E+00 -1.10165E+00
  -1.04554E+00 -1.02799E+00 -9.65879E-01 -9.45920E-01 -8.78996E-01 -8.54588E-01 -7.85257E-01 -7.55698E-01 -6.86674E-01 -6.51104E-01
  -5.84477E-01 -5.42331E-01 -4.79138E-01 -4.28686E-01 -3.68533E-01 -3.07776E-01 -2.51077E-01 -1.79787E-01 -1.25813E-01 -4.47894E-02
   6.78989E-03  9.51770E-02  1.44295E-01  2.36629E-01  2.83761E-01  3.77251E-01  4.24092E-01  5.16281E-01  5.67587E-01  6.61787E-01
   7.20498E-01  8.18064E-01  8.82718E-01  9.74125E-01  1.03961E+00  1.12060E+00  1.18697E+00  1.26105E+00  1.33343E+00  1.40851E+00
   1.48895E+00  1.56983E+00  1.65384E+00  1.73490E+00  1.82150E+00  1.90297E+00  1.99591E+00  2.08596E+00  2.19002E+00  2.29134E+00
   2.40752E+00  2.52000E+00  2.64530E+00  2.76423E+00  2.89242E+00  3.01132E+00  3.13586E+00  3.24860E+00  3.36359E+00  3.46359E+00
   3.56049E+00  3.63950E+00  3.70867E+00  3.75764E+00  3.78942E+00  3.79981E+00  3.78720E+00  3.75406E+00  3.69418E+00  3.61664E+00
   3.51209E+00  3.39466E+00  3.25452E+00  3.10805E+00  2.94979E+00  2.79683E+00  2.63554E+00  2.48748E+00  2.33196E+00  2.19348E+00
   2.04433E+00  1.91032E+00  1.77529E+00  1.65693E+00  1.54407E+00  1.44847E+00  1.36215E+00  1.29517E+00  1.23525E+00  1.18992E+00
   1.15180E+00  1.12535E+00  1.10694E+00  1.09796E+00  1.09809E+00  1.10771E+00  1.12751E+00  1.15703E+00  1.19674E+00  1.24620E+00
   1.30584E+00  1.37520E+00  1.45471E+00  1.54395E+00  1.64337E+00  1.75260E+00  1.87224E+00  2.00210E+00  2.14304E+00  2.29515E+00
   2.45967E+00  2.63716E+00  2.82947E+00  3.03785E+00  3.26499E+00  3.51312E+00  3.78605E+00  4.08741E+00  4.42259E+00  4.79707E+00
   5.21824E+00  5.69408E+00  6.23483E+00  6.85227E+00  7.56195E+00  8.38435E+00  9.35203E+00  1.05234E+01  1.18985E+01  1.29354E+01
   1.42914E+01  1.50337E+01  1.61704E+01  1.65329E+01  1.72884E+01  1.72568E+01  1.80236E+01  1.80070E+01  1.86141E+01  1.86746E+01
   1.89069E+01  1.90348E+01  1.86905E+01  1.88472E+01  1.77997E+01  1.80765E+01  1.63414E+01  1.69276E+01  1.47140E+01  1.58699E+01
   1.31911E+01  1.48250E+01  1.17614E+01  1.37135E+01  1.03065E+01  1.23612E+01  8.76107E+00  1.09826E+01  7.37823E+00  9.59962E+00
   6.15061E+00  8.30838E+00  5.18108E+00  7.22863E+00  4.61285E+00  6.51434E+00  4.54132E+00  6.09847E+00  4.62204E+00  5.25389E+00
   3.68342E+00  3.74455E+00  2.38360E+00  2.05287E+00  1.12277E+00  6.75327E-01  5.19807E-01  4.24104E-01  4.16549E-01  3.04006E-01
   3.19510E-01  1.64316E-01  2.12547E-01  5.37209E-02  1.65469E-01  7.99154E-02  2.69049E-01  3.00305E-01  4.92453E-01  5.48171E-01
   4.89412E-01  2.36790E-01  6.69122E-02 -3.25865E-01 -5.19016E-01 -8.59644E-01 -9.64392E-01 -9.63014E-01 -9.13925E-01 -8.34506E-01
  -7.32249E-01 -6.11104E-01 -4.73537E-01 -3.21308E-01 -1.55960E-01  2.09995E-02  2.07924E-01  4.03015E-01  6.04220E-01  8.09233E-01
   1.01542E+00  1.21987E+00  1.41939E+00  1.61063E+00  1.79009E+00  1.95426E+00  2.09967E+00  2.22304E+00  2.32138E+00  2.39221E+00
   2.43353E+00  2.44404E+00  2.42312E+00  2.37092E+00  2.28836E+00  2.17712E+00  2.03959E+00  1.87872E+00  1.69796E+00  1.50111E+00
   1.29217E+00  1.07522E+00  8.54259E-01  6.33060E-01  4.15084E-01  2.03393E-01  6.05986E-04 -1.91149E-01 -3.70244E-01 -5.35543E-01
  -6.86359E-01 -8.22409E-01 -9.43749E-01 -1.05073E+00 -1.14395E+00 -1.22416E+00 -1.29225E+00 -1.34916E+00 -1.39586E+00 -1.43334E+00
  -1.46254E+00 -1.48437E+00 -1.49967E+00 -1.50923E+00 -1.51372E+00 -1.51381E+00 -1.51004E+00 -1.50294E+00 -1.49295E+00 -1.48044E+00
  -1.46575E+00 -1.44918E+00 -1.43099E+00 -1.41140E+00 -1.39060E+00 -1.36876E+00 -1.34602E+00 -1.32250E+00 -1.29833E+00 -1.27358E+00
  -1.24834E+00 -1.22269E+00 -1.19667E+00 -1.17035E+00 -1.14378E+00 -1.11699E+00 -1.09002E+00 -1.06290E+00 -1.03565E+00 -1.00831E+00
  -9.80891E-01 -9.53414E-01 -9.25886E-01 -8.98328E-01 -8.70748E-01 -8.43164E-01 -8.15578E-01 -7.87998E-01 -7.60423E-01 -7.32867E-01
  -7.05332E-01 -6.77825E-01 -6.50341E-01 -6.22884E-01 -5.95450E-01 -5.68047E-01 -5.40672E-01 -5.13325E-01 -4.85999E-01 -4.58691E-01
  -4.31400E-01 -4.04123E-01 -3.76855E-01 -3.49590E-01 -3.22316E-01 -2.95025E-01 -2.67711E-01 -2.40363E-01 -2.12969E-01 -1.85508E-01
  -1.57961E-01 -1.30307E-01 -1.02522E-01 -7.45730E-02 -4.64180E-02 -1.80023E-02  1.07420E-02  3.99037E-02
 NY background values follow
    -3.780E+00   -3.784E+00   -3.787E+00   -3.791E+00   -3.795E+00   -3.798E+00   -3.801E+00   -3.805E+00   -3.808E+00   -3.811E+00
    -3.814E+00   -3.818E+00   -3.821E+00   -3.824E+00   -3.826E+00   -3.829E+00   -3.832E+00   -3.835E+00   -3.837E+00   -3.840E+00
    -3.843E+00   -3.845E+00   -3.848E+00   -3.850E+00   -3.852E+00   -3.854E+00   -3.857E+00   -3.859E+00   -3.861E+00   -3.863E+00
    -3.865E+00   -3.867E+00   -3.868E+00   -3.870E+00   -3.872E+00   -3.873E+00   -3.875E+00   -3.877E+00   -3.878E+00   -3.879E+00
    -3.881E+00   -3.882E+00   -3.883E+00   -3.884E+00   -3.886E+00   -3.887E+00   -3.888E+00   -3.888E+00   -3.889E+00   -3.890E+00
    -3.891E+00   -3.892E+00   -3.892E+00   -3.893E+00   -3.893E+00   -3.894E+00   -3.894E+00   -3.894E+00   -3.895E+00   -3.895E+00
    -3.895E+00   -3.895E+00   -3.895E+00   -3.895E+00   -3.895E+00   -3.895E+00   -3.895E+00   -3.894E+00   -3.894E+00   -3.894E+00
    -3.893E+00   -3.893E+00   -3.892E+00   -3.892E+00   -3.891E+00   -3.890E+00   -3.889E+00   -3.889E+00   -3.888E+00   -3.887E+00
    -3.886E+00   -3.885E+00   -3.884E+00   -3.882E+00   -3.881E+00   -3.880E+00   -3.878E+00   -3.877E+00   -3.876E+00   -3.874E+00
    -3.872E+00   -3.871E+00   -3.869E+00   -3.867E+00   -3.866E+00   -3.864E+00   -3.862E+00   -3.860E+00   -3.858E+00   -3.856E+00
    -3.853E+00   -3.851E+00   -3.849E+00   -3.847E+00   -3.844E+00   -3.842E+00   -3.839E+00   -3.837E+00   -3.834E+00   -3.832E+00
    -3.829E+00   -3.826E+00   -3.823E+00   -3.820E+00   -3.817E+00   -3.814E+00   -3.811E+00   -3.808E+00   -3.805E+00   -3.802E+00
    -3.799E+00   -3.795E+00   -3.792E+00   -3.789E+00   -3.785E+00   -3.782E+00   -3.778E+00   -3.774E+00   -3.771E+00   -3.767E+00
    -3.763E+00   -3.759E+00   -3.755E+00   -3.751E+00   -3.747E+00   -3.743E+00   -3.739E+00   -3.735E+00   -3.731E+00   -3.726E+00
    -3.722E+00   -3.718E+00   -3.713E+00   -3.709E+00   -3.704E+00   -3.700E+00   -3.695E+00   -3.690E+00   -3.685E+00   -3.681E+00
    -3.676E+00   -3.671E+00   -3.666E+00   -3.661E+00   -3.656E+00   -3.651E+00   -3.645E+00   -3.640E+00   -3.635E+00   -3.630E+00
    -3.624E+00   -3.619E+00   -3.613E+00   -3.608E+00   -3.602E+00   -3.597E+00   -3.591E+00   -3.585E+00   -3.579E+00   -3.573E+00
    -3.568E+00   -3.562E+00   -3.556E+00   -3.550E+00   -3.543E+00   -3.537E+00   -3.531E+00   -3.525E+00   -3.519E+00   -3.512E+00
    -3.506E+00   -3.499E+00   -3.493E+00   -3.486E+00   -3.480E+00   -3.473E+00   -3.466E+00   -3.460E+00   -3.453E+00   -3.446E+00
    -3.439E+00   -3.432E+00   -3.425E+00   -3.418E+00   -3.411E+00   -3.404E+00   -3.397E+00   -3.389E+00   -3.382E+00   -3.375E+00
    -3.367E+00   -3.360E+00   -3.353E+00   -3.345E+00   -3.337E+00   -3.330E+00   -3.322E+00   -3.314E+00   -3.307E+00   -3.299E+00
    -3.291E+00   -3.283E+00   -3.275E+00   -3.267E+00   -3.259E+00   -3.251E+00   -3.243E+00   -3.235E+00   -3.226E+00   -3.218E+00
    -3.210E+00   -3.201E+00   -3.193E+00   -3.185E+00   -3.176E+00   -3.168E+00   -3.159E+00   -3.150E+00   -3.142E+00   -3.133E+00
    -3.124E+00   -3.115E+00   -3.106E+00   -3.097E+00   -3.088E+00   -3.079E+00   -3.070E+00   -3.061E+00   -3.052E+00   -3.043E+00
    -3.034E+00   -3.024E+00   -3.015E+00   -3.006E+00   -2.996E+00   -2.987E+00   -2.977E+00   -2.968E+00   -2.958E+00   -2.948E+00
    -2.939E+00   -2.929E+00   -2.919E+00   -2.909E+00   -2.900E+00   -2.890E+00   -2.880E+00   -2.870E+00   -2.860E+00   -2.850E+00
    -2.839E+00   -2.829E+00   -2.819E+00   -2.809E+00   -2.799E+00   -2.788E+00   -2.778E+00   -2.767E+00   -2.757E+00   -2.746E+00
    -2.736E+00   -2.725E+00   -2.715E+00   -2.704E+00   -2.693E+00   -2.683E+00   -2.672E+00   -2.661E+00   -2.650E+00   -2.639E+00
    -2.628E+00   -2.617E+00   -2.606E+00   -2.595E+00   -2.584E+00   -2.573E+00   -2.561E+00   -2.550E+00   -2.539E+00   -2.528E+00
    -2.516E+00   -2.505E+00   -2.493E+00   -2.482E+00   -2.470E+00   -2.459E+00   -2.447E+00   -2.436E+00   -2.424E+00   -2.412E+00
    -2.400E+00   -2.389E+00   -2.377E+00   -2.365E+00   -2.353E+00   -2.341E+00   -2.329E+00   -2.317E+00   -2.305E+00   -2.293E+00
    -2.281E+00   -2.268E+00   -2.256E+00   -2.244E+00   -2.231E+00   -2.219E+00   -2.207E+00   -2.194E+00   -2.182E+00   -2.169E+00
    -2.157E+00   -2.144E+00   -2.132E+00   -2.119E+00   -2.106E+00   -2.094E+00   -2.081E+00   -2.068E+00   -2.055E+00   -2.042E+00
    -2.029E+00   -2.017E+00   -2.004E+00   -1.991E+00   -1.977E+00   -1.964E+00   -1.951E+00   -1.938E+00   -1.925E+00   -1.912E+00
    -1.898E+00   -1.885E+00   -1.872E+00   -1.858E+00   -1.845E+00   -1.832E+00   -1.818E+00   -1.805E+00   -1.791E+00   -1.778E+00
    -1.764E+00   -1.750E+00   -1.737E+00   -1.723E+00   -1.709E+00   -1.695E+00   -1.682E+00   -1.668E+00   -1.654E+00   -1.640E+00
    -1.626E+00   -1.612E+00   -1.598E+00   -1.584E+00   -1.570E+00   -1.556E+00   -1.542E+00   -1.528E+00   -1.513E+00   -1.499E+00
    -1.485E+00   -1.471E+00   -1.456E+00   -1.442E+00   -1.428E+00   -1.413E+00   -1.399E+00   -1.384E+00   -1.370E+00   -1.355E+00
    -1.341E+00   -1.326E+00   -1.311E+00   -1.297E+00   -1.282E+00   -1.267E+00   -1.253E+00   -1.238E+00   -1.223E+00   -1.208E+00
    -1.193E+00   -1.178E+00   -1.163E+00   -1.148E+00   -1.134E+00   -1.119E+00   -1.103E+00   -1.088E+00   -1.073E+00   -1.058E+00
    -1.043E+00   -1.028E+00   -1.013E+00   -9.975E-01   -9.822E-01   -9.669E-01   -9.516E-01   -9.363E-01   -9.209E-01   -9.055E-01
    -8.901E-01   -8.747E-01   -8.592E-01   -8.437E-01   -8.282E-01   -8.127E-01   -7.971E-01   -7.815E-01   -7.659E-01   -7.502E-01
    -7.346E-01   -7.189E-01   -7.031E-01   -6.874E-01   -6.716E-01   -6.558E-01   -6.400E-01   -6.242E-01   -6.083E-01   -5.924E-01
    -5.765E-01   -5.606E-01   -5.446E-01   -5.286E-01   -5.126E-01   -4.966E-01   -4.805E-01   -4.645E-01   -4.484E-01   -4.322E-01
    -4.161E-01   -3.999E-01   -3.838E-01   -3.675E-01   -3.513E-01   -3.351E-01   -3.188E-01   -3.025E-01   -2.862E-01   -2.698E-01
    -2.535E-01   -2.371E-01   -2.207E-01   -2.043E-01   -1.879E-01   -1.714E-01   -1.549E-01   -1.384E-01   -1.219E-01   -1.054E-01
    -8.880E-02   -7.222E-02   -5.562E-02   -3.900E-02   -2.237E-02   -5.716E-03    1.096E-02    2.765E-02    4.436E-02    6.109E-02
     7.783E-02    9.460E-02    1.114E-01    1.282E-01    1.450E-01    1.618E-01    1.787E-01    1.956E-01    2.124E-01    2.293E-01
     2.463E-01    2.632E-01    2.801E-01    2.971E-01    3.141E-01    3.311E-01    3.481E-01    3.652E-01    3.822E-01    3.993E-01
     4.163E-01    4.334E-01    4.505E-01    4.677E-01    4.848E-01    5.020E-01    5.191E-01    5.363E-01
 Ala      Conc. = 3.55E+03
