 LCModel (Version 6.3-1L) Copyright: S.W. Provencher.          Ref.: Magn. Reson. Med. 30:672-679 (1993).                
 Slice#2 Row#1 Col#2  PD_05_press_2_raw_act
 36 lines in following concentration table = NCONC+1
    Conc.  %SD /Cr+PCr  Metabolite                                         
    0.000 999%   0.000 Ala                                                 
   28.494  63%   0.115 Asp                                                 
  248.196  45%   1.000 Cr                                                  
    0.000 999%   0.000 PCr                                                 
   17.085  63% 6.9E-02 GABA                                                
   17.290  63% 7.0E-02 Glc                                                 
    0.000 999%   0.000 Gln                                                 
   94.166 980%   0.379 Glu                                                 
    0.000 999%   0.000 GPC                                                 
  109.096  39%   0.440 PCh                                                 
    0.000 999%   0.000 GSH                                                 
  937.172  52%   3.776 Ins                                                 
 1.34E+03  54%   5.381 Lac                                                 
    0.000 999%   0.000 NAA                                                 
    0.000 999%   0.000 NAAG                                                
    5.655  64% 2.3E-02 Scyllo                                              
   29.239  61%   0.118 Tau                                                 
   24.561  88% 9.9E-02 -CrCH2                                              
  109.096  39%   0.440 GPC+PCh                                             
    0.000 999%   0.000 NAA+NAAG                                            
  248.196  45%   1.000 Cr+PCr                                              
   94.166 980%   0.379 Glu+Gln                                             
  377.519 429%   1.521 Lip13a                                              
 1.07E+03 111%   4.306 Lip13b                                              
  371.342  56%   1.496 Lip09                                               
   58.120 252%   0.234 MM09                                                
  208.392  59%   0.840 Lip20                                               
    0.000 999%   0.000 MM20                                                
   18.900 419% 7.6E-02 MM12                                                
  424.850  69%   1.712 MM14                                                
  274.644  65%   1.107 MM17                                                
 1.45E+03  53%   5.827 Lip13a+Lip13b                                       
 1.89E+03  37%   7.614 MM14+Lip13a+Lip13b+MM12                             
  429.461  46%   1.730 MM09+Lip09                                          
  208.392  59%   0.840 MM20+Lip20                                          
   6 lines in following misc. output table
  FWHM = 0.099 ppm    S/N =   1                                            
  Data shift = 0.031 ppm                                                   
  Ph: 125 deg     -32.2 deg/ppm                                            
  alphaB,S = 8.5E+01,   2.0E+02                                            
   14 spline knots.   Ns =10(1)                                            
   2 inflections.     1 extrema                                            
  498 points on ppm-axis = NY
      4.000000     3.992357     3.984714     3.977070     3.969427     3.961784     3.954141     3.946497     3.938854     3.931211
      3.923568     3.915925     3.908281     3.900638     3.892995     3.885352     3.877708     3.870065     3.862422     3.854779
      3.847136     3.839492     3.831849     3.824206     3.816563     3.808919     3.801276     3.793633     3.785990     3.778347
      3.770703     3.763060     3.755417     3.747774     3.740130     3.732487     3.724844     3.717201     3.709558     3.701914
      3.694271     3.686628     3.678985     3.671341     3.663698     3.656055     3.648412     3.640769     3.633125     3.625482
      3.617839     3.610196     3.602552     3.594909     3.587266     3.579623     3.571980     3.564336     3.556693     3.549050
      3.541407     3.533763     3.526120     3.518477     3.510834     3.503191     3.495547     3.487904     3.480261     3.472618
      3.464974     3.457331     3.449688     3.442045     3.434402     3.426758     3.419115     3.411472     3.403829     3.396185
      3.388542     3.380899     3.373256     3.365613     3.357969     3.350326     3.342683     3.335040     3.327396     3.319753
      3.312110     3.304467     3.296824     3.289180     3.281537     3.273894     3.266251     3.258607     3.250964     3.243321
      3.235678     3.228034     3.220391     3.212748     3.205105     3.197462     3.189818     3.182175     3.174532     3.166889
      3.159245     3.151602     3.143959     3.136316     3.128673     3.121029     3.113386     3.105743     3.098100     3.090456
      3.082813     3.075170     3.067527     3.059884     3.052240     3.044597     3.036954     3.029311     3.021667     3.014024
      3.006381     2.998738     2.991095     2.983451     2.975808     2.968165     2.960522     2.952878     2.945235     2.937592
      2.929949     2.922306     2.914662     2.907019     2.899376     2.891733     2.884089     2.876446     2.868803     2.861160
      2.853517     2.845873     2.838230     2.830587     2.822944     2.815300     2.807657     2.800014     2.792371     2.784728
      2.777084     2.769441     2.761798     2.754155     2.746511     2.738868     2.731225     2.723582     2.715939     2.708295
      2.700652     2.693009     2.685366     2.677722     2.670079     2.662436     2.654793     2.647150     2.639506     2.631863
      2.624220     2.616577     2.608933     2.601290     2.593647     2.586004     2.578361     2.570717     2.563074     2.555431
      2.547788     2.540144     2.532501     2.524858     2.517215     2.509572     2.501928     2.494285     2.486642     2.478999
      2.471355     2.463712     2.456069     2.448426     2.440783     2.433139     2.425496     2.417853     2.410210     2.402566
      2.394923     2.387280     2.379637     2.371994     2.364350     2.356707     2.349064     2.341421     2.333777     2.326134
      2.318491     2.310848     2.303205     2.295561     2.287918     2.280275     2.272632     2.264988     2.257345     2.249702
      2.242059     2.234416     2.226772     2.219129     2.211486     2.203843     2.196199     2.188556     2.180913     2.173270
      2.165627     2.157983     2.150340     2.142697     2.135054     2.127410     2.119767     2.112124     2.104481     2.096838
      2.089194     2.081551     2.073908     2.066265     2.058621     2.050978     2.043335     2.035692     2.028049     2.020405
      2.012762     2.005119     1.997476     1.989833     1.982190     1.974546     1.966903     1.959260     1.951617     1.943974
      1.936331     1.928688     1.921045     1.913402     1.905759     1.898115     1.890472     1.882829     1.875186     1.867543
      1.859900     1.852257     1.844614     1.836971     1.829327     1.821684     1.814041     1.806398     1.798755     1.791112
      1.783469     1.775826     1.768183     1.760540     1.752896     1.745253     1.737610     1.729967     1.722324     1.714681
      1.707038     1.699395     1.691752     1.684108     1.676465     1.668822     1.661179     1.653536     1.645893     1.638250
      1.630607     1.622964     1.615321     1.607677     1.600034     1.592391     1.584748     1.577105     1.569462     1.561819
      1.554176     1.546533     1.538890     1.531246     1.523603     1.515960     1.508317     1.500674     1.493031     1.485388
      1.477745     1.470102     1.462458     1.454815     1.447172     1.439529     1.431886     1.424243     1.416600     1.408957
      1.401314     1.393671     1.386027     1.378384     1.370741     1.363098     1.355455     1.347812     1.340169     1.332526
      1.324883     1.317240     1.309596     1.301953     1.294310     1.286667     1.279024     1.271381     1.263738     1.256095
      1.248452     1.240808     1.233165     1.225522     1.217879     1.210236     1.202593     1.194950     1.187307     1.179664
      1.172021     1.164377     1.156734     1.149091     1.141448     1.133805     1.126162     1.118519     1.110876     1.103233
      1.095590     1.087946     1.080303     1.072660     1.065017     1.057374     1.049731     1.042088     1.034445     1.026802
      1.019158     1.011515     1.003872     0.996229     0.988586     0.980943     0.973300     0.965657     0.958014     0.950371
      0.942727     0.935084     0.927441     0.919798     0.912155     0.904512     0.896869     0.889226     0.881583     0.873940
      0.866296     0.858653     0.851010     0.843367     0.835724     0.828081     0.820438     0.812795     0.805152     0.797508
      0.789865     0.782222     0.774579     0.766936     0.759293     0.751650     0.744007     0.736364     0.728721     0.721077
      0.713434     0.705791     0.698148     0.690505     0.682862     0.675219     0.667576     0.659933     0.652290     0.644646
      0.637003     0.629360     0.621717     0.614074     0.606431     0.598788     0.591145     0.583502     0.575858     0.568215
      0.560572     0.552929     0.545286     0.537643     0.530000     0.522357     0.514714     0.507071     0.499427     0.491784
      0.484141     0.476498     0.468855     0.461212     0.453569     0.445925     0.438282     0.430639     0.422996     0.415353
      0.407710     0.400067     0.392424     0.384780     0.377137     0.369494     0.361851     0.354208     0.346565     0.338922
      0.331278     0.323635     0.315992     0.308349     0.300706     0.293063     0.285420     0.277777     0.270133     0.262490
      0.254847     0.247204     0.239561     0.231918     0.224275     0.216631     0.208988     0.201345
 NY phased data points follow
  -1.70160E+00 -1.60570E+01 -3.22831E+00  1.32930E+01  1.32611E-01  6.08921E-01 -6.96084E+00  1.06728E-01  4.70356E+00  8.54834E+00
   1.33430E+01  9.38749E+00 -1.00727E+01  7.69876E+00  1.71946E+00  4.65472E+00  1.78811E+01  2.98071E+00  5.21983E-01  1.05339E+00
   3.22093E+00 -6.52596E+00 -6.92767E+00  1.83797E+00  2.37008E+00  1.42642E+00 -8.88384E-01 -4.25935E+00 -8.81987E+00 -3.28586E+00
   1.29617E+01 -1.01024E+01 -6.60709E-01  1.05157E+01  6.21384E+00  1.04256E+01  1.95476E+00 -4.07151E-01 -3.27601E+00 -1.03145E+01
   4.68856E+00  3.30868E+00  8.35326E+00  7.76586E+00  7.46020E+00  8.83705E+00  3.87492E+00  2.16395E+00  3.39718E+00  5.14937E+00
   2.42812E+00  3.65534E+00 -7.95439E+00  6.68579E+00  2.91255E+00  5.32486E+00  5.73149E+00  6.51559E+00  1.00849E+01 -3.14077E-01
   7.20439E+00  1.37381E+01  2.76488E+00  2.04458E+00 -9.32771E-01  2.03059E+00  5.85089E+00  1.08499E+01  8.12719E+00  1.03243E+01
   5.54797E+00  4.56052E+00  1.15478E+01  1.25074E+01  5.39790E+00  7.65306E+00 -7.16260E+00  1.15237E+01 -2.40952E-01 -2.00837E+00
  -1.24910E+00  4.91658E+00  5.33130E-01  8.06916E+00 -1.55070E+00  3.40804E+00 -1.99667E+00 -7.86483E+00  6.58753E+00  1.69777E-01
   7.00525E+00 -4.22916E+00 -4.35771E+00 -4.34133E-03 -1.07837E+01  1.00471E+01  1.00228E+00  1.54563E+01 -2.13512E+00  4.49819E+00
   1.99250E+00  5.79673E+00  4.89579E-01  8.40540E+00  1.35375E+00  1.74168E+00  1.59106E+01  1.45203E+01  1.43573E+01  4.37341E+00
  -8.19116E-01  1.26564E+00  5.48539E+00 -5.98064E+00  3.21800E+00  7.64485E+00  1.15400E-01  6.57295E+00 -2.91824E+00 -5.93801E+00
   1.05515E+01 -6.80314E+00  7.27910E+00 -5.20855E+00  1.02142E+01  5.46247E+00  2.90675E+00 -3.31844E-02  9.71824E+00  4.24776E+00
   2.55764E+00  1.58645E+00  1.89481E+01  9.05902E+00  5.32489E+00 -2.02172E+00  5.50265E+00  5.10550E+00  1.08705E+01 -5.48380E+00
   5.64747E+00  1.18029E+01  4.27076E+00  3.48611E+00  6.09281E+00  6.28831E-01  2.34446E+00  3.96499E+00  7.28242E+00 -1.28064E+00
   8.27458E+00  4.88431E+00  7.08186E+00 -3.36729E-01 -1.67232E+00  6.91513E+00  1.10497E+00  6.38010E+00 -6.78333E+00  6.68732E+00
   6.35659E+00  6.99254E+00 -1.25278E+00  5.87293E+00 -2.64216E+00 -4.74295E+00 -3.29941E+00  7.85299E-01  4.96707E-01  7.55530E+00
   5.43251E+00  9.79406E+00 -5.76816E+00  2.54199E+00 -7.85056E+00 -4.47793E+00  1.00648E+01  2.71024E+00  7.05785E+00 -1.30732E+01
   8.34025E-01  7.26524E+00  4.96248E+00 -7.83140E-01  2.55129E+00  6.90240E+00  4.14800E+00  4.41825E+00  1.08648E+01  1.30680E+00
   5.84090E+00 -1.63418E-01 -3.58692E+00  9.05802E+00  1.49487E+01  1.04212E+01 -5.01432E+00  1.67867E+01  1.07899E+01  1.32199E+01
   4.41231E+00  7.51007E+00  6.19539E+00 -4.28006E+00  5.61441E+00  1.05973E+01 -1.14711E+00  7.43565E+00  3.45667E+00  3.83489E+00
  -5.12502E+00 -4.22756E+00 -4.81638E+00  1.74937E+01  3.07929E+00 -6.28225E-01  4.01838E+00 -6.09425E+00 -5.67262E+00  1.58979E+00
   8.31691E+00  2.63298E+00  2.32270E+00  4.73409E+00  2.69222E+00  3.04496E+00  2.15044E+00  6.39466E+00 -7.83156E+00  8.59799E+00
   9.86952E+00  4.09994E+00  9.57097E+00 -8.30711E+00  3.11337E+00  9.89681E+00  5.78846E+00  7.28256E+00  1.60997E+01  6.87695E+00
   5.07193E+00  3.21583E+00  8.68773E+00  6.48102E+00  1.54353E+00 -1.55625E+00 -1.72477E-01 -4.52175E+00  1.20286E+01 -1.81133E+00
  -8.42863E-01 -1.01171E+01  2.36470E+00 -1.40595E+01 -1.57160E+01 -1.11657E+01 -9.92663E+00  1.84346E-01 -9.81176E+00 -1.11858E+01
  -5.42529E+00 -1.15211E+01 -2.99928E+00  4.54750E+00 -4.08645E+00  1.55039E+01  6.40504E+00  1.22350E+01  5.44964E-01  1.16555E+01
   1.10106E+01  1.17366E+01  2.00422E+00  9.78872E+00  8.81165E+00  1.32666E+01  1.04823E+00  1.41800E+00  1.33206E+01  8.14558E+00
   1.90857E+00  1.63271E+00 -1.06911E+01 -6.29704E-01  2.72831E+00  9.29770E+00  1.31793E+01  4.80344E+00 -2.75537E-01  1.50421E+00
   9.27790E+00  6.57927E+00  2.36959E+00  5.30958E+00 -4.53033E+00  8.35030E+00  9.40583E-01  4.37424E+00 -6.55188E-01  7.35024E+00
   1.02146E+01 -5.14652E+00  1.31709E+01 -3.03862E+00  5.89374E+00  7.01856E+00 -1.20301E+00  1.46285E+01  1.32229E+01  8.11321E+00
   1.83164E+01  4.66835E+00  8.22918E+00 -1.36459E+00  1.94428E+01  7.72162E+00  1.73264E+01  1.16190E+01  1.16787E+01  1.60119E+01
   8.15170E+00 -5.99832E-01  7.38154E+00  8.06566E+00  7.53072E+00  5.61368E+00  2.77562E+00  8.61597E-01  5.48520E+00  1.50763E+01
   1.47404E+01  2.30058E+01  2.42204E+00  2.06129E+01  3.37143E+00  1.53899E+01  1.53601E+01  9.92175E+00  6.58604E+00  1.77786E+01
   5.58333E+00  6.16419E+00  7.83869E+00  7.38461E+00  1.40212E+01  5.53914E+00  1.55523E+01  1.74425E+01  1.04099E+01  2.31332E+01
   2.11120E+01  1.02011E+01  1.84950E+01  1.56786E+01  2.29738E+01  1.54448E+01  9.76647E+00  8.85551E+00  2.23259E+01  7.64024E+00
   9.88622E+00  1.87282E+01  2.58658E+01  2.24205E+01  1.32171E+01  6.82265E+00  1.76775E+01  2.15995E+01  1.04241E+01  1.05178E+01
   2.36360E+00  1.01790E+01  9.12792E+00  1.20468E+01 -5.90289E-01  4.72652E+00 -2.19050E+00  3.88275E+00  8.04396E+00  2.27597E+00
   1.17957E+01  4.78106E-01  2.12708E+00  4.92973E+00 -1.44736E+00 -1.29038E+01  3.20610E-01 -6.26629E+00  4.78064E+00 -1.42640E+00
   5.03198E+00  1.58549E+01  1.33197E+01  5.51194E+00  8.29805E+00 -6.83717E+00  9.48064E+00 -5.68055E+00  1.12343E+00  1.85674E+01
   1.42621E+01  1.08000E+01  7.36535E+00  1.81895E+00  9.31496E+00  6.71057E+00  8.60329E+00  6.92119E+00  3.28793E+00 -4.01340E+00
   3.82533E-02 -7.10024E+00  5.35524E+00  2.32612E+00  2.12963E+00  9.74681E+00  1.71091E+01  6.17660E+00  8.19043E-01  8.46629E+00
   9.16555E+00 -3.98405E+00  1.58129E+00  3.08501E+00  7.19098E+00  1.52006E+01  1.40889E+01  6.70033E+00  1.34221E+01  8.44738E+00
   3.13537E+00  5.88593E+00  9.02724E+00  2.39027E+00  1.46661E+01  7.38387E+00  1.11427E+01  9.40606E+00  1.09508E+01  4.00500E+00
   5.46622E+00 -2.05701E-01 -5.06563E+00  4.14053E+00 -2.83968E+00 -3.55904E+00  1.00901E+01  9.61935E+00  5.34050E+00  6.19082E+00
   9.81454E+00  7.09309E+00  6.57931E+00 -6.28509E+00 -8.44846E-01  1.14313E+01  4.16252E+00  6.35382E-01  4.73634E+00  9.32395E+00
   4.36677E+00 -7.07987E+00  6.10480E+00  7.66273E+00 -1.06847E+00  7.91598E+00 -5.81932E-02  4.71685E+00 -4.98927E+00  6.65417E+00
  -4.32249E-01  1.16318E+01  1.45891E+00  5.64648E+00  3.69780E+00 -6.07185E+00  1.73875E+00  1.12416E+01  3.62175E+00  2.15230E+00
   1.60862E+00  6.65941E+00 -1.13539E+00  3.16867E+00  6.51877E+00  7.32527E+00 -4.00551E+00  1.08549E+01  4.14915E+00  2.09435E+00
   4.72959E+00  1.26026E+01  3.02164E+00 -8.49703E+00  5.89742E+00  1.99377E+00 -1.20702E-01  2.64212E+00
 NY points of the fit to the data follow
   4.04484E+00  3.29095E+00  2.66437E+00  2.27580E+00  2.13859E+00  2.19517E+00  2.36775E+00  2.62260E+00  2.93049E+00  3.22126E+00
   3.44668E+00  3.62556E+00  3.77790E+00  3.89723E+00  3.95960E+00  3.93815E+00  3.81470E+00  3.57802E+00  3.22476E+00  2.77570E+00
   2.28246E+00  1.82090E+00  1.48041E+00  1.32792E+00  1.32305E+00  1.36802E+00  1.43498E+00  1.52228E+00  1.63275E+00  1.74734E+00
   1.84181E+00  1.90917E+00  1.95338E+00  1.98057E+00  1.99769E+00  2.00949E+00  2.03433E+00  2.13499E+00  2.36806E+00  2.70167E+00
   3.04343E+00  3.32349E+00  3.52452E+00  3.66686E+00  3.77965E+00  3.88540E+00  4.00184E+00  4.13876E+00  4.29495E+00  4.46930E+00
   4.63522E+00  4.72587E+00  4.69357E+00  4.51031E+00  4.16758E+00  3.69591E+00  3.17641E+00  2.72410E+00  2.45476E+00  2.44362E+00
   2.64365E+00  2.91632E+00  3.16766E+00  3.36279E+00  3.48881E+00  3.53880E+00  3.51418E+00  3.42979E+00  3.31352E+00  3.19712E+00
   3.11556E+00  3.10801E+00  3.17925E+00  3.29604E+00  3.41568E+00  3.49243E+00  3.50362E+00  3.43012E+00  3.26513E+00  3.02259E+00
   2.73053E+00  2.42297E+00  2.12613E+00  1.86212E+00  1.64810E+00  1.47088E+00  1.32345E+00  1.20197E+00  1.09338E+00  9.88441E-01
   8.90718E-01  8.18389E-01  8.09636E-01  9.84087E-01  1.44848E+00  2.12624E+00  2.89811E+00  3.66549E+00  4.36494E+00  4.95947E+00
   5.44720E+00  5.84184E+00  6.16590E+00  6.43841E+00  6.67192E+00  6.85911E+00  6.95996E+00  6.91603E+00  6.68155E+00  6.21808E+00
   5.51314E+00  4.61550E+00  3.63312E+00  2.71289E+00  2.00617E+00  1.63657E+00  1.57261E+00  1.71996E+00  2.06818E+00  2.53128E+00
   3.02724E+00  3.50751E+00  3.95848E+00  4.38555E+00  4.79271E+00  5.17420E+00  5.52202E+00  5.82854E+00  6.08343E+00  6.26313E+00
   6.32572E+00  6.23031E+00  5.95146E+00  5.48042E+00  4.83221E+00  4.05948E+00  3.25645E+00  2.53953E+00  2.02112E+00  1.77614E+00
   1.71554E+00  1.70406E+00  1.70846E+00  1.72061E+00  1.73633E+00  1.75331E+00  1.77030E+00  1.78686E+00  1.80301E+00  1.81788E+00
   1.83067E+00  1.84176E+00  1.85109E+00  1.85825E+00  1.86278E+00  1.86548E+00  1.86789E+00  1.87160E+00  1.87721E+00  1.88356E+00
   1.88951E+00  1.89495E+00  1.90011E+00  1.90537E+00  1.91113E+00  1.91786E+00  1.92567E+00  1.93435E+00  1.94350E+00  1.95249E+00
   1.96051E+00  1.96673E+00  1.97065E+00  1.97258E+00  1.97294E+00  1.97224E+00  1.97056E+00  1.96831E+00  1.96639E+00  1.96578E+00
   1.96631E+00  1.96750E+00  1.96885E+00  1.96970E+00  1.97052E+00  1.97226E+00  1.97554E+00  1.98040E+00  1.98611E+00  1.99202E+00
   1.99773E+00  2.00300E+00  2.00784E+00  2.01271E+00  2.01855E+00  2.02683E+00  2.03918E+00  2.05509E+00  2.07290E+00  2.09167E+00
   2.10927E+00  2.12457E+00  2.13736E+00  2.14837E+00  2.15983E+00  2.17518E+00  2.20102E+00  2.23594E+00  2.27318E+00  2.30753E+00
   2.33613E+00  2.35690E+00  2.36674E+00  2.36607E+00  2.36251E+00  2.36502E+00  2.37666E+00  2.39619E+00  2.41874E+00  2.43721E+00
   2.44644E+00  2.44295E+00  2.42628E+00  2.40328E+00  2.38409E+00  2.38038E+00  2.40203E+00  2.45282E+00  2.52976E+00  2.61821E+00
   2.70413E+00  2.77732E+00  2.83009E+00  2.85787E+00  2.86385E+00  2.86060E+00  2.86166E+00  2.87147E+00  2.88821E+00  2.91011E+00
   2.93318E+00  2.95313E+00  2.96794E+00  2.97926E+00  2.99146E+00  3.00801E+00  3.02959E+00  3.05575E+00  3.08408E+00  3.11252E+00
   3.13961E+00  3.16422E+00  3.18451E+00  3.20023E+00  3.21335E+00  3.22495E+00  3.23727E+00  3.25148E+00  3.26646E+00  3.27999E+00
   3.29017E+00  3.29469E+00  3.29195E+00  3.28338E+00  3.27272E+00  3.26300E+00  3.25459E+00  3.24631E+00  3.23634E+00  3.22330E+00
   3.20655E+00  3.18843E+00  3.17211E+00  3.15999E+00  3.15317E+00  3.15245E+00  3.15817E+00  3.16889E+00  3.18331E+00  3.20100E+00
   3.22059E+00  3.24075E+00  3.26112E+00  3.28282E+00  3.30747E+00  3.33737E+00  3.37453E+00  3.41996E+00  3.47420E+00  3.53721E+00
   3.60825E+00  3.68659E+00  3.77152E+00  3.86226E+00  3.95827E+00  4.05891E+00  4.16338E+00  4.27085E+00  4.38019E+00  4.48981E+00
   4.59797E+00  4.70294E+00  4.80293E+00  4.89617E+00  4.98111E+00  5.05660E+00  5.12180E+00  5.17640E+00  5.22057E+00  5.25497E+00
   5.28075E+00  5.29951E+00  5.31318E+00  5.32395E+00  5.33416E+00  5.34622E+00  5.36252E+00  5.38532E+00  5.41662E+00  5.45809E+00
   5.51109E+00  5.57666E+00  5.65553E+00  5.74814E+00  5.85462E+00  5.97496E+00  6.10912E+00  6.25723E+00  6.41979E+00  6.59787E+00
   6.79341E+00  7.00979E+00  7.25273E+00  7.53179E+00  7.86329E+00  8.27731E+00  8.83985E+00  9.69717E+00  1.08270E+01  1.18900E+01
   1.26707E+01  1.31232E+01  1.32902E+01  1.32170E+01  1.29173E+01  1.26151E+01  1.26179E+01  1.29678E+01  1.35471E+01  1.41745E+01
   1.46749E+01  1.49539E+01  1.50029E+01  1.48531E+01  1.45857E+01  1.43647E+01  1.44141E+01  1.49164E+01  1.58937E+01  1.71624E+01
   1.82305E+01  1.86061E+01  1.82397E+01  1.71710E+01  1.55108E+01  1.34793E+01  1.14108E+01  9.75355E+00  8.63398E+00  7.83408E+00
   7.23195E+00  6.76647E+00  6.40011E+00  6.10768E+00  5.87165E+00  5.67964E+00  5.52277E+00  5.39470E+00  5.29088E+00  5.20810E+00
   5.14400E+00  5.09682E+00  5.06521E+00  5.04819E+00  5.04505E+00  5.05527E+00  5.07848E+00  5.11427E+00  5.16227E+00  5.22203E+00
   5.29307E+00  5.37476E+00  5.46625E+00  5.56642E+00  5.67390E+00  5.78704E+00  5.90395E+00  6.02248E+00  6.14024E+00  6.25462E+00
   6.36296E+00  6.46259E+00  6.55098E+00  6.62575E+00  6.68481E+00  6.72645E+00  6.74942E+00  6.75304E+00  6.73714E+00  6.70211E+00
   6.64883E+00  6.57868E+00  6.49345E+00  6.39525E+00  6.28643E+00  6.16942E+00  6.04667E+00  5.92058E+00  5.79339E+00  5.66715E+00
   5.54365E+00  5.42434E+00  5.31042E+00  5.20278E+00  5.10205E+00  5.00861E+00  4.92260E+00  4.84398E+00  4.77254E+00  4.70800E+00
   4.64997E+00  4.59805E+00  4.55174E+00  4.51058E+00  4.47408E+00  4.44181E+00  4.41336E+00  4.38833E+00  4.36635E+00  4.34708E+00
   4.33024E+00  4.31557E+00  4.30284E+00  4.29184E+00  4.28237E+00  4.27428E+00  4.26743E+00  4.26170E+00  4.25698E+00  4.25317E+00
   4.25018E+00  4.24792E+00  4.24634E+00  4.24539E+00  4.24501E+00  4.24514E+00  4.24574E+00  4.24677E+00  4.24821E+00  4.25003E+00
   4.25219E+00  4.25467E+00  4.25743E+00  4.26047E+00  4.26377E+00  4.26732E+00  4.27109E+00  4.27506E+00  4.27921E+00  4.28356E+00
   4.28809E+00  4.29278E+00  4.29762E+00  4.30259E+00  4.30770E+00  4.31294E+00  4.31831E+00  4.32380E+00  4.32938E+00  4.33507E+00
   4.34086E+00  4.34675E+00  4.35273E+00  4.35879E+00  4.36493E+00  4.37114E+00  4.37744E+00  4.38381E+00  4.39025E+00  4.39676E+00
   4.40333E+00  4.40996E+00  4.41666E+00  4.42343E+00  4.43026E+00  4.43715E+00  4.44409E+00  4.45111E+00
 NY background values follow
     2.488E-01    2.571E-01    2.654E-01    2.737E-01    2.820E-01    2.903E-01    2.986E-01    3.069E-01    3.152E-01    3.235E-01
     3.318E-01    3.401E-01    3.484E-01    3.566E-01    3.649E-01    3.732E-01    3.815E-01    3.898E-01    3.981E-01    4.064E-01
     4.147E-01    4.230E-01    4.313E-01    4.396E-01    4.479E-01    4.562E-01    4.645E-01    4.728E-01    4.811E-01    4.894E-01
     4.976E-01    5.059E-01    5.142E-01    5.225E-01    5.308E-01    5.391E-01    5.474E-01    5.557E-01    5.640E-01    5.723E-01
     5.806E-01    5.889E-01    5.972E-01    6.055E-01    6.138E-01    6.221E-01    6.304E-01    6.386E-01    6.469E-01    6.552E-01
     6.635E-01    6.718E-01    6.801E-01    6.884E-01    6.967E-01    7.050E-01    7.133E-01    7.216E-01    7.299E-01    7.382E-01
     7.465E-01    7.548E-01    7.631E-01    7.714E-01    7.797E-01    7.879E-01    7.962E-01    8.045E-01    8.128E-01    8.211E-01
     8.294E-01    8.377E-01    8.460E-01    8.543E-01    8.626E-01    8.709E-01    8.792E-01    8.875E-01    8.958E-01    9.041E-01
     9.124E-01    9.207E-01    9.289E-01    9.372E-01    9.455E-01    9.538E-01    9.621E-01    9.704E-01    9.787E-01    9.870E-01
     9.953E-01    1.004E+00    1.012E+00    1.020E+00    1.028E+00    1.037E+00    1.045E+00    1.053E+00    1.062E+00    1.070E+00
     1.078E+00    1.087E+00    1.095E+00    1.103E+00    1.111E+00    1.120E+00    1.128E+00    1.136E+00    1.145E+00    1.153E+00
     1.161E+00    1.169E+00    1.178E+00    1.186E+00    1.194E+00    1.203E+00    1.211E+00    1.219E+00    1.228E+00    1.236E+00
     1.244E+00    1.252E+00    1.261E+00    1.269E+00    1.277E+00    1.286E+00    1.294E+00    1.302E+00    1.310E+00    1.319E+00
     1.327E+00    1.335E+00    1.344E+00    1.352E+00    1.360E+00    1.369E+00    1.377E+00    1.385E+00    1.393E+00    1.402E+00
     1.410E+00    1.418E+00    1.427E+00    1.435E+00    1.443E+00    1.451E+00    1.460E+00    1.468E+00    1.476E+00    1.485E+00
     1.493E+00    1.501E+00    1.510E+00    1.518E+00    1.526E+00    1.534E+00    1.543E+00    1.551E+00    1.559E+00    1.568E+00
     1.576E+00    1.584E+00    1.592E+00    1.601E+00    1.609E+00    1.617E+00    1.626E+00    1.634E+00    1.642E+00    1.651E+00
     1.659E+00    1.667E+00    1.675E+00    1.684E+00    1.692E+00    1.700E+00    1.709E+00    1.717E+00    1.725E+00    1.733E+00
     1.742E+00    1.750E+00    1.758E+00    1.767E+00    1.775E+00    1.783E+00    1.792E+00    1.800E+00    1.808E+00    1.816E+00
     1.825E+00    1.833E+00    1.841E+00    1.850E+00    1.858E+00    1.866E+00    1.874E+00    1.883E+00    1.891E+00    1.899E+00
     1.908E+00    1.916E+00    1.924E+00    1.932E+00    1.941E+00    1.949E+00    1.957E+00    1.966E+00    1.974E+00    1.982E+00
     1.991E+00    1.999E+00    2.007E+00    2.015E+00    2.024E+00    2.032E+00    2.040E+00    2.049E+00    2.057E+00    2.065E+00
     2.073E+00    2.082E+00    2.090E+00    2.098E+00    2.107E+00    2.115E+00    2.123E+00    2.132E+00    2.140E+00    2.148E+00
     2.156E+00    2.165E+00    2.173E+00    2.181E+00    2.190E+00    2.198E+00    2.206E+00    2.214E+00    2.223E+00    2.231E+00
     2.239E+00    2.248E+00    2.256E+00    2.264E+00    2.273E+00    2.281E+00    2.289E+00    2.297E+00    2.306E+00    2.314E+00
     2.322E+00    2.331E+00    2.339E+00    2.347E+00    2.355E+00    2.364E+00    2.372E+00    2.380E+00    2.389E+00    2.397E+00
     2.405E+00    2.413E+00    2.422E+00    2.430E+00    2.438E+00    2.447E+00    2.455E+00    2.463E+00    2.472E+00    2.480E+00
     2.488E+00    2.496E+00    2.505E+00    2.513E+00    2.521E+00    2.530E+00    2.538E+00    2.546E+00    2.554E+00    2.563E+00
     2.571E+00    2.579E+00    2.588E+00    2.596E+00    2.604E+00    2.613E+00    2.621E+00    2.629E+00    2.637E+00    2.646E+00
     2.654E+00    2.662E+00    2.671E+00    2.679E+00    2.687E+00    2.695E+00    2.704E+00    2.712E+00    2.720E+00    2.729E+00
     2.737E+00    2.745E+00    2.753E+00    2.762E+00    2.770E+00    2.778E+00    2.787E+00    2.795E+00    2.803E+00    2.812E+00
     2.820E+00    2.828E+00    2.836E+00    2.845E+00    2.853E+00    2.861E+00    2.870E+00    2.878E+00    2.886E+00    2.894E+00
     2.903E+00    2.911E+00    2.919E+00    2.928E+00    2.936E+00    2.944E+00    2.953E+00    2.961E+00    2.969E+00    2.977E+00
     2.986E+00    2.994E+00    3.002E+00    3.011E+00    3.019E+00    3.027E+00    3.035E+00    3.044E+00    3.052E+00    3.060E+00
     3.069E+00    3.077E+00    3.085E+00    3.093E+00    3.102E+00    3.110E+00    3.118E+00    3.127E+00    3.135E+00    3.143E+00
     3.152E+00    3.160E+00    3.168E+00    3.176E+00    3.185E+00    3.193E+00    3.201E+00    3.210E+00    3.218E+00    3.226E+00
     3.234E+00    3.243E+00    3.251E+00    3.259E+00    3.268E+00    3.276E+00    3.284E+00    3.292E+00    3.301E+00    3.309E+00
     3.317E+00    3.326E+00    3.334E+00    3.342E+00    3.351E+00    3.359E+00    3.367E+00    3.375E+00    3.384E+00    3.392E+00
     3.400E+00    3.409E+00    3.417E+00    3.425E+00    3.433E+00    3.442E+00    3.450E+00    3.458E+00    3.467E+00    3.475E+00
     3.483E+00    3.491E+00    3.500E+00    3.508E+00    3.516E+00    3.525E+00    3.533E+00    3.541E+00    3.550E+00    3.558E+00
     3.566E+00    3.574E+00    3.583E+00    3.591E+00    3.599E+00    3.608E+00    3.616E+00    3.624E+00    3.632E+00    3.641E+00
     3.649E+00    3.657E+00    3.666E+00    3.674E+00    3.682E+00    3.690E+00    3.699E+00    3.707E+00    3.715E+00    3.724E+00
     3.732E+00    3.740E+00    3.749E+00    3.757E+00    3.765E+00    3.773E+00    3.782E+00    3.790E+00    3.798E+00    3.807E+00
     3.815E+00    3.823E+00    3.831E+00    3.840E+00    3.848E+00    3.856E+00    3.865E+00    3.873E+00    3.881E+00    3.889E+00
     3.898E+00    3.906E+00    3.914E+00    3.923E+00    3.931E+00    3.939E+00    3.948E+00    3.956E+00    3.964E+00    3.972E+00
     3.981E+00    3.989E+00    3.997E+00    4.006E+00    4.014E+00    4.022E+00    4.030E+00    4.039E+00    4.047E+00    4.055E+00
     4.064E+00    4.072E+00    4.080E+00    4.088E+00    4.097E+00    4.105E+00    4.113E+00    4.122E+00    4.130E+00    4.138E+00
     4.147E+00    4.155E+00    4.163E+00    4.171E+00    4.180E+00    4.188E+00    4.196E+00    4.205E+00    4.213E+00    4.221E+00
     4.229E+00    4.238E+00    4.246E+00    4.254E+00    4.263E+00    4.271E+00    4.279E+00    4.287E+00    4.296E+00    4.304E+00
     4.312E+00    4.321E+00    4.329E+00    4.337E+00    4.346E+00    4.354E+00    4.362E+00    4.370E+00
 Asp      Conc. = 2.85E+01
