 LCModel (Version 6.3-1L) Copyright: S.W. Provencher.          Ref.: Magn. Reson. Med. 30:672-679 (1993).                
 Slice#1 Row#4 Col#7  PD_05_press_2_raw_act
 36 lines in following concentration table = NCONC+1
    Conc.  %SD /Cr+PCr  Metabolite                                         
   60.181 723% 3.2E-02 Ala                                                 
  365.612 103%   0.193 Asp                                                 
    0.000 999%   0.000 Cr                                                  
 1.89E+03  10%   1.000 PCr                                                 
  156.448 148% 8.3E-02 GABA                                                
  263.370  87%   0.139 Glc                                                 
 1.39E+03  65%   0.733 Gln                                                 
 3.84E+03  27%   2.028 Glu                                                 
  666.296  11%   0.352 GPC                                                 
    0.000 999%   0.000 PCh                                                 
  411.697  65%   0.217 GSH                                                 
 1.03E+03  79%   0.542 Ins                                                 
    0.000 999%   0.000 Lac                                                 
 3.64E+03   6%   1.923 NAA                                                 
    0.000 999%   0.000 NAAG                                                
   54.583 116% 2.9E-02 Scyllo                                              
  315.965 114%   0.167 Tau                                                 
  117.774 247% 6.2E-02 -CrCH2                                              
  666.296  11%   0.352 GPC+PCh                                             
 3.64E+03   6%   1.923 NAA+NAAG                                            
 1.89E+03  10%   1.000 Cr+PCr                                              
 5.23E+03  28%   2.761 Glu+Gln                                             
 3.77E+03  34%   1.990 Lip13a                                              
    0.000 999%   0.000 Lip13b                                              
  711.029  78%   0.375 Lip09                                               
 2.18E+03  30%   1.151 MM09                                                
  586.639  63%   0.310 Lip20                                               
 3.67E+03  27%   1.939 MM20                                                
  616.450  59%   0.325 MM12                                                
 3.44E+03  27%   1.813 MM14                                                
 2.12E+03  26%   1.117 MM17                                                
 3.77E+03  34%   1.990 Lip13a+Lip13b                                       
 7.82E+03  12%   4.129 MM14+Lip13a+Lip13b+MM12                             
 2.89E+03  16%   1.527 MM09+Lip09                                          
 4.26E+03  22%   2.248 MM20+Lip20                                          
   6 lines in following misc. output table
  FWHM = 0.054 ppm    S/N =   5                                            
  Data shift = 0.008 ppm                                                   
  Ph: -67 deg      -5.1 deg/ppm                                            
  alphaB,S = 8.5E+01,   1.0E+02                                            
   14 spline knots.   Ns = 7(1)                                            
   2 inflections.     1 extrema                                            
  498 points on ppm-axis = NY
      4.000000     3.992357     3.984714     3.977070     3.969427     3.961784     3.954141     3.946497     3.938854     3.931211
      3.923568     3.915925     3.908281     3.900638     3.892995     3.885352     3.877708     3.870065     3.862422     3.854779
      3.847136     3.839492     3.831849     3.824206     3.816563     3.808919     3.801276     3.793633     3.785990     3.778347
      3.770703     3.763060     3.755417     3.747774     3.740130     3.732487     3.724844     3.717201     3.709558     3.701914
      3.694271     3.686628     3.678985     3.671341     3.663698     3.656055     3.648412     3.640769     3.633125     3.625482
      3.617839     3.610196     3.602552     3.594909     3.587266     3.579623     3.571980     3.564336     3.556693     3.549050
      3.541407     3.533763     3.526120     3.518477     3.510834     3.503191     3.495547     3.487904     3.480261     3.472618
      3.464974     3.457331     3.449688     3.442045     3.434402     3.426758     3.419115     3.411472     3.403829     3.396185
      3.388542     3.380899     3.373256     3.365613     3.357969     3.350326     3.342683     3.335040     3.327396     3.319753
      3.312110     3.304467     3.296824     3.289180     3.281537     3.273894     3.266251     3.258607     3.250964     3.243321
      3.235678     3.228034     3.220391     3.212748     3.205105     3.197462     3.189818     3.182175     3.174532     3.166889
      3.159245     3.151602     3.143959     3.136316     3.128673     3.121029     3.113386     3.105743     3.098100     3.090456
      3.082813     3.075170     3.067527     3.059884     3.052240     3.044597     3.036954     3.029311     3.021667     3.014024
      3.006381     2.998738     2.991095     2.983451     2.975808     2.968165     2.960522     2.952878     2.945235     2.937592
      2.929949     2.922306     2.914662     2.907019     2.899376     2.891733     2.884089     2.876446     2.868803     2.861160
      2.853517     2.845873     2.838230     2.830587     2.822944     2.815300     2.807657     2.800014     2.792371     2.784728
      2.777084     2.769441     2.761798     2.754155     2.746511     2.738868     2.731225     2.723582     2.715939     2.708295
      2.700652     2.693009     2.685366     2.677722     2.670079     2.662436     2.654793     2.647150     2.639506     2.631863
      2.624220     2.616577     2.608933     2.601290     2.593647     2.586004     2.578361     2.570717     2.563074     2.555431
      2.547788     2.540144     2.532501     2.524858     2.517215     2.509572     2.501928     2.494285     2.486642     2.478999
      2.471355     2.463712     2.456069     2.448426     2.440783     2.433139     2.425496     2.417853     2.410210     2.402566
      2.394923     2.387280     2.379637     2.371994     2.364350     2.356707     2.349064     2.341421     2.333777     2.326134
      2.318491     2.310848     2.303205     2.295561     2.287918     2.280275     2.272632     2.264988     2.257345     2.249702
      2.242059     2.234416     2.226772     2.219129     2.211486     2.203843     2.196199     2.188556     2.180913     2.173270
      2.165627     2.157983     2.150340     2.142697     2.135054     2.127410     2.119767     2.112124     2.104481     2.096838
      2.089194     2.081551     2.073908     2.066265     2.058621     2.050978     2.043335     2.035692     2.028049     2.020405
      2.012762     2.005119     1.997476     1.989833     1.982190     1.974546     1.966903     1.959260     1.951617     1.943974
      1.936331     1.928688     1.921045     1.913402     1.905759     1.898115     1.890472     1.882829     1.875186     1.867543
      1.859900     1.852257     1.844614     1.836971     1.829327     1.821684     1.814041     1.806398     1.798755     1.791112
      1.783469     1.775826     1.768183     1.760540     1.752896     1.745253     1.737610     1.729967     1.722324     1.714681
      1.707038     1.699395     1.691752     1.684108     1.676465     1.668822     1.661179     1.653536     1.645893     1.638250
      1.630607     1.622964     1.615321     1.607677     1.600034     1.592391     1.584748     1.577105     1.569462     1.561819
      1.554176     1.546533     1.538890     1.531246     1.523603     1.515960     1.508317     1.500674     1.493031     1.485388
      1.477745     1.470102     1.462458     1.454815     1.447172     1.439529     1.431886     1.424243     1.416600     1.408957
      1.401314     1.393671     1.386027     1.378384     1.370741     1.363098     1.355455     1.347812     1.340169     1.332526
      1.324883     1.317240     1.309596     1.301953     1.294310     1.286667     1.279024     1.271381     1.263738     1.256095
      1.248452     1.240808     1.233165     1.225522     1.217879     1.210236     1.202593     1.194950     1.187307     1.179664
      1.172021     1.164377     1.156734     1.149091     1.141448     1.133805     1.126162     1.118519     1.110876     1.103233
      1.095590     1.087946     1.080303     1.072660     1.065017     1.057374     1.049731     1.042088     1.034445     1.026802
      1.019158     1.011515     1.003872     0.996229     0.988586     0.980943     0.973300     0.965657     0.958014     0.950371
      0.942727     0.935084     0.927441     0.919798     0.912155     0.904512     0.896869     0.889226     0.881583     0.873940
      0.866296     0.858653     0.851010     0.843367     0.835724     0.828081     0.820438     0.812795     0.805152     0.797508
      0.789865     0.782222     0.774579     0.766936     0.759293     0.751650     0.744007     0.736364     0.728721     0.721077
      0.713434     0.705791     0.698148     0.690505     0.682862     0.675219     0.667576     0.659933     0.652290     0.644646
      0.637003     0.629360     0.621717     0.614074     0.606431     0.598788     0.591145     0.583502     0.575858     0.568215
      0.560572     0.552929     0.545286     0.537643     0.530000     0.522357     0.514714     0.507071     0.499427     0.491784
      0.484141     0.476498     0.468855     0.461212     0.453569     0.445925     0.438282     0.430639     0.422996     0.415353
      0.407710     0.400067     0.392424     0.384780     0.377137     0.369494     0.361851     0.354208     0.346565     0.338922
      0.331278     0.323635     0.315992     0.308349     0.300706     0.293063     0.285420     0.277777     0.270133     0.262490
      0.254847     0.247204     0.239561     0.231918     0.224275     0.216631     0.208988     0.201345
 NY phased data points follow
  -3.32919E+01 -3.04715E+01 -2.01187E+01 -1.29782E+01 -1.92455E+01 -6.11540E+00 -8.06679E+00  2.68368E+01  3.00309E+01  1.03296E+01
  -1.26741E+01  1.25191E+01  3.26625E+01 -6.35054E+00  1.32269E+00 -1.13171E+01 -4.93534E+00 -1.05384E+01 -3.66636E+01 -6.67575E-01
  -2.01845E+01 -1.97273E+01 -1.74922E+01  5.91126E+00 -1.60468E+01 -1.39389E+01 -1.61452E+01 -3.97008E+01  2.22242E+01 -1.13285E+01
   7.24555E+00 -8.64844E+00 -5.24193E+00 -1.00761E+01 -2.24892E+01 -4.03888E+01 -1.58334E+01 -1.91265E+01 -2.63965E+01 -3.14190E+01
   1.17261E+00 -2.51986E+01 -2.12921E+01 -2.53717E+01 -3.79939E+00 -3.51445E+00  1.36764E+01 -3.78620E+00 -2.37976E+01 -1.73018E+01
  -3.39997E+00 -1.63883E+01 -1.48277E+01 -4.72256E+00  5.24198E+00 -2.38507E+01  1.29946E+00  5.73895E+00  2.08521E+00 -3.26206E+01
  -3.64179E+00 -2.03486E+01 -1.25397E+01 -1.97268E+01 -1.13849E+01 -2.56656E+01 -2.56712E+01 -1.20065E+01 -1.91729E+01 -1.85713E+01
  -3.81735E+01 -3.11242E+01 -3.77304E+01 -1.18956E+01 -1.02199E+01 -1.21185E+01 -1.67740E+01 -3.83852E+01 -6.11288E+00 -2.20045E+01
   1.86553E+00 -1.18756E+01 -1.04041E+01 -2.64548E+01 -1.60577E+01 -2.47191E+01 -2.34891E+01 -2.58245E+01 -3.33462E+01 -2.49702E+01
  -1.43422E+01  4.50786E+00 -1.80199E+01 -1.88488E+01 -2.75981E+01 -9.65424E+00 -1.61123E+01 -2.46749E+01 -5.78091E+00 -1.01579E+01
  -1.41812E+01  3.87299E+01  3.97314E+01  4.17634E+01  5.80513E+01  3.06095E+01 -1.27543E+00  5.93961E+00  2.12296E+01  8.06300E+00
   1.10575E+01 -1.13768E+01  1.21352E+01 -1.49802E+01 -1.18536E+01 -1.74892E+01 -1.79619E+01 -2.70474E+01 -2.29186E+01 -1.71336E+01
  -7.03480E+00 -1.43752E+01 -1.78957E+01 -3.70173E+00  1.82630E+01  3.87931E+01  2.37659E+01  4.49619E+01  6.02582E+01  3.27985E+01
   2.38904E+01  9.96731E+00  3.90784E+00  9.55779E+00  2.01683E+01 -4.83527E+00  1.73134E+00 -5.51610E+00 -1.53270E+01 -3.60195E+00
  -9.33834E+00 -1.46971E+01 -1.24769E+01 -6.20950E+00 -3.86497E+01 -3.15038E+01 -2.13494E+01 -7.28352E+00 -1.66076E+01 -2.55923E+01
  -2.91668E+01 -2.87262E+01 -1.29421E+01 -1.21722E+01 -2.70290E+01 -2.08478E+01  3.63735E+00 -2.59338E+01 -2.11613E+01 -5.95104E+00
  -4.84975E+00 -2.00795E+01 -3.04867E+01 -2.76739E+01 -1.53745E+01 -1.91517E+01 -3.72052E+00 -2.64429E+01 -9.49299E+00 -1.57097E+01
  -2.65373E+01 -2.72408E+01 -4.22297E+01 -3.60318E+01 -2.32487E+01 -2.15123E+01 -1.12595E+01 -2.93147E+01 -4.83858E+01 -1.25146E+01
  -1.46530E+01 -2.05783E+01 -3.44936E+01 -2.59395E+01 -5.07035E+01 -1.17183E+01 -3.20927E+01 -2.75557E+01 -3.56561E+01 -2.02738E+01
  -3.27463E+00 -1.62491E+01 -4.02216E+01 -2.90203E+01 -4.02934E+01 -3.01135E+01 -1.86681E+01 -3.83633E+01 -2.43387E+01 -3.10750E+01
  -1.22700E+01  5.10285E-02 -3.53074E+01 -1.28394E+01 -2.00247E+01 -5.69613E+00 -1.96927E+01 -1.29249E+01 -1.18642E+01 -2.27435E+01
   2.24782E-01 -3.12036E+01  6.55618E+00 -6.58888E+00  1.07389E-01  1.23613E+01 -4.66178E+00  2.36555E+01  1.22099E+01  9.49212E-01
  -3.49242E+01 -1.13631E+01 -3.88482E+01 -1.58998E+01 -2.15979E+01 -1.54793E+01 -3.90591E+00 -1.50243E+01 -2.33294E+01  9.26051E-01
   3.28192E+00  3.70474E-01 -4.93434E-01  1.68757E+01 -9.05060E+00  1.33825E+00 -5.84632E+00  2.04352E+00 -2.46764E+01  6.42618E+00
   1.33789E+00 -1.82365E+01 -3.58696E+00  2.93414E+00 -1.95592E+01 -5.58300E+00  1.14059E+01 -3.54565E+00 -8.59056E+00 -2.83781E+00
   2.74714E+00  1.57269E+01  8.86371E+00 -1.35779E+01  2.91683E+01  3.13184E+01  3.07214E+01  4.29662E+01  8.03804E+01  9.95796E+01
   1.09158E+02  1.13016E+02  1.13171E+02  8.21823E+01  9.10466E+01  4.77269E+01  3.45630E+01  7.31184E+00  3.77903E+01 -9.37240E+00
  -2.00717E+00 -6.43358E+00  1.20551E+01 -1.50301E+01 -2.17269E+01 -3.09982E+01 -1.50936E+01  1.69034E+01 -4.80196E+00 -1.55767E+01
   4.15919E-02 -1.15166E+01 -1.63089E+01 -2.68215E+01 -2.23965E+01 -2.32549E+01 -1.08758E+01 -1.13949E+01 -2.30027E+01 -3.14609E+01
   6.67112E+00 -8.20552E+00 -1.22059E+01  1.94086E+01 -2.10068E+01 -7.28995E+00  3.07021E+00  1.01872E+00 -7.12767E+00  1.03464E+01
   1.11525E+01  2.17699E+00 -1.40621E+01  1.83883E+00  1.05172E+01  8.30724E+00 -2.34431E+00  2.96265E+01  5.57083E+00 -5.72600E-01
  -2.29790E+01  1.89893E+01  5.19174E+00  1.05217E+01  4.15412E+00  7.73457E+00  1.82634E+01  5.78718E-01  8.08313E+00 -6.69522E-01
   6.93604E+00  2.92723E+00  9.32541E+00  3.99757E+00  4.95197E+00 -1.23912E+00  1.86834E+01  5.39786E+00  9.29356E+00 -9.23540E+00
  -2.13573E+00  2.30845E+01 -7.00046E-01 -1.52767E+00  2.83265E+01  1.31029E+01  1.88717E+01  1.14685E+01 -1.61275E+01  6.45633E-01
   1.43743E+01  1.63183E+01  1.17927E+01  2.59069E+01  1.46596E+01  2.32794E+01  3.23144E+01  3.18386E+00  2.18157E+01  2.78745E+01
   2.12748E+01  3.30925E+01  1.95562E+01  9.94439E+00  1.12702E+01  2.66525E+01  5.06687E+00 -3.65163E+00  1.14095E+01 -2.94484E+01
   2.11999E+01 -1.86569E+00  4.75889E+00  1.69422E+01 -1.02516E+01  4.32032E+00  2.14754E+01  1.73244E+01 -6.28316E-01  4.57095E+00
  -3.87893E+00 -3.35527E+00  6.86330E+00 -4.25459E+00 -1.18943E+01 -6.56388E+00 -1.28626E+01 -2.09209E+01  1.48310E+01 -7.90402E+00
  -1.69883E+00  7.25140E+00 -2.48562E+01  3.76234E-01 -1.03863E+01 -3.46748E-01  9.76473E+00 -1.51825E+01  9.64294E+00 -1.20969E+01
  -1.87963E+01 -2.15516E+01  5.44624E+00 -1.45359E+01 -5.91206E+00 -1.43391E+01 -8.15223E-01  9.00518E+00 -8.43062E+00  1.17361E+00
   3.86409E+01  4.81541E+00  1.84953E+01  1.39430E+01  7.07437E+00 -4.13382E+00  2.43335E+01 -1.62500E+00  1.74305E+01 -2.05002E+01
  -8.54640E-01  3.19553E+00  5.49843E+00 -6.74447E+00  1.59265E+01  1.62655E+01  2.44195E+01  2.73415E+00  4.66530E+00 -1.39373E+01
   1.01838E+00 -1.21748E+01  9.49243E+00 -2.25158E+01  3.53761E+00 -4.99076E+00  8.67725E-01 -1.13901E+01  3.17621E+00 -2.86506E+01
  -2.95247E+01 -5.00158E+00 -6.45813E+00  1.30055E+01 -5.95616E+00  2.97293E+00  6.21183E+00 -5.18830E+00 -3.12184E+01 -3.47584E+00
  -1.27878E+01  2.30909E+00  1.18883E+01 -1.20019E+01 -1.68287E+01 -1.58486E+01 -1.60721E+01 -9.93111E+00  1.12715E+00 -1.08045E+01
   4.93947E+00 -1.57526E+01 -1.32923E+01  9.09086E+00 -1.03357E+01 -1.67753E+01 -8.55866E+00 -9.81103E+00 -2.11570E+01 -2.87326E+01
   2.57131E+00 -1.18288E+01 -2.11914E+01 -3.09043E+01 -1.53826E+01 -6.37441E+00 -1.55746E+01 -6.94631E+00  4.83757E+00 -6.69466E+00
  -1.02542E+01 -2.62643E+01 -2.16480E+01 -3.11207E+00 -1.48618E+01 -5.15028E+00 -1.18779E+01 -1.70967E+01 -1.67160E+01 -1.35770E+01
  -3.52582E+01  7.17309E-01 -2.99693E+01 -1.37352E+01 -1.40247E+01  3.04928E+00 -3.03879E+00 -2.87084E+01  3.86081E+00 -1.85783E+00
  -8.60316E+00  1.04685E+01 -9.14473E+00 -8.99404E+00 -4.96608E+00 -1.28333E+01 -1.14317E+01 -5.17987E+00
 NY points of the fit to the data follow
  -2.28508E+01 -2.30213E+01 -2.20582E+01 -1.96275E+01 -1.56126E+01 -9.68514E+00 -2.12018E+00  5.73044E+00  1.20565E+01  1.56540E+01
   1.61633E+01  1.39102E+01  9.89756E+00  5.25858E+00  6.88605E-01 -3.69301E+00 -8.04473E+00 -1.19746E+01 -1.41451E+01 -1.48078E+01
  -1.49483E+01 -1.49374E+01 -1.49865E+01 -1.51969E+01 -1.56922E+01 -1.62846E+01 -1.64493E+01 -1.57139E+01 -1.38970E+01 -1.12019E+01
  -8.07199E+00 -5.31136E+00 -3.80463E+00 -3.96269E+00 -5.64035E+00 -8.30652E+00 -1.12344E+01 -1.40073E+01 -1.61203E+01 -1.71587E+01
  -1.73412E+01 -1.67955E+01 -1.56587E+01 -1.40461E+01 -1.21028E+01 -1.02900E+01 -8.99490E+00 -8.52291E+00 -8.91564E+00 -9.85355E+00
  -1.11497E+01 -1.26093E+01 -1.39437E+01 -1.50690E+01 -1.60769E+01 -1.68515E+01 -1.71790E+01 -1.71018E+01 -1.68752E+01 -1.66854E+01
  -1.66399E+01 -1.68157E+01 -1.71867E+01 -1.76643E+01 -1.81155E+01 -1.84274E+01 -1.86099E+01 -1.87184E+01 -1.87047E+01 -1.85060E+01
  -1.81512E+01 -1.76989E+01 -1.72218E+01 -1.68080E+01 -1.65734E+01 -1.65752E+01 -1.67942E+01 -1.71986E+01 -1.76702E+01 -1.80836E+01
  -1.83538E+01 -1.84395E+01 -1.84029E+01 -1.83492E+01 -1.83588E+01 -1.85022E+01 -1.88490E+01 -1.93601E+01 -1.99354E+01 -2.04753E+01
  -2.09227E+01 -2.12578E+01 -2.14966E+01 -2.16804E+01 -2.17513E+01 -2.13710E+01 -1.95924E+01 -1.57453E+01 -9.63265E+00 -7.12057E-01
   1.08630E+01  2.31732E+01  3.32202E+01  3.87962E+01  3.91883E+01  3.49266E+01  2.76422E+01  1.92984E+01  1.12021E+01  3.59529E+00
  -3.80450E+00 -1.05082E+01 -1.45108E+01 -1.59146E+01 -1.65672E+01 -1.69845E+01 -1.73046E+01 -1.75382E+01 -1.76381E+01 -1.72124E+01
  -1.51184E+01 -1.08428E+01 -4.06939E+00  5.62265E+00  1.75342E+01  2.92612E+01  3.79813E+01  4.20706E+01  4.12096E+01  3.62171E+01
   2.88651E+01  2.07926E+01  1.28346E+01  5.01021E+00 -2.76241E+00 -9.38113E+00 -1.27873E+01 -1.40258E+01 -1.44756E+01 -1.45284E+01
  -1.44116E+01 -1.42672E+01 -1.41111E+01 -1.39760E+01 -1.39643E+01 -1.40948E+01 -1.43684E+01 -1.47804E+01 -1.52537E+01 -1.57109E+01
  -1.60940E+01 -1.63907E+01 -1.66354E+01 -1.68347E+01 -1.70373E+01 -1.72922E+01 -1.76515E+01 -1.81747E+01 -1.88158E+01 -1.94578E+01
  -1.99352E+01 -2.00983E+01 -1.99355E+01 -1.95945E+01 -1.92979E+01 -1.91962E+01 -1.93299E+01 -1.96461E+01 -2.00365E+01 -2.04837E+01
  -2.11132E+01 -2.19122E+01 -2.27840E+01 -2.36295E+01 -2.42589E+01 -2.46022E+01 -2.46917E+01 -2.46131E+01 -2.44913E+01 -2.43971E+01
  -2.43520E+01 -2.43086E+01 -2.41720E+01 -2.38972E+01 -2.34733E+01 -2.28966E+01 -2.20802E+01 -2.08331E+01 -1.92527E+01 -1.76643E+01
  -1.64706E+01 -1.58828E+01 -1.57796E+01 -1.59652E+01 -1.62375E+01 -1.64671E+01 -1.65924E+01 -1.63639E+01 -1.54690E+01 -1.38972E+01
  -1.18269E+01 -9.59849E+00 -7.72498E+00 -6.89702E+00 -7.45940E+00 -9.49049E+00 -1.28222E+01 -1.69167E+01 -2.07397E+01 -2.30765E+01
  -2.32403E+01 -2.11053E+01 -1.68721E+01 -1.13180E+01 -5.89127E+00 -2.25509E+00 -1.50619E+00 -3.77045E+00 -8.57369E+00 -1.51640E+01
  -2.16434E+01 -2.62465E+01 -2.82648E+01 -2.76554E+01 -2.47420E+01 -2.00201E+01 -1.48463E+01 -1.05116E+01 -7.35393E+00 -5.26214E+00
  -4.01214E+00 -3.70210E+00 -4.19818E+00 -4.71813E+00 -4.64917E+00 -4.11670E+00 -3.43957E+00 -2.83772E+00 -2.49662E+00 -2.61749E+00
  -3.29727E+00 -4.18936E+00 -4.72887E+00 -4.70803E+00 -4.26996E+00 -3.65741E+00 -2.89984E+00 -2.12754E+00 -1.42385E+00 -6.58222E-01
   3.81953E-01  1.67639E+00  3.10427E+00  6.02330E+00  1.24257E+01  2.26134E+01  3.73218E+01  5.70589E+01  7.92471E+01  9.84051E+01
   1.09736E+02  1.11325E+02  1.03693E+02  8.94732E+01  7.24975E+01  5.56344E+01  3.99415E+01  2.49503E+01  1.08703E+01  8.48608E-01
  -3.05737E+00 -4.55779E+00 -5.26525E+00 -5.50179E+00 -5.54097E+00 -5.63476E+00 -5.80647E+00 -6.08861E+00 -6.47896E+00 -6.93557E+00
  -7.41032E+00 -7.88521E+00 -8.29403E+00 -8.56383E+00 -8.69331E+00 -8.70852E+00 -8.62647E+00 -8.46198E+00 -8.22419E+00 -7.92549E+00
  -7.58022E+00 -7.17533E+00 -6.70318E+00 -6.16293E+00 -5.55109E+00 -4.86591E+00 -4.11455E+00 -3.31199E+00 -2.47331E+00 -1.61266E+00
  -7.50073E-01  9.26408E-02  8.95394E-01  1.63573E+00  2.29419E+00  2.85478E+00  3.30595E+00  3.64113E+00  3.85883E+00  3.96228E+00
   3.95947E+00  3.86339E+00  3.69254E+00  3.46842E+00  3.21368E+00  2.95219E+00  2.70784E+00  2.50385E+00  2.36239E+00  2.30515E+00
   2.35375E+00  2.51184E+00  2.77163E+00  3.12235E+00  3.53504E+00  3.96548E+00  4.38038E+00  4.77535E+00  5.17690E+00  5.62328E+00
   6.14425E+00  6.76257E+00  7.48542E+00  8.28998E+00  9.12840E+00  9.95826E+00  1.07489E+01  1.14428E+01  1.20100E+01  1.24713E+01
   1.28522E+01  1.31681E+01  1.34201E+01  1.36087E+01  1.37674E+01  1.39215E+01  1.40561E+01  1.41600E+01  1.42258E+01  1.42460E+01
   1.42133E+01  1.41198E+01  1.39582E+01  1.37216E+01  1.34044E+01  1.30023E+01  1.25136E+01  1.19387E+01  1.12805E+01  1.05444E+01
   9.73794E+00  8.87074E+00  7.95423E+00  7.00098E+00  6.02430E+00  5.03755E+00  4.05386E+00  3.08574E+00  2.14485E+00  1.24159E+00
   3.84950E-01 -4.17625E-01 -1.16005E+00 -1.83751E+00 -2.44630E+00 -2.98377E+00 -3.44814E+00 -3.83831E+00 -4.15347E+00 -4.39297E+00
  -4.55612E+00 -4.64226E+00 -4.65058E+00 -4.58010E+00 -4.42952E+00 -4.19745E+00 -3.88251E+00 -3.48374E+00 -3.00076E+00 -2.43409E+00
  -1.78545E+00 -1.05826E+00 -2.58054E-01  6.07069E-01  1.52632E+00  2.48606E+00  3.46985E+00  4.45854E+00  5.43058E+00  6.36263E+00
   7.23045E+00  8.00977E+00  8.67743E+00  9.21229E+00  9.59627E+00  9.81534E+00  9.86039E+00  9.72764E+00  9.41896E+00  8.94156E+00
   8.30775E+00  7.53423E+00  6.64138E+00  5.65207E+00  4.59064E+00  3.48158E+00  2.34868E+00  1.21412E+00  9.78190E-02 -9.83180E-01
  -2.01500E+00 -2.98712E+00 -3.89213E+00 -4.72556E+00 -5.48546E+00 -6.17216E+00 -6.78779E+00 -7.33589E+00 -7.82089E+00 -8.24781E+00
  -8.62185E+00 -8.94837E+00 -9.23259E+00 -9.47950E+00 -9.69362E+00 -9.87906E+00 -1.00395E+01 -1.01782E+01 -1.02980E+01 -1.04017E+01
  -1.04911E+01 -1.05682E+01 -1.06345E+01 -1.06914E+01 -1.07402E+01 -1.07818E+01 -1.08171E+01 -1.08467E+01 -1.08713E+01 -1.08915E+01
  -1.09078E+01 -1.09205E+01 -1.09301E+01 -1.09367E+01 -1.09407E+01 -1.09424E+01 -1.09419E+01 -1.09395E+01 -1.09352E+01 -1.09293E+01
  -1.09219E+01 -1.09131E+01 -1.09031E+01 -1.08918E+01 -1.08795E+01 -1.08660E+01 -1.08517E+01 -1.08365E+01 -1.08204E+01 -1.08036E+01
  -1.07860E+01 -1.07677E+01 -1.07488E+01 -1.07293E+01 -1.07092E+01 -1.06884E+01 -1.06672E+01 -1.06454E+01 -1.06231E+01 -1.06005E+01
  -1.05773E+01 -1.05537E+01 -1.05296E+01 -1.05051E+01 -1.04802E+01 -1.04549E+01 -1.04292E+01 -1.04030E+01 -1.03764E+01 -1.03495E+01
  -1.03221E+01 -1.02943E+01 -1.02659E+01 -1.02371E+01 -1.02078E+01 -1.01780E+01 -1.01476E+01 -1.01166E+01
 NY background values follow
    -2.289E+01   -2.286E+01   -2.284E+01   -2.281E+01   -2.279E+01   -2.277E+01   -2.274E+01   -2.272E+01   -2.269E+01   -2.267E+01
    -2.264E+01   -2.262E+01   -2.260E+01   -2.257E+01   -2.255E+01   -2.252E+01   -2.250E+01   -2.247E+01   -2.245E+01   -2.242E+01
    -2.240E+01   -2.238E+01   -2.235E+01   -2.233E+01   -2.230E+01   -2.228E+01   -2.225E+01   -2.223E+01   -2.220E+01   -2.218E+01
    -2.215E+01   -2.213E+01   -2.210E+01   -2.208E+01   -2.206E+01   -2.203E+01   -2.201E+01   -2.198E+01   -2.196E+01   -2.193E+01
    -2.191E+01   -2.188E+01   -2.186E+01   -2.183E+01   -2.181E+01   -2.178E+01   -2.176E+01   -2.173E+01   -2.171E+01   -2.168E+01
    -2.166E+01   -2.163E+01   -2.161E+01   -2.158E+01   -2.156E+01   -2.153E+01   -2.151E+01   -2.148E+01   -2.146E+01   -2.143E+01
    -2.141E+01   -2.138E+01   -2.136E+01   -2.133E+01   -2.130E+01   -2.128E+01   -2.125E+01   -2.123E+01   -2.120E+01   -2.118E+01
    -2.115E+01   -2.113E+01   -2.110E+01   -2.108E+01   -2.105E+01   -2.103E+01   -2.100E+01   -2.097E+01   -2.095E+01   -2.092E+01
    -2.090E+01   -2.087E+01   -2.085E+01   -2.082E+01   -2.080E+01   -2.077E+01   -2.074E+01   -2.072E+01   -2.069E+01   -2.067E+01
    -2.064E+01   -2.062E+01   -2.059E+01   -2.056E+01   -2.054E+01   -2.051E+01   -2.049E+01   -2.046E+01   -2.044E+01   -2.041E+01
    -2.038E+01   -2.036E+01   -2.033E+01   -2.031E+01   -2.028E+01   -2.025E+01   -2.023E+01   -2.020E+01   -2.018E+01   -2.015E+01
    -2.012E+01   -2.010E+01   -2.007E+01   -2.005E+01   -2.002E+01   -1.999E+01   -1.997E+01   -1.994E+01   -1.992E+01   -1.989E+01
    -1.986E+01   -1.984E+01   -1.981E+01   -1.978E+01   -1.976E+01   -1.973E+01   -1.971E+01   -1.968E+01   -1.965E+01   -1.963E+01
    -1.960E+01   -1.957E+01   -1.955E+01   -1.952E+01   -1.950E+01   -1.947E+01   -1.944E+01   -1.942E+01   -1.939E+01   -1.936E+01
    -1.934E+01   -1.931E+01   -1.928E+01   -1.926E+01   -1.923E+01   -1.920E+01   -1.918E+01   -1.915E+01   -1.912E+01   -1.910E+01
    -1.907E+01   -1.904E+01   -1.902E+01   -1.899E+01   -1.896E+01   -1.894E+01   -1.891E+01   -1.888E+01   -1.886E+01   -1.883E+01
    -1.880E+01   -1.878E+01   -1.875E+01   -1.872E+01   -1.870E+01   -1.867E+01   -1.864E+01   -1.862E+01   -1.859E+01   -1.856E+01
    -1.854E+01   -1.851E+01   -1.848E+01   -1.846E+01   -1.843E+01   -1.840E+01   -1.838E+01   -1.835E+01   -1.832E+01   -1.829E+01
    -1.827E+01   -1.824E+01   -1.821E+01   -1.819E+01   -1.816E+01   -1.813E+01   -1.811E+01   -1.808E+01   -1.805E+01   -1.802E+01
    -1.800E+01   -1.797E+01   -1.794E+01   -1.792E+01   -1.789E+01   -1.786E+01   -1.783E+01   -1.781E+01   -1.778E+01   -1.775E+01
    -1.773E+01   -1.770E+01   -1.767E+01   -1.764E+01   -1.762E+01   -1.759E+01   -1.756E+01   -1.754E+01   -1.751E+01   -1.748E+01
    -1.745E+01   -1.743E+01   -1.740E+01   -1.737E+01   -1.734E+01   -1.732E+01   -1.729E+01   -1.726E+01   -1.723E+01   -1.721E+01
    -1.718E+01   -1.715E+01   -1.712E+01   -1.710E+01   -1.707E+01   -1.704E+01   -1.701E+01   -1.699E+01   -1.696E+01   -1.693E+01
    -1.690E+01   -1.688E+01   -1.685E+01   -1.682E+01   -1.679E+01   -1.677E+01   -1.674E+01   -1.671E+01   -1.668E+01   -1.666E+01
    -1.663E+01   -1.660E+01   -1.657E+01   -1.655E+01   -1.652E+01   -1.649E+01   -1.646E+01   -1.644E+01   -1.641E+01   -1.638E+01
    -1.635E+01   -1.632E+01   -1.630E+01   -1.627E+01   -1.624E+01   -1.621E+01   -1.619E+01   -1.616E+01   -1.613E+01   -1.610E+01
    -1.607E+01   -1.605E+01   -1.602E+01   -1.599E+01   -1.596E+01   -1.594E+01   -1.591E+01   -1.588E+01   -1.585E+01   -1.582E+01
    -1.580E+01   -1.577E+01   -1.574E+01   -1.571E+01   -1.568E+01   -1.566E+01   -1.563E+01   -1.560E+01   -1.557E+01   -1.555E+01
    -1.552E+01   -1.549E+01   -1.546E+01   -1.543E+01   -1.541E+01   -1.538E+01   -1.535E+01   -1.532E+01   -1.529E+01   -1.527E+01
    -1.524E+01   -1.521E+01   -1.518E+01   -1.515E+01   -1.512E+01   -1.510E+01   -1.507E+01   -1.504E+01   -1.501E+01   -1.498E+01
    -1.496E+01   -1.493E+01   -1.490E+01   -1.487E+01   -1.484E+01   -1.482E+01   -1.479E+01   -1.476E+01   -1.473E+01   -1.470E+01
    -1.467E+01   -1.465E+01   -1.462E+01   -1.459E+01   -1.456E+01   -1.453E+01   -1.451E+01   -1.448E+01   -1.445E+01   -1.442E+01
    -1.439E+01   -1.436E+01   -1.434E+01   -1.431E+01   -1.428E+01   -1.425E+01   -1.422E+01   -1.420E+01   -1.417E+01   -1.414E+01
    -1.411E+01   -1.408E+01   -1.405E+01   -1.403E+01   -1.400E+01   -1.397E+01   -1.394E+01   -1.391E+01   -1.388E+01   -1.386E+01
    -1.383E+01   -1.380E+01   -1.377E+01   -1.374E+01   -1.371E+01   -1.369E+01   -1.366E+01   -1.363E+01   -1.360E+01   -1.357E+01
    -1.354E+01   -1.351E+01   -1.349E+01   -1.346E+01   -1.343E+01   -1.340E+01   -1.337E+01   -1.334E+01   -1.332E+01   -1.329E+01
    -1.326E+01   -1.323E+01   -1.320E+01   -1.317E+01   -1.315E+01   -1.312E+01   -1.309E+01   -1.306E+01   -1.303E+01   -1.300E+01
    -1.297E+01   -1.295E+01   -1.292E+01   -1.289E+01   -1.286E+01   -1.283E+01   -1.280E+01   -1.278E+01   -1.275E+01   -1.272E+01
    -1.269E+01   -1.266E+01   -1.263E+01   -1.260E+01   -1.258E+01   -1.255E+01   -1.252E+01   -1.249E+01   -1.246E+01   -1.243E+01
    -1.240E+01   -1.238E+01   -1.235E+01   -1.232E+01   -1.229E+01   -1.226E+01   -1.223E+01   -1.220E+01   -1.218E+01   -1.215E+01
    -1.212E+01   -1.209E+01   -1.206E+01   -1.203E+01   -1.200E+01   -1.198E+01   -1.195E+01   -1.192E+01   -1.189E+01   -1.186E+01
    -1.183E+01   -1.180E+01   -1.178E+01   -1.175E+01   -1.172E+01   -1.169E+01   -1.166E+01   -1.163E+01   -1.160E+01   -1.158E+01
    -1.155E+01   -1.152E+01   -1.149E+01   -1.146E+01   -1.143E+01   -1.140E+01   -1.138E+01   -1.135E+01   -1.132E+01   -1.129E+01
    -1.126E+01   -1.123E+01   -1.120E+01   -1.117E+01   -1.115E+01   -1.112E+01   -1.109E+01   -1.106E+01   -1.103E+01   -1.100E+01
    -1.097E+01   -1.095E+01   -1.092E+01   -1.089E+01   -1.086E+01   -1.083E+01   -1.080E+01   -1.077E+01   -1.075E+01   -1.072E+01
    -1.069E+01   -1.066E+01   -1.063E+01   -1.060E+01   -1.057E+01   -1.054E+01   -1.052E+01   -1.049E+01   -1.046E+01   -1.043E+01
    -1.040E+01   -1.037E+01   -1.034E+01   -1.032E+01   -1.029E+01   -1.026E+01   -1.023E+01   -1.020E+01   -1.017E+01   -1.014E+01
    -1.012E+01   -1.009E+01   -1.006E+01   -1.003E+01   -1.000E+01   -9.972E+00   -9.943E+00   -9.915E+00   -9.886E+00   -9.858E+00
    -9.829E+00   -9.800E+00   -9.772E+00   -9.743E+00   -9.714E+00   -9.686E+00   -9.657E+00   -9.629E+00   -9.600E+00   -9.571E+00
    -9.543E+00   -9.514E+00   -9.485E+00   -9.457E+00   -9.428E+00   -9.400E+00   -9.371E+00   -9.342E+00
 Ala      Conc. = 6.02E+01
