 LCModel (Version 6.3-1L) Copyright: S.W. Provencher.          Ref.: Magn. Reson. Med. 30:672-679 (1993).                
 Slice#1 Row#12 Col#11  PD_05_press_2_raw_act
 36 lines in following concentration table = NCONC+1
    Conc.  %SD /Cr+PCr  Metabolite                                         
 2.28E+03  11%  39.642 Ala                                                 
    8.382  38%   0.146 Asp                                                 
   57.478  59%   1.000 Cr                                                  
    0.000 999%   0.000 PCr                                                 
    5.024  38% 8.7E-02 GABA                                                
    5.037  38% 8.8E-02 Glc                                                 
  131.835 266%   2.294 Gln                                                 
    0.000 999%   0.000 Glu                                                 
   36.764  36%   0.640 GPC                                                 
    0.000 999%   0.000 PCh                                                 
  105.044  56%   1.828 GSH                                                 
  282.602  46%   4.917 Ins                                                 
  405.341  54%   7.052 Lac                                                 
    0.000 999%   0.000 NAA                                                 
    0.000 999%   0.000 NAAG                                                
    1.679  38% 2.9E-02 Scyllo                                              
    8.399  38%   0.146 Tau                                                 
    5.742  61%   0.100 -CrCH2                                              
   36.764  36%   0.640 GPC+PCh                                             
    0.000 999%   0.000 NAA+NAAG                                            
   57.478  59%   1.000 Cr+PCr                                              
  131.835 266%   2.294 Glu+Gln                                             
    0.000 999%   0.000 Lip13a                                              
    0.000 999%   0.000 Lip13b                                              
 5.79E-05 999% 1.0E-06 Lip09                                               
  131.722  31%   2.292 MM09                                                
    0.000 999%   0.000 Lip20                                               
  132.294  49%   2.302 MM20                                                
   37.865  42%   0.659 MM12                                                
  262.162  17%   4.561+MM14                                                
   69.305  47%   1.206 MM17                                                
    0.000 999%   0.000 Lip13a+Lip13b                                       
  300.028  18%   5.220 MM14+Lip13a+Lip13b+MM12                             
  131.722  31%   2.292 MM09+Lip09                                          
  132.294  49%   2.302 MM20+Lip20                                          
   6 lines in following misc. output table
  FWHM = 0.153 ppm    S/N =   2                                            
  Data shift = 0.046 ppm                                                   
  Ph:  27 deg     -32.1 deg/ppm                                            
  alphaB,S = 8.5E+01,   4.1E+02                                            
    8 spline knots.   Ns = 9(2)                                            
   2 inflections.     1 extrema                                            
  498 points on ppm-axis = NY
      4.000000     3.992357     3.984714     3.977070     3.969427     3.961784     3.954141     3.946497     3.938854     3.931211
      3.923568     3.915925     3.908281     3.900638     3.892995     3.885352     3.877708     3.870065     3.862422     3.854779
      3.847136     3.839492     3.831849     3.824206     3.816563     3.808919     3.801276     3.793633     3.785990     3.778347
      3.770703     3.763060     3.755417     3.747774     3.740130     3.732487     3.724844     3.717201     3.709558     3.701914
      3.694271     3.686628     3.678985     3.671341     3.663698     3.656055     3.648412     3.640769     3.633125     3.625482
      3.617839     3.610196     3.602552     3.594909     3.587266     3.579623     3.571980     3.564336     3.556693     3.549050
      3.541407     3.533763     3.526120     3.518477     3.510834     3.503191     3.495547     3.487904     3.480261     3.472618
      3.464974     3.457331     3.449688     3.442045     3.434402     3.426758     3.419115     3.411472     3.403829     3.396185
      3.388542     3.380899     3.373256     3.365613     3.357969     3.350326     3.342683     3.335040     3.327396     3.319753
      3.312110     3.304467     3.296824     3.289180     3.281537     3.273894     3.266251     3.258607     3.250964     3.243321
      3.235678     3.228034     3.220391     3.212748     3.205105     3.197462     3.189818     3.182175     3.174532     3.166889
      3.159245     3.151602     3.143959     3.136316     3.128673     3.121029     3.113386     3.105743     3.098100     3.090456
      3.082813     3.075170     3.067527     3.059884     3.052240     3.044597     3.036954     3.029311     3.021667     3.014024
      3.006381     2.998738     2.991095     2.983451     2.975808     2.968165     2.960522     2.952878     2.945235     2.937592
      2.929949     2.922306     2.914662     2.907019     2.899376     2.891733     2.884089     2.876446     2.868803     2.861160
      2.853517     2.845873     2.838230     2.830587     2.822944     2.815300     2.807657     2.800014     2.792371     2.784728
      2.777084     2.769441     2.761798     2.754155     2.746511     2.738868     2.731225     2.723582     2.715939     2.708295
      2.700652     2.693009     2.685366     2.677722     2.670079     2.662436     2.654793     2.647150     2.639506     2.631863
      2.624220     2.616577     2.608933     2.601290     2.593647     2.586004     2.578361     2.570717     2.563074     2.555431
      2.547788     2.540144     2.532501     2.524858     2.517215     2.509572     2.501928     2.494285     2.486642     2.478999
      2.471355     2.463712     2.456069     2.448426     2.440783     2.433139     2.425496     2.417853     2.410210     2.402566
      2.394923     2.387280     2.379637     2.371994     2.364350     2.356707     2.349064     2.341421     2.333777     2.326134
      2.318491     2.310848     2.303205     2.295561     2.287918     2.280275     2.272632     2.264988     2.257345     2.249702
      2.242059     2.234416     2.226772     2.219129     2.211486     2.203843     2.196199     2.188556     2.180913     2.173270
      2.165627     2.157983     2.150340     2.142697     2.135054     2.127410     2.119767     2.112124     2.104481     2.096838
      2.089194     2.081551     2.073908     2.066265     2.058621     2.050978     2.043335     2.035692     2.028049     2.020405
      2.012762     2.005119     1.997476     1.989833     1.982190     1.974546     1.966903     1.959260     1.951617     1.943974
      1.936331     1.928688     1.921045     1.913402     1.905759     1.898115     1.890472     1.882829     1.875186     1.867543
      1.859900     1.852257     1.844614     1.836971     1.829327     1.821684     1.814041     1.806398     1.798755     1.791112
      1.783469     1.775826     1.768183     1.760540     1.752896     1.745253     1.737610     1.729967     1.722324     1.714681
      1.707038     1.699395     1.691752     1.684108     1.676465     1.668822     1.661179     1.653536     1.645893     1.638250
      1.630607     1.622964     1.615321     1.607677     1.600034     1.592391     1.584748     1.577105     1.569462     1.561819
      1.554176     1.546533     1.538890     1.531246     1.523603     1.515960     1.508317     1.500674     1.493031     1.485388
      1.477745     1.470102     1.462458     1.454815     1.447172     1.439529     1.431886     1.424243     1.416600     1.408957
      1.401314     1.393671     1.386027     1.378384     1.370741     1.363098     1.355455     1.347812     1.340169     1.332526
      1.324883     1.317240     1.309596     1.301953     1.294310     1.286667     1.279024     1.271381     1.263738     1.256095
      1.248452     1.240808     1.233165     1.225522     1.217879     1.210236     1.202593     1.194950     1.187307     1.179664
      1.172021     1.164377     1.156734     1.149091     1.141448     1.133805     1.126162     1.118519     1.110876     1.103233
      1.095590     1.087946     1.080303     1.072660     1.065017     1.057374     1.049731     1.042088     1.034445     1.026802
      1.019158     1.011515     1.003872     0.996229     0.988586     0.980943     0.973300     0.965657     0.958014     0.950371
      0.942727     0.935084     0.927441     0.919798     0.912155     0.904512     0.896869     0.889226     0.881583     0.873940
      0.866296     0.858653     0.851010     0.843367     0.835724     0.828081     0.820438     0.812795     0.805152     0.797508
      0.789865     0.782222     0.774579     0.766936     0.759293     0.751650     0.744007     0.736364     0.728721     0.721077
      0.713434     0.705791     0.698148     0.690505     0.682862     0.675219     0.667576     0.659933     0.652290     0.644646
      0.637003     0.629360     0.621717     0.614074     0.606431     0.598788     0.591145     0.583502     0.575858     0.568215
      0.560572     0.552929     0.545286     0.537643     0.530000     0.522357     0.514714     0.507071     0.499427     0.491784
      0.484141     0.476498     0.468855     0.461212     0.453569     0.445925     0.438282     0.430639     0.422996     0.415353
      0.407710     0.400067     0.392424     0.384780     0.377137     0.369494     0.361851     0.354208     0.346565     0.338922
      0.331278     0.323635     0.315992     0.308349     0.300706     0.293063     0.285420     0.277777     0.270133     0.262490
      0.254847     0.247204     0.239561     0.231918     0.224275     0.216631     0.208988     0.201345
 NY phased data points follow
  -1.75162E+00  4.30460E-01  2.11498E-01  2.90284E-01  1.26992E+00 -2.05921E-01  4.11441E-01  2.73762E-02  7.45892E-01 -7.11726E-01
  -2.26708E+00  1.58616E+00  3.07408E-01 -3.76023E-01  1.66194E+00  2.39209E+00  1.45944E+00  1.96103E+00 -4.15141E-01 -4.05662E-02
  -4.79627E-02 -8.26041E-01  1.42210E+00  2.85167E+00  1.85673E+00 -2.48338E+00 -5.35628E-02  1.94216E+00 -3.19011E-01 -2.11334E+00
   7.60611E-01  2.87385E+00 -1.60012E+00  7.34566E-01  8.37418E-01 -3.96167E-01  1.96850E-01 -1.04945E-01 -2.52088E-01  7.50289E-01
   4.28410E-01  3.13891E+00 -1.77053E-01  6.32515E-02  1.60052E-01 -1.72910E+00  1.12926E+00  2.89996E+00 -9.79089E-01  1.95939E+00
  -3.20318E-01  5.73390E-01 -7.45006E-01  8.76779E-01 -1.54936E-01 -1.00292E+00  1.54329E+00  1.78576E+00 -1.59813E+00 -6.79167E-01
  -4.17163E-02  1.42915E+00 -1.29581E+00 -1.32315E+00 -3.49016E-01 -1.65462E-01  2.46320E-01  2.69929E-02  1.34018E+00 -6.48636E-01
  -2.07663E+00  1.65390E+00  2.10892E+00 -7.47078E-02  2.27878E+00  4.04160E-01 -6.35720E-01  5.56934E-01  1.58718E+00  1.15302E+00
   3.49851E-01 -8.06359E-01  3.89722E-01 -1.84837E+00  1.50347E+00  7.81823E-01  1.44118E-01 -2.22231E+00 -1.65659E+00 -1.21200E+00
   9.60382E-01 -9.80238E-01  1.13090E+00  2.01577E-01  1.29089E-02  2.23171E+00 -2.61820E+00  7.44128E-01 -6.75317E-01 -9.85419E-01
  -2.45886E-01  1.43706E+00  6.12652E-01  6.00223E-01 -9.80797E-01  3.68342E+00  1.29154E+00  7.44761E-01 -3.52363E-01  7.16929E-01
   1.44728E-02  1.27968E+00 -7.22676E-01  3.60942E-01  1.58973E+00 -5.84515E-01 -1.00425E-01  6.31838E-01  3.37320E+00  2.95019E+00
   7.18997E-01  4.82057E-01  2.87696E+00 -9.34079E-01 -1.34478E+00  6.91056E-02 -1.15972E+00 -4.33585E-01 -8.33868E-01  7.92442E-01
   4.85372E-01 -9.79253E-01  1.07233E+00  6.27007E-01  6.59811E-01  4.55327E-01 -7.29366E-02  1.21340E+00 -6.75071E-01  7.47392E-01
  -1.38515E+00  1.82163E-01 -1.78090E+00 -7.75057E-02  5.64864E-01  2.33988E-01  1.79588E-01  1.13273E+00  8.85481E-01  2.19832E+00
   1.13269E-01 -1.16095E+00 -7.56507E-01  1.33998E+00 -3.08761E+00  7.67940E-01 -2.53421E+00 -7.10575E-01 -8.90463E-02  6.98915E-01
   3.35089E-01  7.43451E-01 -1.94509E+00  1.11456E+00  2.70990E-01  1.40248E+00 -7.68371E-01 -1.13170E-01  1.04195E+00  9.89427E-01
  -1.35013E-01 -1.34316E+00  8.63729E-01 -2.40632E+00 -7.76236E-01  3.19409E+00  1.64473E+00 -3.32298E-01 -5.97499E-01 -1.54513E+00
  -8.73414E-01  1.11443E+00  1.04341E+00 -2.96385E-01  1.11954E+00 -5.31346E-01  1.55437E+00  1.45800E+00 -9.16918E-02 -1.14511E+00
   1.97678E-01  6.16102E-01  3.58891E-01 -3.11361E+00 -8.67638E-01 -1.68542E+00  2.72555E-01 -3.27702E+00  2.53822E+00  4.53193E-01
   1.21934E+00  7.91478E-01 -1.44656E+00  7.83243E-01 -8.34358E-01 -6.41258E-01  4.22695E-01  1.88206E-01  1.13342E+00  5.37211E-01
  -6.43873E-01 -8.95740E-01 -5.21656E-01  2.49687E-01  7.74369E-01  1.21987E+00  7.55088E-01  1.02450E-01 -1.72038E+00  7.58027E-01
  -1.59712E+00 -5.71671E-01 -1.84607E-01 -7.07566E-01 -2.32826E+00  1.23768E+00 -3.23480E-01 -1.91838E+00 -1.10430E+00  2.22657E+00
   9.10146E-01 -1.12068E-01  4.76322E-01  1.66000E-01  2.24065E-01 -1.70164E+00 -1.13624E+00 -1.22667E+00 -1.76234E+00  9.19051E-01
  -8.85168E-02 -1.52816E+00  5.33091E-01 -6.93072E-02 -1.26524E+00 -2.20733E+00 -2.21938E+00 -7.26326E-01 -3.02378E+00 -3.29785E+00
  -1.88101E+00 -1.10026E+00  6.75556E-01 -1.96006E+00  1.11794E+00  4.79447E-01 -2.93225E-01  1.45741E+00 -1.32979E-01 -4.64033E-01
  -1.42045E+00  9.24317E-01  5.08346E-01 -5.38279E-01  1.61974E-01  2.51842E+00 -1.14371E+00  8.16054E-01  1.61194E+00  1.06395E-01
  -1.91795E-01  6.22200E-01 -2.62506E+00  1.54232E+00 -1.68837E+00  2.31602E-01 -2.56748E+00 -1.66732E+00 -9.33794E-01 -1.01513E+00
   9.87248E-01 -3.83984E-01 -1.16687E+00 -1.29820E-01 -1.01192E-01  2.52726E+00 -2.44644E+00  1.26976E-01 -1.53692E-01  4.69871E-01
   1.50975E+00  9.47200E-01 -6.10906E-01  1.05083E+00 -3.01535E-01 -9.32129E-01  1.07921E+00  1.20335E+00  5.82967E-01  5.46291E-01
   1.38075E+00 -5.87046E-01  3.06383E+00  2.08740E+00  4.12840E+00  2.35156E+00  4.60663E+00  3.21968E+00  2.05233E+00  2.80301E+00
   1.82525E+00  5.33599E+00  3.33466E+00  5.50629E+00  4.24633E+00  5.35712E+00  4.82093E+00  4.32738E+00  8.15824E+00  8.44488E+00
   7.49476E+00  5.56443E+00  8.90052E+00  8.79600E+00  5.97308E+00  7.28050E+00  5.98688E+00  6.27287E+00  6.17139E+00  6.71401E+00
   5.79483E+00  5.43061E+00  4.25063E+00  5.20239E+00  3.36288E+00  6.72947E+00  5.45094E+00  4.61403E+00  6.11615E+00  5.32338E+00
   4.28957E+00  6.48398E+00  5.36667E+00  5.21762E+00  3.65980E+00  3.24925E+00  6.98051E+00  4.09897E+00  2.77901E+00  3.54425E+00
   4.56168E+00  5.55442E+00  2.68917E+00  2.95191E+00  2.84412E+00  2.01177E+00 -2.21121E-01  6.89391E-01  1.86644E+00  1.04502E+00
   1.49967E+00  1.00496E+00  1.23692E+00 -4.76590E-01  3.61621E+00  6.26724E-01  2.39671E+00  3.42206E+00  1.98965E+00  8.48937E-01
   8.18797E-01  1.13129E+00  2.62917E+00  1.26400E+00  1.47262E+00  1.71191E-01  4.05694E-01 -7.31965E-01  3.72817E+00  3.07994E+00
   3.58132E+00  3.31803E+00  1.42929E+00 -4.49758E-01  2.41978E-03  8.30068E-01  3.82761E-01  2.11107E+00  8.95917E-02 -7.57922E-01
   2.54011E+00  8.55205E-01 -4.88071E-02 -8.75174E-02  5.61391E-01  3.81970E-01  8.03671E-01  2.69906E+00  2.33951E+00  2.53159E+00
  -6.18671E-01  2.94054E+00  1.77885E+00  1.32403E+00 -9.49327E-01 -2.70625E-01  2.20836E+00  1.64531E+00  2.20746E+00  3.00044E-01
   1.23201E+00  1.25594E+00  2.66619E+00  1.55906E+00  2.21905E+00  1.73389E+00 -1.43760E-01  8.68061E-02  2.63677E+00 -8.84362E-01
   7.17421E-01 -6.63163E-01  9.67470E-01 -1.50900E-01 -3.78723E-02  1.97284E+00  1.27040E+00  6.42720E-01  2.53193E+00 -5.76260E-02
   3.70114E-01 -2.46670E-01  5.39755E-02  2.04229E-01  1.28138E+00  1.30576E+00 -4.43333E-01  1.03009E+00 -1.28708E-01  9.53114E-01
  -1.91079E-01 -9.44406E-01  8.20620E-01  1.22627E+00 -5.40236E-01 -9.26095E-02  1.76239E+00 -1.27655E+00 -1.38640E-01  1.31699E+00
  -1.20708E-02 -3.19548E-01  2.06780E+00  7.21197E-01  2.91837E+00  2.83177E-02 -6.98757E-01 -1.32675E-01  1.63488E+00  1.04488E-01
   8.32993E-01  3.71050E-01  1.39764E+00 -5.84672E-01 -5.05354E-01  9.17590E-01 -6.53633E-01  4.21289E-01  9.93171E-01  1.02262E+00
   2.14100E+00 -1.03329E-01 -3.92636E-01  2.21801E+00 -8.83465E-01  2.08775E+00  1.25516E+00  1.55013E-01  1.38985E+00 -2.81422E-01
   1.55721E+00 -7.83019E-01  9.09520E-01 -1.44540E+00 -6.55468E-01  5.95503E-01  3.04554E+00  9.16681E-01  6.77923E-01 -8.97721E-01
   1.27415E+00  7.69596E-01  2.21071E-01 -1.88634E+00  4.17300E-01 -4.29609E-02 -3.48410E-01 -5.61004E-01
 NY points of the fit to the data follow
   2.47045E-01  3.52186E-01  2.04688E-01  3.17471E-01  1.91490E-01  3.29331E-01  2.37564E-01  4.26257E-01  2.64990E-01  4.49235E-01
   2.07529E-01  4.16061E-01  1.37595E-01  3.67721E-01  3.92706E-02  3.75285E-01  4.02762E-02  4.42459E-01  8.71679E-02  5.12544E-01
   1.42868E-01  5.71232E-01  1.70369E-01  5.56321E-01  1.66308E-01  5.06940E-01  1.67639E-01  4.43311E-01  1.83795E-01  4.04587E-01
   2.56770E-01  4.12354E-01  3.65895E-01  4.48846E-01  4.91515E-01  4.78160E-01  5.81876E-01  4.66189E-01  6.06130E-01  4.06076E-01
   5.56078E-01  3.30740E-01  5.29529E-01  3.16818E-01  5.64588E-01  3.83700E-01  6.32550E-01  4.82796E-01  6.22068E-01  4.31513E-01
   4.99234E-01  3.05290E-01  3.41183E-01  1.63338E-01  1.83835E-01  1.01087E-01  1.68348E-01  1.23258E-01  1.96173E-01  1.69248E-01
   2.25550E-01  1.93674E-01  2.07642E-01  1.50769E-01  1.60989E-01  1.02732E-01  1.17531E-01  6.87434E-02  9.74345E-02  6.11621E-02
   9.75037E-02  5.11736E-02  7.61638E-02  1.58426E-02  3.20696E-02 -3.79252E-02 -2.73331E-02 -1.03489E-01 -9.43753E-02 -1.73246E-01
  -1.66033E-01 -2.41352E-01 -2.30036E-01 -2.99758E-01 -2.60241E-01 -2.86232E-01 -2.49274E-01 -2.36514E-01 -2.13861E-01 -1.57985E-01
  -1.52112E-01 -4.65534E-02 -5.86629E-02  1.02215E-01  6.69399E-02  2.80007E-01  2.04629E-01  4.57039E-01  3.36065E-01  6.16113E-01
   4.47570E-01  7.39864E-01  5.25231E-01  8.12602E-01  5.60057E-01  8.25054E-01  5.47379E-01  7.76132E-01  4.97044E-01  7.04074E-01
   4.35878E-01  6.12221E-01  3.67689E-01  5.16614E-01  3.06774E-01  4.37728E-01  2.70650E-01  3.81206E-01  2.49919E-01  3.37399E-01
   2.36740E-01  3.09222E-01  2.47670E-01  3.27579E-01  3.08884E-01  4.11317E-01  3.86440E-01  4.70656E-01  4.34616E-01  4.92060E-01
   4.47007E-01  4.75238E-01  4.25408E-01  4.25839E-01  3.75460E-01  3.51186E-01  3.03343E-01  2.58846E-01  2.16974E-01  1.57315E-01
   1.23027E-01  5.31922E-02  2.53303E-02 -5.19877E-02 -7.27476E-02 -1.50428E-01 -1.61659E-01 -2.25720E-01 -2.25302E-01 -2.61854E-01
  -2.59148E-01 -2.89534E-01 -2.88117E-01 -3.10728E-01 -3.09194E-01 -3.24145E-01 -3.25396E-01 -3.43932E-01 -3.52143E-01 -3.69990E-01
  -3.81404E-01 -3.91690E-01 -4.00167E-01 -4.02808E-01 -4.07448E-01 -4.08109E-01 -4.11251E-01 -4.13652E-01 -4.15815E-01 -4.20284E-01
  -4.21262E-01 -4.25942E-01 -4.22532E-01 -4.25373E-01 -4.16585E-01 -4.21100E-01 -4.10797E-01 -4.19262E-01 -4.10430E-01 -4.27381E-01
  -4.20560E-01 -4.36854E-01 -4.28405E-01 -4.38438E-01 -4.26289E-01 -4.29708E-01 -4.18415E-01 -4.13562E-01 -4.06287E-01 -3.94160E-01
  -3.93641E-01 -3.76898E-01 -3.92344E-01 -3.66052E-01 -3.87891E-01 -3.49975E-01 -3.76984E-01 -3.28482E-01 -3.59512E-01 -3.02964E-01
  -3.37669E-01 -2.75643E-01 -3.12641E-01 -2.48398E-01 -2.84347E-01 -2.21457E-01 -2.53896E-01 -1.95625E-01 -2.20957E-01 -1.65074E-01
  -1.78384E-01 -1.23209E-01 -1.21856E-01 -7.26161E-02 -6.28764E-02 -2.34629E-02 -1.15988E-02  1.43827E-02  2.10639E-02  4.09186E-02
   4.86287E-02  6.83407E-02  8.01798E-02  1.02596E-01  1.15779E-01  1.32627E-01  1.42319E-01  1.54581E-01  1.60560E-01  1.63857E-01
   1.64363E-01  1.56930E-01  1.52733E-01  1.43476E-01  1.49533E-01  1.37875E-01  1.53602E-01  1.39304E-01  1.64975E-01  1.46884E-01
   1.82040E-01  1.59753E-01  2.03383E-01  1.79617E-01  2.30048E-01  2.06314E-01  2.60805E-01  2.38288E-01  2.93228E-01  2.70508E-01
   3.21512E-01  2.96698E-01  3.40066E-01  3.10799E-01  3.45020E-01  3.18071E-01  3.45292E-01  3.22247E-01  3.41414E-01  3.26748E-01
   3.42933E-01  3.29226E-01  3.39554E-01  3.27219E-01  3.31348E-01  3.14887E-01  3.15251E-01  3.00687E-01  3.01269E-01  2.89034E-01
   2.90407E-01  2.81585E-01  2.84527E-01  2.81001E-01  2.84950E-01  2.85548E-01  2.90183E-01  2.94518E-01  2.99992E-01  3.06914E-01
   3.14618E-01  3.24069E-01  3.35307E-01  3.48851E-01  3.64652E-01  3.83182E-01  4.04394E-01  4.28800E-01  4.56269E-01  4.87413E-01
   5.22143E-01  5.61090E-01  6.04186E-01  6.52341E-01  7.05356E-01  7.64356E-01  8.29190E-01  9.01172E-01  9.80428E-01  1.06858E+00
   1.16626E+00  1.27592E+00  1.39947E+00  1.54104E+00  1.70549E+00  1.90170E+00  2.14383E+00  2.46196E+00  2.92987E+00  3.56386E+00
   3.88017E+00  4.52970E+00  4.60284E+00  5.20780E+00  4.99629E+00  5.49634E+00  4.92534E+00  5.71781E+00  5.04633E+00  6.02150E+00
   5.15185E+00  6.14214E+00  5.05229E+00  6.00443E+00  4.72809E+00  5.64538E+00  4.30219E+00  5.19978E+00  3.96629E+00  4.83212E+00
   3.75917E+00  4.50997E+00  3.70988E+00  4.34481E+00  3.86682E+00  4.34709E+00  4.16528E+00  4.53294E+00  4.59094E+00  4.77025E+00
   4.96552E+00  4.95160E+00  5.20554E+00  5.03199E+00  5.34839E+00  5.13344E+00  5.52697E+00  5.38050E+00  5.74938E+00  5.68053E+00
   5.63566E+00  5.28936E+00  4.92884E+00  4.43676E+00  3.84980E+00  3.38917E+00  2.75470E+00  2.65655E+00  2.28931E+00  2.28959E+00
   2.03167E+00  2.05333E+00  1.86164E+00  1.87646E+00  1.74065E+00  1.75156E+00  1.66875E+00  1.68497E+00  1.63817E+00  1.65805E+00
   1.58344E+00  1.51754E+00  1.42455E+00  1.30183E+00  1.20107E+00  1.06734E+00  9.80541E-01  9.19985E-01  8.73978E-01  8.38444E-01
   8.10922E-01  7.90535E-01  7.76291E-01  7.68107E-01  7.65456E-01  7.68523E-01  7.76924E-01  7.90898E-01  8.10046E-01  8.34531E-01
   8.63811E-01  8.97843E-01  9.35829E-01  9.77435E-01  1.02155E+00  1.06753E+00  1.11396E+00  1.15992E+00  1.20379E+00  1.24455E+00
   1.28054E+00  1.31086E+00  1.33406E+00  1.34957E+00  1.35639E+00  1.35446E+00  1.34337E+00  1.32365E+00  1.29550E+00  1.25998E+00
   1.21776E+00  1.17029E+00  1.11849E+00  1.06395E+00  1.00761E+00  9.50976E-01  8.94798E-01  8.40316E-01  7.87985E-01  7.38705E-01
   6.92587E-01  6.50201E-01  6.11359E-01  5.76371E-01  5.44831E-01  5.16875E-01  4.91971E-01  4.70170E-01  4.50893E-01  4.34174E-01
   4.19440E-01  4.06745E-01  3.95550E-01  3.85952E-01  3.77457E-01  3.70209E-01  3.63755E-01  3.58279E-01  3.53365E-01  3.49232E-01
   3.45491E-01  3.42388E-01  3.39553E-01  3.37249E-01  3.35123E-01  3.33451E-01  3.31891E-01  3.30728E-01  3.29627E-01  3.28877E-01
   3.28153E-01  3.27747E-01  3.27337E-01  3.27221E-01  3.27077E-01  3.27204E-01  3.27286E-01  3.27625E-01  3.27902E-01  3.28423E-01
   3.28870E-01  3.29549E-01  3.30145E-01  3.30965E-01  3.31693E-01  3.32636E-01  3.33481E-01  3.34535E-01  3.35485E-01  3.36639E-01
   3.37684E-01  3.38927E-01  3.40058E-01  3.41384E-01  3.42593E-01  3.43995E-01  3.45277E-01  3.46748E-01  3.48098E-01  3.49635E-01
   3.51049E-01  3.52649E-01  3.54124E-01  3.55784E-01  3.57319E-01  3.59038E-01  3.60633E-01  3.62413E-01  3.64070E-01  3.65914E-01
   3.67638E-01  3.69552E-01  3.71351E-01  3.73349E-01  3.75242E-01  3.77346E-01  3.79363E-01  3.81618E-01
 NY background values follow
    -8.483E-01   -8.459E-01   -8.435E-01   -8.411E-01   -8.388E-01   -8.364E-01   -8.340E-01   -8.316E-01   -8.292E-01   -8.268E-01
    -8.244E-01   -8.220E-01   -8.197E-01   -8.173E-01   -8.149E-01   -8.125E-01   -8.101E-01   -8.077E-01   -8.053E-01   -8.029E-01
    -8.006E-01   -7.982E-01   -7.958E-01   -7.934E-01   -7.910E-01   -7.886E-01   -7.862E-01   -7.838E-01   -7.814E-01   -7.791E-01
    -7.767E-01   -7.743E-01   -7.719E-01   -7.695E-01   -7.671E-01   -7.647E-01   -7.623E-01   -7.600E-01   -7.576E-01   -7.552E-01
    -7.528E-01   -7.504E-01   -7.480E-01   -7.456E-01   -7.432E-01   -7.409E-01   -7.385E-01   -7.361E-01   -7.337E-01   -7.313E-01
    -7.289E-01   -7.265E-01   -7.241E-01   -7.218E-01   -7.194E-01   -7.170E-01   -7.146E-01   -7.122E-01   -7.098E-01   -7.074E-01
    -7.050E-01   -7.027E-01   -7.003E-01   -6.979E-01   -6.955E-01   -6.931E-01   -6.907E-01   -6.883E-01   -6.859E-01   -6.836E-01
    -6.812E-01   -6.788E-01   -6.764E-01   -6.740E-01   -6.716E-01   -6.692E-01   -6.668E-01   -6.645E-01   -6.621E-01   -6.597E-01
    -6.573E-01   -6.549E-01   -6.525E-01   -6.501E-01   -6.477E-01   -6.454E-01   -6.430E-01   -6.406E-01   -6.382E-01   -6.358E-01
    -6.334E-01   -6.310E-01   -6.286E-01   -6.263E-01   -6.239E-01   -6.215E-01   -6.191E-01   -6.167E-01   -6.143E-01   -6.119E-01
    -6.095E-01   -6.072E-01   -6.048E-01   -6.024E-01   -6.000E-01   -5.976E-01   -5.952E-01   -5.928E-01   -5.904E-01   -5.881E-01
    -5.857E-01   -5.833E-01   -5.809E-01   -5.785E-01   -5.761E-01   -5.737E-01   -5.713E-01   -5.690E-01   -5.666E-01   -5.642E-01
    -5.618E-01   -5.594E-01   -5.570E-01   -5.546E-01   -5.522E-01   -5.499E-01   -5.475E-01   -5.451E-01   -5.427E-01   -5.403E-01
    -5.379E-01   -5.355E-01   -5.331E-01   -5.308E-01   -5.284E-01   -5.260E-01   -5.236E-01   -5.212E-01   -5.188E-01   -5.164E-01
    -5.140E-01   -5.117E-01   -5.093E-01   -5.069E-01   -5.045E-01   -5.021E-01   -4.997E-01   -4.973E-01   -4.949E-01   -4.926E-01
    -4.902E-01   -4.878E-01   -4.854E-01   -4.830E-01   -4.806E-01   -4.782E-01   -4.758E-01   -4.735E-01   -4.711E-01   -4.687E-01
    -4.663E-01   -4.639E-01   -4.615E-01   -4.591E-01   -4.567E-01   -4.543E-01   -4.520E-01   -4.496E-01   -4.472E-01   -4.448E-01
    -4.424E-01   -4.400E-01   -4.376E-01   -4.352E-01   -4.329E-01   -4.305E-01   -4.281E-01   -4.257E-01   -4.233E-01   -4.209E-01
    -4.185E-01   -4.161E-01   -4.137E-01   -4.114E-01   -4.090E-01   -4.066E-01   -4.042E-01   -4.018E-01   -3.994E-01   -3.970E-01
    -3.946E-01   -3.923E-01   -3.899E-01   -3.875E-01   -3.851E-01   -3.827E-01   -3.803E-01   -3.779E-01   -3.755E-01   -3.731E-01
    -3.708E-01   -3.684E-01   -3.660E-01   -3.636E-01   -3.612E-01   -3.588E-01   -3.564E-01   -3.540E-01   -3.516E-01   -3.493E-01
    -3.469E-01   -3.445E-01   -3.421E-01   -3.397E-01   -3.373E-01   -3.349E-01   -3.325E-01   -3.301E-01   -3.278E-01   -3.254E-01
    -3.230E-01   -3.206E-01   -3.182E-01   -3.158E-01   -3.134E-01   -3.110E-01   -3.086E-01   -3.063E-01   -3.039E-01   -3.015E-01
    -2.991E-01   -2.967E-01   -2.943E-01   -2.919E-01   -2.895E-01   -2.871E-01   -2.847E-01   -2.824E-01   -2.800E-01   -2.776E-01
    -2.752E-01   -2.728E-01   -2.704E-01   -2.680E-01   -2.656E-01   -2.632E-01   -2.609E-01   -2.585E-01   -2.561E-01   -2.537E-01
    -2.513E-01   -2.489E-01   -2.465E-01   -2.441E-01   -2.417E-01   -2.393E-01   -2.370E-01   -2.346E-01   -2.322E-01   -2.298E-01
    -2.274E-01   -2.250E-01   -2.226E-01   -2.202E-01   -2.178E-01   -2.154E-01   -2.130E-01   -2.107E-01   -2.083E-01   -2.059E-01
    -2.035E-01   -2.011E-01   -1.987E-01   -1.963E-01   -1.939E-01   -1.915E-01   -1.891E-01   -1.867E-01   -1.844E-01   -1.820E-01
    -1.796E-01   -1.772E-01   -1.748E-01   -1.724E-01   -1.700E-01   -1.676E-01   -1.652E-01   -1.628E-01   -1.604E-01   -1.581E-01
    -1.557E-01   -1.533E-01   -1.509E-01   -1.485E-01   -1.461E-01   -1.437E-01   -1.413E-01   -1.389E-01   -1.365E-01   -1.341E-01
    -1.317E-01   -1.294E-01   -1.270E-01   -1.246E-01   -1.222E-01   -1.198E-01   -1.174E-01   -1.150E-01   -1.126E-01   -1.102E-01
    -1.078E-01   -1.054E-01   -1.030E-01   -1.007E-01   -9.826E-02   -9.587E-02   -9.348E-02   -9.109E-02   -8.869E-02   -8.630E-02
    -8.391E-02   -8.152E-02   -7.912E-02   -7.673E-02   -7.434E-02   -7.195E-02   -6.955E-02   -6.716E-02   -6.477E-02   -6.238E-02
    -5.998E-02   -5.759E-02   -5.520E-02   -5.281E-02   -5.041E-02   -4.802E-02   -4.563E-02   -4.324E-02   -4.084E-02   -3.845E-02
    -3.606E-02   -3.366E-02   -3.127E-02   -2.888E-02   -2.649E-02   -2.409E-02   -2.170E-02   -1.931E-02   -1.691E-02   -1.452E-02
    -1.213E-02   -9.736E-03   -7.343E-03   -4.949E-03   -2.556E-03   -1.633E-04    2.230E-03    4.623E-03    7.016E-03    9.409E-03
     1.180E-02    1.420E-02    1.659E-02    1.898E-02    2.138E-02    2.377E-02    2.616E-02    2.856E-02    3.095E-02    3.334E-02
     3.574E-02    3.813E-02    4.052E-02    4.292E-02    4.531E-02    4.770E-02    5.010E-02    5.249E-02    5.488E-02    5.728E-02
     5.967E-02    6.206E-02    6.446E-02    6.685E-02    6.924E-02    7.164E-02    7.403E-02    7.642E-02    7.882E-02    8.121E-02
     8.360E-02    8.600E-02    8.839E-02    9.078E-02    9.318E-02    9.557E-02    9.797E-02    1.004E-01    1.028E-01    1.051E-01
     1.075E-01    1.099E-01    1.123E-01    1.147E-01    1.171E-01    1.195E-01    1.219E-01    1.243E-01    1.267E-01    1.291E-01
     1.315E-01    1.339E-01    1.363E-01    1.387E-01    1.411E-01    1.434E-01    1.458E-01    1.482E-01    1.506E-01    1.530E-01
     1.554E-01    1.578E-01    1.602E-01    1.626E-01    1.650E-01    1.674E-01    1.698E-01    1.722E-01    1.746E-01    1.770E-01
     1.793E-01    1.817E-01    1.841E-01    1.865E-01    1.889E-01    1.913E-01    1.937E-01    1.961E-01    1.985E-01    2.009E-01
     2.033E-01    2.057E-01    2.081E-01    2.105E-01    2.129E-01    2.153E-01    2.176E-01    2.200E-01    2.224E-01    2.248E-01
     2.272E-01    2.296E-01    2.320E-01    2.344E-01    2.368E-01    2.392E-01    2.416E-01    2.440E-01    2.464E-01    2.488E-01
     2.512E-01    2.536E-01    2.559E-01    2.583E-01    2.607E-01    2.631E-01    2.655E-01    2.679E-01    2.703E-01    2.727E-01
     2.751E-01    2.775E-01    2.799E-01    2.823E-01    2.847E-01    2.871E-01    2.895E-01    2.919E-01    2.942E-01    2.966E-01
     2.990E-01    3.014E-01    3.038E-01    3.062E-01    3.086E-01    3.110E-01    3.134E-01    3.158E-01    3.182E-01    3.206E-01
     3.230E-01    3.254E-01    3.278E-01    3.302E-01    3.325E-01    3.349E-01    3.373E-01    3.397E-01
 Ala      Conc. = 2.28E+03
