 LCModel (Version 6.3-1L) Copyright: S.W. Provencher.          Ref.: Magn. Reson. Med. 30:672-679 (1993).                
 Slice#2 Row#11 Col#1  PD_05_press_2_raw_act
 36 lines in following concentration table = NCONC+1
    Conc.  %SD /Cr+PCr  Metabolite                                         
 4.23E+04  13%  32.069 Ala                                                 
    0.000 999%   0.000 Asp                                                 
 1.32E+03  20%   1.000 Cr                                                  
    0.000 999%   0.000 PCr                                                 
    0.000 999%   0.000 GABA                                                
  122.869 223% 9.3E-02 Glc                                                 
 2.16E+04  11%  16.401 Gln                                                 
    0.000 999%   0.000 Glu                                                 
  471.702  30%   0.358 GPC                                                 
    0.000 999%   0.000 PCh                                                 
 2.97E+03  17%   2.254 GSH                                                 
 8.19E+03  22%   6.212 Ins                                                 
    0.000 999%   0.000 Lac                                                 
    0.000 999%   0.000 NAA                                                 
    0.000 999%   0.000 NAAG                                                
  211.333  40%   0.160 Scyllo                                              
  682.121  65%   0.517 Tau                                                 
    0.000 999%   0.000 -CrCH2                                              
  471.702  30%   0.358 GPC+PCh                                             
    0.000 999%   0.000 NAA+NAAG                                            
 1.32E+03  20%   1.000 Cr+PCr                                              
 2.16E+04  11%  16.401 Glu+Gln                                             
 3.65E+03 204%   2.765 Lip13a                                              
 3.91E+03 117%   2.962 Lip13b                                              
 1.12E+04  24%   8.514 Lip09                                               
 1.38E+04  17%  10.453 MM09                                                
    0.000 999%   0.000 Lip20                                               
    0.000 999%   0.000 MM20                                                
 1.51E+04  18%  11.476 MM12                                                
    0.000 999%   0.000 MM14                                                
 3.45E+04  12%  26.199 MM17                                                
 7.55E+03  58%   5.727 Lip13a+Lip13b                                       
 2.27E+04  18%  17.203 MM14+Lip13a+Lip13b+MM12                             
 2.50E+04  13%  18.967 MM09+Lip09                                          
    0.000 999%   0.000 MM20+Lip20                                          
   6 lines in following misc. output table
  FWHM = 0.153 ppm    S/N =   9                                            
  Data shift = 0.031 ppm                                                   
  Ph: -80 deg     115.0 deg/ppm                                            
  alphaB,S = 4.1E-01,   4.7E+02                                            
    7 spline knots.   Ns = 9(2)                                            
  ( 6) 2 infls.   ( 1) 1 extrs.                                            
  498 points on ppm-axis = NY
      4.000000     3.992357     3.984714     3.977070     3.969427     3.961784     3.954141     3.946497     3.938854     3.931211
      3.923568     3.915925     3.908281     3.900638     3.892995     3.885352     3.877708     3.870065     3.862422     3.854779
      3.847136     3.839492     3.831849     3.824206     3.816563     3.808919     3.801276     3.793633     3.785990     3.778347
      3.770703     3.763060     3.755417     3.747774     3.740130     3.732487     3.724844     3.717201     3.709558     3.701914
      3.694271     3.686628     3.678985     3.671341     3.663698     3.656055     3.648412     3.640769     3.633125     3.625482
      3.617839     3.610196     3.602552     3.594909     3.587266     3.579623     3.571980     3.564336     3.556693     3.549050
      3.541407     3.533763     3.526120     3.518477     3.510834     3.503191     3.495547     3.487904     3.480261     3.472618
      3.464974     3.457331     3.449688     3.442045     3.434402     3.426758     3.419115     3.411472     3.403829     3.396185
      3.388542     3.380899     3.373256     3.365613     3.357969     3.350326     3.342683     3.335040     3.327396     3.319753
      3.312110     3.304467     3.296824     3.289180     3.281537     3.273894     3.266251     3.258607     3.250964     3.243321
      3.235678     3.228034     3.220391     3.212748     3.205105     3.197462     3.189818     3.182175     3.174532     3.166889
      3.159245     3.151602     3.143959     3.136316     3.128673     3.121029     3.113386     3.105743     3.098100     3.090456
      3.082813     3.075170     3.067527     3.059884     3.052240     3.044597     3.036954     3.029311     3.021667     3.014024
      3.006381     2.998738     2.991095     2.983451     2.975808     2.968165     2.960522     2.952878     2.945235     2.937592
      2.929949     2.922306     2.914662     2.907019     2.899376     2.891733     2.884089     2.876446     2.868803     2.861160
      2.853517     2.845873     2.838230     2.830587     2.822944     2.815300     2.807657     2.800014     2.792371     2.784728
      2.777084     2.769441     2.761798     2.754155     2.746511     2.738868     2.731225     2.723582     2.715939     2.708295
      2.700652     2.693009     2.685366     2.677722     2.670079     2.662436     2.654793     2.647150     2.639506     2.631863
      2.624220     2.616577     2.608933     2.601290     2.593647     2.586004     2.578361     2.570717     2.563074     2.555431
      2.547788     2.540144     2.532501     2.524858     2.517215     2.509572     2.501928     2.494285     2.486642     2.478999
      2.471355     2.463712     2.456069     2.448426     2.440783     2.433139     2.425496     2.417853     2.410210     2.402566
      2.394923     2.387280     2.379637     2.371994     2.364350     2.356707     2.349064     2.341421     2.333777     2.326134
      2.318491     2.310848     2.303205     2.295561     2.287918     2.280275     2.272632     2.264988     2.257345     2.249702
      2.242059     2.234416     2.226772     2.219129     2.211486     2.203843     2.196199     2.188556     2.180913     2.173270
      2.165627     2.157983     2.150340     2.142697     2.135054     2.127410     2.119767     2.112124     2.104481     2.096838
      2.089194     2.081551     2.073908     2.066265     2.058621     2.050978     2.043335     2.035692     2.028049     2.020405
      2.012762     2.005119     1.997476     1.989833     1.982190     1.974546     1.966903     1.959260     1.951617     1.943974
      1.936331     1.928688     1.921045     1.913402     1.905759     1.898115     1.890472     1.882829     1.875186     1.867543
      1.859900     1.852257     1.844614     1.836971     1.829327     1.821684     1.814041     1.806398     1.798755     1.791112
      1.783469     1.775826     1.768183     1.760540     1.752896     1.745253     1.737610     1.729967     1.722324     1.714681
      1.707038     1.699395     1.691752     1.684108     1.676465     1.668822     1.661179     1.653536     1.645893     1.638250
      1.630607     1.622964     1.615321     1.607677     1.600034     1.592391     1.584748     1.577105     1.569462     1.561819
      1.554176     1.546533     1.538890     1.531246     1.523603     1.515960     1.508317     1.500674     1.493031     1.485388
      1.477745     1.470102     1.462458     1.454815     1.447172     1.439529     1.431886     1.424243     1.416600     1.408957
      1.401314     1.393671     1.386027     1.378384     1.370741     1.363098     1.355455     1.347812     1.340169     1.332526
      1.324883     1.317240     1.309596     1.301953     1.294310     1.286667     1.279024     1.271381     1.263738     1.256095
      1.248452     1.240808     1.233165     1.225522     1.217879     1.210236     1.202593     1.194950     1.187307     1.179664
      1.172021     1.164377     1.156734     1.149091     1.141448     1.133805     1.126162     1.118519     1.110876     1.103233
      1.095590     1.087946     1.080303     1.072660     1.065017     1.057374     1.049731     1.042088     1.034445     1.026802
      1.019158     1.011515     1.003872     0.996229     0.988586     0.980943     0.973300     0.965657     0.958014     0.950371
      0.942727     0.935084     0.927441     0.919798     0.912155     0.904512     0.896869     0.889226     0.881583     0.873940
      0.866296     0.858653     0.851010     0.843367     0.835724     0.828081     0.820438     0.812795     0.805152     0.797508
      0.789865     0.782222     0.774579     0.766936     0.759293     0.751650     0.744007     0.736364     0.728721     0.721077
      0.713434     0.705791     0.698148     0.690505     0.682862     0.675219     0.667576     0.659933     0.652290     0.644646
      0.637003     0.629360     0.621717     0.614074     0.606431     0.598788     0.591145     0.583502     0.575858     0.568215
      0.560572     0.552929     0.545286     0.537643     0.530000     0.522357     0.514714     0.507071     0.499427     0.491784
      0.484141     0.476498     0.468855     0.461212     0.453569     0.445925     0.438282     0.430639     0.422996     0.415353
      0.407710     0.400067     0.392424     0.384780     0.377137     0.369494     0.361851     0.354208     0.346565     0.338922
      0.331278     0.323635     0.315992     0.308349     0.300706     0.293063     0.285420     0.277777     0.270133     0.262490
      0.254847     0.247204     0.239561     0.231918     0.224275     0.216631     0.208988     0.201345
 NY phased data points follow
   8.12895E+01  7.83416E+01  8.02923E+01  7.71732E+01  7.98608E+01  7.93748E+01  7.68830E+01  7.57900E+01  7.83799E+01  7.59016E+01
   7.20616E+01  6.93565E+01  6.59353E+01  6.73536E+01  7.18496E+01  6.32164E+01  6.83297E+01  6.02256E+01  6.06635E+01  5.95296E+01
   5.89835E+01  5.40230E+01  5.51156E+01  5.41027E+01  5.53441E+01  5.62207E+01  5.36215E+01  4.90464E+01  5.72981E+01  5.10083E+01
   5.10106E+01  4.56813E+01  5.25603E+01  4.65497E+01  4.58250E+01  4.57742E+01  4.58093E+01  4.21759E+01  4.69974E+01  4.14699E+01
   4.09798E+01  4.32754E+01  4.03878E+01  4.22617E+01  3.98114E+01  4.08933E+01  3.85448E+01  3.61102E+01  3.40091E+01  3.32204E+01
   3.49615E+01  3.16128E+01  3.39756E+01  2.71198E+01  3.42942E+01  3.22463E+01  2.87865E+01  3.24644E+01  2.82754E+01  2.68737E+01
   2.23627E+01  2.56299E+01  2.82555E+01  2.67696E+01  2.56432E+01  2.76368E+01  2.58165E+01  2.33721E+01  2.22229E+01  2.03483E+01
   2.20645E+01  2.46521E+01  2.01288E+01  1.92476E+01  2.31210E+01  1.74472E+01  2.06213E+01  1.40182E+01  1.67211E+01  1.77421E+01
   1.58031E+01  1.44784E+01  1.37967E+01  1.51951E+01  1.10857E+01  1.29169E+01  1.41373E+01  1.07550E+01  1.59863E+01  7.34549E+00
   9.66448E+00  7.41298E+00  9.57920E+00  1.11918E+01  8.83299E+00  1.37177E+01  9.34592E+00  7.70139E+00  1.18681E+01  1.29064E+01
   9.73325E+00  7.34248E+00  1.20739E+01  7.29610E+00  7.40386E+00  4.97741E+00  7.94657E+00  6.60621E+00  5.55497E+00  6.35037E+00
   1.08306E+01  3.20299E+00  6.24913E+00  7.57910E+00  6.66660E+00  8.60105E+00  8.49699E+00  9.96102E+00  4.20596E+00  5.18420E+00
   1.46770E+01  1.41634E+01  9.02819E+00  1.07990E+01  1.75812E+01  1.62144E+01  1.29181E+01  1.71809E+01  1.77167E+01  1.69724E+01
   1.80597E+01  1.42317E+01  2.12179E+01  2.02365E+01  2.14770E+01  2.15803E+01  2.00959E+01  2.38140E+01  2.05693E+01  2.00596E+01
   2.20683E+01  2.06319E+01  2.11000E+01  1.88769E+01  2.15572E+01  1.97725E+01  1.81379E+01  1.72294E+01  1.47903E+01  1.91341E+01
   1.62769E+01  1.66264E+01  1.44613E+01  1.38841E+01  1.41893E+01  1.11173E+01  1.31653E+01  1.51401E+01  1.43201E+01  1.40102E+01
   1.11179E+01  1.02432E+01  9.93033E+00  1.20534E+01  7.72145E+00  1.00424E+01  1.13471E+01  1.23813E+01  7.13349E+00  7.82715E+00
   8.10540E+00  8.85639E+00  1.39395E+01  1.04710E+01  1.22018E+01  9.20181E+00  1.42126E+01  1.19595E+01  1.15799E+01  1.34887E+01
   1.23616E+01  1.75073E+01  1.63746E+01  1.65434E+01  1.58543E+01  1.77062E+01  1.71390E+01  2.08039E+01  2.18072E+01  2.29451E+01
   2.55889E+01  2.48447E+01  2.28581E+01  2.86476E+01  2.91696E+01  3.06527E+01  3.18296E+01  3.73247E+01  3.93990E+01  4.20712E+01
   3.97263E+01  4.26783E+01  4.03068E+01  4.93559E+01  4.90187E+01  4.88048E+01  4.73737E+01  5.17443E+01  5.06023E+01  5.32119E+01
   5.26193E+01  5.46841E+01  5.61665E+01  5.25187E+01  5.71590E+01  5.37063E+01  5.41337E+01  5.39659E+01  6.13724E+01  5.63341E+01
   5.27477E+01  5.96546E+01  5.52315E+01  5.94183E+01  5.50071E+01  5.19776E+01  5.22909E+01  4.99590E+01  5.00828E+01  5.02232E+01
   4.66033E+01  4.30902E+01  4.14752E+01  4.11897E+01  3.17006E+01  2.79428E+01  2.09626E+01  2.50039E+01  1.35897E+01  1.56122E+01
   1.38111E+01  9.72453E+00  6.96600E+00 -2.70690E+00 -5.90277E+00 -3.33710E+00 -1.11768E+01 -7.84685E+00 -1.68270E+01 -1.73863E+01
  -1.84467E+01 -1.86446E+01 -1.77790E+01 -2.19025E+01 -2.02286E+01 -2.40741E+01 -2.82608E+01 -2.88644E+01 -3.52284E+01 -3.11183E+01
  -3.42547E+01 -3.19297E+01 -3.90267E+01 -3.26783E+01 -3.21753E+01 -3.31684E+01 -3.57778E+01 -3.64754E+01 -3.69679E+01 -3.78920E+01
  -3.59596E+01 -3.69140E+01 -3.16847E+01 -3.33737E+01 -3.03215E+01 -2.97032E+01 -3.14936E+01 -2.86558E+01 -2.97741E+01 -2.55354E+01
  -2.74632E+01 -2.23828E+01 -1.97296E+01 -1.95593E+01 -1.63503E+01 -1.63557E+01 -1.48877E+01 -1.11063E+01 -7.90087E+00 -1.04262E+01
  -5.63769E+00 -1.70988E+00  1.63603E-01  3.66064E+00  4.98597E+00  5.04780E+00  7.79044E+00  1.54898E+01  1.51390E+01  1.62363E+01
   1.70362E+01  2.02982E+01  2.48080E+01  3.06038E+01  2.50695E+01  2.98273E+01  3.54882E+01  3.18156E+01  3.53342E+01  4.09638E+01
   3.50171E+01  3.95273E+01  3.79629E+01  3.45672E+01  3.50008E+01  3.21805E+01  2.69032E+01  1.99435E+01  1.56446E+01  7.91609E+00
  -5.89723E+00 -1.25801E+01 -2.69243E+01 -3.38154E+01 -4.47961E+01 -5.03473E+01 -6.50700E+01 -7.77845E+01 -8.60595E+01 -9.19687E+01
  -1.04282E+02 -1.04069E+02 -1.03072E+02 -1.13034E+02 -1.15038E+02 -1.12419E+02 -1.20886E+02 -1.19008E+02 -1.17804E+02 -1.17656E+02
  -1.21100E+02 -1.15000E+02 -1.12619E+02 -1.06166E+02 -1.03347E+02 -1.02987E+02 -1.01516E+02 -9.21833E+01 -8.99602E+01 -8.34013E+01
  -8.39969E+01 -8.44666E+01 -7.62392E+01 -7.31599E+01 -7.55702E+01 -7.45756E+01 -7.06241E+01 -6.95729E+01 -6.95647E+01 -6.12806E+01
  -6.06426E+01 -5.70302E+01 -6.02835E+01 -5.02585E+01 -5.51290E+01 -5.14382E+01 -4.69063E+01 -4.89506E+01 -4.70545E+01 -4.53432E+01
  -4.36548E+01 -3.98906E+01 -4.39527E+01 -3.70773E+01 -3.75030E+01 -4.04477E+01 -3.74287E+01 -3.39278E+01 -3.51453E+01 -3.43103E+01
  -3.72190E+01 -3.51931E+01 -3.76383E+01 -2.97355E+01 -3.27127E+01 -3.53776E+01 -3.20433E+01 -2.82117E+01 -3.34290E+01 -3.10159E+01
  -3.39211E+01 -2.84084E+01 -3.13651E+01 -2.96819E+01 -3.05087E+01 -2.81740E+01 -2.57070E+01 -2.68992E+01 -3.47936E+01 -2.72761E+01
  -2.25216E+01 -3.01169E+01 -2.50158E+01 -2.67260E+01 -2.52970E+01 -2.32382E+01 -2.06368E+01 -1.83737E+01 -2.16152E+01 -2.16567E+01
  -2.35512E+01 -2.13929E+01 -2.08760E+01 -2.09084E+01 -2.19669E+01 -1.74463E+01 -2.32023E+01 -1.63811E+01 -1.85758E+01 -1.55337E+01
  -1.84781E+01 -1.54022E+01 -1.57330E+01 -1.68022E+01 -1.50898E+01 -1.29107E+01 -1.42448E+01 -1.20423E+01 -1.34278E+01 -1.04607E+01
  -1.07199E+01 -7.78451E+00 -1.03252E+01 -8.91016E+00 -9.25985E+00 -6.89304E+00 -8.95611E+00 -1.04284E+01 -1.07512E+01 -7.81564E+00
  -1.13613E+01 -4.53111E+00 -6.50056E+00 -3.63629E+00 -6.71044E+00 -8.51145E+00 -4.93004E+00 -3.95875E+00 -3.01475E+00 -5.28765E+00
  -1.77424E+00 -3.87550E+00 -5.58955E+00 -6.04508E+00 -5.38681E+00 -6.82290E-01 -7.03054E+00  1.63671E+00 -2.72185E+00 -3.06622E+00
   1.82349E+00 -1.48805E+00  4.98154E-01  1.65419E+00  8.15448E-01 -2.58620E+00  3.50407E+00  3.23386E+00  4.53717E+00  4.39709E+00
   5.71280E+00  2.65516E+00  5.10384E+00  2.21780E+00  1.48028E-01  1.12977E+00  4.96862E+00  7.20453E+00  7.06384E-01  5.08363E+00
   8.14572E+00  3.79644E+00  4.33398E+00  7.55501E+00  8.98633E+00  1.95225E+00  3.55894E+00  4.47907E+00  3.91386E+00  5.31857E+00
   5.70576E+00  6.15130E+00  6.65213E+00  7.30420E+00  9.42472E+00  5.97838E+00  8.50442E+00  5.62158E+00
 NY points of the fit to the data follow
   7.29695E+01  7.13253E+01  7.10870E+01  6.98573E+01  7.04861E+01  6.97266E+01  7.09204E+01  6.84372E+01  6.85205E+01  6.57000E+01
   6.57839E+01  6.43728E+01  6.52647E+01  6.44170E+01  6.53631E+01  6.57482E+01  6.56801E+01  6.65736E+01  6.50101E+01  6.70126E+01
   6.47143E+01  6.71635E+01  6.32590E+01  6.63729E+01  6.14914E+01  6.52380E+01  5.96413E+01  6.35581E+01  5.73526E+01  6.11249E+01
   5.49782E+01  5.89678E+01  5.29471E+01  5.63922E+01  5.06588E+01  5.33813E+01  4.82167E+01  5.01762E+01  4.55847E+01  4.67808E+01
   4.28916E+01  4.35682E+01  4.04567E+01  4.08939E+01  3.84912E+01  3.84819E+01  3.61733E+01  3.51362E+01  3.24198E+01  3.15075E+01
   2.94122E+01  2.92062E+01  2.79012E+01  2.80728E+01  2.69158E+01  2.74982E+01  2.61005E+01  2.65058E+01  2.48679E+01  2.52106E+01
   2.36499E+01  2.38684E+01  2.21740E+01  2.24530E+01  2.10093E+01  2.14161E+01  2.01986E+01  2.07156E+01  1.98479E+01  2.01855E+01
   1.94388E+01  1.93881E+01  1.85558E+01  1.78714E+01  1.70431E+01  1.59193E+01  1.52863E+01  1.38874E+01  1.35639E+01  1.19579E+01
   1.21085E+01  1.02741E+01  1.08462E+01  9.22278E+00  1.08103E+01  9.04544E+00  1.09329E+01  9.01125E+00  1.11321E+01  9.26334E+00
   1.16178E+01  9.84360E+00  1.22335E+01  1.05450E+01  1.27600E+01  1.11891E+01  1.30896E+01  1.16366E+01  1.31081E+01  1.17615E+01
   1.27259E+01  1.15059E+01  1.19639E+01  1.09333E+01  1.09838E+01  1.02016E+01  1.00180E+01  9.57586E+00  9.37437E+00  9.69135E+00
   9.66831E+00  9.99791E+00  1.02306E+01  1.06147E+01  1.14591E+01  1.20550E+01  1.34361E+01  1.36487E+01  1.55178E+01  1.51181E+01
   1.74085E+01  1.65267E+01  1.92199E+01  1.79691E+01  2.10046E+01  1.90752E+01  2.18836E+01  1.93897E+01  2.19567E+01  1.91636E+01
   2.15107E+01  1.85814E+01  2.06489E+01  1.77012E+01  1.94530E+01  1.66026E+01  1.80009E+01  1.53905E+01  1.64866E+01  1.42380E+01
   1.50667E+01  1.32452E+01  1.38692E+01  1.25554E+01  1.30903E+01  1.22690E+01  1.27813E+01  1.24361E+01  1.30003E+01  1.30607E+01
   1.37345E+01  1.37844E+01  1.44222E+01  1.45438E+01  1.51775E+01  1.54041E+01  1.59683E+01  1.61130E+01  1.65913E+01  1.67624E+01
   1.72241E+01  1.75511E+01  1.80609E+01  1.85099E+01  1.90479E+01  1.95017E+01  2.00153E+01  2.03416E+01  2.08721E+01  2.11056E+01
   2.16585E+01  2.18862E+01  2.26142E+01  2.28943E+01  2.37002E+01  2.35509E+01  2.42770E+01  2.33883E+01  2.37893E+01  2.23137E+01
   2.25048E+01  2.10948E+01  2.18220E+01  2.12696E+01  2.24148E+01  2.23295E+01  2.40526E+01  2.43463E+01  2.59813E+01  2.62135E+01
   2.67284E+01  2.52010E+01  2.56031E+01  2.46178E+01  2.51266E+01  2.45244E+01  2.49112E+01  2.43359E+01  2.44781E+01  2.40025E+01
   2.39978E+01  2.39924E+01  2.40169E+01  2.48202E+01  2.50745E+01  2.67926E+01  2.73595E+01  2.99264E+01  3.07132E+01  3.38205E+01
   3.46365E+01  3.80033E+01  3.87149E+01  4.18746E+01  4.23332E+01  4.53290E+01  4.52069E+01  4.68498E+01  4.64579E+01  4.79460E+01
   4.79189E+01  4.94207E+01  5.03738E+01  5.15096E+01  5.15399E+01  5.16939E+01  5.03855E+01  4.96352E+01  4.68282E+01  4.52706E+01
   4.07495E+01  3.86831E+01  3.34044E+01  3.25695E+01  2.67024E+01  2.68761E+01  2.04345E+01  2.13811E+01  1.43723E+01  1.60751E+01
   8.69559E+00  1.11445E+01  3.88085E+00  7.01151E+00  1.98438E-02  3.54429E+00 -3.20711E+00  3.24871E-01 -6.17416E+00 -2.86440E+00
  -8.89492E+00 -5.97906E+00 -1.13063E+01 -8.81354E+00 -1.34047E+01 -1.14344E+01 -1.53486E+01 -1.41822E+01 -1.74632E+01 -1.65043E+01
  -1.90377E+01 -1.83994E+01 -2.04698E+01 -2.02576E+01 -2.26064E+01 -2.29771E+01 -2.53716E+01 -2.61990E+01 -2.83873E+01 -2.93918E+01
  -3.11801E+01 -3.21461E+01 -3.33074E+01 -3.40018E+01 -3.46382E+01 -3.50360E+01 -3.51972E+01 -3.52236E+01 -3.49563E+01 -3.44711E+01
  -3.36920E+01 -3.25832E+01 -3.11136E+01 -2.92741E+01 -2.70510E+01 -2.44565E+01 -2.14872E+01 -1.81862E+01 -1.45719E+01 -1.07112E+01
  -6.64637E+00 -2.46819E+00  1.76056E+00  5.93220E+00  9.97031E+00  1.37618E+01  1.72299E+01  2.02722E+01  2.28267E+01  2.48173E+01
   2.62132E+01  2.69866E+01  2.71579E+01  2.67726E+01  2.59437E+01  2.48645E+01  2.39046E+01  2.38681E+01  2.67577E+01  3.31048E+01
   3.46146E+01  4.05412E+01  3.83729E+01  4.25643E+01  3.54370E+01  3.56518E+01  2.03676E+01  2.20435E+01  5.62872E+00  7.92552E+00
  -1.02929E+01 -9.22346E+00 -2.93024E+01 -2.96086E+01 -4.99920E+01 -5.15103E+01 -6.99526E+01 -7.21205E+01 -8.67875E+01 -8.91759E+01
  -9.91672E+01 -1.01597E+02 -1.06755E+02 -1.09958E+02 -1.11215E+02 -1.15860E+02 -1.13929E+02 -1.19535E+02 -1.14615E+02 -1.20000E+02
  -1.12380E+02 -1.16951E+02 -1.07430E+02 -1.11220E+02 -1.01456E+02 -1.04874E+02 -9.56494E+01 -9.73916E+01 -8.85464E+01 -8.76525E+01
  -8.10540E+01 -8.05469E+01 -7.59235E+01 -7.54621E+01 -7.28069E+01 -7.22241E+01 -7.10202E+01 -6.87357E+01 -6.59642E+01 -6.31500E+01
  -6.05516E+01 -5.82757E+01 -5.63129E+01 -5.45790E+01 -5.29574E+01 -5.13368E+01 -4.96392E+01 -4.78345E+01 -4.59416E+01 -4.40197E+01
  -4.21530E+01 -4.04333E+01 -3.89440E+01 -3.77483E+01 -3.68812E+01 -3.63477E+01 -3.61235E+01 -3.61590E+01 -3.63859E+01 -3.67246E+01
  -3.70917E+01 -3.74073E+01 -3.76011E+01 -3.76173E+01 -3.74175E+01 -3.69828E+01 -3.63133E+01 -3.54270E+01 -3.43571E+01 -3.31485E+01
  -3.18535E+01 -3.05281E+01 -2.92273E+01 -2.80017E+01 -2.68944E+01 -2.59386E+01 -2.51561E+01 -2.45568E+01 -2.41389E+01 -2.38898E+01
  -2.37878E+01 -2.38038E+01 -2.39036E+01 -2.40504E+01 -2.42067E+01 -2.43365E+01 -2.44073E+01 -2.43913E+01 -2.42664E+01 -2.40171E+01
  -2.36347E+01 -2.31170E+01 -2.24682E+01 -2.16983E+01 -2.08218E+01 -1.98574E+01 -1.88263E+01 -1.77515E+01 -1.66566E+01 -1.55649E+01
  -1.44983E+01 -1.34769E+01 -1.25181E+01 -1.16361E+01 -1.08421E+01 -1.01436E+01 -9.54495E+00 -9.04725E+00 -8.64861E+00 -8.34469E+00
  -8.12896E+00 -7.99321E+00 -7.92804E+00 -7.92321E+00 -7.96809E+00 -8.05202E+00 -8.16462E+00 -8.29603E+00 -8.43707E+00 -8.57946E+00
  -8.71581E+00 -8.83970E+00 -8.94568E+00 -9.02922E+00 -9.08677E+00 -9.11541E+00 -9.11317E+00 -9.07853E+00 -9.01072E+00 -8.90928E+00
  -8.77436E+00 -8.60619E+00 -8.40558E+00 -8.17321E+00 -7.91029E+00 -7.61778E+00 -7.29710E+00 -6.94938E+00 -6.57608E+00 -6.17841E+00
  -5.75786E+00 -5.31559E+00 -4.85302E+00 -4.37136E+00 -3.87189E+00 -3.35575E+00 -2.82415E+00 -2.27814E+00 -1.71887E+00 -1.14730E+00
  -5.64458E-01  2.87284E-02  6.31318E-01  1.24245E+00  1.86128E+00  2.48698E+00  3.11877E+00  3.75586E+00  4.39751E+00  5.04300E+00
   5.69159E+00  6.34256E+00  6.99520E+00  7.64877E+00  8.30254E+00  8.95573E+00  9.60755E+00  1.02571E+01  1.09036E+01  1.15459E+01
   1.21830E+01  1.28135E+01  1.34360E+01  1.40488E+01  1.46498E+01  1.52365E+01  1.58057E+01  1.63533E+01
 NY background values follow
     1.873E+01    1.845E+01    1.817E+01    1.788E+01    1.758E+01    1.728E+01    1.697E+01    1.666E+01    1.634E+01    1.601E+01
     1.568E+01    1.535E+01    1.501E+01    1.466E+01    1.431E+01    1.396E+01    1.360E+01    1.324E+01    1.288E+01    1.251E+01
     1.214E+01    1.176E+01    1.139E+01    1.101E+01    1.062E+01    1.024E+01    9.852E+00    9.463E+00    9.072E+00    8.680E+00
     8.286E+00    7.891E+00    7.495E+00    7.098E+00    6.701E+00    6.303E+00    5.905E+00    5.507E+00    5.109E+00    4.712E+00
     4.315E+00    3.919E+00    3.523E+00    3.129E+00    2.737E+00    2.346E+00    1.956E+00    1.569E+00    1.183E+00    8.004E-01
     4.200E-01    4.224E-02   -3.326E-01   -7.042E-01   -1.073E+00   -1.437E+00   -1.799E+00   -2.156E+00   -2.509E+00   -2.858E+00
    -3.202E+00   -3.542E+00   -3.877E+00   -4.207E+00   -4.531E+00   -4.850E+00   -5.164E+00   -5.471E+00   -5.773E+00   -6.068E+00
    -6.357E+00   -6.640E+00   -6.915E+00   -7.184E+00   -7.445E+00   -7.699E+00   -7.946E+00   -8.185E+00   -8.416E+00   -8.638E+00
    -8.853E+00   -9.059E+00   -9.256E+00   -9.445E+00   -9.625E+00   -9.795E+00   -9.956E+00   -1.011E+01   -1.025E+01   -1.038E+01
    -1.050E+01   -1.061E+01   -1.072E+01   -1.081E+01   -1.089E+01   -1.095E+01   -1.101E+01   -1.106E+01   -1.109E+01   -1.112E+01
    -1.113E+01   -1.113E+01   -1.112E+01   -1.109E+01   -1.105E+01   -1.100E+01   -1.094E+01   -1.087E+01   -1.078E+01   -1.068E+01
    -1.056E+01   -1.043E+01   -1.029E+01   -1.013E+01   -9.965E+00   -9.781E+00   -9.583E+00   -9.370E+00   -9.143E+00   -8.901E+00
    -8.645E+00   -8.374E+00   -8.087E+00   -7.785E+00   -7.468E+00   -7.136E+00   -6.789E+00   -6.426E+00   -6.049E+00   -5.658E+00
    -5.253E+00   -4.834E+00   -4.403E+00   -3.959E+00   -3.502E+00   -3.034E+00   -2.554E+00   -2.062E+00   -1.560E+00   -1.048E+00
    -5.258E-01    5.931E-03    5.467E-01    1.096E+00    1.654E+00    2.219E+00    2.792E+00    3.372E+00    3.958E+00    4.550E+00
     5.147E+00    5.750E+00    6.357E+00    6.969E+00    7.584E+00    8.202E+00    8.823E+00    9.446E+00    1.007E+01    1.070E+01
     1.132E+01    1.195E+01    1.258E+01    1.320E+01    1.383E+01    1.445E+01    1.507E+01    1.569E+01    1.630E+01    1.691E+01
     1.752E+01    1.812E+01    1.872E+01    1.931E+01    1.989E+01    2.047E+01    2.104E+01    2.160E+01    2.215E+01    2.270E+01
     2.323E+01    2.376E+01    2.427E+01    2.477E+01    2.527E+01    2.575E+01    2.621E+01    2.667E+01    2.711E+01    2.753E+01
     2.794E+01    2.834E+01    2.872E+01    2.908E+01    2.943E+01    2.976E+01    3.007E+01    3.036E+01    3.064E+01    3.089E+01
     3.113E+01    3.134E+01    3.154E+01    3.171E+01    3.186E+01    3.199E+01    3.209E+01    3.218E+01    3.223E+01    3.227E+01
     3.228E+01    3.226E+01    3.222E+01    3.216E+01    3.206E+01    3.194E+01    3.179E+01    3.162E+01    3.141E+01    3.118E+01
     3.092E+01    3.063E+01    3.030E+01    2.995E+01    2.957E+01    2.915E+01    2.871E+01    2.823E+01    2.772E+01    2.717E+01
     2.659E+01    2.598E+01    2.534E+01    2.466E+01    2.395E+01    2.320E+01    2.241E+01    2.159E+01    2.074E+01    1.985E+01
     1.892E+01    1.795E+01    1.695E+01    1.591E+01    1.483E+01    1.371E+01    1.256E+01    1.136E+01    1.013E+01    8.858E+00
     7.547E+00    6.199E+00    4.814E+00    3.392E+00    1.935E+00    4.443E-01   -1.080E+00   -2.637E+00   -4.225E+00   -5.844E+00
    -7.493E+00   -9.170E+00   -1.088E+01   -1.261E+01   -1.437E+01   -1.615E+01   -1.796E+01   -1.979E+01   -2.164E+01   -2.351E+01
    -2.541E+01   -2.732E+01   -2.925E+01   -3.120E+01   -3.317E+01   -3.515E+01   -3.715E+01   -3.916E+01   -4.118E+01   -4.322E+01
    -4.526E+01   -4.732E+01   -4.938E+01   -5.146E+01   -5.354E+01   -5.563E+01   -5.772E+01   -5.982E+01   -6.192E+01   -6.402E+01
    -6.613E+01   -6.824E+01   -7.034E+01   -7.245E+01   -7.455E+01   -7.666E+01   -7.875E+01   -8.085E+01   -8.294E+01   -8.502E+01
    -8.710E+01   -8.917E+01   -9.123E+01   -9.328E+01   -9.532E+01   -9.735E+01   -9.937E+01   -1.014E+02   -1.034E+02   -1.053E+02
    -1.073E+02   -1.092E+02   -1.112E+02   -1.131E+02   -1.150E+02   -1.169E+02   -1.187E+02   -1.206E+02   -1.224E+02   -1.242E+02
    -1.259E+02   -1.277E+02   -1.294E+02   -1.311E+02   -1.328E+02   -1.344E+02   -1.360E+02   -1.376E+02   -1.392E+02   -1.407E+02
    -1.422E+02   -1.437E+02   -1.452E+02   -1.466E+02   -1.480E+02   -1.493E+02   -1.506E+02   -1.519E+02   -1.532E+02   -1.544E+02
    -1.556E+02   -1.568E+02   -1.579E+02   -1.590E+02   -1.600E+02   -1.610E+02   -1.620E+02   -1.629E+02   -1.638E+02   -1.647E+02
    -1.655E+02   -1.663E+02   -1.670E+02   -1.677E+02   -1.683E+02   -1.690E+02   -1.695E+02   -1.701E+02   -1.706E+02   -1.710E+02
    -1.714E+02   -1.718E+02   -1.721E+02   -1.724E+02   -1.727E+02   -1.729E+02   -1.730E+02   -1.731E+02   -1.732E+02   -1.733E+02
    -1.732E+02   -1.732E+02   -1.731E+02   -1.729E+02   -1.728E+02   -1.725E+02   -1.723E+02   -1.719E+02   -1.716E+02   -1.712E+02
    -1.708E+02   -1.703E+02   -1.698E+02   -1.693E+02   -1.687E+02   -1.681E+02   -1.674E+02   -1.668E+02   -1.661E+02   -1.653E+02
    -1.646E+02   -1.638E+02   -1.629E+02   -1.621E+02   -1.612E+02   -1.603E+02   -1.593E+02   -1.584E+02   -1.574E+02   -1.564E+02
    -1.553E+02   -1.543E+02   -1.532E+02   -1.521E+02   -1.510E+02   -1.498E+02   -1.487E+02   -1.475E+02   -1.463E+02   -1.451E+02
    -1.439E+02   -1.426E+02   -1.413E+02   -1.401E+02   -1.388E+02   -1.375E+02   -1.361E+02   -1.348E+02   -1.335E+02   -1.321E+02
    -1.308E+02   -1.294E+02   -1.280E+02   -1.266E+02   -1.252E+02   -1.238E+02   -1.224E+02   -1.209E+02   -1.195E+02   -1.181E+02
    -1.166E+02   -1.152E+02   -1.137E+02   -1.123E+02   -1.108E+02   -1.094E+02   -1.079E+02   -1.064E+02   -1.050E+02   -1.035E+02
    -1.020E+02   -1.005E+02   -9.906E+01   -9.759E+01   -9.611E+01   -9.464E+01   -9.317E+01   -9.170E+01   -9.023E+01   -8.876E+01
    -8.730E+01   -8.583E+01   -8.437E+01   -8.292E+01   -8.147E+01   -8.002E+01   -7.857E+01   -7.713E+01   -7.569E+01   -7.426E+01
    -7.283E+01   -7.141E+01   -6.999E+01   -6.857E+01   -6.717E+01   -6.576E+01   -6.437E+01   -6.297E+01   -6.159E+01   -6.021E+01
    -5.884E+01   -5.747E+01   -5.611E+01   -5.475E+01   -5.340E+01   -5.206E+01   -5.072E+01   -4.939E+01   -4.807E+01   -4.675E+01
    -4.544E+01   -4.414E+01   -4.284E+01   -4.154E+01   -4.026E+01   -3.898E+01   -3.770E+01   -3.643E+01   -3.517E+01   -3.391E+01
    -3.266E+01   -3.141E+01   -3.017E+01   -2.893E+01   -2.770E+01   -2.647E+01   -2.524E+01   -2.402E+01
 Ala      Conc. = 4.23E+04
