 LCModel (Version 6.3-1L) Copyright: S.W. Provencher.          Ref.: Magn. Reson. Med. 30:672-679 (1993).                
 Slice#1 Row#2 Col#10  PD_05_press_2_raw_act
 36 lines in following concentration table = NCONC+1
    Conc.  %SD /Cr+PCr  Metabolite                                         
    0.000 999%   0.000 Ala                                                 
   31.939  97%   1.616 Asp                                                 
    0.000 999%   0.000 Cr                                                  
   19.767 477%   1.000 PCr                                                 
   21.585  86%   1.092 GABA                                                
   19.781  94%   1.001 Glc                                                 
  133.806 336%   6.769 Gln                                                 
  173.746 284%   8.790 Glu                                                 
    0.000 999%   0.000 GPC                                                 
    0.000 999%   0.000 PCh                                                 
   41.011 357%   2.075 GSH                                                 
  716.352  64%  36.241 Ins                                                 
  823.298  30%  41.651 Lac                                                 
  541.244  26%  27.382 NAA                                                 
  117.297 128%   5.934 NAAG                                                
    6.673  93%   0.338 Scyllo                                              
   29.874 104%   1.511 Tau                                                 
    0.000 999%   0.000 -CrCH2                                              
    0.000 999%   0.000 GPC+PCh                                             
  658.540  21%  33.316 NAA+NAAG                                            
   19.767 477%   1.000 Cr+PCr                                              
  307.552 218%  15.559 Glu+Gln                                             
    0.000 999%   0.000 Lip13a                                              
    0.000 999%   0.000 Lip13b                                              
    0.000 999%   0.000 Lip09                                               
 1.03E+03  25%  52.350 MM09                                                
 3.91E-04 999% 2.0E-05 Lip20                                               
 1.68E+03  25%  85.087 MM20                                                
  293.262  38%  14.836 MM12                                                
 1.28E+03  24%  64.567 MM14                                                
    0.000 999%   0.000 MM17                                                
    0.000 999%   0.000 Lip13a+Lip13b                                       
 1.57E+03  23%  79.404 MM14+Lip13a+Lip13b+MM12                             
 1.03E+03  25%  52.350 MM09+Lip09                                          
 1.68E+03  25%  85.087 MM20+Lip20                                          
   6 lines in following misc. output table
  FWHM = 0.054 ppm    S/N =   1                                            
  Data shift = 0.084 ppm                                                   
  Ph:-133 deg      66.6 deg/ppm                                            
  alphaB,S = 8.5E+01,   1.0E+02                                            
   14 spline knots.   Ns = 5(1)                                            
  ( 7) 2 infls.   ( 6) 3 extrs.                                            
  498 points on ppm-axis = NY
      4.000000     3.992357     3.984714     3.977070     3.969427     3.961784     3.954141     3.946497     3.938854     3.931211
      3.923568     3.915925     3.908281     3.900638     3.892995     3.885352     3.877708     3.870065     3.862422     3.854779
      3.847136     3.839492     3.831849     3.824206     3.816563     3.808919     3.801276     3.793633     3.785990     3.778347
      3.770703     3.763060     3.755417     3.747774     3.740130     3.732487     3.724844     3.717201     3.709558     3.701914
      3.694271     3.686628     3.678985     3.671341     3.663698     3.656055     3.648412     3.640769     3.633125     3.625482
      3.617839     3.610196     3.602552     3.594909     3.587266     3.579623     3.571980     3.564336     3.556693     3.549050
      3.541407     3.533763     3.526120     3.518477     3.510834     3.503191     3.495547     3.487904     3.480261     3.472618
      3.464974     3.457331     3.449688     3.442045     3.434402     3.426758     3.419115     3.411472     3.403829     3.396185
      3.388542     3.380899     3.373256     3.365613     3.357969     3.350326     3.342683     3.335040     3.327396     3.319753
      3.312110     3.304467     3.296824     3.289180     3.281537     3.273894     3.266251     3.258607     3.250964     3.243321
      3.235678     3.228034     3.220391     3.212748     3.205105     3.197462     3.189818     3.182175     3.174532     3.166889
      3.159245     3.151602     3.143959     3.136316     3.128673     3.121029     3.113386     3.105743     3.098100     3.090456
      3.082813     3.075170     3.067527     3.059884     3.052240     3.044597     3.036954     3.029311     3.021667     3.014024
      3.006381     2.998738     2.991095     2.983451     2.975808     2.968165     2.960522     2.952878     2.945235     2.937592
      2.929949     2.922306     2.914662     2.907019     2.899376     2.891733     2.884089     2.876446     2.868803     2.861160
      2.853517     2.845873     2.838230     2.830587     2.822944     2.815300     2.807657     2.800014     2.792371     2.784728
      2.777084     2.769441     2.761798     2.754155     2.746511     2.738868     2.731225     2.723582     2.715939     2.708295
      2.700652     2.693009     2.685366     2.677722     2.670079     2.662436     2.654793     2.647150     2.639506     2.631863
      2.624220     2.616577     2.608933     2.601290     2.593647     2.586004     2.578361     2.570717     2.563074     2.555431
      2.547788     2.540144     2.532501     2.524858     2.517215     2.509572     2.501928     2.494285     2.486642     2.478999
      2.471355     2.463712     2.456069     2.448426     2.440783     2.433139     2.425496     2.417853     2.410210     2.402566
      2.394923     2.387280     2.379637     2.371994     2.364350     2.356707     2.349064     2.341421     2.333777     2.326134
      2.318491     2.310848     2.303205     2.295561     2.287918     2.280275     2.272632     2.264988     2.257345     2.249702
      2.242059     2.234416     2.226772     2.219129     2.211486     2.203843     2.196199     2.188556     2.180913     2.173270
      2.165627     2.157983     2.150340     2.142697     2.135054     2.127410     2.119767     2.112124     2.104481     2.096838
      2.089194     2.081551     2.073908     2.066265     2.058621     2.050978     2.043335     2.035692     2.028049     2.020405
      2.012762     2.005119     1.997476     1.989833     1.982190     1.974546     1.966903     1.959260     1.951617     1.943974
      1.936331     1.928688     1.921045     1.913402     1.905759     1.898115     1.890472     1.882829     1.875186     1.867543
      1.859900     1.852257     1.844614     1.836971     1.829327     1.821684     1.814041     1.806398     1.798755     1.791112
      1.783469     1.775826     1.768183     1.760540     1.752896     1.745253     1.737610     1.729967     1.722324     1.714681
      1.707038     1.699395     1.691752     1.684108     1.676465     1.668822     1.661179     1.653536     1.645893     1.638250
      1.630607     1.622964     1.615321     1.607677     1.600034     1.592391     1.584748     1.577105     1.569462     1.561819
      1.554176     1.546533     1.538890     1.531246     1.523603     1.515960     1.508317     1.500674     1.493031     1.485388
      1.477745     1.470102     1.462458     1.454815     1.447172     1.439529     1.431886     1.424243     1.416600     1.408957
      1.401314     1.393671     1.386027     1.378384     1.370741     1.363098     1.355455     1.347812     1.340169     1.332526
      1.324883     1.317240     1.309596     1.301953     1.294310     1.286667     1.279024     1.271381     1.263738     1.256095
      1.248452     1.240808     1.233165     1.225522     1.217879     1.210236     1.202593     1.194950     1.187307     1.179664
      1.172021     1.164377     1.156734     1.149091     1.141448     1.133805     1.126162     1.118519     1.110876     1.103233
      1.095590     1.087946     1.080303     1.072660     1.065017     1.057374     1.049731     1.042088     1.034445     1.026802
      1.019158     1.011515     1.003872     0.996229     0.988586     0.980943     0.973300     0.965657     0.958014     0.950371
      0.942727     0.935084     0.927441     0.919798     0.912155     0.904512     0.896869     0.889226     0.881583     0.873940
      0.866296     0.858653     0.851010     0.843367     0.835724     0.828081     0.820438     0.812795     0.805152     0.797508
      0.789865     0.782222     0.774579     0.766936     0.759293     0.751650     0.744007     0.736364     0.728721     0.721077
      0.713434     0.705791     0.698148     0.690505     0.682862     0.675219     0.667576     0.659933     0.652290     0.644646
      0.637003     0.629360     0.621717     0.614074     0.606431     0.598788     0.591145     0.583502     0.575858     0.568215
      0.560572     0.552929     0.545286     0.537643     0.530000     0.522357     0.514714     0.507071     0.499427     0.491784
      0.484141     0.476498     0.468855     0.461212     0.453569     0.445925     0.438282     0.430639     0.422996     0.415353
      0.407710     0.400067     0.392424     0.384780     0.377137     0.369494     0.361851     0.354208     0.346565     0.338922
      0.331278     0.323635     0.315992     0.308349     0.300706     0.293063     0.285420     0.277777     0.270133     0.262490
      0.254847     0.247204     0.239561     0.231918     0.224275     0.216631     0.208988     0.201345
 NY phased data points follow
   6.97385E+00  5.31585E+00  1.86410E+01 -3.08855E+00  5.41654E+00 -2.44161E+00  2.40835E+01  6.69682E+00  1.58531E+01 -4.87906E-01
   5.02619E+00 -8.86628E+00 -1.12662E+00 -9.68557E-01  1.22325E+01  4.80572E+00  2.05275E+01  2.80551E+00  1.16916E+01 -7.28706E+00
   1.27719E+01 -6.75443E-01  5.53727E+00 -4.36839E+00  8.81149E-01 -1.49148E+01  2.76399E+00 -6.95103E+00  9.16333E+00 -1.27428E+01
   5.23078E+00 -6.23795E+00  2.65109E+00  2.51501E+00  3.87329E+00  4.57895E+00  7.30868E+00  2.07380E+00  1.24399E+01 -2.00382E+00
   1.09390E+01 -4.91614E+00  1.31666E+00  2.38764E+00  3.10640E+00 -6.33559E+00  7.74500E+00  1.38248E+01  1.60024E+01  1.63239E+01
   5.89411E-01  3.27889E+00 -7.31188E+00 -1.16413E+01 -4.64404E+00 -2.27238E-01  1.74241E+00 -8.25427E+00 -4.04237E-01 -3.40888E+00
   2.53133E+00  1.32883E+00  1.55656E+00  5.80339E+00 -1.31230E-01 -2.05701E+00  3.47080E+00 -1.63188E+00 -8.34346E+00  8.08630E+00
  -9.47108E+00 -7.30293E+00  1.74196E+01  6.68333E+00 -1.13061E-01 -3.28026E+00  1.14239E+01 -1.23472E+01  1.31262E+00  5.68152E+00
  -3.94894E+00  5.15571E+00  1.13516E+01 -3.03134E+00  4.10723E+00  6.33631E-01  3.78010E+00  1.47992E+00  1.42128E+00 -8.04062E+00
   2.07641E+00  1.42834E+00  6.35256E+00  4.23568E+00  4.28238E+00  1.07049E+01 -2.95112E-01 -1.04177E+01 -3.08017E+00  8.87066E+00
  -6.72946E+00 -1.42354E+00  7.48379E+00  3.53478E-01 -7.30395E+00 -2.76918E+00  9.13182E+00  3.79042E+00 -2.91690E+00 -2.41232E+00
  -3.79353E+00  2.28977E+00  8.16606E+00  1.10906E-01  3.06419E-01 -6.01319E+00  5.02430E+00 -9.87142E-01  1.55345E+01 -1.27484E+01
   3.36913E+00 -5.59293E+00 -1.66256E+00 -1.01621E+01  6.38819E+00  6.35604E+00  3.34354E+00  7.24363E+00  1.84739E+01  6.07611E+00
   1.12278E+01  1.14293E+01 -3.19876E-01 -3.18618E+00  8.54277E+00  3.73958E+00  5.94251E+00  4.63852E+00  1.07397E+01  1.47656E-01
   1.40146E+01 -9.40024E+00  1.04923E+01  3.56220E+00  2.42904E-01  6.12564E+00  4.95894E+00 -2.59739E+00  8.40797E+00 -1.15230E+01
   1.30304E+00 -1.61481E+00  1.61073E+00  8.62016E-01  3.95933E+00  1.50436E+01  6.17330E+00  6.99592E+00 -1.30450E+01 -8.89948E+00
   1.16901E+01  1.39905E+01  1.26620E+01  8.41502E+00 -7.19881E+00 -4.80580E+00 -9.75917E+00 -5.14743E+00 -4.30924E+00  2.96854E-01
  -4.70013E+00  5.34145E+00  4.19607E+00 -6.90442E-02  4.54684E+00  1.16981E+01 -7.30408E+00 -9.01080E+00 -1.05502E+01 -1.61113E-02
  -5.54492E+00 -1.06968E-01 -3.89285E+00 -2.61907E+00  8.17394E+00 -8.35607E+00 -8.02319E-01  4.27230E+00 -3.95725E-01  5.50063E+00
  -8.23517E+00 -3.84332E+00  1.18800E+01  9.58214E+00  3.46746E+00 -1.36323E+01  1.57261E+01 -2.98436E+00  1.95378E+00 -5.35113E+00
  -1.26655E+00  1.55651E+01  6.41192E-01 -1.77328E+00 -4.45550E+00  1.46795E+01  1.06068E+01  4.82101E+00  8.73091E+00 -8.46804E+00
  -3.21114E+00 -4.84716E+00 -1.89159E+00 -9.78800E+00  2.10625E+00 -2.48838E+00  7.06799E+00  2.24190E+00 -1.10163E+00 -9.08730E+00
  -2.57169E+00 -4.27217E+00 -2.83143E+00  5.67518E+00  1.20109E+01  2.83724E+00  3.86888E+00 -3.60062E+00 -1.13683E+01  1.03448E+00
  -4.75269E+00  1.00198E+01 -4.31549E+00  9.53686E-01  2.85045E+00 -2.91797E+00  2.27131E+00  2.20514E+01  6.06655E+00  2.57306E+00
   7.45877E+00 -1.21039E+01  4.34968E+00 -5.46783E+00 -4.04659E+00  4.51775E+00  2.40640E+00 -5.37569E+00  7.71535E-01  9.65326E+00
   1.46951E+01  1.29173E+01  7.22471E+00  4.41528E+00 -4.75370E+00 -6.46790E+00  1.61387E+01  1.66302E+01  1.82795E+01  2.46923E+01
   1.39345E+01  1.22554E+01  1.48376E+01  1.55030E+01  1.75644E+01  1.61182E+01  4.14770E+00  3.43160E+00  8.20555E+00  4.71687E+00
   3.47306E+00 -9.61731E-01  3.52525E+00 -1.92289E+00 -5.46420E+00 -8.70434E-01  7.72016E+00 -8.85231E+00 -6.58746E+00  1.54820E+01
   1.26564E+01  1.74281E+00  5.85525E+00  5.57312E+00 -4.68325E+00 -4.16078E+00  1.10027E+01  5.56296E+00 -1.05144E+00  5.91999E+00
   9.30282E-02 -1.37714E-02 -3.05324E+00 -7.29747E+00 -7.50642E+00 -2.43434E+00  8.54794E+00 -6.81031E+00 -1.45225E+01  2.75702E+00
   6.38809E+00 -8.43944E+00 -1.32642E+01 -1.52420E+01 -2.74027E+01 -1.82078E+01 -1.60421E+01 -2.61709E+01 -2.22045E+01 -2.00455E+01
  -1.17025E+01 -2.06817E+01 -2.91859E+01 -2.87901E+01 -2.34079E+01 -1.47910E+01 -2.12434E+01 -1.20655E+01 -1.93675E+01 -2.05502E+01
  -2.48689E+01 -1.17877E+01 -6.03654E+00 -1.87724E+01 -1.56559E+01 -1.58549E+01 -3.89404E+00 -9.23815E+00  1.10593E+00 -2.33329E+01
  -7.51258E+00 -8.46719E+00 -2.84529E-01  5.16560E-01 -1.04762E+01  5.72458E+00 -1.53742E+00 -4.66120E-01  3.53229E+00 -8.30138E+00
   2.94547E+00  1.69472E+01  7.00610E+00  7.07291E+00  1.57928E+01  1.12151E+01  1.10422E+01 -5.14233E-01  1.07213E+01  8.30257E+00
   2.57076E+00  1.10257E+01  4.31663E+00 -3.36194E+00 -1.29682E+01 -2.58521E+01 -1.82991E+01 -9.94908E+00 -1.97813E+01 -8.64103E+00
  -6.32476E+00 -2.19554E+00 -7.93348E+00 -2.44931E+00  2.52020E+00 -7.07387E+00 -7.85674E+00  3.85359E+00  5.20286E-01 -6.37184E+00
   5.40774E+00 -1.01268E+01 -1.60554E+01 -9.96936E+00 -6.53618E+00 -9.45093E+00 -1.31794E+00 -4.55499E+00 -1.71700E+01 -1.90783E+01
  -8.27246E+00 -1.77210E+01  3.57650E+00 -9.60049E+00  7.50268E-02  1.81277E+00 -1.19253E+01 -5.98809E+00 -5.57879E-01 -9.83618E+00
  -2.76817E+00 -1.23141E+01 -1.05456E+00 -5.43934E+00 -1.63002E+01 -1.32208E+01  1.81358E+01 -1.29930E+01  1.71975E+00 -7.87744E+00
  -8.46131E+00 -1.40239E+01 -7.23021E+00 -3.13603E+00  5.18290E+00  4.38213E-01  3.10804E+00 -1.23952E+00 -1.08540E+01 -8.93795E+00
  -4.18849E+00 -8.70840E+00  1.16144E+01 -2.91887E+00  5.34305E+00 -1.44379E+01  9.33898E+00 -2.23290E+00  6.64724E+00 -1.51950E+00
   5.14310E+00 -1.22367E+01 -6.89267E+00 -1.05391E+01 -1.07096E+01 -3.76096E+00 -5.55578E+00  4.38883E+00  3.88241E+00  1.17504E+01
  -4.44238E+00  5.21572E+00 -3.17060E+00  7.87421E+00 -1.61590E+00  4.52103E+00 -1.99607E+00 -5.05195E+00  3.33796E+00 -7.48657E+00
   4.60931E+00  1.55655E+01 -6.82553E+00 -4.38463E+00  4.17505E+00  1.18799E+01  1.23677E-01  2.54438E+00  5.77093E+00  2.56035E+00
   1.17722E+01  8.13989E-01 -3.83372E+00  4.33900E-01  6.75812E+00  9.85420E-01 -1.27417E+01 -6.44563E+00  3.33108E+00  9.52473E+00
  -3.36175E+00  5.36656E+00 -1.09709E+01 -7.44615E+00  8.29779E+00  4.76905E+00  5.76388E+00  4.65329E+00  6.83737E+00 -9.65566E+00
   7.65027E+00 -1.02797E+01  5.70802E+00 -1.06627E+01  6.66707E+00 -1.06968E+01 -1.34020E+00  5.03661E+00 -1.12123E+00 -4.88460E+00
   5.69151E+00 -1.07677E+00  3.95491E+00 -1.30963E+01 -2.54056E+00 -7.66393E+00  9.61709E+00 -5.69868E+00  3.56131E+00 -6.74490E-01
   5.46318E+00  6.53109E+00  1.07908E+01 -4.91105E-01  7.35620E+00  3.44809E+00 -3.90687E-01 -5.80505E+00
 NY points of the fit to the data follow
  -1.42737E+00 -7.60376E-01 -4.34480E-02  6.27301E-01  1.09069E+00  1.32690E+00  1.46385E+00  1.58518E+00  1.68364E+00  1.75738E+00
   1.81371E+00  1.86499E+00  1.92293E+00  2.00036E+00  2.11204E+00  2.27202E+00  2.46596E+00  2.65784E+00  2.84303E+00  3.01798E+00
   3.17885E+00  3.31591E+00  3.42487E+00  3.52304E+00  3.65377E+00  3.84293E+00  4.06500E+00  4.31169E+00  4.54136E+00  4.70358E+00
   4.75403E+00  4.67725E+00  4.47971E+00  4.17185E+00  3.78779E+00  3.43015E+00  3.22216E+00  3.19523E+00  3.31417E+00  3.58027E+00
   3.95983E+00  4.48849E+00  5.23884E+00  6.13981E+00  6.90515E+00  7.25116E+00  7.06190E+00  6.39157E+00  5.35203E+00  4.07335E+00
   2.73959E+00  1.60128E+00  9.33922E-01  9.76757E-01  1.78770E+00  2.99186E+00  4.05545E+00  4.74943E+00  5.08357E+00  5.11362E+00
   4.89403E+00  4.50056E+00  4.03535E+00  3.59528E+00  3.26554E+00  3.13706E+00  3.29938E+00  3.71008E+00  4.19129E+00  4.58581E+00
   4.78849E+00  4.79421E+00  4.63648E+00  4.37409E+00  4.07360E+00  3.77062E+00  3.49676E+00  3.27506E+00  3.14166E+00  3.10179E+00
   3.08379E+00  3.04895E+00  2.94340E+00  2.74573E+00  2.48482E+00  2.23140E+00  2.05120E+00  1.99061E+00  2.08360E+00  2.34659E+00
   2.75864E+00  3.27825E+00  3.80850E+00  4.19503E+00  4.30808E+00  4.17174E+00  3.88557E+00  3.55689E+00  3.24966E+00  3.01328E+00
   2.89557E+00  2.92684E+00  3.09108E+00  3.35794E+00  3.65471E+00  3.91795E+00  4.13500E+00  4.30457E+00  4.42965E+00  4.50521E+00
   4.53377E+00  4.53651E+00  4.53893E+00  4.54524E+00  4.54327E+00  4.53162E+00  4.51216E+00  4.49312E+00  4.48062E+00  4.48319E+00
   4.51047E+00  4.57882E+00  4.69526E+00  4.82238E+00  4.92570E+00  4.98397E+00  4.98286E+00  4.91485E+00  4.78432E+00  4.59131E+00
   4.33739E+00  4.05299E+00  3.78285E+00  3.56914E+00  3.41886E+00  3.28900E+00  3.17812E+00  3.09870E+00  3.05313E+00  3.03977E+00
   3.04809E+00  3.04804E+00  3.00623E+00  2.91756E+00  2.78951E+00  2.64011E+00  2.49377E+00  2.36077E+00  2.24115E+00  2.12539E+00
   2.00925E+00  1.90306E+00  1.81423E+00  1.74488E+00  1.68679E+00  1.61961E+00  1.51843E+00  1.39145E+00  1.26327E+00  1.15493E+00
   1.08122E+00  1.02162E+00  9.70674E-01  9.39166E-01  9.25525E-01  9.12217E-01  8.71265E-01  7.65552E-01  5.88685E-01  3.97174E-01
   2.33343E-01  1.06504E-01  2.39447E-02 -2.87099E-02 -5.90124E-02 -7.51972E-02 -1.00619E-01 -1.25850E-01 -1.14390E-01 -5.22578E-02
   3.35314E-02  9.50372E-02  8.85108E-02  4.64470E-02  6.62740E-02  1.99749E-01  4.04225E-01  6.19404E-01  7.90723E-01  9.18210E-01
   1.01842E+00  1.07903E+00  1.06169E+00  9.20378E-01  6.74462E-01  4.23773E-01  2.41908E-01  1.50049E-01  1.61370E-01  2.73959E-01
   4.43291E-01  6.18825E-01  7.56094E-01  8.07477E-01  7.14038E-01  4.04483E-01 -6.70196E-02 -6.01409E-01 -1.13279E+00 -1.56444E+00
  -1.78079E+00 -1.69826E+00 -1.36754E+00 -8.95657E-01 -3.98972E-01  1.25018E-02  2.22927E-01  1.58198E-01 -1.13611E-01 -4.92500E-01
  -9.02379E-01 -1.21920E+00 -1.33315E+00 -1.21556E+00 -9.49625E-01 -6.12394E-01 -2.75032E-01 -1.15286E-02  1.21755E-01  1.06979E-01
   5.79997E-03 -9.86706E-02 -1.51759E-01 -1.32738E-01 -3.17285E-02  1.35607E-01  3.48660E-01  5.59969E-01  6.99354E-01  7.72505E-01
   8.17306E-01  8.48214E-01  8.61067E-01  8.59616E-01  8.85206E-01  9.60730E-01  1.08118E+00  1.23923E+00  1.42444E+00  1.60037E+00
   1.79395E+00  2.22170E+00  2.89829E+00  3.68997E+00  4.58435E+00  6.12225E+00  8.81671E+00  1.20854E+01  1.52311E+01  1.77653E+01
   1.93486E+01  1.97458E+01  1.88736E+01  1.67406E+01  1.32246E+01  8.64425E+00  4.06417E+00  9.45688E-01 -3.76631E-01 -1.06421E+00
  -1.55509E+00 -1.93811E+00 -2.25737E+00 -2.53793E+00 -2.78957E+00 -3.02840E+00 -3.27041E+00 -3.52468E+00 -3.78838E+00 -4.05301E+00
  -4.30802E+00 -4.54125E+00 -4.74850E+00 -4.93421E+00 -5.10687E+00 -5.27153E+00 -5.43178E+00 -5.58917E+00 -5.74460E+00 -5.89605E+00
  -6.03999E+00 -6.17494E+00 -6.30230E+00 -6.42175E+00 -6.53704E+00 -6.65244E+00 -6.77029E+00 -6.89236E+00 -7.01823E+00 -7.14287E+00
  -7.26348E+00 -7.37999E+00 -7.49227E+00 -7.60035E+00 -7.70509E+00 -7.80855E+00 -7.91337E+00 -8.01928E+00 -8.12473E+00 -8.22868E+00
  -8.32970E+00 -8.42614E+00 -8.51612E+00 -8.59734E+00 -8.66711E+00 -8.72231E+00 -8.75926E+00 -8.77378E+00 -8.76128E+00 -8.71700E+00
  -8.63617E+00 -8.51427E+00 -8.34708E+00 -8.13091E+00 -7.86301E+00 -7.54193E+00 -7.16782E+00 -6.74250E+00 -6.26954E+00 -5.75437E+00
  -5.20432E+00 -4.62857E+00 -4.03779E+00 -3.44353E+00 -2.85754E+00 -2.29112E+00 -1.75441E+00 -1.25534E+00 -7.97734E-01 -3.78345E-01
   1.91010E-02  4.40138E-01  1.03021E+00  2.24195E+00  4.20028E+00  6.22902E+00  7.76857E+00  8.47011E+00  8.05531E+00  6.21518E+00
   2.63439E+00 -2.21563E+00 -7.22923E+00 -1.14224E+01 -1.38107E+01 -1.36125E+01 -1.12843E+01 -8.13254E+00 -4.75491E+00 -1.68790E+00
   4.28795E-01  1.04585E+00  1.37109E-01 -1.23427E+00 -2.20733E+00 -2.88969E+00 -3.40486E+00 -3.81430E+00 -4.15242E+00 -4.44022E+00
  -4.69126E+00 -4.91481E+00 -5.11765E+00 -5.30477E+00 -5.47962E+00 -5.64437E+00 -5.80017E+00 -5.94767E+00 -6.08717E+00 -6.21856E+00
  -6.34117E+00 -6.45376E+00 -6.55468E+00 -6.64210E+00 -6.71396E+00 -6.76789E+00 -6.80106E+00 -6.81026E+00 -6.79215E+00 -6.74349E+00
  -6.66111E+00 -6.54201E+00 -6.38338E+00 -6.18300E+00 -5.93950E+00 -5.65262E+00 -5.32329E+00 -4.95362E+00 -4.54702E+00 -4.10833E+00
  -3.64384E+00 -3.16109E+00 -2.66857E+00 -2.17529E+00 -1.69055E+00 -1.22361E+00 -7.83383E-01 -3.77917E-01 -1.40023E-02  3.03108E-01
   5.69787E-01  7.84035E-01  9.45495E-01  1.05544E+00  1.11667E+00  1.13321E+00  1.10995E+00  1.05232E+00  9.66053E-01  8.56991E-01
   7.30885E-01  5.93119E-01  4.48501E-01  3.01176E-01  1.54658E-01  1.18903E-02 -1.24766E-01 -2.53564E-01 -3.73341E-01 -4.83400E-01
  -5.83359E-01 -6.73058E-01 -7.52547E-01 -8.22100E-01 -8.82162E-01 -9.33240E-01 -9.75816E-01 -1.01034E+00 -1.03728E+00 -1.05717E+00
  -1.07053E+00 -1.07782E+00 -1.07941E+00 -1.07560E+00 -1.06675E+00 -1.05322E+00 -1.03533E+00 -1.01333E+00 -9.87417E-01 -9.57761E-01
  -9.24583E-01 -8.88114E-01 -8.48540E-01 -8.05978E-01 -7.60512E-01 -7.12257E-01 -6.61372E-01 -6.08005E-01 -5.52252E-01 -4.94156E-01
  -4.33767E-01 -3.71178E-01 -3.06513E-01 -2.39863E-01 -1.71266E-01 -1.00732E-01 -2.83066E-02  4.59226E-02  1.21863E-01  1.99467E-01
   2.78730E-01  3.59645E-01  4.42159E-01  5.26191E-01  6.11677E-01  6.98603E-01  7.86978E-01  8.76784E-01  9.67959E-01  1.06043E+00
   1.15416E+00  1.24916E+00  1.34543E+00  1.44294E+00  1.54161E+00  1.64139E+00  1.74227E+00  1.84425E+00  1.94733E+00  2.05144E+00
   2.15652E+00  2.26253E+00  2.36945E+00  2.47729E+00  2.58600E+00  2.69551E+00  2.80573E+00  2.91664E+00
 NY background values follow
    -4.197E-01   -3.491E-01   -2.792E-01   -2.102E-01   -1.420E-01   -7.459E-02   -7.996E-03    5.778E-02    1.227E-01    1.869E-01
     2.502E-01    3.127E-01    3.743E-01    4.352E-01    4.952E-01    5.543E-01    6.126E-01    6.701E-01    7.267E-01    7.825E-01
     8.375E-01    8.916E-01    9.448E-01    9.972E-01    1.049E+00    1.099E+00    1.149E+00    1.198E+00    1.246E+00    1.294E+00
     1.340E+00    1.385E+00    1.430E+00    1.474E+00    1.517E+00    1.559E+00    1.600E+00    1.640E+00    1.680E+00    1.718E+00
     1.756E+00    1.793E+00    1.829E+00    1.864E+00    1.898E+00    1.932E+00    1.964E+00    1.996E+00    2.027E+00    2.056E+00
     2.085E+00    2.113E+00    2.141E+00    2.167E+00    2.193E+00    2.217E+00    2.241E+00    2.264E+00    2.286E+00    2.307E+00
     2.327E+00    2.347E+00    2.365E+00    2.383E+00    2.400E+00    2.416E+00    2.431E+00    2.445E+00    2.459E+00    2.471E+00
     2.483E+00    2.494E+00    2.504E+00    2.513E+00    2.521E+00    2.529E+00    2.535E+00    2.541E+00    2.546E+00    2.550E+00
     2.554E+00    2.556E+00    2.558E+00    2.558E+00    2.558E+00    2.557E+00    2.556E+00    2.553E+00    2.550E+00    2.546E+00
     2.541E+00    2.535E+00    2.529E+00    2.521E+00    2.513E+00    2.504E+00    2.494E+00    2.484E+00    2.473E+00    2.461E+00
     2.448E+00    2.434E+00    2.420E+00    2.405E+00    2.389E+00    2.372E+00    2.355E+00    2.336E+00    2.317E+00    2.298E+00
     2.277E+00    2.256E+00    2.234E+00    2.212E+00    2.188E+00    2.164E+00    2.140E+00    2.114E+00    2.088E+00    2.061E+00
     2.034E+00    2.005E+00    1.976E+00    1.947E+00    1.917E+00    1.886E+00    1.854E+00    1.822E+00    1.789E+00    1.755E+00
     1.721E+00    1.686E+00    1.651E+00    1.614E+00    1.578E+00    1.540E+00    1.502E+00    1.464E+00    1.425E+00    1.385E+00
     1.344E+00    1.304E+00    1.262E+00    1.220E+00    1.177E+00    1.134E+00    1.090E+00    1.046E+00    1.001E+00    9.556E-01
     9.097E-01    8.632E-01    8.162E-01    7.687E-01    7.207E-01    6.722E-01    6.232E-01    5.737E-01    5.238E-01    4.733E-01
     4.224E-01    3.711E-01    3.193E-01    2.670E-01    2.143E-01    1.612E-01    1.076E-01    5.365E-02   -7.375E-04   -5.553E-02
    -1.107E-01   -1.663E-01   -2.223E-01   -2.786E-01   -3.354E-01   -3.924E-01   -4.499E-01   -5.077E-01   -5.658E-01   -6.243E-01
    -6.831E-01   -7.422E-01   -8.016E-01   -8.614E-01   -9.214E-01   -9.817E-01   -1.042E+00   -1.103E+00   -1.164E+00   -1.226E+00
    -1.288E+00   -1.349E+00   -1.412E+00   -1.474E+00   -1.537E+00   -1.599E+00   -1.662E+00   -1.726E+00   -1.789E+00   -1.853E+00
    -1.917E+00   -1.981E+00   -2.045E+00   -2.109E+00   -2.173E+00   -2.238E+00   -2.303E+00   -2.368E+00   -2.432E+00   -2.498E+00
    -2.563E+00   -2.628E+00   -2.693E+00   -2.759E+00   -2.824E+00   -2.890E+00   -2.955E+00   -3.021E+00   -3.087E+00   -3.152E+00
    -3.218E+00   -3.284E+00   -3.349E+00   -3.415E+00   -3.481E+00   -3.547E+00   -3.612E+00   -3.678E+00   -3.744E+00   -3.809E+00
    -3.875E+00   -3.940E+00   -4.005E+00   -4.071E+00   -4.136E+00   -4.201E+00   -4.266E+00   -4.331E+00   -4.395E+00   -4.460E+00
    -4.525E+00   -4.589E+00   -4.653E+00   -4.717E+00   -4.781E+00   -4.844E+00   -4.908E+00   -4.971E+00   -5.034E+00   -5.097E+00
    -5.160E+00   -5.222E+00   -5.284E+00   -5.346E+00   -5.408E+00   -5.469E+00   -5.530E+00   -5.591E+00   -5.652E+00   -5.712E+00
    -5.772E+00   -5.832E+00   -5.891E+00   -5.950E+00   -6.009E+00   -6.067E+00   -6.126E+00   -6.183E+00   -6.241E+00   -6.298E+00
    -6.354E+00   -6.410E+00   -6.466E+00   -6.522E+00   -6.577E+00   -6.631E+00   -6.685E+00   -6.739E+00   -6.792E+00   -6.845E+00
    -6.898E+00   -6.950E+00   -7.001E+00   -7.052E+00   -7.103E+00   -7.153E+00   -7.202E+00   -7.252E+00   -7.300E+00   -7.348E+00
    -7.396E+00   -7.443E+00   -7.489E+00   -7.535E+00   -7.580E+00   -7.625E+00   -7.669E+00   -7.713E+00   -7.756E+00   -7.799E+00
    -7.841E+00   -7.882E+00   -7.923E+00   -7.963E+00   -8.002E+00   -8.041E+00   -8.079E+00   -8.117E+00   -8.154E+00   -8.190E+00
    -8.225E+00   -8.260E+00   -8.295E+00   -8.328E+00   -8.361E+00   -8.393E+00   -8.425E+00   -8.456E+00   -8.486E+00   -8.515E+00
    -8.544E+00   -8.572E+00   -8.599E+00   -8.626E+00   -8.651E+00   -8.676E+00   -8.700E+00   -8.724E+00   -8.747E+00   -8.769E+00
    -8.790E+00   -8.810E+00   -8.830E+00   -8.848E+00   -8.866E+00   -8.884E+00   -8.900E+00   -8.915E+00   -8.930E+00   -8.944E+00
    -8.957E+00   -8.969E+00   -8.981E+00   -8.991E+00   -9.001E+00   -9.010E+00   -9.018E+00   -9.025E+00   -9.031E+00   -9.037E+00
    -9.041E+00   -9.045E+00   -9.047E+00   -9.049E+00   -9.050E+00   -9.050E+00   -9.049E+00   -9.048E+00   -9.045E+00   -9.041E+00
    -9.037E+00   -9.031E+00   -9.025E+00   -9.018E+00   -9.010E+00   -9.000E+00   -8.990E+00   -8.979E+00   -8.967E+00   -8.954E+00
    -8.940E+00   -8.926E+00   -8.910E+00   -8.893E+00   -8.875E+00   -8.857E+00   -8.837E+00   -8.816E+00   -8.795E+00   -8.772E+00
    -8.748E+00   -8.724E+00   -8.698E+00   -8.672E+00   -8.644E+00   -8.616E+00   -8.586E+00   -8.555E+00   -8.524E+00   -8.491E+00
    -8.458E+00   -8.423E+00   -8.388E+00   -8.351E+00   -8.314E+00   -8.275E+00   -8.235E+00   -8.195E+00   -8.153E+00   -8.110E+00
    -8.067E+00   -8.022E+00   -7.976E+00   -7.930E+00   -7.882E+00   -7.833E+00   -7.783E+00   -7.732E+00   -7.681E+00   -7.628E+00
    -7.574E+00   -7.519E+00   -7.463E+00   -7.406E+00   -7.348E+00   -7.289E+00   -7.229E+00   -7.168E+00   -7.105E+00   -7.042E+00
    -6.978E+00   -6.913E+00   -6.847E+00   -6.779E+00   -6.711E+00   -6.642E+00   -6.571E+00   -6.500E+00   -6.428E+00   -6.354E+00
    -6.280E+00   -6.204E+00   -6.128E+00   -6.050E+00   -5.972E+00   -5.892E+00   -5.812E+00   -5.730E+00   -5.648E+00   -5.564E+00
    -5.479E+00   -5.394E+00   -5.307E+00   -5.220E+00   -5.131E+00   -5.042E+00   -4.951E+00   -4.859E+00   -4.767E+00   -4.673E+00
    -4.579E+00   -4.483E+00   -4.387E+00   -4.289E+00   -4.191E+00   -4.092E+00   -3.991E+00   -3.890E+00   -3.788E+00   -3.684E+00
    -3.580E+00   -3.475E+00   -3.369E+00   -3.262E+00   -3.154E+00   -3.045E+00   -2.935E+00   -2.824E+00   -2.712E+00   -2.600E+00
    -2.486E+00   -2.372E+00   -2.256E+00   -2.140E+00   -2.023E+00   -1.905E+00   -1.786E+00   -1.666E+00   -1.545E+00   -1.423E+00
    -1.301E+00   -1.178E+00   -1.053E+00   -9.282E-01   -8.023E-01   -6.755E-01   -5.478E-01   -4.193E-01   -2.900E-01   -1.598E-01
    -2.883E-02    1.030E-01    2.356E-01    3.690E-01    5.032E-01    6.382E-01    7.740E-01    9.106E-01
 Asp      Conc. = 3.19E+01
