 LCModel (Version 6.3-1L) Copyright: S.W. Provencher.          Ref.: Magn. Reson. Med. 30:672-679 (1993).                
 Slice#1 Row#1 Col#11  PD_05_press_2_raw_act
 36 lines in following concentration table = NCONC+1
    Conc.  %SD /Cr+PCr  Metabolite                                         
    0.000 999%   0.000 Ala                                                 
    5.414 264% 6.3E-02 Asp                                                 
    0.000 999%   0.000 Cr                                                  
   85.525  72%   1.000 PCr                                                 
    5.156 166% 6.0E-02 GABA                                                
    4.144 207% 4.8E-02 Glc                                                 
    0.000 999%   0.000 Gln                                                 
    0.000 999%   0.000 Glu                                                 
   13.788 115%   0.161 GPC                                                 
    0.000 999%   0.000 PCh                                                 
    0.000 999%   0.000 GSH                                                 
  314.779  76%   3.681 Ins                                                 
    0.000 999%   0.000 Lac                                                 
    0.000 999%   0.000 NAA                                                 
   12.137 335%   0.142 NAAG                                                
    1.926 148% 2.3E-02 Scyllo                                              
    6.259 227% 7.3E-02 Tau                                                 
    0.000 999%   0.000 -CrCH2                                              
   13.788 115%   0.161 GPC+PCh                                             
   12.137 335%   0.142 NAA+NAAG                                            
   85.525  72%   1.000 Cr+PCr                                              
    0.000 999%   0.000 Glu+Gln                                             
 1.78E+03  38%  20.814 Lip13a                                              
  134.266 207%   1.570 Lip13b                                              
  440.895  55%   5.155 Lip09                                               
  301.367  80%   3.524 MM09                                                
  157.013 109%   1.836 Lip20                                               
    0.000 999%   0.000 MM20                                                
  177.908  91%   2.080 MM12                                                
    0.000 999%   0.000 MM14                                                
 1.35E+03  22%  15.799 MM17                                                
 1.91E+03  28%  22.384 Lip13a+Lip13b                                       
 2.09E+03  23%  24.464 MM14+Lip13a+Lip13b+MM12                             
  742.262  30%   8.679 MM09+Lip09                                          
  157.013 109%   1.836 MM20+Lip20                                          
   6 lines in following misc. output table
  FWHM = 0.031 ppm    S/N =   1                                            
  Data shift = 0.130 ppm                                                   
  Ph: -64 deg      40.2 deg/ppm                                            
  alphaB,S = 8.5E+01,   3.2E+00                                            
   14 spline knots.   Ns = 5(1)                                            
   2 inflections.     2 extrema                                            
  498 points on ppm-axis = NY
      4.000000     3.992357     3.984714     3.977070     3.969427     3.961784     3.954141     3.946497     3.938854     3.931211
      3.923568     3.915925     3.908281     3.900638     3.892995     3.885352     3.877708     3.870065     3.862422     3.854779
      3.847136     3.839492     3.831849     3.824206     3.816563     3.808919     3.801276     3.793633     3.785990     3.778347
      3.770703     3.763060     3.755417     3.747774     3.740130     3.732487     3.724844     3.717201     3.709558     3.701914
      3.694271     3.686628     3.678985     3.671341     3.663698     3.656055     3.648412     3.640769     3.633125     3.625482
      3.617839     3.610196     3.602552     3.594909     3.587266     3.579623     3.571980     3.564336     3.556693     3.549050
      3.541407     3.533763     3.526120     3.518477     3.510834     3.503191     3.495547     3.487904     3.480261     3.472618
      3.464974     3.457331     3.449688     3.442045     3.434402     3.426758     3.419115     3.411472     3.403829     3.396185
      3.388542     3.380899     3.373256     3.365613     3.357969     3.350326     3.342683     3.335040     3.327396     3.319753
      3.312110     3.304467     3.296824     3.289180     3.281537     3.273894     3.266251     3.258607     3.250964     3.243321
      3.235678     3.228034     3.220391     3.212748     3.205105     3.197462     3.189818     3.182175     3.174532     3.166889
      3.159245     3.151602     3.143959     3.136316     3.128673     3.121029     3.113386     3.105743     3.098100     3.090456
      3.082813     3.075170     3.067527     3.059884     3.052240     3.044597     3.036954     3.029311     3.021667     3.014024
      3.006381     2.998738     2.991095     2.983451     2.975808     2.968165     2.960522     2.952878     2.945235     2.937592
      2.929949     2.922306     2.914662     2.907019     2.899376     2.891733     2.884089     2.876446     2.868803     2.861160
      2.853517     2.845873     2.838230     2.830587     2.822944     2.815300     2.807657     2.800014     2.792371     2.784728
      2.777084     2.769441     2.761798     2.754155     2.746511     2.738868     2.731225     2.723582     2.715939     2.708295
      2.700652     2.693009     2.685366     2.677722     2.670079     2.662436     2.654793     2.647150     2.639506     2.631863
      2.624220     2.616577     2.608933     2.601290     2.593647     2.586004     2.578361     2.570717     2.563074     2.555431
      2.547788     2.540144     2.532501     2.524858     2.517215     2.509572     2.501928     2.494285     2.486642     2.478999
      2.471355     2.463712     2.456069     2.448426     2.440783     2.433139     2.425496     2.417853     2.410210     2.402566
      2.394923     2.387280     2.379637     2.371994     2.364350     2.356707     2.349064     2.341421     2.333777     2.326134
      2.318491     2.310848     2.303205     2.295561     2.287918     2.280275     2.272632     2.264988     2.257345     2.249702
      2.242059     2.234416     2.226772     2.219129     2.211486     2.203843     2.196199     2.188556     2.180913     2.173270
      2.165627     2.157983     2.150340     2.142697     2.135054     2.127410     2.119767     2.112124     2.104481     2.096838
      2.089194     2.081551     2.073908     2.066265     2.058621     2.050978     2.043335     2.035692     2.028049     2.020405
      2.012762     2.005119     1.997476     1.989833     1.982190     1.974546     1.966903     1.959260     1.951617     1.943974
      1.936331     1.928688     1.921045     1.913402     1.905759     1.898115     1.890472     1.882829     1.875186     1.867543
      1.859900     1.852257     1.844614     1.836971     1.829327     1.821684     1.814041     1.806398     1.798755     1.791112
      1.783469     1.775826     1.768183     1.760540     1.752896     1.745253     1.737610     1.729967     1.722324     1.714681
      1.707038     1.699395     1.691752     1.684108     1.676465     1.668822     1.661179     1.653536     1.645893     1.638250
      1.630607     1.622964     1.615321     1.607677     1.600034     1.592391     1.584748     1.577105     1.569462     1.561819
      1.554176     1.546533     1.538890     1.531246     1.523603     1.515960     1.508317     1.500674     1.493031     1.485388
      1.477745     1.470102     1.462458     1.454815     1.447172     1.439529     1.431886     1.424243     1.416600     1.408957
      1.401314     1.393671     1.386027     1.378384     1.370741     1.363098     1.355455     1.347812     1.340169     1.332526
      1.324883     1.317240     1.309596     1.301953     1.294310     1.286667     1.279024     1.271381     1.263738     1.256095
      1.248452     1.240808     1.233165     1.225522     1.217879     1.210236     1.202593     1.194950     1.187307     1.179664
      1.172021     1.164377     1.156734     1.149091     1.141448     1.133805     1.126162     1.118519     1.110876     1.103233
      1.095590     1.087946     1.080303     1.072660     1.065017     1.057374     1.049731     1.042088     1.034445     1.026802
      1.019158     1.011515     1.003872     0.996229     0.988586     0.980943     0.973300     0.965657     0.958014     0.950371
      0.942727     0.935084     0.927441     0.919798     0.912155     0.904512     0.896869     0.889226     0.881583     0.873940
      0.866296     0.858653     0.851010     0.843367     0.835724     0.828081     0.820438     0.812795     0.805152     0.797508
      0.789865     0.782222     0.774579     0.766936     0.759293     0.751650     0.744007     0.736364     0.728721     0.721077
      0.713434     0.705791     0.698148     0.690505     0.682862     0.675219     0.667576     0.659933     0.652290     0.644646
      0.637003     0.629360     0.621717     0.614074     0.606431     0.598788     0.591145     0.583502     0.575858     0.568215
      0.560572     0.552929     0.545286     0.537643     0.530000     0.522357     0.514714     0.507071     0.499427     0.491784
      0.484141     0.476498     0.468855     0.461212     0.453569     0.445925     0.438282     0.430639     0.422996     0.415353
      0.407710     0.400067     0.392424     0.384780     0.377137     0.369494     0.361851     0.354208     0.346565     0.338922
      0.331278     0.323635     0.315992     0.308349     0.300706     0.293063     0.285420     0.277777     0.270133     0.262490
      0.254847     0.247204     0.239561     0.231918     0.224275     0.216631     0.208988     0.201345
 NY phased data points follow
   5.10152E+00 -2.90213E+00 -5.57396E+00  2.13958E-01 -7.12418E+00  1.22120E+01  3.24396E+00  8.28404E+00  3.27709E+00 -3.34469E-01
  -1.16212E+01 -5.20962E-02 -7.14763E+00  9.90172E+00  1.01598E+01 -2.10389E+00  1.83540E+00  2.27946E+00 -1.39587E+01 -2.29267E+00
  -7.50356E-03 -2.01461E+00  2.05338E+00  7.12465E+00  4.79059E+00  5.00402E+00  1.52346E+00  4.07896E+00 -6.43170E+00  9.90916E-01
  -3.22165E+00  6.44711E+00  1.50214E+00  3.85126E+00 -1.77155E-01  7.96749E+00  5.61243E+00 -3.94131E+00  1.42716E+00  8.48114E+00
  -5.29412E+00  9.31521E+00  1.34612E+01  1.10044E+01  7.32161E+00 -3.27114E-01  2.94675E+00  6.24641E+00 -1.43711E+00 -7.77829E-01
  -1.17819E+00 -3.02585E-01 -6.52783E+00  5.51341E+00  7.69884E+00  4.02350E+00  1.32189E+00  9.39645E+00  8.43563E+00  4.02654E-01
  -1.00949E+01 -4.70828E+00  2.34537E+00  1.91303E-01  1.04855E+01 -5.69980E+00  2.96566E+00  3.96201E+00  1.77997E+00  1.03105E+01
   2.59207E+00  4.76695E+00  4.24651E-01 -7.81664E+00  1.00773E+00 -2.63661E+00  6.84167E+00  9.46563E-01  3.05169E-01 -5.94482E+00
  -2.37635E+00  2.45053E+00 -1.11733E+01  2.91580E+00  1.33441E+01  6.78668E+00  4.34405E+00  1.93670E+00  1.88211E-01 -6.89696E+00
   3.43711E+00 -1.72867E+00  5.52395E+00  2.24433E+00  6.52878E+00 -5.61940E+00 -2.87737E+00  3.58156E+00  1.77417E-02  8.01795E-01
  -1.43888E+00  6.42985E+00 -2.09334E+00 -2.95556E+00 -9.87856E+00 -1.37426E+00  3.70677E+00 -2.23594E+00  4.39097E+00 -2.35767E+00
  -8.81358E-01 -3.75052E+00 -9.00907E+00  9.52037E+00 -1.88282E+00 -3.43333E+00 -1.58876E+00 -4.79561E-01 -6.87368E-01  1.06486E+00
  -3.29936E+00  7.56695E+00 -1.15161E+01  7.17555E+00  1.48600E+00  1.94745E+00  7.98098E+00 -1.32588E+00 -3.69072E+00 -1.32055E+01
  -1.27454E+01 -1.31718E+01 -1.16468E+00 -1.28265E+01 -6.46250E-01 -2.50672E+00 -1.84760E+00 -7.92739E+00 -5.30586E+00 -9.97435E+00
   2.97430E+00 -2.97230E+00 -3.43854E+00 -1.36774E+01 -1.09172E+01 -4.62729E+00 -3.77779E+00 -2.38710E+00 -2.85803E+00 -3.13543E-01
  -2.72600E+00 -3.20720E+00  2.04070E+00 -4.25944E+00 -1.81972E+00  4.72741E+00 -4.49752E+00  1.35185E+00 -3.67705E+00  5.02391E+00
   8.79297E+00  4.52115E+00  1.96203E+00 -5.84119E+00 -4.09307E+00 -1.21287E+01 -9.08569E-01 -1.26435E+01 -9.34915E+00 -1.54632E+00
  -4.96959E+00  4.72060E+00  3.64209E-01 -1.70217E+00  3.39711E+00 -2.82638E+00 -7.54469E+00 -9.23774E+00 -3.95749E+00 -2.85867E+00
  -4.64074E+00 -3.91884E+00 -8.53746E-01  1.46210E+00 -1.41649E+00  2.58391E+00  2.88153E+00 -4.40258E-01  4.14277E+00  2.26178E+00
   5.52998E+00  1.20530E+00  2.63775E+00  3.18469E+00 -8.89088E+00 -1.14172E+01 -3.53220E+00  5.31759E+00 -9.14620E+00 -4.90271E+00
  -2.66148E+00  5.36634E-01  5.42245E-02  4.79551E+00 -1.31147E+01 -1.50153E+00  7.88254E+00  3.71896E+00 -8.87877E+00  4.69222E+00
   7.87290E+00 -8.68973E-01  2.70742E+00 -1.02571E+01 -1.10360E+01 -8.42869E+00 -4.01389E+00  5.50470E+00 -4.53079E+00 -7.96179E+00
  -3.94005E+00 -3.50970E-01 -5.79888E+00 -6.39480E+00 -3.67320E+00 -1.40267E+01  1.35825E+00 -4.58139E+00 -1.37688E+01 -6.23535E+00
  -1.01677E+01 -9.98163E+00 -4.67793E+00  3.54347E-01  3.99115E+00  5.80399E-01  2.36726E+00  3.45650E+00 -3.98516E+00  2.69341E+00
  -7.45398E-01  2.62275E+00  2.40791E+00 -8.96216E-01  1.95932E-01 -1.52423E+01  3.69668E+00 -1.60388E+01  1.13352E+01  1.03005E+01
  -6.83876E+00  1.68060E+00 -7.34813E+00  3.39509E+00  5.87826E+00 -2.83136E+00 -1.08143E+01 -2.74668E+00  3.78114E+00 -7.33547E+00
   8.59569E+00  9.36755E-01  5.15442E+00  3.29188E-01  7.50840E+00  1.53350E+00 -6.95314E+00 -4.53322E+00 -3.39008E+00 -2.09207E+00
   2.23808E+00 -5.55320E+00  2.04574E+00  3.07164E+00  2.18573E+00  5.54700E+00 -3.49060E+00 -2.67770E+00 -6.18759E+00 -6.32997E+00
  -6.83569E+00 -5.01493E-01  1.42062E+00 -2.27653E+00 -4.98010E-01 -6.89324E+00  3.86219E+00 -4.21153E+00  7.02497E+00 -7.17061E+00
   4.93718E+00  1.65058E+01 -4.00888E+00 -3.73481E+00 -2.12886E+00  1.24911E+01  9.67131E+00 -8.61998E+00  9.28402E+00  1.35581E+01
   1.13176E+01  2.71643E+00  1.69703E+01  6.64135E-02  1.11557E+01  9.27805E+00  8.98397E+00 -1.11441E+00  4.21667E+00 -3.74040E+00
  -1.66528E-01 -6.21429E+00 -2.43577E+00  4.77491E+00  1.03083E+01  1.12897E+01  5.24552E+00  1.28817E+01  2.18635E+01  1.85100E+01
   9.27041E+00  4.32929E+00  1.09940E+01  1.37417E+01  1.22621E+01  1.00170E+01  1.92390E+01  6.98718E+00  1.53150E+01  2.71211E+00
   1.32465E+01  5.37794E+00  8.71370E+00  3.48137E+00  1.85825E+00 -1.20743E+01 -4.66504E+00 -1.34840E+01 -3.72152E+00 -1.47366E+01
   1.70610E+00 -1.31015E+01 -4.55823E+00  2.84656E+00 -2.35032E+00  7.17980E-01  5.68041E+00  6.59867E-01 -3.12720E-01  1.34069E+01
   2.71320E+00  1.15387E+01  3.62226E+00  5.17739E+00  1.69484E+01  1.25470E+01  1.76342E+00  1.04276E+01  4.08295E+00  1.22688E+01
   1.93560E+00  6.22623E+00  7.04166E+00  7.88031E+00  8.36022E-01  8.64637E+00  5.25392E+00  2.94999E+00  8.78775E+00  3.49179E+00
   4.88090E+00  1.87882E+01 -2.12383E+00  5.83807E+00  1.49073E+01  4.67476E+00  6.90567E+00  3.68367E+00  3.43597E-01  1.83450E+01
   8.23658E+00  1.34700E+01  1.58450E+01 -1.57166E+00  7.83962E+00 -8.55590E+00  4.35362E-01  4.85855E-01  1.03960E+01  3.14162E-02
  -2.35681E+00  3.27194E+00  8.85636E+00  6.54623E+00  1.75170E+00 -1.81382E+00  3.76512E+00  7.10056E+00  7.05943E+00  4.37810E+00
  -5.42596E+00 -6.36773E-01  3.54536E+00 -4.41190E+00  6.10345E+00 -6.21820E+00  7.62555E+00  6.83826E-01  7.00181E+00  3.32639E-01
   1.78837E+00  4.18966E+00  2.87164E+00 -3.20017E+00  1.06292E+01  8.74757E+00 -4.65208E+00 -1.53256E+00 -4.05083E+00 -1.25343E+00
  -1.15517E+01  4.18193E+00 -1.86670E+00 -4.90500E-01 -2.52995E+00 -6.57036E+00 -5.97111E+00 -6.97893E+00 -8.52411E+00 -8.51673E+00
  -6.98668E+00 -7.35260E-01 -1.17405E+01  4.83857E+00 -4.54757E+00 -2.51073E+00  1.02352E+01 -3.17475E+00 -6.26254E+00  8.46922E+00
   1.28707E+01 -7.18018E+00  2.31861E+00  1.36701E+01 -7.01852E-01 -1.20381E+00 -5.53819E-01 -2.64340E-01 -4.15302E+00 -1.53721E-01
   3.66784E+00  3.27725E+00 -6.49503E+00 -5.40280E+00 -6.14755E+00 -9.95114E+00 -6.99152E+00 -9.90304E+00 -3.34523E+00 -9.15258E+00
   3.00959E+00  2.23276E-01 -4.20947E+00 -5.29081E+00 -1.19711E+01  3.37959E-01  1.00753E+00 -8.58841E+00 -1.08989E+01 -6.46322E+00
  -1.08468E+01  3.27251E+00  1.84679E+00  4.43645E+00  2.44744E-01 -2.08181E+00 -3.95933E+00 -3.56953E+00 -7.67671E-01 -3.07203E+00
  -3.44174E-01 -1.29851E+01  4.21602E+00 -1.35613E+01 -8.66078E+00 -7.49608E+00  5.56610E-01 -6.50669E+00  2.24317E+00  5.04392E-01
  -5.67254E+00 -7.29908E+00  4.94724E+00  3.10536E+00 -5.93902E+00  1.63920E+00 -5.84108E+00 -5.83259E+00
 NY points of the fit to the data follow
   2.66713E-01  5.00181E-01  6.22241E-01  9.88989E-01  2.35740E+00  4.32114E+00  5.43360E+00  5.26269E+00  3.84028E+00  1.46554E+00
  -8.78382E-01 -2.08033E+00 -1.78385E+00 -5.86948E-01  3.83438E-01  5.03554E-01  2.99624E-01  2.32304E-01  2.20481E-01  2.46003E-01
   2.89165E-01  3.19253E-01  3.26802E-01  3.25150E-01  3.33285E-01  3.53489E-01  3.76602E-01  3.97765E-01  4.26975E-01  4.79262E-01
   5.70868E-01  7.30396E-01  1.01965E+00  1.35979E+00  1.34336E+00  8.49012E-01  7.98614E-02 -6.89233E-01 -1.13352E+00 -1.04096E+00
  -4.09793E-01  8.30662E-01  2.94609E+00  5.34826E+00  6.71756E+00  6.28482E+00  4.04949E+00  6.29957E-01 -2.67241E+00 -4.37041E+00
  -3.83247E+00 -1.78990E+00  1.26534E-01  9.55465E-01  1.31641E+00  1.84282E+00  2.43025E+00  2.71724E+00  2.36895E+00  1.36692E+00
   9.22049E-03 -1.19021E+00 -1.63938E+00 -1.18122E+00 -1.79467E-01  7.32940E-01  1.34020E+00  1.68635E+00  1.70712E+00  1.47226E+00
   1.11602E+00  7.27068E-01  3.24210E-01  2.78409E-03 -1.09749E-01 -2.68096E-02  1.35385E-01  1.95867E-01  1.57551E-01  1.36335E-01
   1.35203E-01  3.09608E-02 -3.76511E-01 -1.07394E+00 -1.79405E+00 -2.19852E+00 -2.07605E+00 -1.40787E+00 -3.95379E-01  5.82338E-01
   1.11712E+00  1.17772E+00  8.40522E-01  2.49372E-01 -4.02162E-01 -9.75331E-01 -1.30441E+00 -9.54063E-01  5.10379E-01  2.05914E+00
   2.82231E+00  2.58942E+00  1.35370E+00 -3.41290E-01 -1.65672E+00 -2.03536E+00 -1.52249E+00 -7.04946E-01 -2.91585E-01 -3.35015E-01
  -3.76501E-01 -3.94644E-01 -4.31855E-01 -4.78829E-01 -5.27839E-01 -5.64133E-01 -5.74958E-01 -5.53085E-01 -5.04033E-01 -4.18402E-01
  -2.36398E-01  4.32251E-01  2.76134E+00  5.68130E+00  7.14642E+00  6.66605E+00  4.29374E+00  6.09537E-01 -2.78799E+00 -4.31274E+00
  -3.62593E+00 -1.76341E+00 -4.35748E-01 -3.44486E-01 -5.46930E-01 -5.57819E-01 -5.40921E-01 -5.35613E-01 -5.40305E-01 -5.45973E-01
  -5.46511E-01 -5.37678E-01 -5.22815E-01 -5.08372E-01 -5.03144E-01 -5.12401E-01 -5.29078E-01 -5.40066E-01 -5.38043E-01 -5.32925E-01
  -5.34078E-01 -5.38127E-01 -5.40353E-01 -5.32732E-01 -5.14704E-01 -5.06302E-01 -5.14577E-01 -5.35494E-01 -5.63473E-01 -5.88013E-01
  -5.99234E-01 -5.98943E-01 -5.91356E-01 -5.85137E-01 -5.89377E-01 -6.04919E-01 -6.20634E-01 -6.32165E-01 -6.41157E-01 -6.45385E-01
  -6.49852E-01 -6.67342E-01 -6.98238E-01 -7.34830E-01 -7.63013E-01 -7.73349E-01 -7.72915E-01 -7.81621E-01 -8.05517E-01 -8.20384E-01
  -8.12918E-01 -7.91024E-01 -7.67773E-01 -7.59047E-01 -7.74613E-01 -8.10389E-01 -8.48568E-01 -8.70687E-01 -8.79911E-01 -8.89287E-01
  -9.06017E-01 -9.24887E-01 -9.37573E-01 -9.40199E-01 -9.31089E-01 -9.11893E-01 -8.96457E-01 -8.93676E-01 -9.01021E-01 -9.14070E-01
  -9.32431E-01 -9.50788E-01 -9.61938E-01 -9.66698E-01 -9.74158E-01 -9.83382E-01 -9.88088E-01 -9.83189E-01 -9.68590E-01 -9.48678E-01
  -9.32828E-01 -9.29953E-01 -9.40612E-01 -9.56597E-01 -9.64011E-01 -9.58034E-01 -9.42472E-01 -9.17447E-01 -8.79974E-01 -8.32997E-01
  -7.89759E-01 -7.66455E-01 -7.69717E-01 -8.01033E-01 -8.51699E-01 -9.08231E-01 -9.56395E-01 -9.68911E-01 -9.36673E-01 -8.79077E-01
  -8.08807E-01 -7.41812E-01 -7.06497E-01 -7.18529E-01 -7.62664E-01 -8.12760E-01 -8.45356E-01 -8.59372E-01 -8.61014E-01 -8.46924E-01
  -8.23621E-01 -7.99958E-01 -7.74781E-01 -7.52487E-01 -7.44395E-01 -7.51169E-01 -7.60919E-01 -7.57126E-01 -7.31521E-01 -6.85158E-01
  -5.57428E-01 -1.93344E-01  2.03906E-01  3.75332E-01  2.74047E-01 -8.86607E-02 -6.12943E-01 -1.06365E+00 -1.23610E+00 -1.10716E+00
  -8.43271E-01 -6.84779E-01 -7.01873E-01 -7.53861E-01 -7.92359E-01 -8.32733E-01 -8.66204E-01 -8.84980E-01 -8.90335E-01 -8.83975E-01
  -8.71085E-01 -8.60857E-01 -8.64165E-01 -8.83969E-01 -9.12443E-01 -9.37001E-01 -9.53073E-01 -9.60284E-01 -9.54548E-01 -9.37378E-01
  -9.15084E-01 -8.88275E-01 -8.57787E-01 -8.24172E-01 -7.86419E-01 -7.44684E-01 -6.97425E-01 -6.36494E-01 -5.57877E-01 -4.62640E-01
  -3.49998E-01 -2.20080E-01 -7.28328E-02  9.57992E-02  2.89753E-01  5.14739E-01  7.75682E-01  1.07281E+00  1.40471E+00  1.77127E+00
   2.17020E+00  2.59654E+00  3.04499E+00  3.51027E+00  3.98650E+00  4.46536E+00  4.93575E+00  5.38635E+00  5.80573E+00  6.18244E+00
   6.50581E+00  6.76643E+00  6.95672E+00  7.07131E+00  7.10737E+00  7.06470E+00  6.94579E+00  6.75566E+00  6.50173E+00  6.19336E+00
   5.84142E+00  5.45760E+00  5.05392E+00  4.64220E+00  4.23366E+00  3.83848E+00  3.46554E+00  3.12224E+00  2.81442E+00  2.54641E+00
   2.32114E+00  2.14025E+00  2.00429E+00  1.91291E+00  1.86508E+00  1.85929E+00  1.89373E+00  1.96636E+00  2.07513E+00  2.21806E+00
   2.39348E+00  2.60021E+00  2.83774E+00  3.10633E+00  3.40703E+00  3.74138E+00  4.11088E+00  4.51591E+00  4.95432E+00  5.41998E+00
   5.90146E+00  6.38161E+00  6.83809E+00  7.24530E+00  7.57745E+00  7.81224E+00  7.93442E+00  7.93824E+00  7.82827E+00  7.61826E+00
   7.32847E+00  6.98211E+00  6.60184E+00  6.20699E+00  5.81196E+00  5.42590E+00  5.05343E+00  4.69591E+00  4.35291E+00  4.02342E+00
   3.70662E+00  3.40235E+00  3.11115E+00  2.83420E+00  2.57309E+00  2.32961E+00  2.10552E+00  1.90245E+00  1.72181E+00  1.56482E+00
   1.43249E+00  1.32561E+00  1.24477E+00  1.19037E+00  1.16260E+00  1.16149E+00  1.18683E+00  1.23811E+00  1.31445E+00  1.41457E+00
   1.53670E+00  1.67857E+00  1.83734E+00  2.00953E+00  2.19108E+00  2.37740E+00  2.56345E+00  2.74390E+00  2.91324E+00  3.06599E+00
   3.19690E+00  3.30119E+00  3.37480E+00  3.41450E+00  3.41805E+00  3.38432E+00  3.31329E+00  3.20612E+00  3.06500E+00  2.89306E+00
   2.69417E+00  2.47273E+00  2.23352E+00  1.98145E+00  1.72137E+00  1.45787E+00  1.19515E+00  9.36879E-01  6.86183E-01  4.45597E-01
   2.17046E-01  1.86157E-03 -1.99164E-01 -3.85690E-01 -5.57749E-01 -7.15680E-01 -8.60072E-01 -9.91701E-01 -1.11146E+00 -1.22028E+00
  -1.31910E+00 -1.40884E+00 -1.49042E+00 -1.56469E+00 -1.63244E+00 -1.69439E+00 -1.75116E+00 -1.80334E+00 -1.85143E+00 -1.89592E+00
  -1.93720E+00 -1.97562E+00 -2.01148E+00 -2.04503E+00 -2.07654E+00 -2.10623E+00 -2.13426E+00 -2.16080E+00 -2.18597E+00 -2.20990E+00
  -2.23272E+00 -2.25454E+00 -2.27543E+00 -2.29546E+00 -2.31468E+00 -2.33319E+00 -2.35104E+00 -2.36829E+00 -2.38496E+00 -2.40110E+00
  -2.41673E+00 -2.43192E+00 -2.44669E+00 -2.46108E+00 -2.47508E+00 -2.48872E+00 -2.50203E+00 -2.51506E+00 -2.52781E+00 -2.54028E+00
  -2.55249E+00 -2.56445E+00 -2.57618E+00 -2.58772E+00 -2.59907E+00 -2.61021E+00 -2.62116E+00 -2.63193E+00 -2.64255E+00 -2.65304E+00
  -2.66337E+00 -2.67354E+00 -2.68358E+00 -2.69349E+00 -2.70329E+00 -2.71298E+00 -2.72256E+00 -2.73201E+00 -2.74136E+00 -2.75062E+00
  -2.75980E+00 -2.76889E+00 -2.77788E+00 -2.78677E+00 -2.79559E+00 -2.80434E+00 -2.81303E+00 -2.82163E+00
 NY background values follow
     1.530E-01    1.468E-01    1.405E-01    1.343E-01    1.280E-01    1.217E-01    1.155E-01    1.092E-01    1.030E-01    9.670E-02
     9.044E-02    8.418E-02    7.792E-02    7.166E-02    6.540E-02    5.914E-02    5.288E-02    4.662E-02    4.037E-02    3.411E-02
     2.785E-02    2.159E-02    1.533E-02    9.068E-03    2.809E-03   -3.450E-03   -9.710E-03   -1.597E-02   -2.223E-02   -2.849E-02
    -3.475E-02   -4.101E-02   -4.727E-02   -5.352E-02   -5.978E-02   -6.604E-02   -7.230E-02   -7.856E-02   -8.482E-02   -9.108E-02
    -9.734E-02   -1.036E-01   -1.099E-01   -1.161E-01   -1.224E-01   -1.286E-01   -1.349E-01   -1.412E-01   -1.474E-01   -1.537E-01
    -1.599E-01   -1.662E-01   -1.725E-01   -1.787E-01   -1.850E-01   -1.912E-01   -1.975E-01   -2.037E-01   -2.100E-01   -2.163E-01
    -2.225E-01   -2.288E-01   -2.350E-01   -2.413E-01   -2.476E-01   -2.538E-01   -2.601E-01   -2.663E-01   -2.726E-01   -2.789E-01
    -2.851E-01   -2.914E-01   -2.976E-01   -3.039E-01   -3.102E-01   -3.164E-01   -3.227E-01   -3.289E-01   -3.352E-01   -3.415E-01
    -3.477E-01   -3.540E-01   -3.602E-01   -3.665E-01   -3.728E-01   -3.790E-01   -3.853E-01   -3.915E-01   -3.978E-01   -4.040E-01
    -4.103E-01   -4.166E-01   -4.228E-01   -4.291E-01   -4.353E-01   -4.416E-01   -4.479E-01   -4.541E-01   -4.604E-01   -4.666E-01
    -4.729E-01   -4.792E-01   -4.854E-01   -4.917E-01   -4.979E-01   -5.042E-01   -5.105E-01   -5.167E-01   -5.230E-01   -5.292E-01
    -5.355E-01   -5.418E-01   -5.480E-01   -5.543E-01   -5.605E-01   -5.668E-01   -5.730E-01   -5.793E-01   -5.856E-01   -5.918E-01
    -5.981E-01   -6.043E-01   -6.106E-01   -6.169E-01   -6.231E-01   -6.294E-01   -6.356E-01   -6.419E-01   -6.482E-01   -6.544E-01
    -6.607E-01   -6.669E-01   -6.732E-01   -6.795E-01   -6.857E-01   -6.920E-01   -6.982E-01   -7.045E-01   -7.107E-01   -7.170E-01
    -7.233E-01   -7.295E-01   -7.358E-01   -7.420E-01   -7.483E-01   -7.546E-01   -7.608E-01   -7.671E-01   -7.733E-01   -7.796E-01
    -7.859E-01   -7.921E-01   -7.984E-01   -8.046E-01   -8.109E-01   -8.171E-01   -8.234E-01   -8.297E-01   -8.359E-01   -8.422E-01
    -8.484E-01   -8.547E-01   -8.610E-01   -8.672E-01   -8.735E-01   -8.797E-01   -8.860E-01   -8.923E-01   -8.985E-01   -9.048E-01
    -9.110E-01   -9.173E-01   -9.235E-01   -9.298E-01   -9.361E-01   -9.423E-01   -9.486E-01   -9.548E-01   -9.611E-01   -9.674E-01
    -9.736E-01   -9.799E-01   -9.861E-01   -9.924E-01   -9.987E-01   -1.005E+00   -1.011E+00   -1.017E+00   -1.024E+00   -1.030E+00
    -1.036E+00   -1.042E+00   -1.049E+00   -1.055E+00   -1.061E+00   -1.067E+00   -1.074E+00   -1.080E+00   -1.086E+00   -1.093E+00
    -1.099E+00   -1.105E+00   -1.111E+00   -1.118E+00   -1.124E+00   -1.130E+00   -1.136E+00   -1.143E+00   -1.149E+00   -1.155E+00
    -1.161E+00   -1.168E+00   -1.174E+00   -1.180E+00   -1.186E+00   -1.193E+00   -1.199E+00   -1.205E+00   -1.211E+00   -1.218E+00
    -1.224E+00   -1.230E+00   -1.236E+00   -1.243E+00   -1.249E+00   -1.255E+00   -1.262E+00   -1.268E+00   -1.274E+00   -1.280E+00
    -1.287E+00   -1.293E+00   -1.299E+00   -1.305E+00   -1.312E+00   -1.318E+00   -1.324E+00   -1.330E+00   -1.337E+00   -1.343E+00
    -1.349E+00   -1.355E+00   -1.362E+00   -1.368E+00   -1.374E+00   -1.380E+00   -1.387E+00   -1.393E+00   -1.399E+00   -1.405E+00
    -1.412E+00   -1.418E+00   -1.424E+00   -1.430E+00   -1.437E+00   -1.443E+00   -1.449E+00   -1.456E+00   -1.462E+00   -1.468E+00
    -1.474E+00   -1.481E+00   -1.487E+00   -1.493E+00   -1.499E+00   -1.506E+00   -1.512E+00   -1.518E+00   -1.524E+00   -1.531E+00
    -1.537E+00   -1.543E+00   -1.549E+00   -1.556E+00   -1.562E+00   -1.568E+00   -1.574E+00   -1.581E+00   -1.587E+00   -1.593E+00
    -1.599E+00   -1.606E+00   -1.612E+00   -1.618E+00   -1.624E+00   -1.631E+00   -1.637E+00   -1.643E+00   -1.650E+00   -1.656E+00
    -1.662E+00   -1.668E+00   -1.675E+00   -1.681E+00   -1.687E+00   -1.693E+00   -1.700E+00   -1.706E+00   -1.712E+00   -1.718E+00
    -1.725E+00   -1.731E+00   -1.737E+00   -1.743E+00   -1.750E+00   -1.756E+00   -1.762E+00   -1.768E+00   -1.775E+00   -1.781E+00
    -1.787E+00   -1.793E+00   -1.800E+00   -1.806E+00   -1.812E+00   -1.818E+00   -1.825E+00   -1.831E+00   -1.837E+00   -1.844E+00
    -1.850E+00   -1.856E+00   -1.862E+00   -1.869E+00   -1.875E+00   -1.881E+00   -1.887E+00   -1.894E+00   -1.900E+00   -1.906E+00
    -1.912E+00   -1.919E+00   -1.925E+00   -1.931E+00   -1.937E+00   -1.944E+00   -1.950E+00   -1.956E+00   -1.962E+00   -1.969E+00
    -1.975E+00   -1.981E+00   -1.987E+00   -1.994E+00   -2.000E+00   -2.006E+00   -2.013E+00   -2.019E+00   -2.025E+00   -2.031E+00
    -2.038E+00   -2.044E+00   -2.050E+00   -2.056E+00   -2.063E+00   -2.069E+00   -2.075E+00   -2.081E+00   -2.088E+00   -2.094E+00
    -2.100E+00   -2.106E+00   -2.113E+00   -2.119E+00   -2.125E+00   -2.131E+00   -2.138E+00   -2.144E+00   -2.150E+00   -2.156E+00
    -2.163E+00   -2.169E+00   -2.175E+00   -2.181E+00   -2.188E+00   -2.194E+00   -2.200E+00   -2.207E+00   -2.213E+00   -2.219E+00
    -2.225E+00   -2.232E+00   -2.238E+00   -2.244E+00   -2.250E+00   -2.257E+00   -2.263E+00   -2.269E+00   -2.275E+00   -2.282E+00
    -2.288E+00   -2.294E+00   -2.300E+00   -2.307E+00   -2.313E+00   -2.319E+00   -2.325E+00   -2.332E+00   -2.338E+00   -2.344E+00
    -2.350E+00   -2.357E+00   -2.363E+00   -2.369E+00   -2.375E+00   -2.382E+00   -2.388E+00   -2.394E+00   -2.401E+00   -2.407E+00
    -2.413E+00   -2.419E+00   -2.426E+00   -2.432E+00   -2.438E+00   -2.444E+00   -2.451E+00   -2.457E+00   -2.463E+00   -2.469E+00
    -2.476E+00   -2.482E+00   -2.488E+00   -2.494E+00   -2.501E+00   -2.507E+00   -2.513E+00   -2.519E+00   -2.526E+00   -2.532E+00
    -2.538E+00   -2.544E+00   -2.551E+00   -2.557E+00   -2.563E+00   -2.570E+00   -2.576E+00   -2.582E+00   -2.588E+00   -2.595E+00
    -2.601E+00   -2.607E+00   -2.613E+00   -2.620E+00   -2.626E+00   -2.632E+00   -2.638E+00   -2.645E+00   -2.651E+00   -2.657E+00
    -2.663E+00   -2.670E+00   -2.676E+00   -2.682E+00   -2.688E+00   -2.695E+00   -2.701E+00   -2.707E+00   -2.713E+00   -2.720E+00
    -2.726E+00   -2.732E+00   -2.738E+00   -2.745E+00   -2.751E+00   -2.757E+00   -2.764E+00   -2.770E+00   -2.776E+00   -2.782E+00
    -2.789E+00   -2.795E+00   -2.801E+00   -2.807E+00   -2.814E+00   -2.820E+00   -2.826E+00   -2.832E+00   -2.839E+00   -2.845E+00
    -2.851E+00   -2.857E+00   -2.864E+00   -2.870E+00   -2.876E+00   -2.882E+00   -2.889E+00   -2.895E+00   -2.901E+00   -2.907E+00
    -2.914E+00   -2.920E+00   -2.926E+00   -2.932E+00   -2.939E+00   -2.945E+00   -2.951E+00   -2.958E+00
 Asp      Conc. = 5.41E+00
