 LCModel (Version 6.3-1L) Copyright: S.W. Provencher.          Ref.: Magn. Reson. Med. 30:672-679 (1993).                
 Slice#3 Row#8 Col#8  PD_05_press_2_raw_act
 36 lines in following concentration table = NCONC+1
    Conc.  %SD /Cr+PCr  Metabolite                                         
    0.000 999%   0.000 Ala                                                 
    0.000 999%   0.000 Asp                                                 
    0.000 999%   0.000 Cr                                                  
 3.36E+03   4%   1.000 PCr                                                 
  230.001 134% 6.8E-02 GABA                                                
  130.484 229% 3.9E-02 Glc                                                 
 1.17E+03  39%   0.347 Gln                                                 
 3.29E+03  17%   0.979 Glu                                                 
 1.16E+03   4%   0.344 GPC                                                 
    0.000 999%   0.000 PCh                                                 
  924.407  16%   0.275 GSH                                                 
 3.17E+03  16%   0.943 Ins                                                 
   95.401 251% 2.8E-02 Lac                                                 
 4.71E+03   3%   1.401 NAA                                                 
    0.000 999%   0.000 NAAG                                                
  371.412  15%   0.111 Scyllo                                              
  729.220  57%   0.217 Tau                                                 
  659.898  31%   0.196 -CrCH2                                              
 1.16E+03   4%   0.344 GPC+PCh                                             
 4.71E+03   3%   1.401 NAA+NAAG                                            
 3.36E+03   4%   1.000 Cr+PCr                                              
 4.46E+03  17%   1.327 Glu+Gln                                             
 1.36E+03  40%   0.404 Lip13a                                              
    0.000 999%   0.000 Lip13b                                              
    0.000 999%   0.000 Lip09                                               
 1.30E+03  25%   0.388 MM09                                                
  183.428 125% 5.5E-02 Lip20                                               
 2.76E+03  20%   0.821 MM20                                                
  416.778  39%   0.124 MM12                                                
 1.44E+03  32%   0.427 MM14                                                
  695.880  47%   0.207 MM17                                                
 1.36E+03  40%   0.404 Lip13a+Lip13b                                       
 3.21E+03  22%   0.955 MM14+Lip13a+Lip13b+MM12                             
 1.30E+03  25%   0.388 MM09+Lip09                                          
 2.94E+03  20%   0.876 MM20+Lip20                                          
   6 lines in following misc. output table
  FWHM = 0.061 ppm    S/N =  12                                            
  Data shift = 0.008 ppm                                                   
  Ph: -50 deg     -19.6 deg/ppm                                            
  alphaB,S = 1.4E+00,   8.9E+01                                            
   14 spline knots.   Ns = 7(1)                                            
  (11) 3 infls.   ( 5) 1 extrs.                                            
  498 points on ppm-axis = NY
      4.000000     3.992357     3.984714     3.977070     3.969427     3.961784     3.954141     3.946497     3.938854     3.931211
      3.923568     3.915925     3.908281     3.900638     3.892995     3.885352     3.877708     3.870065     3.862422     3.854779
      3.847136     3.839492     3.831849     3.824206     3.816563     3.808919     3.801276     3.793633     3.785990     3.778347
      3.770703     3.763060     3.755417     3.747774     3.740130     3.732487     3.724844     3.717201     3.709558     3.701914
      3.694271     3.686628     3.678985     3.671341     3.663698     3.656055     3.648412     3.640769     3.633125     3.625482
      3.617839     3.610196     3.602552     3.594909     3.587266     3.579623     3.571980     3.564336     3.556693     3.549050
      3.541407     3.533763     3.526120     3.518477     3.510834     3.503191     3.495547     3.487904     3.480261     3.472618
      3.464974     3.457331     3.449688     3.442045     3.434402     3.426758     3.419115     3.411472     3.403829     3.396185
      3.388542     3.380899     3.373256     3.365613     3.357969     3.350326     3.342683     3.335040     3.327396     3.319753
      3.312110     3.304467     3.296824     3.289180     3.281537     3.273894     3.266251     3.258607     3.250964     3.243321
      3.235678     3.228034     3.220391     3.212748     3.205105     3.197462     3.189818     3.182175     3.174532     3.166889
      3.159245     3.151602     3.143959     3.136316     3.128673     3.121029     3.113386     3.105743     3.098100     3.090456
      3.082813     3.075170     3.067527     3.059884     3.052240     3.044597     3.036954     3.029311     3.021667     3.014024
      3.006381     2.998738     2.991095     2.983451     2.975808     2.968165     2.960522     2.952878     2.945235     2.937592
      2.929949     2.922306     2.914662     2.907019     2.899376     2.891733     2.884089     2.876446     2.868803     2.861160
      2.853517     2.845873     2.838230     2.830587     2.822944     2.815300     2.807657     2.800014     2.792371     2.784728
      2.777084     2.769441     2.761798     2.754155     2.746511     2.738868     2.731225     2.723582     2.715939     2.708295
      2.700652     2.693009     2.685366     2.677722     2.670079     2.662436     2.654793     2.647150     2.639506     2.631863
      2.624220     2.616577     2.608933     2.601290     2.593647     2.586004     2.578361     2.570717     2.563074     2.555431
      2.547788     2.540144     2.532501     2.524858     2.517215     2.509572     2.501928     2.494285     2.486642     2.478999
      2.471355     2.463712     2.456069     2.448426     2.440783     2.433139     2.425496     2.417853     2.410210     2.402566
      2.394923     2.387280     2.379637     2.371994     2.364350     2.356707     2.349064     2.341421     2.333777     2.326134
      2.318491     2.310848     2.303205     2.295561     2.287918     2.280275     2.272632     2.264988     2.257345     2.249702
      2.242059     2.234416     2.226772     2.219129     2.211486     2.203843     2.196199     2.188556     2.180913     2.173270
      2.165627     2.157983     2.150340     2.142697     2.135054     2.127410     2.119767     2.112124     2.104481     2.096838
      2.089194     2.081551     2.073908     2.066265     2.058621     2.050978     2.043335     2.035692     2.028049     2.020405
      2.012762     2.005119     1.997476     1.989833     1.982190     1.974546     1.966903     1.959260     1.951617     1.943974
      1.936331     1.928688     1.921045     1.913402     1.905759     1.898115     1.890472     1.882829     1.875186     1.867543
      1.859900     1.852257     1.844614     1.836971     1.829327     1.821684     1.814041     1.806398     1.798755     1.791112
      1.783469     1.775826     1.768183     1.760540     1.752896     1.745253     1.737610     1.729967     1.722324     1.714681
      1.707038     1.699395     1.691752     1.684108     1.676465     1.668822     1.661179     1.653536     1.645893     1.638250
      1.630607     1.622964     1.615321     1.607677     1.600034     1.592391     1.584748     1.577105     1.569462     1.561819
      1.554176     1.546533     1.538890     1.531246     1.523603     1.515960     1.508317     1.500674     1.493031     1.485388
      1.477745     1.470102     1.462458     1.454815     1.447172     1.439529     1.431886     1.424243     1.416600     1.408957
      1.401314     1.393671     1.386027     1.378384     1.370741     1.363098     1.355455     1.347812     1.340169     1.332526
      1.324883     1.317240     1.309596     1.301953     1.294310     1.286667     1.279024     1.271381     1.263738     1.256095
      1.248452     1.240808     1.233165     1.225522     1.217879     1.210236     1.202593     1.194950     1.187307     1.179664
      1.172021     1.164377     1.156734     1.149091     1.141448     1.133805     1.126162     1.118519     1.110876     1.103233
      1.095590     1.087946     1.080303     1.072660     1.065017     1.057374     1.049731     1.042088     1.034445     1.026802
      1.019158     1.011515     1.003872     0.996229     0.988586     0.980943     0.973300     0.965657     0.958014     0.950371
      0.942727     0.935084     0.927441     0.919798     0.912155     0.904512     0.896869     0.889226     0.881583     0.873940
      0.866296     0.858653     0.851010     0.843367     0.835724     0.828081     0.820438     0.812795     0.805152     0.797508
      0.789865     0.782222     0.774579     0.766936     0.759293     0.751650     0.744007     0.736364     0.728721     0.721077
      0.713434     0.705791     0.698148     0.690505     0.682862     0.675219     0.667576     0.659933     0.652290     0.644646
      0.637003     0.629360     0.621717     0.614074     0.606431     0.598788     0.591145     0.583502     0.575858     0.568215
      0.560572     0.552929     0.545286     0.537643     0.530000     0.522357     0.514714     0.507071     0.499427     0.491784
      0.484141     0.476498     0.468855     0.461212     0.453569     0.445925     0.438282     0.430639     0.422996     0.415353
      0.407710     0.400067     0.392424     0.384780     0.377137     0.369494     0.361851     0.354208     0.346565     0.338922
      0.331278     0.323635     0.315992     0.308349     0.300706     0.293063     0.285420     0.277777     0.270133     0.262490
      0.254847     0.247204     0.239561     0.231918     0.224275     0.216631     0.208988     0.201345
 NY phased data points follow
  -1.20029E+02 -1.04256E+02 -9.06000E+01 -7.90820E+01 -7.87040E+01 -7.08430E+01 -5.13030E+01 -3.47813E+01 -3.73126E+01 -2.83760E+01
  -3.77891E+01 -4.09088E+01 -5.15306E+01 -6.79037E+01 -7.66639E+01 -8.00807E+01 -9.21357E+01 -8.18662E+01 -9.05390E+01 -9.11929E+01
  -8.76390E+01 -8.09547E+01 -8.30942E+01 -8.53366E+01 -7.32465E+01 -6.83971E+01 -6.96993E+01 -6.58983E+01 -6.87020E+01 -5.14131E+01
  -5.32919E+01 -6.29196E+01 -6.49510E+01 -6.47188E+01 -6.89931E+01 -6.87697E+01 -6.94698E+01 -6.03941E+01 -6.77353E+01 -5.89013E+01
  -6.92339E+01 -6.05795E+01 -6.28724E+01 -5.21187E+01 -4.04451E+01 -3.72047E+01 -4.24352E+01 -4.85173E+01 -5.35863E+01 -4.61694E+01
  -5.92609E+01 -6.00665E+01 -5.57092E+01 -5.51191E+01 -5.92953E+01 -5.62969E+01 -5.12176E+01 -4.88921E+01 -5.30701E+01 -5.24172E+01
  -5.79268E+01 -6.02630E+01 -6.97157E+01 -6.41606E+01 -6.59590E+01 -6.64575E+01 -7.05893E+01 -6.78272E+01 -6.73568E+01 -5.79643E+01
  -5.44968E+01 -4.85655E+01 -5.97272E+01 -5.29455E+01 -4.78581E+01 -5.45622E+01 -5.35196E+01 -4.81120E+01 -5.25959E+01 -5.28008E+01
  -4.89734E+01 -4.23591E+01 -4.57667E+01 -3.49462E+01 -4.20913E+01 -3.69907E+01 -4.22681E+01 -2.67674E+01 -3.23971E+01 -4.72898E+01
  -2.50810E+01 -3.70075E+01 -4.20115E+01 -3.36841E+01 -3.46037E+01 -2.57592E+01 -2.01525E+01 -1.40613E+01 -3.02389E+00  1.31462E+01
   2.67307E+01  4.44894E+01  4.40258E+01  5.26453E+01  4.00672E+01  3.25639E+01  2.00121E+01 -1.92704E+00 -1.13011E+01 -7.92125E+00
  -3.15520E+01 -2.24472E+01 -2.46081E+01 -3.21550E+01 -2.64080E+01 -1.82240E+01 -2.73490E+01 -2.64494E+01 -2.64099E+01 -2.45844E+01
  -1.73000E+01 -7.82687E+00  1.16601E+01  3.64815E+01  4.23798E+01  6.91740E+01  6.13445E+01  6.97721E+01  5.35930E+01  3.60403E+01
   2.25172E+01  1.54019E+01 -3.50417E+00 -1.63376E+01 -2.78418E+01 -2.26748E+01 -3.25336E+01 -2.88616E+01 -3.10803E+01 -2.20553E+01
  -3.08166E+01 -2.81031E+01 -3.27379E+01 -3.33804E+01 -2.96881E+01 -2.56756E+01 -3.23254E+01 -3.14618E+01 -2.89321E+01 -2.28222E+01
  -2.86849E+01 -3.02675E+01 -2.82745E+01 -2.52159E+01 -3.21397E+01 -2.67865E+01 -2.65486E+01 -2.55098E+01 -2.50255E+01 -2.88200E+01
  -3.37008E+01 -3.22404E+01 -3.19554E+01 -3.09072E+01 -2.87082E+01 -1.92595E+01 -2.61146E+01 -1.59604E+01 -2.01721E+01 -2.57072E+01
  -3.56810E+01 -2.77373E+01 -3.76743E+01 -3.65644E+01 -3.73102E+01 -4.34470E+01 -3.48847E+01 -3.76404E+01 -3.29413E+01 -3.87679E+01
  -4.46338E+01 -3.11891E+01 -3.62300E+01 -3.83942E+01 -2.12829E+01 -3.60723E+01 -2.05776E+01 -1.99033E+01 -1.31005E+01 -1.09863E+01
  -2.75500E-01 -7.37223E-01  2.52715E+00  4.93373E+00 -1.13528E+00 -6.43220E+00 -4.74665E+00 -1.03852E+01 -1.26330E+01 -8.34511E+00
   4.43433E+00 -7.22865E+00 -5.18027E+00  6.36510E+00 -3.68010E+00 -1.02142E+01 -1.31169E+01 -1.40606E+01 -2.05509E+01 -2.12878E+01
  -1.79694E+01 -1.30138E+01 -7.33569E+00  6.23157E+00  4.11930E+00  1.30472E+01  9.50061E+00  6.61028E+00 -4.72238E+00 -2.43401E+00
  -5.55137E+00 -1.01082E+01 -2.21499E+01 -2.69542E+00 -7.79473E+00  3.41060E+00  5.54304E+00  8.86710E+00  1.88323E+00  1.14402E+01
   5.55771E+00  9.03871E+00  3.87816E+00  8.44592E+00  1.37706E+01  1.96584E+01  1.47073E+01  1.47903E+01  1.30972E+01  8.70148E+00
  -2.72409E-01 -4.12400E+00  8.02726E+00  1.20085E+01  9.72237E+00  1.46167E+01  1.80211E+01  2.55836E+01  3.15292E+01  2.53016E+01
   1.43797E+01  2.69654E+01  2.48638E+01  2.89905E+01  4.99531E+01  5.83065E+01  8.55131E+01  1.16091E+02  1.42063E+02  1.51968E+02
   1.55521E+02  1.60570E+02  1.34893E+02  1.07481E+02  8.66774E+01  6.24384E+01  4.33569E+01  3.51241E+01  3.18300E+01  2.34201E+01
   2.46199E+01  2.18741E+01  1.90478E+01  1.85125E+01  1.53973E+01  1.73702E+01  1.76009E+01  1.58897E+01  2.02089E+01  1.58556E+01
   2.40526E+01  2.47030E+01  1.57255E+01  4.59506E+00  1.04627E+01  1.30789E+01  1.90004E+01  5.81537E+00  1.47775E+01  3.31784E+01
   1.62351E+01  1.69180E+01  1.33098E+01  1.65052E+01  1.01352E+01  2.10530E+01  1.50923E+01  1.41264E+01  1.38460E+01  1.43319E+01
   1.41164E+01  1.81508E+01  1.84527E+01  1.74685E+01  9.09650E+00  2.03322E+01  1.54107E+01  2.47199E+01  2.11482E+01  3.31741E+01
   2.10956E+01  1.69937E+01  2.48299E+01  2.81164E+01  2.06880E+01  1.86914E+01  2.48254E+01  2.52669E+01  2.14229E+01  2.46296E+01
   2.16487E+01  2.46046E+01  2.83239E+01  2.76318E+01  2.37079E+01  3.07535E+01  2.46886E+01  3.17818E+01  2.74959E+01  2.30037E+01
   2.99829E+01  2.91128E+01  2.75614E+01  2.03883E+01  2.30137E+01  2.41840E+01  2.57318E+01  2.42150E+01  3.05676E+01  1.99824E+01
   1.89954E+01  2.74873E+01  3.18339E+01  2.27224E+01  2.94233E+01  3.96746E+01  3.51274E+01  3.11891E+01  3.34783E+01  2.28147E+01
   2.45716E+01  2.89303E+01  2.85767E+01  3.06349E+01  3.10797E+01  2.60413E+01  2.83518E+01  2.58111E+01  2.79100E+01  2.78003E+01
   2.81924E+01  2.47773E+01  2.85872E+01  2.74443E+01  2.51918E+01  3.06295E+01  2.60354E+01  2.71310E+01  3.79341E+01  2.58283E+01
   3.75051E+01  2.68494E+01  3.04017E+01  2.21968E+01  2.35339E+01  2.57303E+01  2.39454E+01  2.87524E+01  2.38665E+01  2.71384E+01
   2.07769E+01  1.90861E+01  2.40975E+01  2.34833E+01  2.29933E+01  2.39261E+01  1.96236E+01  1.83144E+01  2.54143E+01  2.15977E+01
   2.25670E+01  3.15464E+01  2.78041E+01  2.71801E+01  3.38039E+01  2.60559E+01  2.64465E+01  3.48964E+01  2.58557E+01  2.15273E+01
   2.90952E+01  2.67251E+01  2.50275E+01  2.09882E+01  1.94969E+01  2.89972E+01  2.60952E+01  2.69695E+01  3.88264E+01  2.52741E+01
   2.49611E+01  2.87540E+01  2.98892E+01  3.16838E+01  2.54887E+01  3.37968E+01  2.68032E+01  2.42693E+01  2.26983E+01  2.04522E+01
   3.09600E+01  2.80386E+01  1.98945E+01  2.42633E+01  3.65169E+01  1.76744E+01  2.24450E+01  2.27511E+01  2.49415E+01  1.58592E+01
   2.53635E+01  2.37604E+01  1.72090E+01  2.54243E+01  2.25599E+01  1.27261E+01  1.73988E+01  2.29143E+01  3.18276E+01  1.68384E+01
   2.80175E+01  1.52803E+01  2.11794E+01  1.67253E+01  2.75145E+01  3.06701E+01  1.28883E+01  2.21387E+01  2.76275E+01  1.97234E+01
   2.19572E+01  2.01060E+01  2.80411E+01  1.93902E+01  2.35812E+01  2.70043E+01  2.82015E+01  2.47026E+01  2.32944E+01  2.62705E+01
   1.49390E+01  3.05824E+01  2.77085E+01  1.76733E+01  2.46646E+01  2.56663E+01  2.26789E+01  2.78535E+01  2.16840E+01  2.41806E+01
   1.97257E+01  2.19807E+01  2.77419E+01  2.23263E+01  2.62912E+01  2.14568E+01  2.63146E+01  2.36025E+01  2.75793E+01  3.21491E+01
   2.39455E+01  2.20172E+01  1.86161E+01  2.99025E+01  2.28200E+01  2.32179E+01  2.80495E+01  2.78323E+01  2.18351E+01  2.46044E+01
   2.58241E+01  2.56159E+01  2.34101E+01  2.62184E+01  2.80987E+01  2.54547E+01  2.16010E+01  2.55362E+01
 NY points of the fit to the data follow
  -9.66203E+01 -9.47620E+01 -8.90345E+01 -8.11974E+01 -7.18459E+01 -6.06547E+01 -4.93290E+01 -4.04588E+01 -3.56573E+01 -3.52715E+01
  -3.95379E+01 -4.71289E+01 -5.56683E+01 -6.35371E+01 -6.97089E+01 -7.39632E+01 -7.73320E+01 -8.04459E+01 -8.17377E+01 -8.19725E+01
  -8.20155E+01 -8.21307E+01 -8.18436E+01 -8.03927E+01 -7.84145E+01 -7.56088E+01 -7.16486E+01 -6.69814E+01 -6.24491E+01 -5.87824E+01
  -5.62919E+01 -5.56206E+01 -5.68326E+01 -5.93014E+01 -6.25406E+01 -6.59803E+01 -6.88838E+01 -7.12534E+01 -7.27462E+01 -7.20509E+01
  -6.92435E+01 -6.52397E+01 -6.06969E+01 -5.57624E+01 -5.12183E+01 -4.82342E+01 -4.71656E+01 -4.80930E+01 -5.09117E+01 -5.47764E+01
  -5.87058E+01 -6.18159E+01 -6.34362E+01 -6.37626E+01 -6.33243E+01 -6.22763E+01 -6.05316E+01 -5.86236E+01 -5.72632E+01 -5.66395E+01
  -5.67348E+01 -5.73746E+01 -5.81590E+01 -5.87955E+01 -5.88379E+01 -5.82040E+01 -5.71952E+01 -5.60168E+01 -5.46345E+01 -5.31553E+01
  -5.18431E+01 -5.07629E+01 -4.99312E+01 -4.94873E+01 -4.94901E+01 -4.97638E+01 -5.01887E+01 -5.07035E+01 -5.10211E+01 -5.08365E+01
  -4.93195E+01 -4.70741E+01 -4.44342E+01 -4.14396E+01 -3.85394E+01 -3.62966E+01 -3.51527E+01 -3.51394E+01 -3.62361E+01 -3.80154E+01
  -3.99813E+01 -4.16413E+01 -4.26007E+01 -4.28973E+01 -4.25268E+01 -3.99743E+01 -3.16549E+01 -1.93667E+01 -4.63174E+00  1.27792E+01
   3.05023E+01  4.46499E+01  5.23270E+01  5.24156E+01  4.46156E+01  3.09928E+01  1.51630E+01  7.77586E-02 -1.22108E+01 -2.12091E+01
  -2.83109E+01 -3.43162E+01 -3.73912E+01 -3.82146E+01 -3.83173E+01 -3.81279E+01 -3.77602E+01 -3.70510E+01 -3.55237E+01 -3.07887E+01
  -1.98585E+01 -5.97416E+00  1.06136E+01  3.00307E+01  4.87969E+01  6.24822E+01  6.87425E+01  6.68618E+01  5.64865E+01  4.07708E+01
   2.37708E+01  7.95924E+00 -4.84291E+00 -1.45374E+01 -2.28600E+01 -2.95799E+01 -3.19518E+01 -3.18789E+01 -3.08431E+01 -2.93765E+01
  -2.79834E+01 -2.69750E+01 -2.63366E+01 -2.60401E+01 -2.60670E+01 -2.62355E+01 -2.64526E+01 -2.67201E+01 -2.69496E+01 -2.71292E+01
  -2.72034E+01 -2.71383E+01 -2.69569E+01 -2.66991E+01 -2.65599E+01 -2.65686E+01 -2.66534E+01 -2.68360E+01 -2.69693E+01 -2.70086E+01
  -2.69142E+01 -2.65598E+01 -2.59843E+01 -2.53962E+01 -2.50324E+01 -2.49712E+01 -2.52502E+01 -2.58102E+01 -2.64462E+01 -2.70651E+01
  -2.77438E+01 -2.82956E+01 -2.87612E+01 -2.91634E+01 -2.93211E+01 -2.91331E+01 -2.86224E+01 -2.79697E+01 -2.73321E+01 -2.68056E+01
  -2.65268E+01 -2.63649E+01 -2.59658E+01 -2.51708E+01 -2.38363E+01 -2.19146E+01 -1.95605E+01 -1.68578E+01 -1.40328E+01 -1.15094E+01
  -9.81473E+00 -9.23002E+00 -9.44166E+00 -1.01035E+01 -1.07721E+01 -1.10225E+01 -1.07281E+01 -9.64742E+00 -7.80719E+00 -5.50137E+00
  -3.04103E+00 -9.19462E-01  3.48067E-01  2.29916E-01 -1.05932E+00 -3.41486E+00 -6.66149E+00 -9.98828E+00 -1.23537E+01 -1.29282E+01
  -1.13826E+01 -8.24941E+00 -3.91207E+00  8.91831E-01  4.94074E+00  6.94810E+00  6.22183E+00  3.15182E+00 -1.42515E+00 -6.73100E+00
  -1.11946E+01 -1.34166E+01 -1.31176E+01 -1.07344E+01 -7.07067E+00 -2.81006E+00  1.37944E+00  4.45531E+00  6.13374E+00  6.85428E+00
   7.53714E+00  8.37708E+00  9.14338E+00  1.01168E+01  1.14107E+01  1.24866E+01  1.28586E+01  1.25198E+01  1.16373E+01  1.04326E+01
   9.15974E+00  8.31213E+00  8.40896E+00  9.50562E+00  1.11929E+01  1.30299E+01  1.48934E+01  1.65201E+01  1.77211E+01  1.87026E+01
   1.98434E+01  2.14230E+01  2.41626E+01  3.21092E+01  4.79387E+01  6.70443E+01  8.97144E+01  1.15520E+02  1.39237E+02  1.54983E+02
   1.60067E+02  1.53572E+02  1.35848E+02  1.11894E+02  8.72775E+01  6.54643E+01  4.86712E+01  3.63614E+01  2.57051E+01  1.76550E+01
   1.48924E+01  1.42403E+01  1.41735E+01  1.43986E+01  1.47583E+01  1.50064E+01  1.50852E+01  1.50018E+01  1.47826E+01  1.44980E+01
   1.42376E+01  1.40292E+01  1.38943E+01  1.38708E+01  1.39485E+01  1.40974E+01  1.42946E+01  1.45078E+01  1.47247E+01  1.49512E+01
   1.51747E+01  1.54001E+01  1.56385E+01  1.58919E+01  1.61618E+01  1.64543E+01  1.67699E+01  1.71037E+01  1.74490E+01  1.78034E+01
   1.81612E+01  1.85163E+01  1.88650E+01  1.92020E+01  1.95224E+01  1.98232E+01  2.01021E+01  2.03591E+01  2.05944E+01  2.08099E+01
   2.10072E+01  2.11889E+01  2.13580E+01  2.15199E+01  2.16785E+01  2.18386E+01  2.20040E+01  2.21789E+01  2.23663E+01  2.25696E+01
   2.27902E+01  2.30291E+01  2.32857E+01  2.35590E+01  2.38469E+01  2.41467E+01  2.44546E+01  2.47669E+01  2.50791E+01  2.53874E+01
   2.56879E+01  2.59774E+01  2.62531E+01  2.65132E+01  2.67567E+01  2.69844E+01  2.71980E+01  2.74016E+01  2.76022E+01  2.78153E+01
   2.80683E+01  2.83256E+01  2.85358E+01  2.87078E+01  2.88070E+01  2.87805E+01  2.86130E+01  2.83374E+01  2.80521E+01  2.78291E+01
   2.77184E+01  2.77733E+01  2.79968E+01  2.83284E+01  2.86703E+01  2.89544E+01  2.91551E+01  2.92331E+01  2.91662E+01  2.89917E+01
   2.87521E+01  2.84867E+01  2.82015E+01  2.78770E+01  2.75469E+01  2.72358E+01  2.69309E+01  2.66290E+01  2.63312E+01  2.60406E+01
   2.57602E+01  2.54937E+01  2.52439E+01  2.50142E+01  2.48071E+01  2.46253E+01  2.44708E+01  2.43456E+01  2.42511E+01  2.41890E+01
   2.41602E+01  2.41663E+01  2.42079E+01  2.42859E+01  2.44008E+01  2.45532E+01  2.47430E+01  2.49701E+01  2.52333E+01  2.55314E+01
   2.58617E+01  2.62213E+01  2.66057E+01  2.70099E+01  2.74271E+01  2.78501E+01  2.82703E+01  2.86789E+01  2.90660E+01  2.94224E+01
   2.97382E+01  3.00049E+01  3.02147E+01  3.03614E+01  3.04402E+01  3.04488E+01  3.03865E+01  3.02551E+01  3.00581E+01  2.98013E+01
   2.94916E+01  2.91375E+01  2.87480E+01  2.83329E+01  2.79014E+01  2.74631E+01  2.70260E+01  2.65979E+01  2.61850E+01  2.57927E+01
   2.54247E+01  2.50839E+01  2.47718E+01  2.44891E+01  2.42356E+01  2.40106E+01  2.38127E+01  2.36402E+01  2.34911E+01  2.33635E+01
   2.32553E+01  2.31646E+01  2.30893E+01  2.30279E+01  2.29785E+01  2.29398E+01  2.29105E+01  2.28895E+01  2.28756E+01  2.28681E+01
   2.28661E+01  2.28691E+01  2.28765E+01  2.28878E+01  2.29024E+01  2.29202E+01  2.29406E+01  2.29635E+01  2.29887E+01  2.30160E+01
   2.30450E+01  2.30757E+01  2.31079E+01  2.31416E+01  2.31766E+01  2.32128E+01  2.32500E+01  2.32884E+01  2.33276E+01  2.33678E+01
   2.34087E+01  2.34505E+01  2.34929E+01  2.35360E+01  2.35797E+01  2.36241E+01  2.36690E+01  2.37144E+01  2.37603E+01  2.38067E+01
   2.38535E+01  2.39008E+01  2.39484E+01  2.39965E+01  2.40448E+01  2.40936E+01  2.41427E+01  2.41922E+01  2.42419E+01  2.42920E+01
   2.43423E+01  2.43929E+01  2.44438E+01  2.44950E+01  2.45464E+01  2.45982E+01  2.46501E+01  2.47024E+01  2.47550E+01  2.48079E+01
   2.48609E+01  2.49144E+01  2.49682E+01  2.50224E+01  2.50769E+01  2.51318E+01  2.51872E+01  2.52431E+01
 NY background values follow
    -1.057E+02   -1.051E+02   -1.045E+02   -1.039E+02   -1.033E+02   -1.026E+02   -1.020E+02   -1.014E+02   -1.008E+02   -1.002E+02
    -9.960E+01   -9.900E+01   -9.839E+01   -9.778E+01   -9.718E+01   -9.657E+01   -9.596E+01   -9.536E+01   -9.475E+01   -9.415E+01
    -9.355E+01   -9.294E+01   -9.234E+01   -9.174E+01   -9.113E+01   -9.053E+01   -8.993E+01   -8.933E+01   -8.873E+01   -8.814E+01
    -8.754E+01   -8.694E+01   -8.635E+01   -8.575E+01   -8.516E+01   -8.456E+01   -8.397E+01   -8.338E+01   -8.279E+01   -8.220E+01
    -8.161E+01   -8.103E+01   -8.044E+01   -7.986E+01   -7.928E+01   -7.869E+01   -7.811E+01   -7.753E+01   -7.696E+01   -7.638E+01
    -7.580E+01   -7.523E+01   -7.466E+01   -7.409E+01   -7.352E+01   -7.295E+01   -7.239E+01   -7.182E+01   -7.126E+01   -7.070E+01
    -7.014E+01   -6.958E+01   -6.903E+01   -6.847E+01   -6.792E+01   -6.737E+01   -6.682E+01   -6.627E+01   -6.573E+01   -6.519E+01
    -6.465E+01   -6.411E+01   -6.357E+01   -6.304E+01   -6.251E+01   -6.198E+01   -6.145E+01   -6.092E+01   -6.040E+01   -5.988E+01
    -5.936E+01   -5.884E+01   -5.833E+01   -5.781E+01   -5.730E+01   -5.680E+01   -5.629E+01   -5.579E+01   -5.529E+01   -5.479E+01
    -5.430E+01   -5.381E+01   -5.332E+01   -5.283E+01   -5.235E+01   -5.187E+01   -5.139E+01   -5.091E+01   -5.044E+01   -4.997E+01
    -4.950E+01   -4.903E+01   -4.857E+01   -4.810E+01   -4.765E+01   -4.719E+01   -4.673E+01   -4.628E+01   -4.583E+01   -4.538E+01
    -4.494E+01   -4.450E+01   -4.406E+01   -4.362E+01   -4.318E+01   -4.275E+01   -4.232E+01   -4.189E+01   -4.146E+01   -4.104E+01
    -4.061E+01   -4.019E+01   -3.978E+01   -3.936E+01   -3.895E+01   -3.853E+01   -3.812E+01   -3.772E+01   -3.731E+01   -3.691E+01
    -3.650E+01   -3.610E+01   -3.571E+01   -3.531E+01   -3.492E+01   -3.453E+01   -3.414E+01   -3.375E+01   -3.336E+01   -3.298E+01
    -3.259E+01   -3.221E+01   -3.183E+01   -3.146E+01   -3.108E+01   -3.071E+01   -3.033E+01   -2.996E+01   -2.959E+01   -2.922E+01
    -2.886E+01   -2.849E+01   -2.813E+01   -2.776E+01   -2.740E+01   -2.704E+01   -2.668E+01   -2.632E+01   -2.597E+01   -2.561E+01
    -2.526E+01   -2.490E+01   -2.455E+01   -2.420E+01   -2.385E+01   -2.350E+01   -2.315E+01   -2.280E+01   -2.245E+01   -2.211E+01
    -2.176E+01   -2.142E+01   -2.107E+01   -2.073E+01   -2.038E+01   -2.004E+01   -1.970E+01   -1.935E+01   -1.901E+01   -1.867E+01
    -1.833E+01   -1.799E+01   -1.765E+01   -1.731E+01   -1.697E+01   -1.663E+01   -1.629E+01   -1.595E+01   -1.561E+01   -1.528E+01
    -1.494E+01   -1.460E+01   -1.427E+01   -1.393E+01   -1.359E+01   -1.326E+01   -1.293E+01   -1.259E+01   -1.226E+01   -1.193E+01
    -1.160E+01   -1.127E+01   -1.094E+01   -1.061E+01   -1.029E+01   -9.962E+00   -9.637E+00   -9.313E+00   -8.990E+00   -8.668E+00
    -8.347E+00   -8.028E+00   -7.710E+00   -7.392E+00   -7.077E+00   -6.762E+00   -6.448E+00   -6.136E+00   -5.826E+00   -5.516E+00
    -5.208E+00   -4.902E+00   -4.597E+00   -4.293E+00   -3.991E+00   -3.691E+00   -3.392E+00   -3.095E+00   -2.799E+00   -2.505E+00
    -2.213E+00   -1.922E+00   -1.633E+00   -1.346E+00   -1.061E+00   -7.768E-01   -4.948E-01   -2.145E-01    6.399E-02    3.407E-01
     6.156E-01    8.887E-01    1.160E+00    1.429E+00    1.697E+00    1.963E+00    2.226E+00    2.488E+00    2.748E+00    3.006E+00
     3.262E+00    3.516E+00    3.768E+00    4.018E+00    4.266E+00    4.512E+00    4.756E+00    4.998E+00    5.238E+00    5.476E+00
     5.712E+00    5.945E+00    6.177E+00    6.406E+00    6.633E+00    6.858E+00    7.081E+00    7.301E+00    7.520E+00    7.736E+00
     7.949E+00    8.161E+00    8.370E+00    8.577E+00    8.782E+00    8.985E+00    9.185E+00    9.383E+00    9.579E+00    9.772E+00
     9.964E+00    1.015E+01    1.034E+01    1.052E+01    1.071E+01    1.089E+01    1.107E+01    1.124E+01    1.142E+01    1.159E+01
     1.176E+01    1.193E+01    1.209E+01    1.226E+01    1.242E+01    1.258E+01    1.273E+01    1.289E+01    1.304E+01    1.319E+01
     1.334E+01    1.349E+01    1.364E+01    1.378E+01    1.392E+01    1.406E+01    1.420E+01    1.433E+01    1.447E+01    1.460E+01
     1.473E+01    1.485E+01    1.498E+01    1.510E+01    1.523E+01    1.535E+01    1.547E+01    1.558E+01    1.570E+01    1.581E+01
     1.592E+01    1.603E+01    1.614E+01    1.624E+01    1.635E+01    1.645E+01    1.655E+01    1.665E+01    1.675E+01    1.684E+01
     1.694E+01    1.703E+01    1.712E+01    1.721E+01    1.730E+01    1.738E+01    1.747E+01    1.755E+01    1.764E+01    1.772E+01
     1.780E+01    1.787E+01    1.795E+01    1.803E+01    1.810E+01    1.817E+01    1.825E+01    1.832E+01    1.838E+01    1.845E+01
     1.852E+01    1.859E+01    1.865E+01    1.871E+01    1.878E+01    1.884E+01    1.890E+01    1.896E+01    1.901E+01    1.907E+01
     1.913E+01    1.918E+01    1.924E+01    1.929E+01    1.934E+01    1.939E+01    1.944E+01    1.949E+01    1.954E+01    1.959E+01
     1.964E+01    1.969E+01    1.973E+01    1.978E+01    1.982E+01    1.987E+01    1.991E+01    1.996E+01    2.000E+01    2.004E+01
     2.008E+01    2.013E+01    2.017E+01    2.021E+01    2.025E+01    2.029E+01    2.033E+01    2.037E+01    2.041E+01    2.045E+01
     2.048E+01    2.052E+01    2.056E+01    2.060E+01    2.064E+01    2.068E+01    2.071E+01    2.075E+01    2.079E+01    2.083E+01
     2.087E+01    2.091E+01    2.094E+01    2.098E+01    2.102E+01    2.106E+01    2.110E+01    2.114E+01    2.118E+01    2.122E+01
     2.126E+01    2.130E+01    2.134E+01    2.138E+01    2.142E+01    2.147E+01    2.151E+01    2.155E+01    2.159E+01    2.163E+01
     2.168E+01    2.172E+01    2.176E+01    2.181E+01    2.185E+01    2.190E+01    2.194E+01    2.198E+01    2.203E+01    2.207E+01
     2.212E+01    2.216E+01    2.221E+01    2.226E+01    2.230E+01    2.235E+01    2.239E+01    2.244E+01    2.249E+01    2.253E+01
     2.258E+01    2.263E+01    2.268E+01    2.273E+01    2.277E+01    2.282E+01    2.287E+01    2.292E+01    2.297E+01    2.302E+01
     2.307E+01    2.312E+01    2.317E+01    2.321E+01    2.326E+01    2.332E+01    2.337E+01    2.342E+01    2.347E+01    2.352E+01
     2.357E+01    2.362E+01    2.367E+01    2.372E+01    2.377E+01    2.382E+01    2.388E+01    2.393E+01    2.398E+01    2.403E+01
     2.408E+01    2.414E+01    2.419E+01    2.424E+01    2.429E+01    2.434E+01    2.440E+01    2.445E+01    2.450E+01    2.455E+01
     2.461E+01    2.466E+01    2.471E+01    2.476E+01    2.482E+01    2.487E+01    2.492E+01    2.498E+01    2.503E+01    2.508E+01
     2.513E+01    2.519E+01    2.524E+01    2.529E+01    2.534E+01    2.540E+01    2.545E+01    2.550E+01
 PCr      Conc. = 3.36E+03
