 LCModel (Version 6.3-1L) Copyright: S.W. Provencher.          Ref.: Magn. Reson. Med. 30:672-679 (1993).                
 Slice#2 Row#7 Col#6  PD_05_press_2_raw_act
 36 lines in following concentration table = NCONC+1
    Conc.  %SD /Cr+PCr  Metabolite                                         
  249.376 119% 6.7E-02 Ala                                                 
  430.451 137%   0.116 Asp                                                 
  557.042 120%   0.150 Cr                                                  
 3.15E+03  22%   0.850 PCr                                                 
   79.405 496% 2.1E-02 GABA                                                
   59.556 661% 1.6E-02 Glc                                                 
 1.92E+03  33%   0.519 Gln                                                 
 3.02E+03  24%   0.816 Glu                                                 
 1.18E+03   6%   0.317 GPC                                                 
    0.000 999%   0.000 PCh                                                 
 1.04E+03  20%   0.282 GSH                                                 
 4.50E+03  17%   1.215 Ins                                                 
    0.000 999%   0.000 Lac                                                 
 5.84E+03   5%   1.577 NAA                                                 
  599.822  54%   0.162 NAAG                                                
  323.218  24% 8.7E-02 Scyllo                                              
  836.727  67%   0.226 Tau                                                 
 1.14E+03  30%   0.308 -CrCH2                                              
 1.18E+03   6%   0.317 GPC+PCh                                             
 6.44E+03   4%   1.738 NAA+NAAG                                            
 3.71E+03   5%   1.000 Cr+PCr                                              
 4.95E+03  20%   1.335 Glu+Gln                                             
 2.94E+03  48%   0.794 Lip13a                                              
    0.000 999%   0.000 Lip13b                                              
  383.647 164%   0.104 Lip09                                               
 3.98E+03  20%   1.073 MM09                                                
  314.624 131% 8.5E-02 Lip20                                               
 8.21E+03  15%   2.214 MM20                                                
 1.34E+03  40%   0.362 MM12                                                
 4.42E+03  26%   1.193 MM14                                                
 1.44E+03  49%   0.388 MM17                                                
 2.94E+03  48%   0.794 Lip13a+Lip13b                                       
 8.71E+03  17%   2.349 MM14+Lip13a+Lip13b+MM12                             
 4.36E+03  16%   1.176 MM09+Lip09                                          
 8.52E+03  14%   2.299 MM20+Lip20                                          
   6 lines in following misc. output table
  FWHM = 0.046 ppm    S/N =  12                                            
  Data shift = 0.000 ppm                                                   
  Ph: -50 deg     -12.7 deg/ppm                                            
  alphaB,S = 9.1E-01,   1.0E+02                                            
   14 spline knots.   Ns = 7(1)                                            
  (12) 4 infls.   ( 7) 1 extrs.                                            
  498 points on ppm-axis = NY
      4.000000     3.992357     3.984714     3.977070     3.969427     3.961784     3.954141     3.946497     3.938854     3.931211
      3.923568     3.915925     3.908281     3.900638     3.892995     3.885352     3.877708     3.870065     3.862422     3.854779
      3.847136     3.839492     3.831849     3.824206     3.816563     3.808919     3.801276     3.793633     3.785990     3.778347
      3.770703     3.763060     3.755417     3.747774     3.740130     3.732487     3.724844     3.717201     3.709558     3.701914
      3.694271     3.686628     3.678985     3.671341     3.663698     3.656055     3.648412     3.640769     3.633125     3.625482
      3.617839     3.610196     3.602552     3.594909     3.587266     3.579623     3.571980     3.564336     3.556693     3.549050
      3.541407     3.533763     3.526120     3.518477     3.510834     3.503191     3.495547     3.487904     3.480261     3.472618
      3.464974     3.457331     3.449688     3.442045     3.434402     3.426758     3.419115     3.411472     3.403829     3.396185
      3.388542     3.380899     3.373256     3.365613     3.357969     3.350326     3.342683     3.335040     3.327396     3.319753
      3.312110     3.304467     3.296824     3.289180     3.281537     3.273894     3.266251     3.258607     3.250964     3.243321
      3.235678     3.228034     3.220391     3.212748     3.205105     3.197462     3.189818     3.182175     3.174532     3.166889
      3.159245     3.151602     3.143959     3.136316     3.128673     3.121029     3.113386     3.105743     3.098100     3.090456
      3.082813     3.075170     3.067527     3.059884     3.052240     3.044597     3.036954     3.029311     3.021667     3.014024
      3.006381     2.998738     2.991095     2.983451     2.975808     2.968165     2.960522     2.952878     2.945235     2.937592
      2.929949     2.922306     2.914662     2.907019     2.899376     2.891733     2.884089     2.876446     2.868803     2.861160
      2.853517     2.845873     2.838230     2.830587     2.822944     2.815300     2.807657     2.800014     2.792371     2.784728
      2.777084     2.769441     2.761798     2.754155     2.746511     2.738868     2.731225     2.723582     2.715939     2.708295
      2.700652     2.693009     2.685366     2.677722     2.670079     2.662436     2.654793     2.647150     2.639506     2.631863
      2.624220     2.616577     2.608933     2.601290     2.593647     2.586004     2.578361     2.570717     2.563074     2.555431
      2.547788     2.540144     2.532501     2.524858     2.517215     2.509572     2.501928     2.494285     2.486642     2.478999
      2.471355     2.463712     2.456069     2.448426     2.440783     2.433139     2.425496     2.417853     2.410210     2.402566
      2.394923     2.387280     2.379637     2.371994     2.364350     2.356707     2.349064     2.341421     2.333777     2.326134
      2.318491     2.310848     2.303205     2.295561     2.287918     2.280275     2.272632     2.264988     2.257345     2.249702
      2.242059     2.234416     2.226772     2.219129     2.211486     2.203843     2.196199     2.188556     2.180913     2.173270
      2.165627     2.157983     2.150340     2.142697     2.135054     2.127410     2.119767     2.112124     2.104481     2.096838
      2.089194     2.081551     2.073908     2.066265     2.058621     2.050978     2.043335     2.035692     2.028049     2.020405
      2.012762     2.005119     1.997476     1.989833     1.982190     1.974546     1.966903     1.959260     1.951617     1.943974
      1.936331     1.928688     1.921045     1.913402     1.905759     1.898115     1.890472     1.882829     1.875186     1.867543
      1.859900     1.852257     1.844614     1.836971     1.829327     1.821684     1.814041     1.806398     1.798755     1.791112
      1.783469     1.775826     1.768183     1.760540     1.752896     1.745253     1.737610     1.729967     1.722324     1.714681
      1.707038     1.699395     1.691752     1.684108     1.676465     1.668822     1.661179     1.653536     1.645893     1.638250
      1.630607     1.622964     1.615321     1.607677     1.600034     1.592391     1.584748     1.577105     1.569462     1.561819
      1.554176     1.546533     1.538890     1.531246     1.523603     1.515960     1.508317     1.500674     1.493031     1.485388
      1.477745     1.470102     1.462458     1.454815     1.447172     1.439529     1.431886     1.424243     1.416600     1.408957
      1.401314     1.393671     1.386027     1.378384     1.370741     1.363098     1.355455     1.347812     1.340169     1.332526
      1.324883     1.317240     1.309596     1.301953     1.294310     1.286667     1.279024     1.271381     1.263738     1.256095
      1.248452     1.240808     1.233165     1.225522     1.217879     1.210236     1.202593     1.194950     1.187307     1.179664
      1.172021     1.164377     1.156734     1.149091     1.141448     1.133805     1.126162     1.118519     1.110876     1.103233
      1.095590     1.087946     1.080303     1.072660     1.065017     1.057374     1.049731     1.042088     1.034445     1.026802
      1.019158     1.011515     1.003872     0.996229     0.988586     0.980943     0.973300     0.965657     0.958014     0.950371
      0.942727     0.935084     0.927441     0.919798     0.912155     0.904512     0.896869     0.889226     0.881583     0.873940
      0.866296     0.858653     0.851010     0.843367     0.835724     0.828081     0.820438     0.812795     0.805152     0.797508
      0.789865     0.782222     0.774579     0.766936     0.759293     0.751650     0.744007     0.736364     0.728721     0.721077
      0.713434     0.705791     0.698148     0.690505     0.682862     0.675219     0.667576     0.659933     0.652290     0.644646
      0.637003     0.629360     0.621717     0.614074     0.606431     0.598788     0.591145     0.583502     0.575858     0.568215
      0.560572     0.552929     0.545286     0.537643     0.530000     0.522357     0.514714     0.507071     0.499427     0.491784
      0.484141     0.476498     0.468855     0.461212     0.453569     0.445925     0.438282     0.430639     0.422996     0.415353
      0.407710     0.400067     0.392424     0.384780     0.377137     0.369494     0.361851     0.354208     0.346565     0.338922
      0.331278     0.323635     0.315992     0.308349     0.300706     0.293063     0.285420     0.277777     0.270133     0.262490
      0.254847     0.247204     0.239561     0.231918     0.224275     0.216631     0.208988     0.201345
 NY phased data points follow
  -1.54233E+02 -1.38122E+02 -1.29502E+02 -1.35476E+02 -1.15103E+02 -1.10954E+02 -8.22681E+01 -7.31642E+01 -5.37553E+01 -5.21182E+01
  -5.21967E+01 -5.13052E+01 -5.22835E+01 -6.59503E+01 -8.08527E+01 -9.36397E+01 -7.93380E+01 -9.06142E+01 -1.13279E+02 -1.00575E+02
  -9.73956E+01 -9.00578E+01 -9.30113E+01 -8.45286E+01 -1.03957E+02 -8.54587E+01 -8.15313E+01 -7.78311E+01 -7.32658E+01 -7.87569E+01
  -5.44656E+01 -5.26390E+01 -6.01775E+01 -8.27954E+01 -6.49423E+01 -7.95936E+01 -7.15749E+01 -5.11130E+01 -7.00971E+01 -5.91431E+01
  -6.57392E+01 -7.87035E+01 -5.98168E+01 -6.50993E+01 -4.73924E+01 -5.31849E+01 -3.44721E+01 -3.06493E+01 -4.31203E+01 -2.70754E+01
  -4.78667E+01 -4.87077E+01 -7.47802E+01 -6.44517E+01 -5.09554E+01 -4.73277E+01 -4.83617E+01 -4.58069E+01 -6.08914E+01 -5.22881E+01
  -4.23524E+01 -4.98096E+01 -5.01493E+01 -7.03512E+01 -6.83087E+01 -6.51114E+01 -5.27772E+01 -5.67768E+01 -6.45264E+01 -5.67829E+01
  -4.91627E+01 -5.24568E+01 -5.55601E+01 -5.07821E+01 -4.77030E+01 -4.23693E+01 -4.59849E+01 -3.99594E+01 -5.94789E+01 -3.94805E+01
  -4.26171E+01 -5.46972E+01 -4.83353E+01 -4.65989E+01 -3.73445E+01 -3.60429E+01 -3.39757E+01 -4.26310E+01 -3.25951E+01 -2.88075E+01
  -2.30719E+01 -3.19043E+01 -2.98413E+01 -2.97403E+01 -1.42574E+01 -2.38498E+01 -2.38952E+01 -3.28280E+01 -1.21090E+01  2.56968E+00
   2.96548E+01  4.16771E+01  6.37530E+01  6.90499E+01  6.16431E+01  6.03451E+01  3.85849E+01  9.84111E+00 -5.55083E+00 -2.58939E+00
  -1.50614E+01 -8.11166E+00  3.39640E+00 -3.25154E+01 -5.64617E+00 -2.33213E+01 -1.08166E+01  5.81871E+00 -1.25936E+01 -1.95333E+01
  -1.32061E+01 -1.33074E+01 -4.04052E+00  2.46706E+01  4.00207E+01  7.43335E+01  1.02115E+02  1.03279E+02  9.57641E+01  7.99696E+01
   6.07595E+01  3.46338E+01  1.82100E+01  5.15507E-02 -1.32400E+00 -5.59938E+00  5.57648E-01 -1.94646E+01 -3.09910E+01 -2.88771E+01
  -4.96809E+00 -2.49369E+01 -1.75516E+01 -2.23485E+01 -1.80485E+01 -7.31973E+00 -2.26588E+01 -2.17212E+01 -2.27596E+01 -2.29000E+01
  -3.00718E+00 -2.71959E+01 -1.55723E+01 -3.09510E+01 -1.47140E+01 -3.84131E+01 -1.90848E+01 -2.40751E+01 -1.98475E+01 -1.00597E+01
  -1.99170E+01 -2.10177E+01 -3.51707E+01 -2.70847E+01 -3.52150E+01 -1.86099E+01 -1.70098E+01 -1.90210E+01 -3.14326E+01 -3.03095E+01
  -3.55879E+01 -1.97254E+01 -4.46480E+01 -2.97053E+01 -2.03155E+01 -2.96563E+01 -3.82597E+01 -4.05700E+01 -3.75234E+01 -4.78634E+01
  -3.72884E+01 -3.53170E+01 -1.98178E+01 -1.74606E+01 -1.59686E+01 -1.84157E+01 -2.72461E+01 -2.09825E+01 -6.06352E+00 -1.98502E+01
  -8.62719E+00  7.16427E+00  4.25401E+00  8.70966E+00  1.92167E+00  1.08274E+01  4.99061E+00 -3.62424E+00  7.97105E+00 -1.53438E+01
  -3.59608E+00 -5.18674E+00  1.70205E+01 -1.45993E+00  1.37294E+00  1.13613E+01  1.53277E+00  2.36236E+00 -9.97528E+00 -1.60707E+01
  -1.35521E+01  9.17651E+00 -4.80957E+00  1.75531E+01  1.01448E+01  4.19076E+01  2.21970E+01  3.56799E+01  2.43433E+01  7.78104E+00
  -5.28582E-01  1.95019E+00 -7.21490E+00  8.04859E+00  9.51754E+00  2.59251E+01  2.27160E+01  1.24730E+01  2.73116E+01  1.99543E+01
   1.99424E+01  1.63189E+01  1.91491E+01  2.63990E+01  1.50301E+01  2.35879E+01  2.94336E+01  3.48973E+01  5.57322E+01  2.80891E+01
   2.11408E+01  1.75172E+01  1.88437E+01  1.62036E+01  3.26872E+01  3.24286E+01  2.09690E+01  3.08681E+01  4.55435E+01  4.63409E+01
   4.76387E+01  5.50048E+01  5.07837E+01  6.38729E+01  7.49432E+01  8.52141E+01  1.20681E+02  1.44069E+02  1.71234E+02  1.96322E+02
   2.36525E+02  2.46038E+02  2.37880E+02  1.90153E+02  1.40922E+02  8.89029E+01  7.34286E+01  7.82067E+01  7.60479E+01  4.61234E+01
   3.87597E+01  5.30570E+01  3.23237E+01  4.02367E+01  3.83483E+01  1.82124E+01  2.86576E+01  2.64132E+01  2.15053E+01  3.09479E+01
   1.39348E+01  2.17264E+01  2.61697E+01  1.53701E+01  1.37863E+01  2.05648E+01  1.81841E+01  1.30283E+01  2.34922E+01  2.24231E+01
   1.87549E+01  2.01488E+01  2.37170E+01  2.00715E+01  2.50687E+01  2.21312E+01  3.08008E+01  1.89608E+01  2.14859E+01  2.23993E+01
   1.53540E+01  2.51368E+01  3.49466E+01  3.10614E+01  3.33606E+01  2.33998E+01  3.21568E+01  4.54119E+01  3.41813E+01  3.95622E+01
   2.91311E+01  3.36734E+01  4.54428E+01  1.89626E+01  3.26320E+01  2.90716E+01  3.55420E+01  4.34211E+01  2.39349E+01  1.27023E+01
   2.91978E+01  3.80288E+01  3.31920E+01  4.77701E+01  4.34085E+01  3.16493E+01  4.67501E+01  3.97823E+01  3.07695E+01  3.40290E+01
   3.52549E+01  4.43212E+01  4.02027E+01  5.35170E+01  5.19790E+01  4.61635E+01  6.89448E+01  3.86364E+01  5.44291E+01  4.07075E+01
   5.25252E+01  5.97282E+01  5.23894E+01  5.49324E+01  4.28096E+01  5.44391E+01  4.51423E+01  6.62556E+01  4.67527E+01  5.04591E+01
   5.72178E+01  5.38073E+01  5.56750E+01  6.20569E+01  6.37441E+01  4.58324E+01  3.74640E+01  5.04687E+01  4.42307E+01  4.84110E+01
   3.78939E+01  4.39725E+01  5.23187E+01  5.93508E+01  4.00543E+01  3.44271E+01  4.59164E+01  5.58742E+01  5.15627E+01  5.47019E+01
   4.77077E+01  4.67187E+01  4.14747E+01  4.52493E+01  2.33572E+01  4.00648E+01  4.92764E+01  3.53621E+01  4.60145E+01  4.34025E+01
   3.09456E+01  1.95331E+01  4.23263E+01  4.08962E+01  4.18658E+01  3.05247E+01  3.74517E+01  3.42981E+01  3.82356E+01  3.79053E+01
   3.68082E+01  3.05166E+01  4.53766E+01  3.26483E+01  4.60339E+01  5.21881E+01  4.70832E+01  4.26203E+01  5.92059E+01  5.46030E+01
   5.79840E+01  7.15988E+01  4.89469E+01  4.43761E+01  5.22518E+01  6.04829E+01  6.45813E+01  6.26869E+01  4.91730E+01  6.71820E+01
   5.52485E+01  6.50675E+01  7.07753E+01  5.63978E+01  4.92559E+01  6.05008E+01  5.21834E+01  5.05362E+01  6.08802E+01  3.68663E+01
   5.08010E+01  5.86349E+01  6.18374E+01  4.28687E+01  4.90602E+01  4.30713E+01  4.45145E+01  4.93456E+01  2.94348E+01  3.27196E+01
   4.36098E+01  3.46668E+01  3.21299E+01  2.87513E+01  5.97186E+01  3.05836E+01  3.48427E+01  4.15935E+01  3.58498E+01  3.22750E+01
   3.06616E+01  5.29162E+01  3.03278E+01  2.80007E+01  3.64164E+01  2.54138E+01  4.30278E+01  4.95012E+01  3.34833E+01  4.42960E+01
   2.57546E+01  2.88458E+01  2.94550E+01  3.29270E+01  4.27044E+01  3.24937E+01  4.42796E+01  3.83543E+01  4.75547E+01  4.32880E+01
   3.47639E+01  3.67156E+01  3.80903E+01  4.13049E+01  3.07939E+01  3.41432E+01  3.34456E+01  3.20219E+01  2.98746E+01  4.25981E+01
   3.34842E+01  4.38361E+01  3.09728E+01  4.29199E+01  3.77218E+01  4.09114E+01  4.64981E+01  3.59555E+01  2.98154E+01  3.37182E+01
   2.89933E+01  4.10015E+01  2.70676E+01  3.82150E+01  3.97138E+01  4.06339E+01  4.78156E+01  3.66913E+01  3.67983E+01  4.94605E+01
   3.77795E+01  3.69782E+01  2.48258E+01  3.55321E+01  3.47736E+01  2.25887E+01  4.32180E+01  3.21622E+01
 NY points of the fit to the data follow
  -1.16981E+02 -1.17592E+02 -1.16380E+02 -1.13359E+02 -1.08022E+02 -9.96247E+01 -8.87952E+01 -7.62945E+01 -6.33626E+01 -5.27014E+01
  -4.74305E+01 -4.93728E+01 -5.79008E+01 -6.96437E+01 -7.96074E+01 -8.47175E+01 -8.65712E+01 -8.96653E+01 -9.32922E+01 -9.46044E+01
  -9.48563E+01 -9.45394E+01 -9.41947E+01 -9.38625E+01 -9.32683E+01 -9.17016E+01 -8.84077E+01 -8.30074E+01 -7.56390E+01 -6.73674E+01
  -6.01560E+01 -5.59852E+01 -5.59852E+01 -5.97597E+01 -6.55503E+01 -7.08405E+01 -7.40424E+01 -7.61184E+01 -7.80912E+01 -7.87295E+01
  -7.70808E+01 -7.35981E+01 -6.84654E+01 -6.17753E+01 -5.42149E+01 -4.70725E+01 -4.15582E+01 -3.90660E+01 -4.09561E+01 -4.67346E+01
  -5.46450E+01 -6.18785E+01 -6.57631E+01 -6.61329E+01 -6.51860E+01 -6.41872E+01 -6.21909E+01 -5.88210E+01 -5.52901E+01 -5.27017E+01
  -5.14806E+01 -5.18113E+01 -5.34173E+01 -5.55380E+01 -5.69598E+01 -5.67752E+01 -5.52762E+01 -5.32429E+01 -5.10498E+01 -4.89670E+01
  -4.70386E+01 -4.52512E+01 -4.38153E+01 -4.28775E+01 -4.25760E+01 -4.28758E+01 -4.35178E+01 -4.43522E+01 -4.51063E+01 -4.57430E+01
  -4.56505E+01 -4.42597E+01 -4.19363E+01 -3.94735E+01 -3.73104E+01 -3.53969E+01 -3.40764E+01 -3.37527E+01 -3.45056E+01 -3.60480E+01
  -3.77566E+01 -3.87026E+01 -3.84221E+01 -3.74838E+01 -3.68816E+01 -3.64918E+01 -3.34420E+01 -2.59036E+01 -1.37452E+01  2.93085E+00
   2.28127E+01  4.39838E+01  6.27056E+01  7.33586E+01  7.16512E+01  5.75980E+01  3.55941E+01  1.35568E+01 -1.28625E+00 -8.30053E+00
  -1.34502E+01 -2.11054E+01 -2.70620E+01 -2.86369E+01 -2.88094E+01 -2.85798E+01 -2.82466E+01 -2.77151E+01 -2.68584E+01 -2.51351E+01
  -2.04801E+01 -1.11858E+01  3.47002E+00  2.33528E+01  4.67921E+01  7.13158E+01  9.24537E+01  1.03867E+02  1.00944E+02  8.39266E+01
   5.85005E+01  3.38443E+01  1.74516E+01  9.21668E+00  1.78525E+00 -9.35683E+00 -1.78813E+01 -2.05797E+01 -2.07116E+01 -1.93168E+01
  -1.73248E+01 -1.57325E+01 -1.49324E+01 -1.46816E+01 -1.48650E+01 -1.53169E+01 -1.57914E+01 -1.62970E+01 -1.69044E+01 -1.75404E+01
  -1.81880E+01 -1.86268E+01 -1.89001E+01 -1.90559E+01 -1.91191E+01 -1.91397E+01 -1.92420E+01 -1.95901E+01 -2.01712E+01 -2.09177E+01
  -2.16911E+01 -2.21094E+01 -2.18401E+01 -2.08687E+01 -1.95817E+01 -1.86341E+01 -1.86000E+01 -1.95262E+01 -2.08304E+01 -2.18004E+01
  -2.23177E+01 -2.27506E+01 -2.33582E+01 -2.42845E+01 -2.51923E+01 -2.57432E+01 -2.58766E+01 -2.53779E+01 -2.43349E+01 -2.32056E+01
  -2.25013E+01 -2.24149E+01 -2.25133E+01 -2.20601E+01 -2.05976E+01 -1.84914E+01 -1.64327E+01 -1.41052E+01 -1.09789E+01 -7.15340E+00
  -3.57801E+00 -1.63651E+00 -1.70102E+00 -3.13223E+00 -4.79150E+00 -5.66171E+00 -5.50023E+00 -4.46075E+00 -2.32568E+00  7.31047E-01
   4.30677E+00  7.78304E+00  1.02593E+01  1.09306E+01  9.49678E+00  6.09548E+00  1.47336E+00 -3.78036E+00 -8.55931E+00 -1.09258E+01
  -9.69941E+00 -5.40200E+00  4.23312E-01  6.65378E+00  1.22825E+01  1.62144E+01  1.77456E+01  1.64405E+01  1.20606E+01  5.52142E+00
  -3.12888E-01 -3.34205E+00 -3.20889E+00 -6.01875E-01  3.82958E+00  9.62452E+00  1.52821E+01  1.89379E+01  2.02317E+01  2.01478E+01
   1.99616E+01  2.00335E+01  2.03293E+01  2.14133E+01  2.37581E+01  2.68316E+01  2.98100E+01  3.18800E+01  3.25780E+01  3.18793E+01
   2.98145E+01  2.70544E+01  2.52221E+01  2.54840E+01  2.75671E+01  3.06538E+01  3.41113E+01  3.72439E+01  3.96824E+01  4.20093E+01
   4.50102E+01  4.89128E+01  5.37237E+01  6.05737E+01  7.27269E+01  9.11729E+01  1.15982E+02  1.45696E+02  1.78149E+02  2.10221E+02
   2.34776E+02  2.42215E+02  2.26807E+02  1.90502E+02  1.44704E+02  1.05984E+02  8.36395E+01  7.23607E+01  5.93479E+01  4.27091E+01
   3.42347E+01  3.14930E+01  3.00503E+01  2.92140E+01  2.86663E+01  2.80389E+01  2.72855E+01  2.64199E+01  2.55281E+01  2.47369E+01
   2.41206E+01  2.36253E+01  2.32038E+01  2.28851E+01  2.26808E+01  2.25516E+01  2.24478E+01  2.23775E+01  2.23872E+01  2.24994E+01
   2.26914E+01  2.29638E+01  2.33154E+01  2.37245E+01  2.41571E+01  2.46069E+01  2.50777E+01  2.55781E+01  2.61127E+01  2.66731E+01
   2.72436E+01  2.78245E+01  2.84022E+01  2.89529E+01  2.94545E+01  2.98987E+01  3.02885E+01  3.06274E+01  3.09102E+01  3.11450E+01
   3.13404E+01  3.15068E+01  3.16576E+01  3.18104E+01  3.19813E+01  3.21883E+01  3.24487E+01  3.27835E+01  3.32159E+01  3.37817E+01
   3.45289E+01  3.54449E+01  3.64803E+01  3.75541E+01  3.85580E+01  3.93820E+01  3.98887E+01  3.99850E+01  3.97873E+01  3.95945E+01
   3.97577E+01  4.05522E+01  4.20001E+01  4.38734E+01  4.58623E+01  4.78007E+01  4.96432E+01  5.10723E+01  5.18594E+01  5.21557E+01
   5.22824E+01  5.24827E+01  5.26947E+01  5.26965E+01  5.25731E+01  5.24998E+01  5.24395E+01  5.23696E+01  5.22826E+01  5.21767E+01
   5.20498E+01  5.19012E+01  5.17282E+01  5.15279E+01  5.12954E+01  5.10266E+01  5.07165E+01  5.03623E+01  4.99606E+01  4.95098E+01
   4.90084E+01  4.84578E+01  4.78601E+01  4.72203E+01  4.65434E+01  4.58365E+01  4.51066E+01  4.43627E+01  4.36136E+01  4.28695E+01
   4.21391E+01  4.14316E+01  4.07550E+01  4.01182E+01  3.95285E+01  3.89936E+01  3.85190E+01  3.81107E+01  3.77734E+01  3.75127E+01
   3.73328E+01  3.72388E+01  3.72341E+01  3.73236E+01  3.75111E+01  3.78020E+01  3.82005E+01  3.87111E+01  3.93368E+01  4.00811E+01
   4.09454E+01  4.19306E+01  4.30338E+01  4.42504E+01  4.55711E+01  4.69843E+01  4.84735E+01  5.00188E+01  5.15948E+01  5.31735E+01
   5.47225E+01  5.62088E+01  5.75973E+01  5.88542E+01  5.99462E+01  6.08443E+01  6.15234E+01  6.19657E+01  6.21592E+01  6.21003E+01
   6.17917E+01  6.12448E+01  6.04773E+01  5.95135E+01  5.83816E+01  5.71134E+01  5.57416E+01  5.43001E+01  5.28212E+01  5.13355E+01
   4.98693E+01  4.84461E+01  4.70838E+01  4.57976E+01  4.45975E+01  4.34905E+01  4.24789E+01  4.15630E+01  4.07400E+01  4.00065E+01
   3.93568E+01  3.87851E+01  3.82843E+01  3.78478E+01  3.74686E+01  3.71411E+01  3.68591E+01  3.66176E+01  3.64110E+01  3.62354E+01
   3.60866E+01  3.59620E+01  3.58580E+01  3.57725E+01  3.57025E+01  3.56467E+01  3.56030E+01  3.55707E+01  3.55478E+01  3.55337E+01
   3.55267E+01  3.55265E+01  3.55323E+01  3.55437E+01  3.55598E+01  3.55803E+01  3.56043E+01  3.56320E+01  3.56629E+01  3.56969E+01
   3.57333E+01  3.57722E+01  3.58129E+01  3.58560E+01  3.59007E+01  3.59474E+01  3.59953E+01  3.60446E+01  3.60950E+01  3.61469E+01
   3.61998E+01  3.62539E+01  3.63085E+01  3.63641E+01  3.64204E+01  3.64777E+01  3.65356E+01  3.65943E+01  3.66531E+01  3.67127E+01
   3.67727E+01  3.68336E+01  3.68947E+01  3.69563E+01  3.70180E+01  3.70803E+01  3.71429E+01  3.72062E+01  3.72695E+01  3.73333E+01
   3.73970E+01  3.74614E+01  3.75261E+01  3.75913E+01  3.76564E+01  3.77219E+01  3.77876E+01  3.78539E+01
 NY background values follow
    -1.293E+02   -1.283E+02   -1.272E+02   -1.262E+02   -1.252E+02   -1.241E+02   -1.231E+02   -1.221E+02   -1.210E+02   -1.200E+02
    -1.190E+02   -1.180E+02   -1.169E+02   -1.159E+02   -1.149E+02   -1.139E+02   -1.128E+02   -1.118E+02   -1.108E+02   -1.098E+02
    -1.088E+02   -1.078E+02   -1.067E+02   -1.057E+02   -1.047E+02   -1.037E+02   -1.027E+02   -1.018E+02   -1.008E+02   -9.977E+01
    -9.879E+01   -9.781E+01   -9.683E+01   -9.586E+01   -9.489E+01   -9.393E+01   -9.297E+01   -9.201E+01   -9.106E+01   -9.011E+01
    -8.917E+01   -8.823E+01   -8.730E+01   -8.637E+01   -8.545E+01   -8.453E+01   -8.362E+01   -8.271E+01   -8.181E+01   -8.091E+01
    -8.002E+01   -7.914E+01   -7.826E+01   -7.739E+01   -7.652E+01   -7.566E+01   -7.480E+01   -7.395E+01   -7.310E+01   -7.227E+01
    -7.143E+01   -7.061E+01   -6.979E+01   -6.897E+01   -6.817E+01   -6.736E+01   -6.657E+01   -6.578E+01   -6.500E+01   -6.422E+01
    -6.345E+01   -6.269E+01   -6.193E+01   -6.118E+01   -6.044E+01   -5.970E+01   -5.897E+01   -5.825E+01   -5.753E+01   -5.682E+01
    -5.612E+01   -5.542E+01   -5.474E+01   -5.406E+01   -5.338E+01   -5.271E+01   -5.205E+01   -5.140E+01   -5.076E+01   -5.012E+01
    -4.949E+01   -4.887E+01   -4.825E+01   -4.764E+01   -4.704E+01   -4.645E+01   -4.586E+01   -4.528E+01   -4.471E+01   -4.415E+01
    -4.359E+01   -4.304E+01   -4.249E+01   -4.195E+01   -4.142E+01   -4.089E+01   -4.037E+01   -3.986E+01   -3.935E+01   -3.885E+01
    -3.836E+01   -3.787E+01   -3.739E+01   -3.691E+01   -3.644E+01   -3.597E+01   -3.551E+01   -3.505E+01   -3.460E+01   -3.416E+01
    -3.372E+01   -3.328E+01   -3.285E+01   -3.243E+01   -3.201E+01   -3.159E+01   -3.118E+01   -3.078E+01   -3.038E+01   -2.998E+01
    -2.959E+01   -2.920E+01   -2.881E+01   -2.843E+01   -2.806E+01   -2.769E+01   -2.732E+01   -2.695E+01   -2.659E+01   -2.624E+01
    -2.588E+01   -2.553E+01   -2.519E+01   -2.484E+01   -2.450E+01   -2.416E+01   -2.383E+01   -2.349E+01   -2.316E+01   -2.284E+01
    -2.251E+01   -2.219E+01   -2.187E+01   -2.155E+01   -2.123E+01   -2.091E+01   -2.060E+01   -2.029E+01   -1.998E+01   -1.967E+01
    -1.936E+01   -1.905E+01   -1.875E+01   -1.844E+01   -1.814E+01   -1.783E+01   -1.753E+01   -1.722E+01   -1.692E+01   -1.662E+01
    -1.632E+01   -1.601E+01   -1.571E+01   -1.541E+01   -1.510E+01   -1.480E+01   -1.449E+01   -1.419E+01   -1.388E+01   -1.358E+01
    -1.327E+01   -1.296E+01   -1.265E+01   -1.234E+01   -1.202E+01   -1.171E+01   -1.139E+01   -1.108E+01   -1.076E+01   -1.045E+01
    -1.013E+01   -9.811E+00   -9.494E+00   -9.176E+00   -8.858E+00   -8.540E+00   -8.222E+00   -7.905E+00   -7.588E+00   -7.271E+00
    -6.955E+00   -6.639E+00   -6.325E+00   -6.011E+00   -5.697E+00   -5.385E+00   -5.074E+00   -4.765E+00   -4.456E+00   -4.149E+00
    -3.843E+00   -3.540E+00   -3.237E+00   -2.937E+00   -2.638E+00   -2.342E+00   -2.047E+00   -1.755E+00   -1.465E+00   -1.177E+00
    -8.920E-01   -6.094E-01   -3.295E-01   -5.234E-02    2.219E-01    4.932E-01    7.615E-01    1.027E+00    1.289E+00    1.548E+00
     1.804E+00    2.057E+00    2.307E+00    2.554E+00    2.798E+00    3.040E+00    3.279E+00    3.515E+00    3.749E+00    3.980E+00
     4.208E+00    4.434E+00    4.658E+00    4.879E+00    5.098E+00    5.314E+00    5.528E+00    5.741E+00    5.950E+00    6.158E+00
     6.364E+00    6.568E+00    6.770E+00    6.969E+00    7.167E+00    7.364E+00    7.558E+00    7.751E+00    7.942E+00    8.131E+00
     8.319E+00    8.505E+00    8.690E+00    8.873E+00    9.055E+00    9.236E+00    9.415E+00    9.593E+00    9.770E+00    9.945E+00
     1.012E+01    1.029E+01    1.047E+01    1.064E+01    1.081E+01    1.098E+01    1.115E+01    1.131E+01    1.148E+01    1.165E+01
     1.181E+01    1.197E+01    1.214E+01    1.230E+01    1.246E+01    1.262E+01    1.278E+01    1.294E+01    1.310E+01    1.325E+01
     1.341E+01    1.356E+01    1.372E+01    1.387E+01    1.402E+01    1.418E+01    1.433E+01    1.448E+01    1.463E+01    1.478E+01
     1.492E+01    1.507E+01    1.522E+01    1.537E+01    1.551E+01    1.566E+01    1.580E+01    1.594E+01    1.609E+01    1.623E+01
     1.637E+01    1.651E+01    1.665E+01    1.679E+01    1.693E+01    1.707E+01    1.721E+01    1.734E+01    1.748E+01    1.762E+01
     1.775E+01    1.789E+01    1.802E+01    1.816E+01    1.829E+01    1.842E+01    1.855E+01    1.869E+01    1.882E+01    1.895E+01
     1.908E+01    1.921E+01    1.934E+01    1.947E+01    1.959E+01    1.972E+01    1.985E+01    1.997E+01    2.010E+01    2.022E+01
     2.035E+01    2.047E+01    2.060E+01    2.072E+01    2.084E+01    2.096E+01    2.109E+01    2.121E+01    2.133E+01    2.145E+01
     2.157E+01    2.168E+01    2.180E+01    2.192E+01    2.204E+01    2.215E+01    2.227E+01    2.238E+01    2.250E+01    2.261E+01
     2.272E+01    2.284E+01    2.295E+01    2.306E+01    2.317E+01    2.328E+01    2.339E+01    2.350E+01    2.361E+01    2.372E+01
     2.383E+01    2.394E+01    2.405E+01    2.415E+01    2.426E+01    2.437E+01    2.448E+01    2.458E+01    2.469E+01    2.479E+01
     2.490E+01    2.500E+01    2.511E+01    2.522E+01    2.532E+01    2.543E+01    2.553E+01    2.564E+01    2.574E+01    2.585E+01
     2.595E+01    2.605E+01    2.616E+01    2.626E+01    2.637E+01    2.648E+01    2.658E+01    2.669E+01    2.679E+01    2.690E+01
     2.700E+01    2.711E+01    2.722E+01    2.732E+01    2.743E+01    2.754E+01    2.765E+01    2.776E+01    2.786E+01    2.797E+01
     2.808E+01    2.819E+01    2.830E+01    2.841E+01    2.852E+01    2.863E+01    2.874E+01    2.886E+01    2.897E+01    2.908E+01
     2.919E+01    2.930E+01    2.941E+01    2.952E+01    2.963E+01    2.975E+01    2.986E+01    2.997E+01    3.008E+01    3.019E+01
     3.030E+01    3.041E+01    3.052E+01    3.063E+01    3.074E+01    3.085E+01    3.096E+01    3.107E+01    3.118E+01    3.128E+01
     3.139E+01    3.150E+01    3.161E+01    3.171E+01    3.182E+01    3.192E+01    3.203E+01    3.213E+01    3.224E+01    3.234E+01
     3.244E+01    3.254E+01    3.264E+01    3.274E+01    3.284E+01    3.294E+01    3.304E+01    3.313E+01    3.323E+01    3.333E+01
     3.342E+01    3.352E+01    3.361E+01    3.370E+01    3.380E+01    3.389E+01    3.398E+01    3.407E+01    3.416E+01    3.425E+01
     3.434E+01    3.443E+01    3.452E+01    3.461E+01    3.470E+01    3.478E+01    3.487E+01    3.496E+01    3.504E+01    3.513E+01
     3.522E+01    3.530E+01    3.539E+01    3.547E+01    3.556E+01    3.564E+01    3.572E+01    3.581E+01    3.589E+01    3.597E+01
     3.606E+01    3.614E+01    3.622E+01    3.630E+01    3.638E+01    3.647E+01    3.655E+01    3.663E+01
 Ala      Conc. = 2.49E+02
