 LCModel (Version 6.3-1L) Copyright: S.W. Provencher.          Ref.: Magn. Reson. Med. 30:672-679 (1993).                
 Slice#1 Row#6 Col#4  PD_05_press_2_raw_act
 36 lines in following concentration table = NCONC+1
    Conc.  %SD /Cr+PCr  Metabolite                                         
 2.89E+03  27%   2.236 Ala                                                 
    0.000 999%   0.000 Asp                                                 
    0.000 999%   0.000 Cr                                                  
 1.29E+03  12%   1.000 PCr                                                 
  103.869 230% 8.0E-02 GABA                                                
  211.889 111%   0.164 Glc                                                 
 7.26E+03  22%   5.616 Gln                                                 
 7.90E+03  23%   6.111 Glu                                                 
  692.527  10%   0.536 GPC                                                 
    0.000 999%   0.000 PCh                                                 
  580.054  53%   0.449 GSH                                                 
 5.28E+03  15%   4.083 Ins                                                 
  446.398 224%   0.345 Lac                                                 
  977.188  38%   0.756 NAA                                                 
  931.152  42%   0.721 NAAG                                                
  154.617  40%   0.120 Scyllo                                              
  361.491  99%   0.280 Tau                                                 
    0.000 999%   0.000 -CrCH2                                              
  692.527  10%   0.536 GPC+PCh                                             
 1.91E+03  11%   1.477 NAA+NAAG                                            
 1.29E+03  12%   1.000 Cr+PCr                                              
 1.52E+04  20%  11.727 Glu+Gln                                             
 5.76E+03  24%   4.459 Lip13a                                              
  220.336 259%   0.171 Lip13b                                              
    0.000 999%   0.000 Lip09                                               
 1.55E+03  22%   1.203 MM09                                                
  715.843  55%   0.554 Lip20                                               
 2.15E+03  26%   1.663 MM20                                                
  479.817  27%   0.371 MM12                                                
 2.15E+03  16%   1.662 MM14                                                
  880.528  28%   0.681 MM17                                                
 5.98E+03  18%   4.629 Lip13a+Lip13b                                       
 8.61E+03  12%   6.663 MM14+Lip13a+Lip13b+MM12                             
 1.55E+03  22%   1.203 MM09+Lip09                                          
 2.86E+03  21%   2.216 MM20+Lip20                                          
   6 lines in following misc. output table
  FWHM = 0.099 ppm    S/N =   3                                            
  Data shift =-0.008 ppm                                                   
  Ph: -13 deg       9.9 deg/ppm                                            
  alphaB,S = 8.5E+01,   8.2E+02                                            
   14 spline knots.   Ns =11(1)                                            
   2 inflections.     1 extrema                                            
  498 points on ppm-axis = NY
      4.000000     3.992357     3.984714     3.977070     3.969427     3.961784     3.954141     3.946497     3.938854     3.931211
      3.923568     3.915925     3.908281     3.900638     3.892995     3.885352     3.877708     3.870065     3.862422     3.854779
      3.847136     3.839492     3.831849     3.824206     3.816563     3.808919     3.801276     3.793633     3.785990     3.778347
      3.770703     3.763060     3.755417     3.747774     3.740130     3.732487     3.724844     3.717201     3.709558     3.701914
      3.694271     3.686628     3.678985     3.671341     3.663698     3.656055     3.648412     3.640769     3.633125     3.625482
      3.617839     3.610196     3.602552     3.594909     3.587266     3.579623     3.571980     3.564336     3.556693     3.549050
      3.541407     3.533763     3.526120     3.518477     3.510834     3.503191     3.495547     3.487904     3.480261     3.472618
      3.464974     3.457331     3.449688     3.442045     3.434402     3.426758     3.419115     3.411472     3.403829     3.396185
      3.388542     3.380899     3.373256     3.365613     3.357969     3.350326     3.342683     3.335040     3.327396     3.319753
      3.312110     3.304467     3.296824     3.289180     3.281537     3.273894     3.266251     3.258607     3.250964     3.243321
      3.235678     3.228034     3.220391     3.212748     3.205105     3.197462     3.189818     3.182175     3.174532     3.166889
      3.159245     3.151602     3.143959     3.136316     3.128673     3.121029     3.113386     3.105743     3.098100     3.090456
      3.082813     3.075170     3.067527     3.059884     3.052240     3.044597     3.036954     3.029311     3.021667     3.014024
      3.006381     2.998738     2.991095     2.983451     2.975808     2.968165     2.960522     2.952878     2.945235     2.937592
      2.929949     2.922306     2.914662     2.907019     2.899376     2.891733     2.884089     2.876446     2.868803     2.861160
      2.853517     2.845873     2.838230     2.830587     2.822944     2.815300     2.807657     2.800014     2.792371     2.784728
      2.777084     2.769441     2.761798     2.754155     2.746511     2.738868     2.731225     2.723582     2.715939     2.708295
      2.700652     2.693009     2.685366     2.677722     2.670079     2.662436     2.654793     2.647150     2.639506     2.631863
      2.624220     2.616577     2.608933     2.601290     2.593647     2.586004     2.578361     2.570717     2.563074     2.555431
      2.547788     2.540144     2.532501     2.524858     2.517215     2.509572     2.501928     2.494285     2.486642     2.478999
      2.471355     2.463712     2.456069     2.448426     2.440783     2.433139     2.425496     2.417853     2.410210     2.402566
      2.394923     2.387280     2.379637     2.371994     2.364350     2.356707     2.349064     2.341421     2.333777     2.326134
      2.318491     2.310848     2.303205     2.295561     2.287918     2.280275     2.272632     2.264988     2.257345     2.249702
      2.242059     2.234416     2.226772     2.219129     2.211486     2.203843     2.196199     2.188556     2.180913     2.173270
      2.165627     2.157983     2.150340     2.142697     2.135054     2.127410     2.119767     2.112124     2.104481     2.096838
      2.089194     2.081551     2.073908     2.066265     2.058621     2.050978     2.043335     2.035692     2.028049     2.020405
      2.012762     2.005119     1.997476     1.989833     1.982190     1.974546     1.966903     1.959260     1.951617     1.943974
      1.936331     1.928688     1.921045     1.913402     1.905759     1.898115     1.890472     1.882829     1.875186     1.867543
      1.859900     1.852257     1.844614     1.836971     1.829327     1.821684     1.814041     1.806398     1.798755     1.791112
      1.783469     1.775826     1.768183     1.760540     1.752896     1.745253     1.737610     1.729967     1.722324     1.714681
      1.707038     1.699395     1.691752     1.684108     1.676465     1.668822     1.661179     1.653536     1.645893     1.638250
      1.630607     1.622964     1.615321     1.607677     1.600034     1.592391     1.584748     1.577105     1.569462     1.561819
      1.554176     1.546533     1.538890     1.531246     1.523603     1.515960     1.508317     1.500674     1.493031     1.485388
      1.477745     1.470102     1.462458     1.454815     1.447172     1.439529     1.431886     1.424243     1.416600     1.408957
      1.401314     1.393671     1.386027     1.378384     1.370741     1.363098     1.355455     1.347812     1.340169     1.332526
      1.324883     1.317240     1.309596     1.301953     1.294310     1.286667     1.279024     1.271381     1.263738     1.256095
      1.248452     1.240808     1.233165     1.225522     1.217879     1.210236     1.202593     1.194950     1.187307     1.179664
      1.172021     1.164377     1.156734     1.149091     1.141448     1.133805     1.126162     1.118519     1.110876     1.103233
      1.095590     1.087946     1.080303     1.072660     1.065017     1.057374     1.049731     1.042088     1.034445     1.026802
      1.019158     1.011515     1.003872     0.996229     0.988586     0.980943     0.973300     0.965657     0.958014     0.950371
      0.942727     0.935084     0.927441     0.919798     0.912155     0.904512     0.896869     0.889226     0.881583     0.873940
      0.866296     0.858653     0.851010     0.843367     0.835724     0.828081     0.820438     0.812795     0.805152     0.797508
      0.789865     0.782222     0.774579     0.766936     0.759293     0.751650     0.744007     0.736364     0.728721     0.721077
      0.713434     0.705791     0.698148     0.690505     0.682862     0.675219     0.667576     0.659933     0.652290     0.644646
      0.637003     0.629360     0.621717     0.614074     0.606431     0.598788     0.591145     0.583502     0.575858     0.568215
      0.560572     0.552929     0.545286     0.537643     0.530000     0.522357     0.514714     0.507071     0.499427     0.491784
      0.484141     0.476498     0.468855     0.461212     0.453569     0.445925     0.438282     0.430639     0.422996     0.415353
      0.407710     0.400067     0.392424     0.384780     0.377137     0.369494     0.361851     0.354208     0.346565     0.338922
      0.331278     0.323635     0.315992     0.308349     0.300706     0.293063     0.285420     0.277777     0.270133     0.262490
      0.254847     0.247204     0.239561     0.231918     0.224275     0.216631     0.208988     0.201345
 NY phased data points follow
   4.43376E+01  5.88142E+01  2.79564E+01  5.05818E+01  3.90563E+01  4.74829E+01  4.10712E+01  6.06504E+01  5.85796E+01  4.28713E+01
   3.84941E+01  4.96847E+01  4.72750E+01  5.60497E+01  4.50668E+01  5.78706E+01  2.22701E+01  4.40375E+01  3.83668E+01  4.68433E+01
   4.34093E+01  2.78050E+01  3.72303E+01  4.26955E+01  4.44568E+01  3.37667E+01  4.35606E+01  5.36601E+01  3.47088E+01  5.02457E+01
   2.19379E+01  5.49212E+01  3.39018E+01  3.48588E+01  3.04634E+01  4.14359E+01  4.12115E+01  3.66656E+01  3.87321E+01  3.58218E+01
   3.86742E+01  3.94423E+01  3.37433E+01  4.81222E+01  4.58804E+01  4.10564E+01  3.61438E+01  3.87939E+01  4.01586E+01  5.35452E+01
   4.52501E+01  4.00084E+01  4.21499E+01  4.08289E+01  3.41299E+01  4.16596E+01  3.42197E+01  4.15649E+01  2.31660E+01  4.19927E+01
   3.58924E+01  2.97015E+01  3.26139E+01  4.20459E+01  3.98583E+01  2.60911E+01  1.42668E+01  1.80304E+01  3.09248E+01  3.46399E+01
   2.54834E+01  2.13954E+01  1.70634E+01  4.65568E+01  1.70577E+01  3.14886E+01  2.76927E+01  2.90235E+01  2.95503E+01  2.88642E+01
   4.47900E+01  2.89920E+01  2.95723E+01  3.79418E+01  2.74373E+01  2.00781E+01  1.72116E+01  2.39752E+01  1.58783E+01  2.16924E+01
   1.41957E+01  1.71447E+01  2.13979E+01  3.14853E+01  2.16192E+01  2.63613E+01  3.92538E+01  3.45068E+01  2.72312E+01  3.43085E+01
   3.10218E+01  2.02097E+01  5.32099E+01  6.32076E+01  6.45692E+01  4.64088E+01  5.06799E+01  5.06371E+01  4.94325E+01  3.44081E+01
   2.70562E+01  3.45240E+01  1.66062E+01  2.48319E+01  1.87588E+01  2.97508E+01  2.68925E+01  1.58395E+01  2.60844E+01  3.47753E+01
   1.19287E+01  2.75857E+01  2.13748E+01  3.48326E+01  3.49372E+01  3.96563E+01  4.07997E+01  3.00368E+01  3.94645E+01  3.28666E+01
   2.99603E+01  3.42210E+01  1.23154E+01  2.95119E+01  2.71772E+01  1.33090E+01  2.13097E+01  1.51584E+01  5.62153E+00  2.09621E+01
   2.46022E+01  2.16214E+01  1.91136E+00  3.05180E+01  2.55971E+01  1.69033E+01  7.76406E+00  1.34474E+01  1.37859E+01  7.51509E+00
   5.16469E+00  2.34126E+01  2.39437E+01  3.55112E+01  2.05052E+01  1.78073E+01  1.37202E+01  1.25359E+01  1.24707E+01  9.64756E+00
   1.20327E+01  1.15013E+01  7.08623E+00  1.15307E+01  1.14272E+01  2.09596E+01  1.51655E+00  7.34117E+00  1.27153E+01  1.34594E+01
   8.70745E+00  9.88612E+00  1.62151E+01  3.84035E+00 -3.71353E+00 -7.91463E+00 -2.49085E+00  1.25280E+01 -1.56873E+00  3.14412E+00
  -1.58006E+01  7.62187E+00  1.86496E+00 -1.34990E+00  3.06302E+00  1.52485E+01  6.13655E+00  1.99091E+01  6.91030E+00  1.07416E+01
   7.48296E-01  1.08252E+01 -3.43342E+00  5.01948E+00 -8.58003E-01 -7.42790E+00  2.18624E+00  1.36445E+00 -5.66467E-01  2.82069E+00
   8.91778E+00  5.81269E+00  3.70704E+00  8.29920E+00  5.40217E+00  1.27105E+01  7.00806E+00  2.23138E+01  2.24976E+00 -2.31170E+00
   2.39855E+01  8.11741E+00  5.11025E+00  1.57606E+01  1.66652E+01  2.20858E+01  1.54377E+01  1.22527E+01  1.72312E+01 -5.86570E-01
   8.59881E+00  1.42511E+01  1.22488E+01  8.73615E+00  8.49377E+00  1.92695E+01  1.12717E+01  1.18571E+01  2.07641E+01  1.27054E+01
   1.79490E+01  1.43189E+01  4.28449E+01  2.36526E+01  1.51991E+01  2.33072E+01  6.52840E+00  9.53496E+00  1.26852E+01  1.36691E+01
   1.23562E+01  2.15256E+01  1.06098E+01  5.62245E+00  1.23156E+01  8.18712E+00  1.54489E+01  2.02893E+01  1.55309E+01  3.50128E+01
   2.84058E+01  2.20972E+01  3.21558E+01  4.47262E+01  3.46875E+01  4.54217E+01  4.09345E+01  6.47430E+01  6.38440E+01  5.38214E+01
   5.85654E+01  5.50245E+01  4.23397E+01  6.66712E+01  5.42902E+01  3.51805E+01  2.98103E+01  2.63632E+01  2.44382E+01  3.67820E+01
   2.04876E+01  2.68191E+01  1.15713E+01  2.57494E+01  1.58176E+01  2.63746E+01  2.49939E+01  2.87887E+01  1.22640E+01  6.10835E+00
   6.71447E-01  1.85562E+01  7.94150E+00  2.52108E+01  7.82778E+00  1.51346E+01  7.57189E+00  9.27188E+00  1.18740E+01  1.01101E+01
   1.29677E+00  1.44928E+01  1.68091E+01  1.05465E+01  2.53629E+01  2.07987E+01  1.14256E+01  1.24912E+01  1.38453E+01  6.18846E+00
   8.34142E+00  2.32845E+01  9.53027E+00  9.35542E+00  6.09701E+00  2.43390E+01  1.72132E+01  1.69730E+01  1.17783E+01  3.02201E+01
   2.66429E+01  2.89794E+01  3.14901E+01  3.90271E+01  2.12920E+01  3.05106E+01  5.05093E+01  3.06742E+01  4.12386E+01  3.66311E+01
   3.45600E+01  3.48404E+01  2.69736E+01  5.28398E+01  4.79893E+01  4.27089E+01  3.96967E+01  4.37923E+01  3.37088E+01  3.77956E+01
   3.60644E+01  3.85543E+01  4.17501E+01  1.91789E+01  3.02318E+01  1.87894E+01  2.43329E+01  3.79979E+01  3.95479E+01  2.61637E+01
   4.37369E+01  3.00711E+01  4.36611E+01  3.07890E+01  3.92406E+01  4.09134E+01  4.71754E+01  4.57765E+01  2.90421E+01  3.88987E+01
   3.39244E+01  3.16633E+01  3.09270E+01  5.11924E+01  4.23467E+01  3.91087E+01  3.57826E+01  5.06160E+01  3.61012E+01  4.46225E+01
   2.89098E+01  3.20724E+01  2.74147E+01  3.08781E+01  2.55941E+01  5.03640E+01  3.72189E+01  2.78487E+01  2.51557E+01  2.81178E+01
   3.25619E+01  1.94139E+01  2.82088E+01  3.33681E+01  2.00234E+01  2.68366E+01  1.92387E+01  2.06759E+01  3.00432E+01  2.22727E+01
   1.54746E+01  1.39815E+01  9.56786E+00  1.74492E+01  1.58846E+01  2.13697E+01  1.78108E+01  1.34364E+01  1.73711E+01  1.70636E+01
   2.42673E+01  7.99782E+00  4.84426E+00  1.28926E+01  2.52833E+01  1.97063E+01  1.59243E+01  6.24601E+00  1.72787E+01  1.91618E+01
   1.23268E+01  1.20782E+01  2.77942E+01  7.22490E+00  8.60887E+00  5.24820E+00  1.33809E+01  1.01923E+01  1.14689E+01  6.43391E+00
   2.39703E+01  6.14940E+00  1.97806E+01  1.51943E+01  6.46665E+00  6.44966E+00  4.79901E+00  1.23466E+01  1.66385E+01  8.94999E+00
   2.63171E+00  4.38004E+00  1.72801E+01  1.18592E+01  2.88464E-01 -5.43299E+00 -1.72940E+00  3.07119E+00 -2.44514E+00  7.12310E+00
   4.41083E-01 -2.30624E+00 -8.87054E+00 -7.24915E+00 -2.46602E+00 -1.46945E+00 -3.80991E+00  2.21584E+01  1.43146E+01  3.60562E+00
   1.76110E+00  7.94128E+00  1.56729E+01 -3.91304E+00  3.60257E+00 -2.28147E+00  1.49828E+00  1.65686E+00 -8.92963E+00  1.85680E+00
   5.79681E+00  2.27103E+00 -8.87224E+00 -9.50499E-01 -1.12882E+01  2.05477E+00  8.00528E+00  1.13417E+01 -2.96063E+00  3.34692E+00
   6.95107E+00  1.58718E+00 -1.43141E-01  8.34908E+00  6.30357E+00  1.46260E+01  7.33257E+00  5.94612E+00  2.71917E+00  1.83749E+01
   4.44555E-01  3.70284E+00  6.42849E+00  6.71106E+00  8.56079E+00  1.57671E+01  1.60469E+01  9.61770E+00 -5.34995E+00  1.11132E+01
   3.44023E-01  1.18064E+01  1.31675E+01  5.06699E+00  2.84367E+00  1.15921E+01  4.94625E+00 -3.04303E+00  1.38801E-01  8.00542E+00
  -7.92896E+00  1.82285E+01  7.21632E-01  1.53167E+01 -2.77841E+00  6.03723E+00  8.66156E+00  2.51937E+00
 NY points of the fit to the data follow
   4.24410E+01  4.20592E+01  4.17839E+01  4.16969E+01  4.18219E+01  4.21563E+01  4.27368E+01  4.33930E+01  4.38636E+01  4.41068E+01
   4.40761E+01  4.37070E+01  4.30472E+01  4.22199E+01  4.14310E+01  4.07500E+01  3.98749E+01  3.85609E+01  3.68798E+01  3.51340E+01
   3.36431E+01  3.29590E+01  3.33093E+01  3.43480E+01  3.56993E+01  3.70587E+01  3.82173E+01  3.90607E+01  3.97735E+01  4.05787E+01
   4.14242E+01  4.21411E+01  4.25970E+01  4.27164E+01  4.24365E+01  4.18262E+01  4.11632E+01  4.08775E+01  4.11665E+01  4.16715E+01
   4.18594E+01  4.17274E+01  4.15822E+01  4.16934E+01  4.22252E+01  4.33714E+01  4.48597E+01  4.61407E+01  4.67178E+01  4.64232E+01
   4.53286E+01  4.36824E+01  4.18757E+01  4.00270E+01  3.80627E+01  3.60505E+01  3.41004E+01  3.22941E+01  3.07221E+01  2.95559E+01
   2.89695E+01  2.90303E+01  2.94913E+01  2.99569E+01  3.02365E+01  3.03406E+01  3.03161E+01  3.02065E+01  3.00521E+01  2.98813E+01
   2.97092E+01  2.95474E+01  2.94519E+01  2.94829E+01  2.96040E+01  2.97979E+01  2.99462E+01  2.98531E+01  2.94153E+01  2.86372E+01
   2.76077E+01  2.64381E+01  2.52035E+01  2.39559E+01  2.27363E+01  2.16088E+01  2.06114E+01  1.97079E+01  1.88997E+01  1.81883E+01
   1.75972E+01  1.72691E+01  1.77413E+01  1.94258E+01  2.20655E+01  2.53356E+01  2.89824E+01  3.28404E+01  3.67984E+01  4.07234E+01
   4.43220E+01  4.72928E+01  4.94517E+01  5.06802E+01  5.09086E+01  5.01161E+01  4.83518E+01  4.57517E+01  4.25031E+01  3.87985E+01
   3.48230E+01  3.06944E+01  2.65498E+01  2.26026E+01  1.92368E+01  1.71674E+01  1.70912E+01  1.85628E+01  2.06770E+01  2.30967E+01
   2.56753E+01  2.83224E+01  3.09682E+01  3.35201E+01  3.58218E+01  3.76935E+01  3.89660E+01  3.95110E+01  3.92845E+01  3.83124E+01
   3.66861E+01  3.45332E+01  3.19808E+01  2.91567E+01  2.61861E+01  2.31948E+01  2.03332E+01  1.78078E+01  1.58857E+01  1.48190E+01
   1.44745E+01  1.43584E+01  1.42962E+01  1.42429E+01  1.41807E+01  1.41149E+01  1.40481E+01  1.39506E+01  1.37852E+01  1.35448E+01
   1.32319E+01  1.28688E+01  1.25051E+01  1.21765E+01  1.19076E+01  1.16906E+01  1.14939E+01  1.12994E+01  1.10947E+01  1.08686E+01
   1.06251E+01  1.03811E+01  1.01470E+01  9.92154E+00  9.69145E+00  9.43656E+00  9.15184E+00  8.84921E+00  8.54921E+00  8.27525E+00
   8.02843E+00  7.80186E+00  7.58742E+00  7.38121E+00  7.18108E+00  6.99939E+00  6.85026E+00  6.75309E+00  6.72878E+00  6.78712E+00
   6.94184E+00  7.20744E+00  7.56223E+00  7.92199E+00  8.23257E+00  8.42143E+00  8.38189E+00  8.08152E+00  7.55241E+00  6.86928E+00
   6.19867E+00  5.76805E+00  5.71429E+00  6.05305E+00  6.85627E+00  8.16346E+00  9.83053E+00  1.16972E+01  1.34087E+01  1.43715E+01
   1.43852E+01  1.37542E+01  1.27429E+01  1.15569E+01  1.04789E+01  9.83140E+00  9.47190E+00  9.20877E+00  9.01941E+00  8.92401E+00
   8.87849E+00  8.76490E+00  8.62822E+00  8.75517E+00  9.34203E+00  1.03239E+01  1.14813E+01  1.25953E+01  1.36033E+01  1.43653E+01
   1.46500E+01  1.43913E+01  1.35295E+01  1.22324E+01  1.11737E+01  1.07644E+01  1.10492E+01  1.21899E+01  1.42621E+01  1.70098E+01
   1.98754E+01  2.25171E+01  2.44550E+01  2.54318E+01  2.53478E+01  2.42882E+01  2.27704E+01  2.13517E+01  2.01150E+01  1.89362E+01
   1.78099E+01  1.67621E+01  1.58484E+01  1.51058E+01  1.46518E+01  1.48518E+01  1.57916E+01  1.72583E+01  1.90503E+01  2.12902E+01
   2.44369E+01  2.85468E+01  3.33592E+01  3.85699E+01  4.37946E+01  4.84872E+01  5.22077E+01  5.49622E+01  5.66967E+01  5.73005E+01
   5.67865E+01  5.52260E+01  5.26716E+01  4.92935E+01  4.54025E+01  4.12973E+01  3.72130E+01  3.33594E+01  2.99520E+01  2.70768E+01
   2.44589E+01  2.20145E+01  1.99981E+01  1.87051E+01  1.80508E+01  1.76541E+01  1.73812E+01  1.71667E+01  1.69248E+01  1.66620E+01
   1.63886E+01  1.60888E+01  1.57579E+01  1.53994E+01  1.50260E+01  1.46734E+01  1.43887E+01  1.41878E+01  1.40530E+01  1.39659E+01
   1.39147E+01  1.38937E+01  1.38972E+01  1.39189E+01  1.39652E+01  1.40481E+01  1.41753E+01  1.43497E+01  1.45715E+01  1.48420E+01
   1.51596E+01  1.55217E+01  1.59282E+01  1.63785E+01  1.68728E+01  1.74144E+01  1.80038E+01  1.86395E+01  1.93225E+01  2.00561E+01
   2.08461E+01  2.17017E+01  2.26382E+01  2.36831E+01  2.48805E+01  2.63129E+01  2.81670E+01  3.05752E+01  3.31376E+01  3.54642E+01
   3.73433E+01  3.86493E+01  3.92746E+01  3.90762E+01  3.79859E+01  3.64006E+01  3.46277E+01  3.27332E+01  3.07507E+01  2.87646E+01
   2.69228E+01  2.54152E+01  2.44342E+01  2.41276E+01  2.45614E+01  2.57107E+01  2.75022E+01  2.97960E+01  3.24212E+01  3.52592E+01
   3.81630E+01  4.07299E+01  4.23528E+01  4.29899E+01  4.28386E+01  4.20538E+01  4.07554E+01  3.91480E+01  3.76554E+01  3.68157E+01
   3.65614E+01  3.66422E+01  3.69256E+01  3.73163E+01  3.77256E+01  3.80697E+01  3.82808E+01  3.83167E+01  3.81641E+01  3.78309E+01
   3.73179E+01  3.65740E+01  3.55799E+01  3.43902E+01  3.30536E+01  3.16106E+01  3.01067E+01  2.86113E+01  2.72175E+01  2.59372E+01
   2.47360E+01  2.36012E+01  2.25305E+01  2.15255E+01  2.05892E+01  1.97251E+01  1.89365E+01  1.82262E+01  1.75961E+01  1.70477E+01
   1.65815E+01  1.61974E+01  1.58944E+01  1.56713E+01  1.55255E+01  1.54541E+01  1.54531E+01  1.55174E+01  1.56410E+01  1.58166E+01
   1.60357E+01  1.62884E+01  1.65641E+01  1.68509E+01  1.71363E+01  1.74074E+01  1.76515E+01  1.78562E+01  1.80102E+01  1.81035E+01
   1.81280E+01  1.80779E+01  1.79497E+01  1.77426E+01  1.74582E+01  1.71007E+01  1.66765E+01  1.61935E+01  1.56615E+01  1.50907E+01
   1.44919E+01  1.38760E+01  1.32533E+01  1.26331E+01  1.20238E+01  1.14324E+01  1.08648E+01  1.03251E+01  9.81635E+00  9.34028E+00
   8.89758E+00  8.48804E+00  8.11074E+00  7.76419E+00  7.44653E+00  7.15564E+00  6.88932E+00  6.64532E+00  6.42147E+00  6.21566E+00
   6.02593E+00  5.85050E+00  5.68776E+00  5.53628E+00  5.39475E+00  5.26205E+00  5.13716E+00  5.01922E+00  4.90748E+00  4.80129E+00
   4.70004E+00  4.60324E+00  4.51043E+00  4.42124E+00  4.33532E+00  4.25240E+00  4.17218E+00  4.09443E+00  4.01894E+00  3.94554E+00
   3.87407E+00  3.80437E+00  3.73629E+00  3.66971E+00  3.60453E+00  3.54067E+00  3.47804E+00  3.41655E+00  3.35611E+00  3.29667E+00
   3.23817E+00  3.18056E+00  3.12379E+00  3.06779E+00  3.01252E+00  2.95794E+00  2.90403E+00  2.85074E+00  2.79805E+00  2.74591E+00
   2.69429E+00  2.64318E+00  2.59256E+00  2.54240E+00  2.49267E+00  2.44335E+00  2.39441E+00  2.34585E+00  2.29766E+00  2.24981E+00
   2.20230E+00  2.15508E+00  2.10817E+00  2.06155E+00  2.01521E+00  1.96914E+00  1.92331E+00  1.87773E+00  1.83238E+00  1.78728E+00
   1.74242E+00  1.69777E+00  1.65333E+00  1.60911E+00  1.56512E+00  1.52136E+00  1.47783E+00  1.43454E+00
 NY background values follow
     1.737E+01    1.734E+01    1.731E+01    1.727E+01    1.724E+01    1.720E+01    1.717E+01    1.714E+01    1.710E+01    1.707E+01
     1.704E+01    1.700E+01    1.697E+01    1.693E+01    1.690E+01    1.687E+01    1.683E+01    1.680E+01    1.677E+01    1.673E+01
     1.670E+01    1.666E+01    1.663E+01    1.660E+01    1.656E+01    1.653E+01    1.650E+01    1.646E+01    1.643E+01    1.639E+01
     1.636E+01    1.633E+01    1.629E+01    1.626E+01    1.622E+01    1.619E+01    1.616E+01    1.612E+01    1.609E+01    1.606E+01
     1.602E+01    1.599E+01    1.595E+01    1.592E+01    1.589E+01    1.585E+01    1.582E+01    1.579E+01    1.575E+01    1.572E+01
     1.568E+01    1.565E+01    1.562E+01    1.558E+01    1.555E+01    1.552E+01    1.548E+01    1.545E+01    1.541E+01    1.538E+01
     1.535E+01    1.531E+01    1.528E+01    1.525E+01    1.521E+01    1.518E+01    1.514E+01    1.511E+01    1.508E+01    1.504E+01
     1.501E+01    1.497E+01    1.494E+01    1.491E+01    1.487E+01    1.484E+01    1.481E+01    1.477E+01    1.474E+01    1.470E+01
     1.467E+01    1.464E+01    1.460E+01    1.457E+01    1.454E+01    1.450E+01    1.447E+01    1.443E+01    1.440E+01    1.437E+01
     1.433E+01    1.430E+01    1.427E+01    1.423E+01    1.420E+01    1.416E+01    1.413E+01    1.410E+01    1.406E+01    1.403E+01
     1.399E+01    1.396E+01    1.393E+01    1.389E+01    1.386E+01    1.383E+01    1.379E+01    1.376E+01    1.372E+01    1.369E+01
     1.366E+01    1.362E+01    1.359E+01    1.356E+01    1.352E+01    1.349E+01    1.345E+01    1.342E+01    1.339E+01    1.335E+01
     1.332E+01    1.328E+01    1.325E+01    1.322E+01    1.318E+01    1.315E+01    1.312E+01    1.308E+01    1.305E+01    1.301E+01
     1.298E+01    1.295E+01    1.291E+01    1.288E+01    1.285E+01    1.281E+01    1.278E+01    1.274E+01    1.271E+01    1.268E+01
     1.264E+01    1.261E+01    1.257E+01    1.254E+01    1.251E+01    1.247E+01    1.244E+01    1.241E+01    1.237E+01    1.234E+01
     1.230E+01    1.227E+01    1.224E+01    1.220E+01    1.217E+01    1.213E+01    1.210E+01    1.207E+01    1.203E+01    1.200E+01
     1.197E+01    1.193E+01    1.190E+01    1.186E+01    1.183E+01    1.180E+01    1.176E+01    1.173E+01    1.170E+01    1.166E+01
     1.163E+01    1.159E+01    1.156E+01    1.153E+01    1.149E+01    1.146E+01    1.142E+01    1.139E+01    1.136E+01    1.132E+01
     1.129E+01    1.126E+01    1.122E+01    1.119E+01    1.115E+01    1.112E+01    1.109E+01    1.105E+01    1.102E+01    1.098E+01
     1.095E+01    1.092E+01    1.088E+01    1.085E+01    1.082E+01    1.078E+01    1.075E+01    1.071E+01    1.068E+01    1.065E+01
     1.061E+01    1.058E+01    1.055E+01    1.051E+01    1.048E+01    1.044E+01    1.041E+01    1.038E+01    1.034E+01    1.031E+01
     1.027E+01    1.024E+01    1.021E+01    1.017E+01    1.014E+01    1.011E+01    1.007E+01    1.004E+01    1.000E+01    9.970E+00
     9.936E+00    9.903E+00    9.869E+00    9.835E+00    9.801E+00    9.767E+00    9.733E+00    9.700E+00    9.666E+00    9.632E+00
     9.598E+00    9.564E+00    9.531E+00    9.497E+00    9.463E+00    9.429E+00    9.395E+00    9.361E+00    9.328E+00    9.294E+00
     9.260E+00    9.226E+00    9.192E+00    9.158E+00    9.125E+00    9.091E+00    9.057E+00    9.023E+00    8.989E+00    8.956E+00
     8.922E+00    8.888E+00    8.854E+00    8.820E+00    8.786E+00    8.753E+00    8.719E+00    8.685E+00    8.651E+00    8.617E+00
     8.583E+00    8.550E+00    8.516E+00    8.482E+00    8.448E+00    8.414E+00    8.381E+00    8.347E+00    8.313E+00    8.279E+00
     8.245E+00    8.211E+00    8.178E+00    8.144E+00    8.110E+00    8.076E+00    8.042E+00    8.009E+00    7.975E+00    7.941E+00
     7.907E+00    7.873E+00    7.839E+00    7.806E+00    7.772E+00    7.738E+00    7.704E+00    7.670E+00    7.637E+00    7.603E+00
     7.569E+00    7.535E+00    7.501E+00    7.467E+00    7.434E+00    7.400E+00    7.366E+00    7.332E+00    7.298E+00    7.264E+00
     7.231E+00    7.197E+00    7.163E+00    7.129E+00    7.095E+00    7.062E+00    7.028E+00    6.994E+00    6.960E+00    6.926E+00
     6.892E+00    6.859E+00    6.825E+00    6.791E+00    6.757E+00    6.723E+00    6.690E+00    6.656E+00    6.622E+00    6.588E+00
     6.554E+00    6.520E+00    6.487E+00    6.453E+00    6.419E+00    6.385E+00    6.351E+00    6.318E+00    6.284E+00    6.250E+00
     6.216E+00    6.182E+00    6.148E+00    6.115E+00    6.081E+00    6.047E+00    6.013E+00    5.979E+00    5.946E+00    5.912E+00
     5.878E+00    5.844E+00    5.810E+00    5.776E+00    5.743E+00    5.709E+00    5.675E+00    5.641E+00    5.607E+00    5.574E+00
     5.540E+00    5.506E+00    5.472E+00    5.438E+00    5.405E+00    5.371E+00    5.337E+00    5.303E+00    5.269E+00    5.235E+00
     5.202E+00    5.168E+00    5.134E+00    5.100E+00    5.066E+00    5.033E+00    4.999E+00    4.965E+00    4.931E+00    4.897E+00
     4.864E+00    4.830E+00    4.796E+00    4.762E+00    4.728E+00    4.694E+00    4.661E+00    4.627E+00    4.593E+00    4.559E+00
     4.525E+00    4.492E+00    4.458E+00    4.424E+00    4.390E+00    4.356E+00    4.323E+00    4.289E+00    4.255E+00    4.221E+00
     4.187E+00    4.153E+00    4.120E+00    4.086E+00    4.052E+00    4.018E+00    3.984E+00    3.951E+00    3.917E+00    3.883E+00
     3.849E+00    3.815E+00    3.782E+00    3.748E+00    3.714E+00    3.680E+00    3.646E+00    3.613E+00    3.579E+00    3.545E+00
     3.511E+00    3.477E+00    3.444E+00    3.410E+00    3.376E+00    3.342E+00    3.308E+00    3.275E+00    3.241E+00    3.207E+00
     3.173E+00    3.139E+00    3.105E+00    3.072E+00    3.038E+00    3.004E+00    2.970E+00    2.936E+00    2.903E+00    2.869E+00
     2.835E+00    2.801E+00    2.767E+00    2.734E+00    2.700E+00    2.666E+00    2.632E+00    2.598E+00    2.565E+00    2.531E+00
     2.497E+00    2.463E+00    2.430E+00    2.396E+00    2.362E+00    2.328E+00    2.294E+00    2.261E+00    2.227E+00    2.193E+00
     2.159E+00    2.125E+00    2.092E+00    2.058E+00    2.024E+00    1.990E+00    1.956E+00    1.923E+00    1.889E+00    1.855E+00
     1.821E+00    1.787E+00    1.754E+00    1.720E+00    1.686E+00    1.652E+00    1.618E+00    1.585E+00    1.551E+00    1.517E+00
     1.483E+00    1.450E+00    1.416E+00    1.382E+00    1.348E+00    1.314E+00    1.281E+00    1.247E+00    1.213E+00    1.179E+00
     1.145E+00    1.112E+00    1.078E+00    1.044E+00    1.010E+00    9.765E-01    9.427E-01    9.089E-01    8.751E-01    8.414E-01
     8.076E-01    7.738E-01    7.400E-01    7.062E-01    6.724E-01    6.387E-01    6.049E-01    5.711E-01
 Ala      Conc. = 2.89E+03
