 LCModel (Version 6.3-1L) Copyright: S.W. Provencher.          Ref.: Magn. Reson. Med. 30:672-679 (1993).                
 Slice#1 Row#2 Col#6  PD_05_press_2_raw_act
 36 lines in following concentration table = NCONC+1
    Conc.  %SD /Cr+PCr  Metabolite                                         
    0.000 999%   0.000 Ala                                                 
   93.802 113%   0.167 Asp                                                 
    0.000 999%   0.000 Cr                                                  
  562.785  26%   1.000 PCr                                                 
   61.583 103%   0.109 GABA                                                
   47.751 133% 8.5E-02 Glc                                                 
 1.25E+03  49%   2.213 Gln                                                 
    0.000 999%   0.000 Glu                                                 
  154.228  34%   0.274 GPC                                                 
    0.000 999%   0.000 PCh                                                 
  114.236 175%   0.203 GSH                                                 
  724.740  82%   1.288 Ins                                                 
    0.000 999%   0.000 Lac                                                 
  841.102  24%   1.495 NAA                                                 
   79.133 283%   0.141 NAAG                                                
   28.086  74% 5.0E-02 Scyllo                                              
   85.642 122%   0.152 Tau                                                 
   88.114 186%   0.157 -CrCH2                                              
  154.228  34%   0.274 GPC+PCh                                             
  920.235  20%   1.635 NAA+NAAG                                            
  562.785  26%   1.000 Cr+PCr                                              
 1.25E+03  49%   2.213 Glu+Gln                                             
 1.76E+03  37%   3.123 Lip13a                                              
    0.000 999%   0.000 Lip13b                                              
  250.683 102%   0.445 Lip09                                               
    0.000 999%   0.000 MM09                                                
  307.078  62%   0.546 Lip20                                               
 3.24E-02 999% 5.8E-05 MM20                                                
 1.29E-03 999% 2.3E-06 MM12                                                
 2.59E-02 999% 4.6E-05 MM14                                                
    0.000 999%   0.000 MM17                                                
 1.76E+03  37%   3.123 Lip13a+Lip13b                                       
 1.76E+03  37%   3.123 MM14+Lip13a+Lip13b+MM12                             
  250.683 102%   0.445 MM09+Lip09                                          
  307.111  62%   0.546 MM20+Lip20                                          
   6 lines in following misc. output table
  FWHM = 0.046 ppm    S/N =   1                                            
  Data shift = 0.076 ppm                                                   
  Ph: -10 deg     -17.2 deg/ppm                                            
  alphaB,S = 8.5E+01,   5.1E+01                                            
   14 spline knots.   Ns = 5(1)                                            
   2 inflections.     1 extrema                                            
  498 points on ppm-axis = NY
      4.000000     3.992357     3.984714     3.977070     3.969427     3.961784     3.954141     3.946497     3.938854     3.931211
      3.923568     3.915925     3.908281     3.900638     3.892995     3.885352     3.877708     3.870065     3.862422     3.854779
      3.847136     3.839492     3.831849     3.824206     3.816563     3.808919     3.801276     3.793633     3.785990     3.778347
      3.770703     3.763060     3.755417     3.747774     3.740130     3.732487     3.724844     3.717201     3.709558     3.701914
      3.694271     3.686628     3.678985     3.671341     3.663698     3.656055     3.648412     3.640769     3.633125     3.625482
      3.617839     3.610196     3.602552     3.594909     3.587266     3.579623     3.571980     3.564336     3.556693     3.549050
      3.541407     3.533763     3.526120     3.518477     3.510834     3.503191     3.495547     3.487904     3.480261     3.472618
      3.464974     3.457331     3.449688     3.442045     3.434402     3.426758     3.419115     3.411472     3.403829     3.396185
      3.388542     3.380899     3.373256     3.365613     3.357969     3.350326     3.342683     3.335040     3.327396     3.319753
      3.312110     3.304467     3.296824     3.289180     3.281537     3.273894     3.266251     3.258607     3.250964     3.243321
      3.235678     3.228034     3.220391     3.212748     3.205105     3.197462     3.189818     3.182175     3.174532     3.166889
      3.159245     3.151602     3.143959     3.136316     3.128673     3.121029     3.113386     3.105743     3.098100     3.090456
      3.082813     3.075170     3.067527     3.059884     3.052240     3.044597     3.036954     3.029311     3.021667     3.014024
      3.006381     2.998738     2.991095     2.983451     2.975808     2.968165     2.960522     2.952878     2.945235     2.937592
      2.929949     2.922306     2.914662     2.907019     2.899376     2.891733     2.884089     2.876446     2.868803     2.861160
      2.853517     2.845873     2.838230     2.830587     2.822944     2.815300     2.807657     2.800014     2.792371     2.784728
      2.777084     2.769441     2.761798     2.754155     2.746511     2.738868     2.731225     2.723582     2.715939     2.708295
      2.700652     2.693009     2.685366     2.677722     2.670079     2.662436     2.654793     2.647150     2.639506     2.631863
      2.624220     2.616577     2.608933     2.601290     2.593647     2.586004     2.578361     2.570717     2.563074     2.555431
      2.547788     2.540144     2.532501     2.524858     2.517215     2.509572     2.501928     2.494285     2.486642     2.478999
      2.471355     2.463712     2.456069     2.448426     2.440783     2.433139     2.425496     2.417853     2.410210     2.402566
      2.394923     2.387280     2.379637     2.371994     2.364350     2.356707     2.349064     2.341421     2.333777     2.326134
      2.318491     2.310848     2.303205     2.295561     2.287918     2.280275     2.272632     2.264988     2.257345     2.249702
      2.242059     2.234416     2.226772     2.219129     2.211486     2.203843     2.196199     2.188556     2.180913     2.173270
      2.165627     2.157983     2.150340     2.142697     2.135054     2.127410     2.119767     2.112124     2.104481     2.096838
      2.089194     2.081551     2.073908     2.066265     2.058621     2.050978     2.043335     2.035692     2.028049     2.020405
      2.012762     2.005119     1.997476     1.989833     1.982190     1.974546     1.966903     1.959260     1.951617     1.943974
      1.936331     1.928688     1.921045     1.913402     1.905759     1.898115     1.890472     1.882829     1.875186     1.867543
      1.859900     1.852257     1.844614     1.836971     1.829327     1.821684     1.814041     1.806398     1.798755     1.791112
      1.783469     1.775826     1.768183     1.760540     1.752896     1.745253     1.737610     1.729967     1.722324     1.714681
      1.707038     1.699395     1.691752     1.684108     1.676465     1.668822     1.661179     1.653536     1.645893     1.638250
      1.630607     1.622964     1.615321     1.607677     1.600034     1.592391     1.584748     1.577105     1.569462     1.561819
      1.554176     1.546533     1.538890     1.531246     1.523603     1.515960     1.508317     1.500674     1.493031     1.485388
      1.477745     1.470102     1.462458     1.454815     1.447172     1.439529     1.431886     1.424243     1.416600     1.408957
      1.401314     1.393671     1.386027     1.378384     1.370741     1.363098     1.355455     1.347812     1.340169     1.332526
      1.324883     1.317240     1.309596     1.301953     1.294310     1.286667     1.279024     1.271381     1.263738     1.256095
      1.248452     1.240808     1.233165     1.225522     1.217879     1.210236     1.202593     1.194950     1.187307     1.179664
      1.172021     1.164377     1.156734     1.149091     1.141448     1.133805     1.126162     1.118519     1.110876     1.103233
      1.095590     1.087946     1.080303     1.072660     1.065017     1.057374     1.049731     1.042088     1.034445     1.026802
      1.019158     1.011515     1.003872     0.996229     0.988586     0.980943     0.973300     0.965657     0.958014     0.950371
      0.942727     0.935084     0.927441     0.919798     0.912155     0.904512     0.896869     0.889226     0.881583     0.873940
      0.866296     0.858653     0.851010     0.843367     0.835724     0.828081     0.820438     0.812795     0.805152     0.797508
      0.789865     0.782222     0.774579     0.766936     0.759293     0.751650     0.744007     0.736364     0.728721     0.721077
      0.713434     0.705791     0.698148     0.690505     0.682862     0.675219     0.667576     0.659933     0.652290     0.644646
      0.637003     0.629360     0.621717     0.614074     0.606431     0.598788     0.591145     0.583502     0.575858     0.568215
      0.560572     0.552929     0.545286     0.537643     0.530000     0.522357     0.514714     0.507071     0.499427     0.491784
      0.484141     0.476498     0.468855     0.461212     0.453569     0.445925     0.438282     0.430639     0.422996     0.415353
      0.407710     0.400067     0.392424     0.384780     0.377137     0.369494     0.361851     0.354208     0.346565     0.338922
      0.331278     0.323635     0.315992     0.308349     0.300706     0.293063     0.285420     0.277777     0.270133     0.262490
      0.254847     0.247204     0.239561     0.231918     0.224275     0.216631     0.208988     0.201345
 NY phased data points follow
   2.01443E+01  9.40472E+00  6.32844E+00 -5.07871E+00 -3.47043E+00  4.05174E+00  3.92535E+01  4.14765E+00  3.18663E+01 -4.09837E+00
   2.34215E+01 -1.51764E+01  3.14589E+01  1.14221E+01  2.02981E+01 -2.35015E+00  1.11475E+01 -5.11049E+00  8.95057E+00  1.23196E+01
   3.17717E+00 -9.26155E+00 -2.60072E+00  9.94237E+00  8.11860E+00  2.84999E+00  9.01128E+00 -1.69944E+01 -1.12720E+01  2.07391E+01
   1.20554E+01  4.31694E+00  5.54227E+00 -3.62318E+00  1.65764E+01  8.76395E+00  1.25048E+01 -3.07474E+01 -2.03441E+01  5.15783E+00
   1.67774E+01 -1.02035E+01  1.91876E+01 -2.27338E+00  2.15994E+01  1.52965E+01  2.55445E+01  1.29704E+01  1.46633E+01  1.64680E+01
   1.27827E+01  4.75551E-01 -2.73006E+00  8.41374E+00  2.29205E+01  6.92157E+00  8.57635E+00  8.76793E+00  1.66473E+01 -1.79706E+01
   2.18814E+01 -1.01965E+01  1.26322E+01 -1.58461E+01  2.58819E+01 -5.79505E+00  2.48218E+01  5.41368E+00  1.09982E-01  2.10648E+00
   1.98280E+01  2.52756E+00  4.41377E+00 -2.09200E+01  1.30500E+01 -1.22675E+01  1.70976E+01  2.35665E-01  9.94884E-01 -1.06929E+00
  -4.22646E+00 -8.44714E+00 -6.39418E+00  1.29412E+01  5.52940E+00  8.84842E+00  3.21750E+01 -2.91636E+00  3.08081E+01 -7.22481E+00
  -5.99728E-02 -1.47936E-01  1.68325E+01  1.74750E+01  1.09656E+01 -4.29903E+00  6.88826E+00 -1.56942E+01 -7.13840E+00 -5.66590E+00
   2.93779E+01  3.01015E+01  2.90684E+01  9.21043E+00  1.99945E+01 -6.47866E+00  9.86945E+00 -1.06765E-01  5.01551E+00 -5.66457E+00
   4.30730E+00 -1.24725E+01  4.66751E+00 -6.17450E+00  1.50637E+01  6.11144E+00  2.71692E+01  1.11310E+01  1.42712E+01 -1.98764E+01
   5.54453E+00  2.36493E+00  8.76751E+00  1.93728E+01  2.76928E+01  3.01835E+01  2.81315E+01 -8.05280E+00  3.12707E+01 -1.88880E+00
   4.69192E-01  3.32638E+01  3.18214E+01 -8.14654E-01  1.18565E+01  4.93285E+00  1.82146E+01 -1.46380E-01  3.47094E+00 -7.32590E+00
   4.59463E+00 -1.56154E+00  1.07625E+01  2.98953E+00  7.06370E+00  3.00907E+00  2.37430E+01 -2.86538E+00  6.82469E+00 -1.94338E+00
   5.07830E+00  4.23953E+00 -8.81780E+00 -1.70293E+01  2.29488E+01 -3.34688E+00  1.71854E+01 -9.88210E+00  1.53290E+01 -1.69792E+01
  -7.37088E+00  8.37800E+00 -1.31744E+01  8.12842E+00  5.87617E+00 -1.31427E+01  9.03231E+00  6.82361E+00  9.10093E+00 -9.63689E+00
  -7.17400E+00  6.88772E-01  1.66169E+00 -4.65944E-01 -7.95529E+00 -1.50209E+00 -1.78201E+01  1.01474E+01  9.80891E-01  1.75901E+00
   2.68812E+00  1.19753E+01 -5.50826E+00 -1.02091E+01 -8.92521E+00 -1.30112E+01  5.92478E-01  5.70000E+00 -9.80624E+00  7.79900E+00
   1.32781E+01  2.09798E+01  7.21084E+00 -9.15841E+00 -7.05044E+00 -1.38224E+01  2.81163E-01 -1.25729E+00 -1.21839E+00  1.28817E+00
   4.61656E+00  5.36103E+00  6.15094E+00  4.17564E-01  2.54256E+00  8.77456E+00 -4.26102E+00 -1.17254E+01  1.47766E+01 -4.71891E+00
   7.30485E+00 -2.01556E+01 -9.48914E+00  3.18860E+00  1.95348E+00  1.43846E+01  1.11580E+01  1.07934E+01 -1.11054E+01 -8.18147E+00
   1.06113E+01  1.46700E+01  2.61069E+01  5.67471E+00  1.64970E+01  1.80777E+00  6.11097E+00  1.74093E+00 -1.06432E+01 -4.71770E+00
   1.92670E+01 -3.08990E+00 -7.48759E+00  2.10808E+01  1.12128E+01 -7.03864E+00  3.96490E+00  9.15915E+00  1.12036E+01 -7.38545E+00
   9.68888E+00 -6.74109E+00 -8.55113E-01 -4.26998E+00 -3.88046E+00 -1.66031E+01 -1.11306E+00 -5.12036E+00  4.06545E-01  1.20453E+00
   1.50611E+01  9.79963E+00  1.47819E+01  1.56068E+01  1.56681E+00 -1.21575E+00  1.71869E+01  2.18229E+01  2.64256E+01  1.89989E+01
   3.30883E+01  3.59138E+01  3.22130E+01  1.57415E+01  1.91663E-01  4.62074E+00  1.29599E+01 -2.41091E+00  1.16373E+00 -9.03430E+00
   1.00716E+01 -3.64343E+00  6.38253E+00  1.20591E+01 -6.17522E+00  5.58253E+00 -7.47936E+00  1.18423E+01  1.50529E+01  5.70580E+00
   3.84437E+00 -8.61384E+00 -1.24052E+01  9.96809E+00  1.39083E+01  1.12988E+01  1.33561E+01  6.84699E+00 -1.85725E+00 -3.17101E+01
  -1.56793E+01  1.59052E+01  3.42367E-01  8.51547E+00  2.32670E+00 -1.19832E+01 -1.39332E+01 -1.38209E+01 -4.39588E+00 -2.26272E+01
  -1.56068E+01 -2.73298E+00 -1.10508E+01 -2.60110E+01 -2.29553E+01 -1.29387E+01 -7.71927E+00  1.03904E+00 -6.12396E-01 -1.34611E+01
  -3.69937E+00  1.21010E+00  6.97086E+00 -1.73303E+01 -4.70170E+00 -7.36622E+00 -8.31841E+00 -1.70138E+01 -1.68842E+01 -1.07216E+00
  -6.70619E+00 -8.58258E+00  2.47241E+00  1.10232E+01  6.77010E+00  1.40814E+01  5.77154E+00 -9.24143E+00  6.74143E-01 -1.52023E+01
   9.34351E+00  7.50698E+00  1.61854E+01  9.87680E+00  1.45994E+01  3.80259E+00  9.55403E+00  1.38143E+01  1.40562E+01 -1.08952E+01
  -5.68069E+00 -1.01519E+01 -1.10571E+01 -1.81080E+00  9.34025E+00 -4.77698E+00  2.06938E+01  8.89398E+00  2.21494E+00  1.19204E+01
  -1.21563E+00  1.63454E+01  9.23798E+00  7.47323E+00  1.05987E+01  1.00267E+01 -1.20245E+01 -5.26626E+00  6.08698E+00  1.07215E+01
  -2.23453E-01 -1.26083E+01  7.00758E+00 -7.82838E+00  1.63750E+01  1.41137E+01  1.68080E+01  8.43949E+00  1.85486E+01  2.61323E+01
   1.15449E+01  2.14182E+01  4.85553E+00  1.09509E+01 -8.69163E+00  7.14040E+00  5.07930E-01  5.40055E+00 -3.48407E+00 -2.07405E+01
   8.87114E-01 -7.75218E-01 -1.30009E+01 -2.02006E+01 -7.13568E+00 -9.22997E+00 -1.81227E+01 -1.90314E+01 -2.90829E+01  4.79309E+00
  -2.12178E+01 -9.67579E+00 -2.44781E+01  1.19038E+01 -1.41642E+01 -3.58007E+01 -1.33944E+01 -8.72584E-01  1.19823E-01  1.00961E+01
  -2.29865E+01 -5.24649E+00 -1.11414E+01 -5.74194E+00 -7.91733E+00 -8.63898E+00 -7.88306E+00 -1.49228E-01  3.52793E+00  2.45190E+00
  -4.57157E+00 -3.08319E+00 -1.80229E+01  1.14116E+01 -9.26609E+00 -1.68495E+00 -8.57024E+00  6.34191E+00 -1.09602E+01  1.21785E+01
   9.78619E-01  1.32135E+01  5.89722E-02  5.21221E+00 -7.25524E+00  9.23642E-02  1.28341E+01 -1.55696E+01  7.64274E+00  1.01486E+01
  -4.60476E+00  3.55229E+00 -9.84407E+00 -9.78119E+00  1.66118E+01 -9.11555E-01  5.21692E+00  6.55667E+00  8.19271E+00 -2.05183E+01
   1.30031E+01 -2.22879E-01  1.75666E+00  9.23833E+00 -1.06390E+01  2.60376E+00  5.51263E+00 -1.42590E+01  5.32644E-01  1.36778E+00
  -4.40729E+00 -9.06109E+00  1.22657E+00 -7.66252E+00 -1.84664E+01 -8.22677E-01  4.70291E+00  6.19874E+00 -8.60553E+00 -2.27014E+00
  -1.97284E+01 -5.97952E+00 -6.72351E+00 -9.85986E+00 -1.18157E+01 -3.92626E+00 -5.61709E+00 -8.43297E+00 -2.33548E+01 -3.76740E+00
  -2.20483E+00 -1.79767E+00 -5.65717E+00 -9.07367E+00 -5.06483E+00 -5.65416E+00 -1.29740E+01 -4.76283E+00 -1.95850E+00  4.52702E+00
   4.99997E-01 -4.17774E+00  8.93669E-01 -2.31365E+01  1.32513E+01  5.88231E+00  1.79773E+01 -9.77223E+00 -1.13968E+01  1.59533E+01
  -8.80338E+00 -9.15128E+00 -7.61686E+00  1.71391E+01  1.00868E+01 -1.44080E+01  6.04163E-01 -5.79478E+00
 NY points of the fit to the data follow
   6.01856E+00  5.89853E+00  6.01868E+00  6.68317E+00  8.51877E+00  1.12862E+01  1.40888E+01  1.61251E+01  1.69783E+01  1.66073E+01
   1.52549E+01  1.33074E+01  1.12128E+01  9.27392E+00  7.62284E+00  6.44519E+00  5.94623E+00  5.79820E+00  5.78291E+00  5.88315E+00
   6.08459E+00  6.16495E+00  5.87030E+00  5.21111E+00  4.43005E+00  3.96987E+00  4.17438E+00  5.31570E+00  7.22058E+00  9.21325E+00
   1.06329E+01  1.11233E+01  1.06443E+01  9.34819E+00  7.69777E+00  6.17684E+00  5.02823E+00  4.36152E+00  4.17044E+00  4.40986E+00
   4.83051E+00  5.29819E+00  6.04624E+00  7.24525E+00  8.66059E+00  9.84938E+00  1.04914E+01  1.04167E+01  9.65699E+00  8.43804E+00
   7.05670E+00  5.76038E+00  4.70660E+00  4.00444E+00  3.79873E+00  4.10386E+00  4.71947E+00  5.41232E+00  5.96403E+00  6.23041E+00
   6.15796E+00  5.79461E+00  5.28764E+00  4.78869E+00  4.41003E+00  4.18862E+00  4.15812E+00  4.34757E+00  4.68781E+00  5.05751E+00
   5.36099E+00  5.57647E+00  5.68052E+00  5.65531E+00  5.50942E+00  5.26186E+00  4.96111E+00  4.65185E+00  4.39160E+00  4.23358E+00
   4.17994E+00  4.28452E+00  4.49713E+00  4.62187E+00  4.49678E+00  4.12660E+00  3.63057E+00  3.15214E+00  2.79737E+00  2.62569E+00
   2.62659E+00  2.76760E+00  3.00065E+00  3.27710E+00  3.50920E+00  3.63709E+00  3.76080E+00  4.41781E+00  6.71586E+00  1.04106E+01
   1.42457E+01  1.70487E+01  1.82057E+01  1.76869E+01  1.58067E+01  1.30542E+01  1.00381E+01  7.20577E+00  4.80795E+00  3.17589E+00
   2.57265E+00  2.43073E+00  2.37907E+00  2.35706E+00  2.34284E+00  2.32521E+00  2.30261E+00  2.29593E+00  2.32972E+00  2.45201E+00
   2.81468E+00  4.12498E+00  7.59013E+00  1.26131E+01  1.75527E+01  2.09965E+01  2.22827E+01  2.14315E+01  1.89263E+01  1.54433E+01
   1.16811E+01  8.11143E+00  5.01033E+00  2.81234E+00  1.81479E+00  1.36910E+00  1.15262E+00  1.13520E+00  1.26340E+00  1.46743E+00
   1.69648E+00  1.91315E+00  2.06380E+00  2.12479E+00  2.10242E+00  2.01625E+00  1.90118E+00  1.78600E+00  1.68141E+00  1.59000E+00
   1.49843E+00  1.41516E+00  1.35713E+00  1.33644E+00  1.34401E+00  1.33806E+00  1.24207E+00  1.03224E+00  7.71593E-01  5.56968E-01
   4.87309E-01  5.52741E-01  6.72489E-01  7.78905E-01  8.26229E-01  7.94012E-01  6.94425E-01  5.46024E-01  3.62715E-01  1.77334E-01
  -2.14836E-03 -2.15761E-01 -4.64922E-01 -6.77794E-01 -7.86694E-01 -7.79707E-01 -7.40658E-01 -7.37849E-01 -7.54678E-01 -7.38145E-01
  -6.69311E-01 -5.82105E-01 -5.48753E-01 -5.69990E-01 -5.33521E-01 -3.28532E-01  5.30704E-02  5.47018E-01  1.00865E+00  1.26238E+00
   1.24282E+00  9.10532E-01  2.94271E-01 -5.20929E-01 -1.36877E+00 -1.99096E+00 -2.07343E+00 -1.39793E+00  4.37965E-03  1.83920E+00
   3.76895E+00  5.39597E+00  6.34052E+00  6.28691E+00  5.00131E+00  2.24873E+00 -1.38672E+00 -4.68984E+00 -6.78652E+00 -7.38158E+00
  -6.62685E+00 -4.91111E+00 -2.66357E+00 -3.92978E-01  1.51992E+00  2.92580E+00  3.71307E+00  3.83623E+00  3.69456E+00  3.61725E+00
   3.57165E+00  3.52021E+00  3.46325E+00  3.37151E+00  3.22474E+00  3.00940E+00  2.70312E+00  2.29377E+00  1.84415E+00  1.44988E+00
   1.06614E+00  4.10170E-01 -4.45133E-01 -1.08423E+00 -1.17034E+00 -5.53644E-01  7.93966E-01  2.52952E+00  3.90297E+00  4.42026E+00
   3.97830E+00  2.74483E+00  9.93242E-01 -9.47267E-01 -2.57995E+00 -3.53073E+00 -3.64509E+00 -2.91159E+00 -1.49348E+00  2.04374E-01
   1.81998E+00  3.38462E+00  4.78897E+00  5.90579E+00  6.94266E+00  9.43676E+00  1.47625E+01  2.15073E+01  2.74015E+01  3.07606E+01
   3.09824E+01  2.83551E+01  2.36926E+01  1.80598E+01  1.24186E+01  7.35166E+00  3.28302E+00  9.42340E-01  2.20965E-01 -3.05480E-02
  -1.62838E-01 -2.32933E-01 -2.62320E-01 -2.75069E-01 -2.91604E-01 -3.20790E-01 -3.69345E-01 -4.39132E-01 -5.19888E-01 -6.01530E-01
  -6.75907E-01 -7.33683E-01 -7.70988E-01 -7.88696E-01 -7.91958E-01 -7.88678E-01 -7.85150E-01 -7.82268E-01 -7.80822E-01 -7.82662E-01
  -7.88525E-01 -7.99542E-01 -8.14774E-01 -8.31945E-01 -8.52164E-01 -8.75221E-01 -8.98056E-01 -9.18607E-01 -9.36222E-01 -9.49278E-01
  -9.57605E-01 -9.62766E-01 -9.65623E-01 -9.66921E-01 -9.67172E-01 -9.67010E-01 -9.67034E-01 -9.66803E-01 -9.65873E-01 -9.64172E-01
  -9.61479E-01 -9.57638E-01 -9.52339E-01 -9.45255E-01 -9.36200E-01 -9.25007E-01 -9.11337E-01 -8.94874E-01 -8.75258E-01 -8.52206E-01
  -8.25319E-01 -7.94143E-01 -7.58030E-01 -7.16316E-01 -6.68244E-01 -6.13063E-01 -5.49839E-01 -4.77522E-01 -3.94866E-01 -3.00607E-01
  -1.93377E-01 -7.18097E-02  6.56102E-02  2.20376E-01  3.93991E-01  5.87732E-01  8.02687E-01  1.03958E+00  1.29883E+00  1.58028E+00
   1.88320E+00  2.20597E+00  2.54619E+00  2.90052E+00  3.26482E+00  3.63398E+00  4.00208E+00  4.36241E+00  4.70772E+00  5.03045E+00
   5.32307E+00  5.57818E+00  5.78899E+00  5.94942E+00  6.05461E+00  6.10103E+00  6.08676E+00  6.01141E+00  5.87628E+00  5.68422E+00
   5.43960E+00  5.14808E+00  4.81635E+00  4.45175E+00  4.06206E+00  3.65509E+00  3.23860E+00  2.81982E+00  2.40539E+00  2.00106E+00
   1.61167E+00  1.24112E+00  8.92405E-01  5.67586E-01  2.67921E-01 -6.15119E-03 -2.54730E-01 -4.78430E-01 -6.78146E-01 -8.55097E-01
  -1.01063E+00 -1.14623E+00 -1.26331E+00 -1.36326E+00 -1.44733E+00 -1.51674E+00 -1.57257E+00 -1.61587E+00 -1.64751E+00 -1.66835E+00
  -1.67913E+00 -1.68071E+00 -1.67392E+00 -1.65970E+00 -1.63900E+00 -1.61290E+00 -1.58258E+00 -1.54943E+00 -1.51490E+00 -1.48057E+00
  -1.44802E+00 -1.41890E+00 -1.39482E+00 -1.37736E+00 -1.36792E+00 -1.36773E+00 -1.37770E+00 -1.39851E+00 -1.43051E+00 -1.47378E+00
  -1.52796E+00 -1.59246E+00 -1.66631E+00 -1.74841E+00 -1.83742E+00 -1.93195E+00 -2.03047E+00 -2.13151E+00 -2.23358E+00 -2.33542E+00
  -2.43584E+00 -2.53386E+00 -2.62862E+00 -2.71950E+00 -2.80601E+00 -2.88790E+00 -2.96504E+00 -3.03745E+00 -3.10518E+00 -3.16841E+00
  -3.22737E+00 -3.28238E+00 -3.33374E+00 -3.38177E+00 -3.42673E+00 -3.46894E+00 -3.50867E+00 -3.54624E+00 -3.58185E+00 -3.61575E+00
  -3.64807E+00 -3.67903E+00 -3.70876E+00 -3.73744E+00 -3.76517E+00 -3.79205E+00 -3.81814E+00 -3.84356E+00 -3.86837E+00 -3.89267E+00
  -3.91646E+00 -3.93981E+00 -3.96272E+00 -3.98527E+00 -4.00749E+00 -4.02944E+00 -4.05109E+00 -4.07248E+00 -4.09360E+00 -4.11454E+00
  -4.13527E+00 -4.15584E+00 -4.17620E+00 -4.19639E+00 -4.21641E+00 -4.23631E+00 -4.25609E+00 -4.27575E+00 -4.29527E+00 -4.31468E+00
  -4.33398E+00 -4.35322E+00 -4.37236E+00 -4.39141E+00 -4.41035E+00 -4.42922E+00 -4.44801E+00 -4.46676E+00 -4.48543E+00 -4.50402E+00
  -4.52252E+00 -4.54097E+00 -4.55936E+00 -4.57772E+00 -4.59599E+00 -4.61419E+00 -4.63231E+00 -4.65039E+00 -4.66841E+00 -4.68640E+00
  -4.70428E+00 -4.72210E+00 -4.73982E+00 -4.75751E+00 -4.77512E+00 -4.79265E+00 -4.81007E+00 -4.82737E+00
 NY background values follow
     3.911E+00    3.893E+00    3.875E+00    3.858E+00    3.840E+00    3.823E+00    3.805E+00    3.787E+00    3.770E+00    3.752E+00
     3.734E+00    3.717E+00    3.699E+00    3.682E+00    3.664E+00    3.646E+00    3.629E+00    3.611E+00    3.594E+00    3.576E+00
     3.558E+00    3.541E+00    3.523E+00    3.506E+00    3.488E+00    3.470E+00    3.453E+00    3.435E+00    3.418E+00    3.400E+00
     3.382E+00    3.365E+00    3.347E+00    3.330E+00    3.312E+00    3.294E+00    3.277E+00    3.259E+00    3.242E+00    3.224E+00
     3.206E+00    3.189E+00    3.171E+00    3.154E+00    3.136E+00    3.118E+00    3.101E+00    3.083E+00    3.066E+00    3.048E+00
     3.030E+00    3.013E+00    2.995E+00    2.978E+00    2.960E+00    2.942E+00    2.925E+00    2.907E+00    2.890E+00    2.872E+00
     2.854E+00    2.837E+00    2.819E+00    2.802E+00    2.784E+00    2.766E+00    2.749E+00    2.731E+00    2.714E+00    2.696E+00
     2.678E+00    2.661E+00    2.643E+00    2.626E+00    2.608E+00    2.590E+00    2.573E+00    2.555E+00    2.538E+00    2.520E+00
     2.502E+00    2.485E+00    2.467E+00    2.450E+00    2.432E+00    2.414E+00    2.397E+00    2.379E+00    2.362E+00    2.344E+00
     2.326E+00    2.309E+00    2.291E+00    2.274E+00    2.256E+00    2.238E+00    2.221E+00    2.203E+00    2.186E+00    2.168E+00
     2.150E+00    2.133E+00    2.115E+00    2.098E+00    2.080E+00    2.063E+00    2.045E+00    2.027E+00    2.010E+00    1.992E+00
     1.975E+00    1.957E+00    1.939E+00    1.922E+00    1.904E+00    1.887E+00    1.869E+00    1.851E+00    1.834E+00    1.816E+00
     1.799E+00    1.781E+00    1.763E+00    1.746E+00    1.728E+00    1.711E+00    1.693E+00    1.675E+00    1.658E+00    1.640E+00
     1.623E+00    1.605E+00    1.587E+00    1.570E+00    1.552E+00    1.535E+00    1.517E+00    1.500E+00    1.482E+00    1.464E+00
     1.447E+00    1.429E+00    1.412E+00    1.394E+00    1.376E+00    1.359E+00    1.341E+00    1.324E+00    1.306E+00    1.288E+00
     1.271E+00    1.253E+00    1.236E+00    1.218E+00    1.200E+00    1.183E+00    1.165E+00    1.148E+00    1.130E+00    1.113E+00
     1.095E+00    1.077E+00    1.060E+00    1.042E+00    1.025E+00    1.007E+00    9.894E-01    9.718E-01    9.542E-01    9.366E-01
     9.190E-01    9.014E-01    8.838E-01    8.663E-01    8.487E-01    8.311E-01    8.135E-01    7.959E-01    7.783E-01    7.607E-01
     7.431E-01    7.256E-01    7.080E-01    6.904E-01    6.728E-01    6.552E-01    6.376E-01    6.200E-01    6.024E-01    5.849E-01
     5.673E-01    5.497E-01    5.321E-01    5.145E-01    4.969E-01    4.793E-01    4.618E-01    4.442E-01    4.266E-01    4.090E-01
     3.914E-01    3.738E-01    3.562E-01    3.387E-01    3.211E-01    3.035E-01    2.859E-01    2.683E-01    2.507E-01    2.331E-01
     2.156E-01    1.980E-01    1.804E-01    1.628E-01    1.452E-01    1.276E-01    1.101E-01    9.247E-02    7.489E-02    5.730E-02
     3.972E-02    2.214E-02    4.554E-03   -1.303E-02   -3.061E-02   -4.819E-02   -6.578E-02   -8.336E-02   -1.009E-01   -1.185E-01
    -1.361E-01   -1.537E-01   -1.713E-01   -1.889E-01   -2.064E-01   -2.240E-01   -2.416E-01   -2.592E-01   -2.768E-01   -2.943E-01
    -3.119E-01   -3.295E-01   -3.471E-01   -3.647E-01   -3.822E-01   -3.998E-01   -4.174E-01   -4.350E-01   -4.526E-01   -4.701E-01
    -4.877E-01   -5.053E-01   -5.229E-01   -5.405E-01   -5.580E-01   -5.756E-01   -5.932E-01   -6.108E-01   -6.284E-01   -6.459E-01
    -6.635E-01   -6.811E-01   -6.987E-01   -7.162E-01   -7.338E-01   -7.514E-01   -7.690E-01   -7.866E-01   -8.041E-01   -8.217E-01
    -8.393E-01   -8.569E-01   -8.744E-01   -8.920E-01   -9.096E-01   -9.272E-01   -9.447E-01   -9.623E-01   -9.799E-01   -9.975E-01
    -1.015E+00   -1.033E+00   -1.050E+00   -1.068E+00   -1.085E+00   -1.103E+00   -1.120E+00   -1.138E+00   -1.156E+00   -1.173E+00
    -1.191E+00   -1.208E+00   -1.226E+00   -1.244E+00   -1.261E+00   -1.279E+00   -1.296E+00   -1.314E+00   -1.331E+00   -1.349E+00
    -1.367E+00   -1.384E+00   -1.402E+00   -1.419E+00   -1.437E+00   -1.454E+00   -1.472E+00   -1.490E+00   -1.507E+00   -1.525E+00
    -1.542E+00   -1.560E+00   -1.577E+00   -1.595E+00   -1.613E+00   -1.630E+00   -1.648E+00   -1.665E+00   -1.683E+00   -1.700E+00
    -1.718E+00   -1.736E+00   -1.753E+00   -1.771E+00   -1.788E+00   -1.806E+00   -1.823E+00   -1.841E+00   -1.858E+00   -1.876E+00
    -1.894E+00   -1.911E+00   -1.929E+00   -1.946E+00   -1.964E+00   -1.981E+00   -1.999E+00   -2.017E+00   -2.034E+00   -2.052E+00
    -2.069E+00   -2.087E+00   -2.104E+00   -2.122E+00   -2.140E+00   -2.157E+00   -2.175E+00   -2.192E+00   -2.210E+00   -2.227E+00
    -2.245E+00   -2.263E+00   -2.280E+00   -2.298E+00   -2.315E+00   -2.333E+00   -2.350E+00   -2.368E+00   -2.385E+00   -2.403E+00
    -2.421E+00   -2.438E+00   -2.456E+00   -2.473E+00   -2.491E+00   -2.508E+00   -2.526E+00   -2.544E+00   -2.561E+00   -2.579E+00
    -2.596E+00   -2.614E+00   -2.631E+00   -2.649E+00   -2.666E+00   -2.684E+00   -2.702E+00   -2.719E+00   -2.737E+00   -2.754E+00
    -2.772E+00   -2.789E+00   -2.807E+00   -2.825E+00   -2.842E+00   -2.860E+00   -2.877E+00   -2.895E+00   -2.912E+00   -2.930E+00
    -2.947E+00   -2.965E+00   -2.983E+00   -3.000E+00   -3.018E+00   -3.035E+00   -3.053E+00   -3.070E+00   -3.088E+00   -3.105E+00
    -3.123E+00   -3.141E+00   -3.158E+00   -3.176E+00   -3.193E+00   -3.211E+00   -3.228E+00   -3.246E+00   -3.263E+00   -3.281E+00
    -3.299E+00   -3.316E+00   -3.334E+00   -3.351E+00   -3.369E+00   -3.386E+00   -3.404E+00   -3.421E+00   -3.439E+00   -3.457E+00
    -3.474E+00   -3.492E+00   -3.509E+00   -3.527E+00   -3.544E+00   -3.562E+00   -3.579E+00   -3.597E+00   -3.615E+00   -3.632E+00
    -3.650E+00   -3.667E+00   -3.685E+00   -3.702E+00   -3.720E+00   -3.737E+00   -3.755E+00   -3.772E+00   -3.790E+00   -3.808E+00
    -3.825E+00   -3.843E+00   -3.860E+00   -3.878E+00   -3.895E+00   -3.913E+00   -3.930E+00   -3.948E+00   -3.966E+00   -3.983E+00
    -4.001E+00   -4.018E+00   -4.036E+00   -4.053E+00   -4.071E+00   -4.088E+00   -4.106E+00   -4.123E+00   -4.141E+00   -4.159E+00
    -4.176E+00   -4.194E+00   -4.211E+00   -4.229E+00   -4.246E+00   -4.264E+00   -4.281E+00   -4.299E+00   -4.316E+00   -4.334E+00
    -4.352E+00   -4.369E+00   -4.387E+00   -4.404E+00   -4.422E+00   -4.439E+00   -4.457E+00   -4.474E+00   -4.492E+00   -4.509E+00
    -4.527E+00   -4.545E+00   -4.562E+00   -4.580E+00   -4.597E+00   -4.615E+00   -4.632E+00   -4.650E+00   -4.667E+00   -4.685E+00
    -4.702E+00   -4.720E+00   -4.737E+00   -4.755E+00   -4.773E+00   -4.790E+00   -4.808E+00   -4.825E+00
 Asp      Conc. = 9.38E+01
