 LCModel (Version 6.3-1L) Copyright: S.W. Provencher.          Ref.: Magn. Reson. Med. 30:672-679 (1993).                
 Slice#3 Row#12 Col#11  PD_05_press_2_raw_act
 36 lines in following concentration table = NCONC+1
    Conc.  %SD /Cr+PCr  Metabolite                                         
    0.000 999%   0.000 Ala                                                 
   10.156  58%   0.138 Asp                                                 
    0.000 999%   0.000 Cr                                                  
   73.788  27%   1.000 PCr                                                 
    6.312  56% 8.6E-02 GABA                                                
    6.232  56% 8.4E-02 Glc                                                 
    0.000 999%   0.000 Gln                                                 
   44.888 153%   0.608 Glu                                                 
   12.071 189%   0.164 GPC                                                 
    3.812 603% 5.2E-02 PCh                                                 
   35.862  65%   0.486 GSH                                                 
    0.000 999%   0.000 Ins                                                 
    0.000 999%   0.000 Lac                                                 
   83.710  29%   1.134 NAA                                                 
    3.067 800% 4.2E-02 NAAG                                                
    2.138  55% 2.9E-02 Scyllo                                              
   10.450  56%   0.142 Tau                                                 
    6.596 174% 8.9E-02 -CrCH2                                              
   15.882  44%   0.215 GPC+PCh                                             
   86.777  29%   1.176 NAA+NAAG                                            
   73.788  27%   1.000 Cr+PCr                                              
   44.888 194%   0.608 Glu+Gln                                             
    0.000 999%   0.000 Lip13a                                              
    0.000 999%   0.000 Lip13b                                              
    0.000 999%   0.000 Lip09                                               
 2.82E-04 999% 3.8E-06 MM09                                                
 3.13E-04 999% 4.2E-06 Lip20                                               
 7.47E-03 999% 1.0E-04 MM20                                                
    0.000 999%   0.000 MM12                                                
    0.000 999%   0.000 MM14                                                
 1.33E-02 999% 1.8E-04 MM17                                                
    0.000 999%   0.000 Lip13a+Lip13b                                       
    0.000 999%   0.000 MM14+Lip13a+Lip13b+MM12                             
 2.82E-04 999% 3.8E-06 MM09+Lip09                                          
 7.79E-03 999% 1.1E-04 MM20+Lip20                                          
   6 lines in following misc. output table
  FWHM = 0.031 ppm    S/N =   1                                            
  Data shift =-0.023 ppm                                                   
  Ph:-115 deg     -37.7 deg/ppm                                            
  alphaB,S = 8.5E+01,   4.4E+00                                            
   14 spline knots.   Ns = 5(1)                                            
   2 inflections.     4 extrema                                            
  498 points on ppm-axis = NY
      4.000000     3.992357     3.984714     3.977070     3.969427     3.961784     3.954141     3.946497     3.938854     3.931211
      3.923568     3.915925     3.908281     3.900638     3.892995     3.885352     3.877708     3.870065     3.862422     3.854779
      3.847136     3.839492     3.831849     3.824206     3.816563     3.808919     3.801276     3.793633     3.785990     3.778347
      3.770703     3.763060     3.755417     3.747774     3.740130     3.732487     3.724844     3.717201     3.709558     3.701914
      3.694271     3.686628     3.678985     3.671341     3.663698     3.656055     3.648412     3.640769     3.633125     3.625482
      3.617839     3.610196     3.602552     3.594909     3.587266     3.579623     3.571980     3.564336     3.556693     3.549050
      3.541407     3.533763     3.526120     3.518477     3.510834     3.503191     3.495547     3.487904     3.480261     3.472618
      3.464974     3.457331     3.449688     3.442045     3.434402     3.426758     3.419115     3.411472     3.403829     3.396185
      3.388542     3.380899     3.373256     3.365613     3.357969     3.350326     3.342683     3.335040     3.327396     3.319753
      3.312110     3.304467     3.296824     3.289180     3.281537     3.273894     3.266251     3.258607     3.250964     3.243321
      3.235678     3.228034     3.220391     3.212748     3.205105     3.197462     3.189818     3.182175     3.174532     3.166889
      3.159245     3.151602     3.143959     3.136316     3.128673     3.121029     3.113386     3.105743     3.098100     3.090456
      3.082813     3.075170     3.067527     3.059884     3.052240     3.044597     3.036954     3.029311     3.021667     3.014024
      3.006381     2.998738     2.991095     2.983451     2.975808     2.968165     2.960522     2.952878     2.945235     2.937592
      2.929949     2.922306     2.914662     2.907019     2.899376     2.891733     2.884089     2.876446     2.868803     2.861160
      2.853517     2.845873     2.838230     2.830587     2.822944     2.815300     2.807657     2.800014     2.792371     2.784728
      2.777084     2.769441     2.761798     2.754155     2.746511     2.738868     2.731225     2.723582     2.715939     2.708295
      2.700652     2.693009     2.685366     2.677722     2.670079     2.662436     2.654793     2.647150     2.639506     2.631863
      2.624220     2.616577     2.608933     2.601290     2.593647     2.586004     2.578361     2.570717     2.563074     2.555431
      2.547788     2.540144     2.532501     2.524858     2.517215     2.509572     2.501928     2.494285     2.486642     2.478999
      2.471355     2.463712     2.456069     2.448426     2.440783     2.433139     2.425496     2.417853     2.410210     2.402566
      2.394923     2.387280     2.379637     2.371994     2.364350     2.356707     2.349064     2.341421     2.333777     2.326134
      2.318491     2.310848     2.303205     2.295561     2.287918     2.280275     2.272632     2.264988     2.257345     2.249702
      2.242059     2.234416     2.226772     2.219129     2.211486     2.203843     2.196199     2.188556     2.180913     2.173270
      2.165627     2.157983     2.150340     2.142697     2.135054     2.127410     2.119767     2.112124     2.104481     2.096838
      2.089194     2.081551     2.073908     2.066265     2.058621     2.050978     2.043335     2.035692     2.028049     2.020405
      2.012762     2.005119     1.997476     1.989833     1.982190     1.974546     1.966903     1.959260     1.951617     1.943974
      1.936331     1.928688     1.921045     1.913402     1.905759     1.898115     1.890472     1.882829     1.875186     1.867543
      1.859900     1.852257     1.844614     1.836971     1.829327     1.821684     1.814041     1.806398     1.798755     1.791112
      1.783469     1.775826     1.768183     1.760540     1.752896     1.745253     1.737610     1.729967     1.722324     1.714681
      1.707038     1.699395     1.691752     1.684108     1.676465     1.668822     1.661179     1.653536     1.645893     1.638250
      1.630607     1.622964     1.615321     1.607677     1.600034     1.592391     1.584748     1.577105     1.569462     1.561819
      1.554176     1.546533     1.538890     1.531246     1.523603     1.515960     1.508317     1.500674     1.493031     1.485388
      1.477745     1.470102     1.462458     1.454815     1.447172     1.439529     1.431886     1.424243     1.416600     1.408957
      1.401314     1.393671     1.386027     1.378384     1.370741     1.363098     1.355455     1.347812     1.340169     1.332526
      1.324883     1.317240     1.309596     1.301953     1.294310     1.286667     1.279024     1.271381     1.263738     1.256095
      1.248452     1.240808     1.233165     1.225522     1.217879     1.210236     1.202593     1.194950     1.187307     1.179664
      1.172021     1.164377     1.156734     1.149091     1.141448     1.133805     1.126162     1.118519     1.110876     1.103233
      1.095590     1.087946     1.080303     1.072660     1.065017     1.057374     1.049731     1.042088     1.034445     1.026802
      1.019158     1.011515     1.003872     0.996229     0.988586     0.980943     0.973300     0.965657     0.958014     0.950371
      0.942727     0.935084     0.927441     0.919798     0.912155     0.904512     0.896869     0.889226     0.881583     0.873940
      0.866296     0.858653     0.851010     0.843367     0.835724     0.828081     0.820438     0.812795     0.805152     0.797508
      0.789865     0.782222     0.774579     0.766936     0.759293     0.751650     0.744007     0.736364     0.728721     0.721077
      0.713434     0.705791     0.698148     0.690505     0.682862     0.675219     0.667576     0.659933     0.652290     0.644646
      0.637003     0.629360     0.621717     0.614074     0.606431     0.598788     0.591145     0.583502     0.575858     0.568215
      0.560572     0.552929     0.545286     0.537643     0.530000     0.522357     0.514714     0.507071     0.499427     0.491784
      0.484141     0.476498     0.468855     0.461212     0.453569     0.445925     0.438282     0.430639     0.422996     0.415353
      0.407710     0.400067     0.392424     0.384780     0.377137     0.369494     0.361851     0.354208     0.346565     0.338922
      0.331278     0.323635     0.315992     0.308349     0.300706     0.293063     0.285420     0.277777     0.270133     0.262490
      0.254847     0.247204     0.239561     0.231918     0.224275     0.216631     0.208988     0.201345
 NY phased data points follow
  -3.60246E+00 -9.12742E-01 -2.11467E+00 -5.94924E-01  1.67370E+00 -9.42945E-01  4.17997E+00  1.32190E+00  7.90990E-01  3.03095E+00
   1.11874E+00 -9.90577E-01  1.76905E+00 -8.79215E-01 -2.73361E+00  8.10809E-01 -1.88468E+00 -2.10361E+00 -3.13881E+00 -2.89948E+00
  -1.78760E+00 -5.60040E-01  2.05359E+00 -1.47472E+00 -2.76085E+00 -7.71288E-01 -3.76482E+00 -1.70650E+00  1.18699E+00  3.42511E-01
   1.27419E+00 -1.97621E+00  1.34050E+00 -4.14137E+00  3.62804E-01  1.87815E+00  2.18273E+00 -4.33019E+00 -3.05772E+00 -4.94408E-01
  -4.26128E-01 -1.19060E+00 -1.82686E-01  5.97632E-01 -9.00785E-01 -4.97682E-01 -4.90799E-01 -1.91243E-01 -4.46798E+00  1.90726E-01
  -7.45086E-01 -1.12267E-01 -4.18926E-01 -5.79814E-01 -1.27792E+00 -1.62262E+00 -1.29246E+00 -8.98535E-01 -1.97044E+00 -1.57358E+00
   2.13008E-01 -3.23679E+00 -4.94468E-01  4.53075E-01 -4.01400E-01 -3.50924E+00 -4.10542E+00 -2.36708E+00 -2.26935E+00 -3.74027E-01
  -5.80237E-01 -1.04400E+00  1.43281E+00  7.89166E-01  1.01927E+00 -8.14369E-01 -2.97210E+00  1.39847E-01  3.63596E-01  4.75987E-01
   1.03138E+00  2.31979E-01 -4.48279E-01  3.08604E-01  9.12849E-01 -7.78013E-01 -9.65315E-01  9.07061E-01 -5.44617E-01  1.54025E+00
  -1.40023E+00 -5.62354E-01 -1.51213E+00 -3.15567E+00  3.63987E-01  1.28361E-01 -1.19485E+00 -1.33151E+00 -5.48075E-02  1.01548E+00
   1.18553E+00  2.78378E+00  7.78695E-01  4.12795E-01  1.42610E+00  1.33114E+00 -9.74334E-01  2.82300E+00  9.02017E-02 -1.52596E-01
   1.68346E+00 -1.32477E+00 -8.75297E-01 -2.45427E+00 -3.31623E-01  5.07951E-01 -5.11902E-01 -2.39271E-01 -6.23650E-01 -1.62927E-01
  -4.45167E-01 -5.86089E-01 -6.77694E-01 -6.88399E-01  4.27127E-02  3.22685E+00  2.82582E+00  2.74054E+00  2.32736E+00  9.70521E-02
   4.33417E-01 -2.18209E+00  2.65225E+00  1.16100E+00 -1.17020E+00  7.27829E-01 -2.15472E+00 -2.83124E-01 -8.73269E-01 -1.84405E-01
  -2.21817E+00 -1.37377E+00 -9.30192E-01  2.28366E+00  9.35134E-01 -8.95017E-02  1.16416E+00 -2.05586E+00 -7.02785E-01  1.85015E+00
  -1.87510E+00  1.05444E-01 -7.28150E-01  1.36894E+00 -1.65259E+00 -6.92676E-01  1.57465E+00  2.48283E+00 -2.60131E+00  3.31930E+00
   2.62691E-01 -4.87272E-01 -1.27955E+00 -1.81065E-02  2.05404E+00 -8.70563E-01  9.93013E-01  1.24657E+00 -1.00690E+00 -1.93843E+00
  -9.93137E-01 -1.34856E+00 -1.68574E+00 -1.30171E+00 -3.01808E+00 -1.27067E+00 -9.10049E-01 -1.18001E+00 -1.85717E+00 -3.87458E+00
  -1.57536E+00 -1.34828E+00 -1.38815E+00 -1.94794E+00  5.00609E-01 -2.86281E+00  1.24951E+00 -8.83779E-01 -1.08192E+00 -1.64857E+00
  -5.37791E-01  2.62334E+00 -1.15623E+00 -7.21250E-01 -4.38107E+00  3.58359E-02 -1.00747E+00 -3.97772E+00  4.26748E-01 -8.10046E-01
  -1.69167E+00  1.74039E+00 -1.63665E-02  2.96908E-01  9.52279E-01  6.11295E-01 -2.46861E+00  3.38617E-02  7.53216E-01 -1.35379E+00
   1.25823E+00  1.20954E-01 -3.58504E+00 -8.51278E-02 -1.71218E+00 -1.85018E+00 -4.02689E-01 -1.48220E+00 -8.54705E-01 -1.94196E+00
  -2.68160E+00  6.29501E-01 -3.12509E+00 -2.33942E+00 -3.89265E-01  7.02968E-01  1.92439E+00  2.19696E+00  4.95785E-01 -1.94058E+00
   2.15417E+00 -1.48165E+00 -2.18165E+00 -3.07412E+00 -1.43297E+00  1.65528E+00  2.01712E-01  2.04431E-01  5.61570E-01 -8.27438E-01
   1.93385E+00 -5.35123E-01  8.47952E-02 -2.15131E+00 -2.68260E-01  6.49278E-03 -1.14894E+00  6.23078E-01  3.47809E-01 -2.47145E+00
  -4.73190E-01 -2.02630E-01 -1.54848E-01  2.15757E-01 -8.61810E-01 -6.63096E-01 -8.18173E-01 -4.28704E-01  1.67720E+00  2.72115E+00
   3.81870E+00  3.73338E+00  3.64537E-01  1.14300E+00  2.27471E-01 -4.25192E-01 -4.59169E-02 -1.87233E-01 -4.05149E+00 -1.31592E+00
  -4.04084E-01  2.41763E+00 -1.41855E-01 -6.28130E-01  8.78123E-01 -1.20176E+00  3.28783E+00 -2.08423E-01  2.79780E-01  1.15148E-01
   6.19320E-01 -2.91172E+00 -3.77897E-01 -1.64695E+00  7.77628E-01 -2.24029E-01 -6.92770E-01 -7.22717E-01 -7.74274E-01  7.23779E-01
   4.71974E-01  2.68607E+00 -4.48618E-02  1.78876E+00  3.30376E+00 -2.37832E+00  1.88176E+00  1.95955E+00 -6.19427E-01  4.30498E-01
  -1.38324E-02  7.86822E-01 -3.72532E-01 -4.51162E-01 -9.38062E-01 -2.57344E-01  1.06724E+00 -1.55358E+00 -5.91680E-01  1.01626E+00
   5.30799E-01 -1.16393E+00  1.22550E+00 -2.04129E+00 -1.00733E-01  1.30011E+00  2.16995E+00  1.48254E-01  1.01353E+00 -2.48465E-01
  -5.68422E-01  5.50662E-01 -4.33960E-01  3.75856E-01 -7.59027E-01 -9.79171E-01 -3.53821E-01  2.34475E-01 -4.99273E-01  1.31215E+00
  -7.88234E-01  1.62400E+00 -1.22192E+00  4.61567E-01 -1.60436E+00 -5.91522E-01 -3.81523E+00 -2.49502E+00  5.69026E-01 -3.36116E+00
   3.06456E-01 -2.85266E-01 -4.08643E+00 -4.08585E+00 -2.57994E+00 -2.84137E+00 -1.78649E+00 -4.47235E+00 -5.59355E+00 -3.73029E+00
  -3.94036E+00 -3.76589E+00 -3.72169E+00 -5.54141E+00 -3.56664E+00 -1.89889E+00 -2.36726E+00 -4.15691E+00 -6.01707E+00 -8.85577E+00
  -5.95337E+00 -1.24190E+00 -2.27503E+00 -2.09849E+00 -1.50669E+00 -4.24058E+00 -2.08973E+00 -5.04202E+00 -3.44015E+00 -1.64467E+00
  -2.17871E+00 -2.85026E+00  4.53604E-01 -2.98920E+00 -1.42116E+00 -2.39326E+00 -2.97182E+00 -2.18560E+00 -1.61216E+00 -2.77012E+00
  -2.81250E+00 -3.12942E+00 -2.96530E+00 -1.03210E+00 -1.67408E+00 -5.80055E+00 -1.86167E+00 -3.27490E+00 -5.08390E+00 -3.78028E+00
  -1.95752E+00 -1.63562E+00 -1.63908E+00 -1.82862E+00 -1.49175E+00 -1.51182E-01 -1.14646E+00 -6.90428E-01 -1.36357E+00 -3.23287E+00
  -1.21703E+00 -4.07794E-01 -2.35680E+00 -2.68114E+00 -1.53689E+00  1.88151E+00 -6.81206E-01 -2.13885E+00 -8.06680E-01 -2.05904E+00
  -8.73874E-01 -2.89507E+00 -1.90363E+00 -7.82627E-01 -2.30725E+00 -1.19684E+00 -2.75758E-01 -6.31952E-01 -1.27795E+00  1.37035E-01
   5.73352E-01 -8.78673E-01  8.26813E-01 -1.64580E+00 -1.16483E+00 -1.45444E+00  1.36086E+00  6.76521E-01 -2.52029E+00 -6.90150E-01
  -1.69562E+00 -1.16596E+00 -1.37706E+00 -1.09823E+00 -2.57373E+00 -7.21233E-01 -4.93550E-01  1.05992E-02  3.16375E-01 -1.70004E+00
  -7.79096E-01  2.10721E+00 -1.80395E+00 -3.52840E-01 -5.49368E-01 -2.47090E+00 -2.83044E+00 -2.02294E+00 -1.54885E+00 -7.09782E-02
  -6.46674E-01  3.53932E-01 -1.25555E+00  1.06177E+00  1.98949E+00 -1.90745E+00  1.44004E-01 -1.70732E-01 -1.13720E+00 -1.25252E+00
   4.52100E-01 -1.70021E+00 -1.76076E+00 -2.96400E-01  1.92159E-01 -1.98229E+00 -5.79581E-01  5.19852E-01 -3.91154E-01  1.91299E-01
   1.68748E+00 -2.92538E+00  2.03895E+00 -2.04187E-01 -1.26993E+00  8.32530E-01  1.46881E-01  2.56774E+00 -2.53418E+00 -1.16184E+00
   4.38787E-01 -1.76777E+00 -3.27243E+00 -4.89519E-01 -1.49238E+00  1.20465E+00  5.19664E-01 -2.49097E+00  6.25086E-01 -2.54119E+00
   4.48963E-01  3.35572E+00 -1.94253E+00  1.62221E+00 -1.06695E+00  1.45120E-01 -1.58006E-01 -6.30484E-01
 NY points of the fit to the data follow
  -5.07811E-01 -4.95751E-01 -4.78453E-01 -4.80367E-01 -5.26662E-01 -2.65006E-01  5.24574E-01  1.37127E+00  1.80672E+00  1.71822E+00
   1.17602E+00  5.01363E-01 -1.41663E-02 -1.29621E-01  9.73406E-04 -1.71864E-01 -3.60473E-01 -4.25222E-01 -4.64754E-01 -4.60767E-01
  -4.28555E-01 -4.20565E-01 -4.50453E-01 -4.82429E-01 -5.23404E-01 -6.21864E-01 -5.89488E-01 -1.86663E-01  3.81531E-01  7.68332E-01
   8.80781E-01  7.06560E-01  3.18083E-01 -1.08604E-01 -3.34315E-01 -3.37242E-01 -4.31425E-01 -5.49649E-01 -5.21197E-01 -4.63584E-01
  -4.32490E-01 -4.40739E-01 -4.42514E-01 -4.46975E-01 -4.64803E-01 -4.86827E-01 -5.10233E-01 -5.07776E-01 -4.95808E-01 -4.91811E-01
  -4.82976E-01 -4.78450E-01 -4.94177E-01 -5.11249E-01 -5.16049E-01 -5.23585E-01 -5.43663E-01 -5.58313E-01 -5.66391E-01 -5.69346E-01
  -5.69967E-01 -5.72296E-01 -5.73824E-01 -5.68228E-01 -5.59620E-01 -5.54308E-01 -5.53373E-01 -5.63899E-01 -5.81316E-01 -5.94303E-01
  -6.04078E-01 -6.03072E-01 -5.76495E-01 -5.30597E-01 -4.90835E-01 -4.86433E-01 -5.12959E-01 -5.60239E-01 -6.07644E-01 -6.26705E-01
  -6.08948E-01 -5.94199E-01 -5.77088E-01 -5.12734E-01 -4.34153E-01 -3.91546E-01 -3.93632E-01 -4.35964E-01 -4.95386E-01 -5.39925E-01
  -5.56561E-01 -5.58811E-01 -5.94400E-01 -6.45073E-01 -6.66982E-01 -6.46404E-01 -5.95667E-01 -5.91135E-01 -6.13852E-01 -2.75150E-01
   5.56377E-01  1.38893E+00  1.78484E+00  1.63266E+00  1.03833E+00  3.35615E-01 -1.56079E-01 -2.39295E-01 -1.72767E-01 -3.72612E-01
  -5.36315E-01 -5.85477E-01 -6.00947E-01 -6.05404E-01 -6.09891E-01 -6.06496E-01 -6.02728E-01 -6.09976E-01 -6.22651E-01 -6.33694E-01
  -6.48150E-01 -7.15697E-01 -8.00493E-01 -2.35317E-01  1.18818E+00  2.56863E+00  3.19659E+00  2.92680E+00  1.94364E+00  8.49233E-01
   1.47540E-01  1.64749E-01  3.88819E-01 -3.74726E-02 -4.59256E-01 -7.34975E-01 -9.12429E-01 -9.44045E-01 -8.21352E-01 -6.30664E-01
  -5.09852E-01 -4.56307E-01 -4.51301E-01 -4.94571E-01 -5.32596E-01 -5.57370E-01 -5.79960E-01 -5.86923E-01 -6.20865E-01 -6.47814E-01
  -6.67647E-01 -6.88352E-01 -7.15181E-01 -7.31546E-01 -7.27083E-01 -7.13312E-01 -6.94191E-01 -6.93781E-01 -7.36778E-01 -8.02895E-01
  -8.53985E-01 -8.49791E-01 -7.89706E-01 -7.26151E-01 -6.96125E-01 -7.11978E-01 -7.60557E-01 -7.94770E-01 -8.08455E-01 -8.07426E-01
  -7.95940E-01 -8.01338E-01 -8.19728E-01 -8.68768E-01 -9.29947E-01 -9.50222E-01 -9.19576E-01 -8.72903E-01 -8.57259E-01 -8.83610E-01
  -9.19652E-01 -9.36330E-01 -9.14536E-01 -8.94375E-01 -9.34546E-01 -9.88253E-01 -9.92791E-01 -8.97299E-01 -7.18392E-01 -5.33702E-01
  -4.28162E-01 -4.27037E-01 -4.95331E-01 -5.67003E-01 -6.54989E-01 -7.82449E-01 -8.74326E-01 -8.91773E-01 -8.57158E-01 -7.88540E-01
  -6.97041E-01 -6.01956E-01 -5.43942E-01 -5.31762E-01 -5.11096E-01 -5.24859E-01 -5.85669E-01 -6.60456E-01 -7.11800E-01 -7.57828E-01
  -8.32248E-01 -8.82937E-01 -8.41202E-01 -6.76839E-01 -4.99138E-01 -4.21714E-01 -4.45298E-01 -5.68107E-01 -7.51525E-01 -9.51395E-01
  -1.11041E+00 -1.14954E+00 -1.10598E+00 -9.72977E-01 -7.92902E-01 -6.54260E-01 -5.96766E-01 -6.18844E-01 -6.92902E-01 -7.85890E-01
  -8.74723E-01 -9.17888E-01 -8.70528E-01 -7.55838E-01 -5.89426E-01 -4.27644E-01 -3.82241E-01 -4.73108E-01 -6.37117E-01 -8.45338E-01
  -1.03391E+00 -1.13246E+00 -1.09184E+00 -9.54682E-01 -8.18715E-01 -6.95882E-01 -6.04697E-01 -5.94074E-01 -6.64708E-01 -7.49160E-01
  -8.00831E-01 -8.15205E-01 -7.93548E-01 -7.06128E-01 -6.35424E-01 -7.37591E-01 -7.28310E-01  2.11485E-01  1.88586E+00  3.18510E+00
   3.56251E+00  2.96869E+00  1.72851E+00  5.18832E-01 -1.35554E-01 -4.17721E-02 -4.09409E-02 -5.28656E-01 -7.19914E-01 -7.76978E-01
  -8.09708E-01 -8.16425E-01 -7.98328E-01 -7.77445E-01 -7.61727E-01 -7.56028E-01 -7.59052E-01 -7.71047E-01 -7.84762E-01 -7.97476E-01
  -8.10224E-01 -8.19474E-01 -8.24129E-01 -8.25110E-01 -8.22938E-01 -8.20867E-01 -8.20417E-01 -8.19876E-01 -8.20989E-01 -8.22990E-01
  -8.23813E-01 -8.24370E-01 -8.26420E-01 -8.29118E-01 -8.31219E-01 -8.33273E-01 -8.35751E-01 -8.37631E-01 -8.39208E-01 -8.41056E-01
  -8.42272E-01 -8.43139E-01 -8.43917E-01 -8.44906E-01 -8.46196E-01 -8.47522E-01 -8.48902E-01 -8.50258E-01 -8.51428E-01 -8.52588E-01
  -8.53814E-01 -8.55094E-01 -8.56390E-01 -8.57645E-01 -8.58848E-01 -8.60060E-01 -8.61285E-01 -8.62523E-01 -8.63741E-01 -8.64940E-01
  -8.66117E-01 -8.67320E-01 -8.68537E-01 -8.69755E-01 -8.70936E-01 -8.72093E-01 -8.73244E-01 -8.74424E-01 -8.75617E-01 -8.76807E-01
  -8.77956E-01 -8.79092E-01 -8.80232E-01 -8.81393E-01 -8.82553E-01 -8.83705E-01 -8.84828E-01 -8.85950E-01 -8.87079E-01 -8.88227E-01
  -8.89360E-01 -8.90478E-01 -8.91575E-01 -8.92686E-01 -8.93807E-01 -8.94945E-01 -8.96068E-01 -8.97175E-01 -8.98268E-01 -8.99376E-01
  -9.00491E-01 -9.01615E-01 -9.02718E-01 -9.03813E-01 -9.04903E-01 -9.06012E-01 -9.07124E-01 -9.08235E-01 -9.09322E-01 -9.10407E-01
  -9.11494E-01 -9.12600E-01 -9.13703E-01 -9.14799E-01 -9.15874E-01 -9.16956E-01 -9.18042E-01 -9.19145E-01 -9.20237E-01 -9.21320E-01
  -9.22388E-01 -9.23469E-01 -9.24555E-01 -9.25653E-01 -9.26734E-01 -9.27809E-01 -9.28875E-01 -9.29957E-01 -9.31041E-01 -9.32130E-01
  -9.33200E-01 -9.34268E-01 -9.35333E-01 -9.36416E-01 -9.37497E-01 -9.38577E-01 -9.39639E-01 -9.40704E-01 -9.41771E-01 -9.42853E-01
  -9.43928E-01 -9.44999E-01 -9.46056E-01 -9.47120E-01 -9.48188E-01 -9.49267E-01 -9.50335E-01 -9.51399E-01 -9.52452E-01 -9.53518E-01
  -9.54586E-01 -9.55662E-01 -9.56724E-01 -9.57783E-01 -9.58836E-01 -9.59904E-01 -9.60971E-01 -9.62041E-01 -9.63095E-01 -9.64150E-01
  -9.65205E-01 -9.66274E-01 -9.67339E-01 -9.68404E-01 -9.69453E-01 -9.70508E-01 -9.71563E-01 -9.72631E-01 -9.73690E-01 -9.74747E-01
  -9.75793E-01 -9.76849E-01 -9.77907E-01 -9.78974E-01 -9.80028E-01 -9.81081E-01 -9.82125E-01 -9.83182E-01 -9.84240E-01 -9.85304E-01
  -9.86354E-01 -9.87405E-01 -9.88451E-01 -9.89510E-01 -9.90567E-01 -9.91627E-01 -9.92672E-01 -9.93720E-01 -9.94767E-01 -9.95827E-01
  -9.96881E-01 -9.97936E-01 -9.98977E-01 -1.00003E+00 -1.00108E+00 -1.00213E+00 -1.00319E+00 -1.00423E+00 -1.00527E+00 -1.00632E+00
  -1.00738E+00 -1.00843E+00 -1.00948E+00 -1.01053E+00 -1.01157E+00 -1.01262E+00 -1.01367E+00 -1.01473E+00 -1.01577E+00 -1.01681E+00
  -1.01785E+00 -1.01890E+00 -1.01995E+00 -1.02101E+00 -1.02204E+00 -1.02309E+00 -1.02413E+00 -1.02518E+00 -1.02623E+00 -1.02728E+00
  -1.02831E+00 -1.02936E+00 -1.03040E+00 -1.03145E+00 -1.03250E+00 -1.03354E+00 -1.03457E+00 -1.03562E+00 -1.03666E+00 -1.03771E+00
  -1.03875E+00 -1.03979E+00 -1.04082E+00 -1.04187E+00 -1.04291E+00 -1.04396E+00 -1.04499E+00 -1.04603E+00 -1.04706E+00 -1.04810E+00
  -1.04914E+00 -1.05018E+00 -1.05121E+00 -1.05224E+00 -1.05326E+00 -1.05430E+00 -1.05534E+00 -1.05636E+00
 NY background values follow
    -5.558E-01   -5.569E-01   -5.579E-01   -5.589E-01   -5.599E-01   -5.609E-01   -5.619E-01   -5.629E-01   -5.639E-01   -5.650E-01
    -5.660E-01   -5.670E-01   -5.680E-01   -5.690E-01   -5.700E-01   -5.710E-01   -5.721E-01   -5.731E-01   -5.741E-01   -5.751E-01
    -5.761E-01   -5.771E-01   -5.781E-01   -5.791E-01   -5.802E-01   -5.812E-01   -5.822E-01   -5.832E-01   -5.842E-01   -5.852E-01
    -5.862E-01   -5.873E-01   -5.883E-01   -5.893E-01   -5.903E-01   -5.913E-01   -5.923E-01   -5.933E-01   -5.943E-01   -5.954E-01
    -5.964E-01   -5.974E-01   -5.984E-01   -5.994E-01   -6.004E-01   -6.014E-01   -6.025E-01   -6.035E-01   -6.045E-01   -6.055E-01
    -6.065E-01   -6.075E-01   -6.085E-01   -6.095E-01   -6.106E-01   -6.116E-01   -6.126E-01   -6.136E-01   -6.146E-01   -6.156E-01
    -6.166E-01   -6.177E-01   -6.187E-01   -6.197E-01   -6.207E-01   -6.217E-01   -6.227E-01   -6.237E-01   -6.247E-01   -6.258E-01
    -6.268E-01   -6.278E-01   -6.288E-01   -6.298E-01   -6.308E-01   -6.318E-01   -6.329E-01   -6.339E-01   -6.349E-01   -6.359E-01
    -6.369E-01   -6.379E-01   -6.389E-01   -6.399E-01   -6.410E-01   -6.420E-01   -6.430E-01   -6.440E-01   -6.450E-01   -6.460E-01
    -6.470E-01   -6.481E-01   -6.491E-01   -6.501E-01   -6.511E-01   -6.521E-01   -6.531E-01   -6.541E-01   -6.551E-01   -6.562E-01
    -6.572E-01   -6.582E-01   -6.592E-01   -6.602E-01   -6.612E-01   -6.622E-01   -6.633E-01   -6.643E-01   -6.653E-01   -6.663E-01
    -6.673E-01   -6.683E-01   -6.693E-01   -6.704E-01   -6.714E-01   -6.724E-01   -6.734E-01   -6.744E-01   -6.754E-01   -6.764E-01
    -6.774E-01   -6.785E-01   -6.795E-01   -6.805E-01   -6.815E-01   -6.825E-01   -6.835E-01   -6.845E-01   -6.856E-01   -6.866E-01
    -6.876E-01   -6.886E-01   -6.896E-01   -6.906E-01   -6.916E-01   -6.926E-01   -6.937E-01   -6.947E-01   -6.957E-01   -6.967E-01
    -6.977E-01   -6.987E-01   -6.997E-01   -7.008E-01   -7.018E-01   -7.028E-01   -7.038E-01   -7.048E-01   -7.058E-01   -7.068E-01
    -7.078E-01   -7.089E-01   -7.099E-01   -7.109E-01   -7.119E-01   -7.129E-01   -7.139E-01   -7.149E-01   -7.160E-01   -7.170E-01
    -7.180E-01   -7.190E-01   -7.200E-01   -7.210E-01   -7.220E-01   -7.231E-01   -7.241E-01   -7.251E-01   -7.261E-01   -7.271E-01
    -7.281E-01   -7.291E-01   -7.301E-01   -7.312E-01   -7.322E-01   -7.332E-01   -7.342E-01   -7.352E-01   -7.362E-01   -7.372E-01
    -7.383E-01   -7.393E-01   -7.403E-01   -7.413E-01   -7.423E-01   -7.433E-01   -7.443E-01   -7.454E-01   -7.464E-01   -7.474E-01
    -7.484E-01   -7.494E-01   -7.504E-01   -7.514E-01   -7.524E-01   -7.535E-01   -7.545E-01   -7.555E-01   -7.565E-01   -7.575E-01
    -7.585E-01   -7.595E-01   -7.606E-01   -7.616E-01   -7.626E-01   -7.636E-01   -7.646E-01   -7.656E-01   -7.666E-01   -7.677E-01
    -7.687E-01   -7.697E-01   -7.707E-01   -7.717E-01   -7.727E-01   -7.737E-01   -7.747E-01   -7.758E-01   -7.768E-01   -7.778E-01
    -7.788E-01   -7.798E-01   -7.808E-01   -7.818E-01   -7.829E-01   -7.839E-01   -7.849E-01   -7.859E-01   -7.869E-01   -7.879E-01
    -7.889E-01   -7.900E-01   -7.910E-01   -7.920E-01   -7.930E-01   -7.940E-01   -7.950E-01   -7.960E-01   -7.971E-01   -7.981E-01
    -7.991E-01   -8.001E-01   -8.011E-01   -8.021E-01   -8.031E-01   -8.041E-01   -8.052E-01   -8.062E-01   -8.072E-01   -8.082E-01
    -8.092E-01   -8.102E-01   -8.112E-01   -8.123E-01   -8.133E-01   -8.143E-01   -8.153E-01   -8.163E-01   -8.173E-01   -8.183E-01
    -8.194E-01   -8.204E-01   -8.214E-01   -8.224E-01   -8.234E-01   -8.244E-01   -8.254E-01   -8.265E-01   -8.275E-01   -8.285E-01
    -8.295E-01   -8.305E-01   -8.315E-01   -8.325E-01   -8.335E-01   -8.346E-01   -8.356E-01   -8.366E-01   -8.376E-01   -8.386E-01
    -8.396E-01   -8.406E-01   -8.417E-01   -8.427E-01   -8.437E-01   -8.447E-01   -8.457E-01   -8.467E-01   -8.477E-01   -8.488E-01
    -8.498E-01   -8.508E-01   -8.518E-01   -8.528E-01   -8.538E-01   -8.548E-01   -8.559E-01   -8.569E-01   -8.579E-01   -8.589E-01
    -8.599E-01   -8.609E-01   -8.619E-01   -8.630E-01   -8.640E-01   -8.650E-01   -8.660E-01   -8.670E-01   -8.680E-01   -8.690E-01
    -8.701E-01   -8.711E-01   -8.721E-01   -8.731E-01   -8.741E-01   -8.751E-01   -8.761E-01   -8.771E-01   -8.782E-01   -8.792E-01
    -8.802E-01   -8.812E-01   -8.822E-01   -8.832E-01   -8.842E-01   -8.853E-01   -8.863E-01   -8.873E-01   -8.883E-01   -8.893E-01
    -8.903E-01   -8.913E-01   -8.924E-01   -8.934E-01   -8.944E-01   -8.954E-01   -8.964E-01   -8.974E-01   -8.984E-01   -8.995E-01
    -9.005E-01   -9.015E-01   -9.025E-01   -9.035E-01   -9.045E-01   -9.055E-01   -9.066E-01   -9.076E-01   -9.086E-01   -9.096E-01
    -9.106E-01   -9.116E-01   -9.126E-01   -9.136E-01   -9.147E-01   -9.157E-01   -9.167E-01   -9.177E-01   -9.187E-01   -9.197E-01
    -9.207E-01   -9.218E-01   -9.228E-01   -9.238E-01   -9.248E-01   -9.258E-01   -9.268E-01   -9.278E-01   -9.289E-01   -9.299E-01
    -9.309E-01   -9.319E-01   -9.329E-01   -9.339E-01   -9.349E-01   -9.360E-01   -9.370E-01   -9.380E-01   -9.390E-01   -9.400E-01
    -9.410E-01   -9.420E-01   -9.430E-01   -9.441E-01   -9.451E-01   -9.461E-01   -9.471E-01   -9.481E-01   -9.491E-01   -9.501E-01
    -9.512E-01   -9.522E-01   -9.532E-01   -9.542E-01   -9.552E-01   -9.562E-01   -9.572E-01   -9.583E-01   -9.593E-01   -9.603E-01
    -9.613E-01   -9.623E-01   -9.633E-01   -9.643E-01   -9.653E-01   -9.664E-01   -9.674E-01   -9.684E-01   -9.694E-01   -9.704E-01
    -9.714E-01   -9.724E-01   -9.735E-01   -9.745E-01   -9.755E-01   -9.765E-01   -9.775E-01   -9.785E-01   -9.795E-01   -9.806E-01
    -9.816E-01   -9.826E-01   -9.836E-01   -9.846E-01   -9.856E-01   -9.866E-01   -9.876E-01   -9.887E-01   -9.897E-01   -9.907E-01
    -9.917E-01   -9.927E-01   -9.937E-01   -9.947E-01   -9.958E-01   -9.968E-01   -9.978E-01   -9.988E-01   -9.998E-01   -1.001E+00
    -1.002E+00   -1.003E+00   -1.004E+00   -1.005E+00   -1.006E+00   -1.007E+00   -1.008E+00   -1.009E+00   -1.010E+00   -1.011E+00
    -1.012E+00   -1.013E+00   -1.014E+00   -1.015E+00   -1.016E+00   -1.017E+00   -1.018E+00   -1.019E+00   -1.020E+00   -1.021E+00
    -1.022E+00   -1.023E+00   -1.024E+00   -1.025E+00   -1.026E+00   -1.027E+00   -1.028E+00   -1.029E+00   -1.030E+00   -1.031E+00
    -1.032E+00   -1.033E+00   -1.034E+00   -1.035E+00   -1.036E+00   -1.037E+00   -1.038E+00   -1.039E+00   -1.040E+00   -1.041E+00
    -1.042E+00   -1.043E+00   -1.044E+00   -1.045E+00   -1.046E+00   -1.047E+00   -1.048E+00   -1.049E+00   -1.050E+00   -1.052E+00
    -1.053E+00   -1.054E+00   -1.055E+00   -1.056E+00   -1.057E+00   -1.058E+00   -1.059E+00   -1.060E+00
 Asp      Conc. = 1.02E+01
