 LCModel (Version 6.3-1L) Copyright: S.W. Provencher.          Ref.: Magn. Reson. Med. 30:672-679 (1993).                
 Slice#3 Row#12 Col#5  PD_05_press_2_raw_act
 36 lines in following concentration table = NCONC+1
    Conc.  %SD /Cr+PCr  Metabolite                                         
  217.137  33%   3.061 Ala                                                 
   13.118  96%   0.185 Asp                                                 
   70.933  42%   1.000 Cr                                                  
    0.000 999%   0.000 PCr                                                 
    7.331 103%   0.103 GABA                                                
    7.250 105%   0.102 Glc                                                 
   30.640 454%   0.432 Gln                                                 
    0.000 999%   0.000 Glu                                                 
   20.223  61%   0.285 GPC                                                 
    0.000 999%   0.000 PCh                                                 
   81.859  57%   1.154 GSH                                                 
   77.679 193%   1.095 Ins                                                 
   50.096 159%   0.706 Lac                                                 
    0.000 999%   0.000 NAA                                                 
  117.103  33%   1.651 NAAG                                                
    2.348 107% 3.3E-02 Scyllo                                              
   10.485 120%   0.148 Tau                                                 
    0.000 999%   0.000 -CrCH2                                              
   20.223  61%   0.285 GPC+PCh                                             
  117.103  33%   1.651 NAA+NAAG                                            
   70.933  42%   1.000 Cr+PCr                                              
   30.640 454%   0.432 Glu+Gln                                             
    0.000 999%   0.000 Lip13a                                              
  401.146  43%   5.655 Lip13b                                              
   31.752 276%   0.448 Lip09                                               
  227.822  48%   3.212 MM09                                                
   82.897  74%   1.169 Lip20                                               
  340.322  51%   4.798 MM20                                                
   71.859  64%   1.013 MM12                                                
  128.324 106%   1.809 MM14                                                
  394.224  19%   5.558 MM17                                                
  401.146  43%   5.655 Lip13a+Lip13b                                       
  601.329  33%   8.477 MM14+Lip13a+Lip13b+MM12                             
  259.574  41%   3.659 MM09+Lip09                                          
  423.219  41%   5.966 MM20+Lip20                                          
   6 lines in following misc. output table
  FWHM = 0.054 ppm    S/N =   1                                            
  Data shift = 0.046 ppm                                                   
  Ph: -11 deg      60.5 deg/ppm                                            
  alphaB,S = 8.5E+01,   5.1E+01                                            
   14 spline knots.   Ns = 5(1)                                            
  (10) 2 infls.   (11) 1 extrs.                                            
  498 points on ppm-axis = NY
      4.000000     3.992357     3.984714     3.977070     3.969427     3.961784     3.954141     3.946497     3.938854     3.931211
      3.923568     3.915925     3.908281     3.900638     3.892995     3.885352     3.877708     3.870065     3.862422     3.854779
      3.847136     3.839492     3.831849     3.824206     3.816563     3.808919     3.801276     3.793633     3.785990     3.778347
      3.770703     3.763060     3.755417     3.747774     3.740130     3.732487     3.724844     3.717201     3.709558     3.701914
      3.694271     3.686628     3.678985     3.671341     3.663698     3.656055     3.648412     3.640769     3.633125     3.625482
      3.617839     3.610196     3.602552     3.594909     3.587266     3.579623     3.571980     3.564336     3.556693     3.549050
      3.541407     3.533763     3.526120     3.518477     3.510834     3.503191     3.495547     3.487904     3.480261     3.472618
      3.464974     3.457331     3.449688     3.442045     3.434402     3.426758     3.419115     3.411472     3.403829     3.396185
      3.388542     3.380899     3.373256     3.365613     3.357969     3.350326     3.342683     3.335040     3.327396     3.319753
      3.312110     3.304467     3.296824     3.289180     3.281537     3.273894     3.266251     3.258607     3.250964     3.243321
      3.235678     3.228034     3.220391     3.212748     3.205105     3.197462     3.189818     3.182175     3.174532     3.166889
      3.159245     3.151602     3.143959     3.136316     3.128673     3.121029     3.113386     3.105743     3.098100     3.090456
      3.082813     3.075170     3.067527     3.059884     3.052240     3.044597     3.036954     3.029311     3.021667     3.014024
      3.006381     2.998738     2.991095     2.983451     2.975808     2.968165     2.960522     2.952878     2.945235     2.937592
      2.929949     2.922306     2.914662     2.907019     2.899376     2.891733     2.884089     2.876446     2.868803     2.861160
      2.853517     2.845873     2.838230     2.830587     2.822944     2.815300     2.807657     2.800014     2.792371     2.784728
      2.777084     2.769441     2.761798     2.754155     2.746511     2.738868     2.731225     2.723582     2.715939     2.708295
      2.700652     2.693009     2.685366     2.677722     2.670079     2.662436     2.654793     2.647150     2.639506     2.631863
      2.624220     2.616577     2.608933     2.601290     2.593647     2.586004     2.578361     2.570717     2.563074     2.555431
      2.547788     2.540144     2.532501     2.524858     2.517215     2.509572     2.501928     2.494285     2.486642     2.478999
      2.471355     2.463712     2.456069     2.448426     2.440783     2.433139     2.425496     2.417853     2.410210     2.402566
      2.394923     2.387280     2.379637     2.371994     2.364350     2.356707     2.349064     2.341421     2.333777     2.326134
      2.318491     2.310848     2.303205     2.295561     2.287918     2.280275     2.272632     2.264988     2.257345     2.249702
      2.242059     2.234416     2.226772     2.219129     2.211486     2.203843     2.196199     2.188556     2.180913     2.173270
      2.165627     2.157983     2.150340     2.142697     2.135054     2.127410     2.119767     2.112124     2.104481     2.096838
      2.089194     2.081551     2.073908     2.066265     2.058621     2.050978     2.043335     2.035692     2.028049     2.020405
      2.012762     2.005119     1.997476     1.989833     1.982190     1.974546     1.966903     1.959260     1.951617     1.943974
      1.936331     1.928688     1.921045     1.913402     1.905759     1.898115     1.890472     1.882829     1.875186     1.867543
      1.859900     1.852257     1.844614     1.836971     1.829327     1.821684     1.814041     1.806398     1.798755     1.791112
      1.783469     1.775826     1.768183     1.760540     1.752896     1.745253     1.737610     1.729967     1.722324     1.714681
      1.707038     1.699395     1.691752     1.684108     1.676465     1.668822     1.661179     1.653536     1.645893     1.638250
      1.630607     1.622964     1.615321     1.607677     1.600034     1.592391     1.584748     1.577105     1.569462     1.561819
      1.554176     1.546533     1.538890     1.531246     1.523603     1.515960     1.508317     1.500674     1.493031     1.485388
      1.477745     1.470102     1.462458     1.454815     1.447172     1.439529     1.431886     1.424243     1.416600     1.408957
      1.401314     1.393671     1.386027     1.378384     1.370741     1.363098     1.355455     1.347812     1.340169     1.332526
      1.324883     1.317240     1.309596     1.301953     1.294310     1.286667     1.279024     1.271381     1.263738     1.256095
      1.248452     1.240808     1.233165     1.225522     1.217879     1.210236     1.202593     1.194950     1.187307     1.179664
      1.172021     1.164377     1.156734     1.149091     1.141448     1.133805     1.126162     1.118519     1.110876     1.103233
      1.095590     1.087946     1.080303     1.072660     1.065017     1.057374     1.049731     1.042088     1.034445     1.026802
      1.019158     1.011515     1.003872     0.996229     0.988586     0.980943     0.973300     0.965657     0.958014     0.950371
      0.942727     0.935084     0.927441     0.919798     0.912155     0.904512     0.896869     0.889226     0.881583     0.873940
      0.866296     0.858653     0.851010     0.843367     0.835724     0.828081     0.820438     0.812795     0.805152     0.797508
      0.789865     0.782222     0.774579     0.766936     0.759293     0.751650     0.744007     0.736364     0.728721     0.721077
      0.713434     0.705791     0.698148     0.690505     0.682862     0.675219     0.667576     0.659933     0.652290     0.644646
      0.637003     0.629360     0.621717     0.614074     0.606431     0.598788     0.591145     0.583502     0.575858     0.568215
      0.560572     0.552929     0.545286     0.537643     0.530000     0.522357     0.514714     0.507071     0.499427     0.491784
      0.484141     0.476498     0.468855     0.461212     0.453569     0.445925     0.438282     0.430639     0.422996     0.415353
      0.407710     0.400067     0.392424     0.384780     0.377137     0.369494     0.361851     0.354208     0.346565     0.338922
      0.331278     0.323635     0.315992     0.308349     0.300706     0.293063     0.285420     0.277777     0.270133     0.262490
      0.254847     0.247204     0.239561     0.231918     0.224275     0.216631     0.208988     0.201345
 NY phased data points follow
   8.84478E+00  7.12671E+00  7.15391E+00  8.77920E+00  6.41653E+00  7.52805E+00  1.25866E+01  7.24548E+00  5.07370E+00  9.84926E+00
   1.17145E+01  1.00173E+01  1.03018E+01  7.27413E+00  7.03495E+00  7.09190E+00  7.50320E+00  8.46102E+00  6.28815E+00  6.80360E+00
   7.78524E+00  8.98351E+00  4.98032E+00  5.30579E+00  4.67400E+00  7.24096E+00  2.89066E+00  9.10219E+00  7.88131E+00  6.71233E+00
   5.35932E+00  8.00061E+00  7.54516E+00  5.48302E+00  7.98989E+00  7.78441E+00  7.62869E+00  4.17859E+00  7.70477E+00  7.34998E+00
   3.52179E+00  4.26466E+00  2.04690E+00  6.00041E+00  5.42973E+00  7.02882E+00  6.23177E+00  4.89686E+00  6.70678E+00  5.52041E+00
   5.61902E+00  6.52761E+00  6.34317E+00  5.63744E+00  7.99331E+00  6.32066E+00  6.55556E+00  1.78068E+00  7.87962E+00  4.58909E+00
   2.42577E+00  3.27535E+00  4.86375E+00  7.82577E+00 -1.78789E-01  3.55753E+00  9.69754E-01  9.76672E-01  4.13612E+00  1.83383E+00
   2.40153E+00  3.51459E+00  4.38921E+00  5.90914E+00  6.17434E+00  3.97397E+00  3.49461E+00  4.70290E+00  1.74167E+00  1.98341E+00
   5.45996E+00  4.59800E+00  3.99229E+00  3.72607E+00  4.51282E-01  3.15317E+00  5.58567E+00  3.17135E+00  2.70439E+00  6.41672E+00
   4.63237E+00  4.49126E+00  4.31180E+00  3.29012E+00  4.38707E+00  5.12847E+00  3.07416E+00  5.63018E+00  8.90827E-01  2.01776E+00
   4.36131E+00  3.84110E+00  8.47373E+00  4.00474E+00  7.09113E+00  4.80628E+00  2.70511E+00  4.33134E+00  2.68604E+00  8.11676E-01
   4.03411E+00  4.05501E+00  3.19626E+00  3.87804E+00  2.87906E+00  5.33332E+00  2.97254E+00  1.99073E+00  7.02558E-01 -1.26915E+00
  -2.87519E-02  7.59405E-01  1.37179E+00  3.37302E+00  3.39179E+00  2.51594E+00  6.66450E+00  5.12170E+00  7.50668E+00  1.81282E+00
   1.28674E+00  6.63267E+00 -5.47957E-01  3.39783E+00 -5.10621E-01  2.71613E+00  9.28601E-01 -4.25484E-01 -8.59742E-02 -1.21099E+00
   5.19950E+00  3.93708E-02  1.99244E+00  3.30629E+00  2.26631E+00  2.26903E+00  2.90317E+00  2.88423E-01  1.85612E+00 -1.01729E+00
   4.33600E+00  1.32393E+00  1.85951E+00  2.17720E+00  2.42903E+00 -6.54768E-01  1.05881E+00  7.08018E-01 -1.53230E+00  1.42993E+00
   3.51887E+00  9.36798E-01  2.55773E+00 -4.38413E-01  3.24498E+00  3.96297E-01 -8.67881E-01 -4.36958E-01 -2.75799E-01  2.43165E+00
   2.19273E+00  1.04062E+00  4.31757E+00  2.42920E+00  3.88559E-01  1.85770E+00  5.97346E-01  7.54717E-01  1.64810E+00  8.40990E-01
   3.04400E+00  1.00349E+00  3.34094E+00 -5.75084E-01  2.81630E+00  2.94460E+00  5.57500E-01  1.58045E+00  2.29576E+00  5.17086E+00
   3.07700E-01  1.65899E+00  2.33142E+00  1.52847E+00  5.82139E-01 -3.05222E+00  5.23884E+00  1.14090E+00  8.12241E-01 -3.46934E-01
   2.46421E+00  8.35018E-01  8.68158E-01  1.84160E-01  1.36364E+00  2.24146E+00  1.33168E+00  1.79897E-01 -1.68302E+00  4.05301E-01
   1.36731E+00  5.66814E+00  4.10105E+00  2.35066E-01  1.89927E+00  1.89784E+00  4.33458E-02  1.64510E+00  1.92441E-01  1.36424E+00
   4.16351E+00  2.20183E+00  1.56047E+00  8.08879E-01  5.33358E+00  5.09945E+00  2.92365E+00  1.70134E+00  2.98460E+00  2.27808E+00
   2.31013E+00  5.12112E+00  3.76424E+00 -6.64434E-01  4.84069E+00  4.00516E+00  1.13567E+00  9.32041E-01  4.75326E+00  2.19104E+00
   3.57640E+00  1.22183E+00 -2.75040E+00  4.21138E+00  2.48473E+00  4.28590E+00  4.58918E+00  2.75961E+00  5.47648E-01 -3.06468E+00
  -7.03682E+00 -3.38333E-01 -2.50227E+00 -1.63026E+00  2.98778E+00  6.92996E-01  7.89331E+00  4.33718E+00  6.19838E+00  4.29441E+00
   5.64920E+00  3.88430E+00  2.92165E-01 -3.09078E+00 -1.58623E+00  2.53087E-03 -2.97268E+00 -1.70188E-01 -4.26282E-01 -1.23595E+00
   1.41007E-01  2.46443E+00 -5.64854E-01 -3.39908E-01  1.35556E+00 -2.23461E+00  1.61321E+00  2.35453E+00 -1.53063E+00 -1.81386E+00
  -1.67908E+00 -1.29043E+00 -4.91631E-01  1.46992E+00  5.33083E-01 -2.42705E+00 -2.02127E-01  2.85424E+00  8.00819E-01  8.42415E-01
   2.61663E-01 -2.32003E+00 -4.84562E+00 -3.68479E+00 -6.06092E+00 -1.69207E+00 -3.99139E+00 -5.84381E+00 -7.97663E+00 -1.06255E+01
  -7.30029E+00 -9.05445E+00 -7.72346E+00 -6.18848E+00 -9.17009E+00 -1.05731E+01 -1.23612E+01 -6.38965E+00 -8.76889E+00 -7.00998E+00
  -1.30068E+00 -2.48705E+00 -1.19115E+00 -1.34708E+00  2.40889E+00  3.28893E+00  5.71689E+00  5.11600E+00  5.96999E+00  5.39331E+00
   5.59073E+00  4.99937E+00  4.14149E+00  4.74222E+00  5.76704E+00  6.02201E+00  3.26026E-01  4.11472E-01 -2.38076E+00  5.96339E-01
  -2.95465E+00 -2.97601E+00 -3.19428E+00 -1.59996E+00 -4.30817E+00 -4.30799E+00 -4.01425E+00 -2.79024E+00 -4.95789E+00 -1.37541E+00
  -3.36304E+00 -2.00433E+00 -2.21657E+00 -1.93281E+00 -6.84695E-03 -3.13068E+00  8.08488E-01  4.66934E-04  1.75458E-01 -2.63890E+00
   6.09916E-01  6.08184E-03  5.36393E-01 -3.75708E-01 -2.30627E+00  1.95707E+00  1.55115E+00  1.30228E+00 -3.03690E-01  8.48666E-01
  -4.22932E-01  3.17303E+00  5.67944E+00  4.03786E+00 -1.16877E+00  9.35852E-01 -2.31041E+00 -4.70951E-01 -1.50658E-01 -2.97722E+00
   1.83036E+00  4.97867E-02  1.39698E+00  1.88026E+00 -1.25227E+00  3.82443E+00 -2.15818E+00 -7.73089E-01 -1.87713E+00 -1.09526E+00
   9.75299E-01  6.51214E-02  1.12869E+00 -1.80663E+00  1.44847E+00 -9.51352E-01 -1.87008E+00 -3.63861E+00 -2.01141E+00 -1.03884E-01
  -1.56141E+00 -2.59267E+00 -7.80172E-01 -3.25858E+00 -2.59246E+00 -6.43923E-01 -3.84284E+00  1.59653E+00  9.74897E-01  8.69070E-01
  -1.04457E+00  2.39941E-01  1.51823E+00 -2.03900E-01  9.45782E-02 -2.75252E+00 -1.43027E+00 -5.57646E+00  2.18174E+00 -3.17133E+00
  -1.40109E+00 -2.12018E-01 -2.62550E+00 -3.14820E-01 -1.49730E+00 -3.88389E-01 -9.51877E-01 -1.41332E+00  8.82448E-02  3.21830E-01
  -2.38542E+00  2.28459E+00 -2.17283E+00 -1.40324E-01 -1.54651E-01 -4.93738E+00 -2.30152E+00 -1.89179E+00 -2.30182E-02 -2.30649E+00
  -1.74737E-02 -6.99889E-01  1.36487E+00 -1.21411E+00 -9.97528E-01 -7.67376E-01 -6.50145E-01 -2.89705E+00 -2.09021E+00 -2.98706E+00
  -3.22671E-01 -2.32302E+00 -7.06848E-01 -2.51964E+00 -1.91344E+00 -4.87746E+00 -1.81416E+00 -1.92579E+00  1.92105E+00 -4.99960E+00
   1.69665E-01 -3.08183E+00  2.24288E+00 -8.13134E-01 -3.08929E-01 -2.72681E+00  1.28216E+00 -2.12103E+00 -1.49678E+00 -2.34466E-01
   1.95541E+00 -3.22411E+00  6.42916E-01 -2.22621E+00 -4.74733E+00 -9.58982E-01  2.82698E+00 -6.83780E-01 -2.99133E+00  6.86079E-02
  -3.59729E+00 -5.94142E+00  8.86794E-02  3.33089E-01  9.73545E-01 -1.20808E+00 -2.60751E+00  1.30284E+00  2.01782E+00 -3.46904E-02
  -1.76673E+00  3.96638E+00 -1.06421E+00 -1.68915E+00  1.60329E+00 -1.63974E+00 -7.03673E-01  2.77390E+00  1.25863E+00 -1.65709E+00
   2.08385E+00 -2.87062E-01  8.56670E-01 -2.53259E+00  3.54300E-01 -1.94273E+00  8.21109E-01 -2.67689E+00
 NY points of the fit to the data follow
   6.50313E+00  6.50073E+00  6.52114E+00  6.56338E+00  6.62014E+00  6.71317E+00  6.92807E+00  7.25230E+00  7.57314E+00  7.79446E+00
   7.86582E+00  7.78047E+00  7.55225E+00  7.21411E+00  6.82862E+00  6.45421E+00  6.14916E+00  5.98273E+00  6.00374E+00  6.13966E+00
   6.29404E+00  6.37941E+00  6.35829E+00  6.24802E+00  6.13148E+00  6.17142E+00  6.36519E+00  6.60640E+00  6.85089E+00  7.05764E+00
   7.18337E+00  7.19931E+00  7.09896E+00  6.87233E+00  6.55461E+00  6.18823E+00  5.85574E+00  5.63367E+00  5.45470E+00  5.29667E+00
   5.20494E+00  5.17842E+00  5.21534E+00  5.31867E+00  5.47024E+00  5.62334E+00  5.72277E+00  5.73092E+00  5.65606E+00  5.52972E+00
   5.37835E+00  5.21992E+00  5.07230E+00  4.95889E+00  4.90484E+00  4.91164E+00  4.95222E+00  5.00001E+00  5.03373E+00  5.04092E+00
   5.01649E+00  4.96437E+00  4.89680E+00  4.82502E+00  4.75817E+00  4.70156E+00  4.66389E+00  4.65246E+00  4.66044E+00  4.67536E+00
   4.68650E+00  4.68989E+00  4.68118E+00  4.65801E+00  4.62161E+00  4.57319E+00  4.51666E+00  4.45633E+00  4.39901E+00  4.35148E+00
   4.31319E+00  4.28803E+00  4.27109E+00  4.24700E+00  4.20292E+00  4.13962E+00  4.06645E+00  3.99464E+00  3.93314E+00  3.88731E+00
   3.85675E+00  3.84136E+00  3.84103E+00  3.85172E+00  3.86080E+00  3.85843E+00  3.85296E+00  3.89863E+00  4.12375E+00  4.51360E+00
   4.94302E+00  5.29497E+00  5.49409E+00  5.51643E+00  5.37131E+00  5.09161E+00  4.72203E+00  4.30447E+00  3.89477E+00  3.58155E+00
   3.43727E+00  3.38465E+00  3.35232E+00  3.32749E+00  3.30547E+00  3.28117E+00  3.25189E+00  3.21932E+00  3.18647E+00  3.15940E+00
   3.15145E+00  3.20540E+00  3.46451E+00  3.95494E+00  4.53736E+00  5.06240E+00  5.42365E+00  5.57594E+00  5.53758E+00  5.35480E+00
   5.04235E+00  4.60456E+00  4.07632E+00  3.54923E+00  3.15743E+00  2.89591E+00  2.70744E+00  2.60502E+00  2.58362E+00  2.62785E+00
   2.72252E+00  2.83740E+00  2.92006E+00  2.94346E+00  2.90897E+00  2.82594E+00  2.71702E+00  2.60628E+00  2.50555E+00  2.41729E+00
   2.32242E+00  2.22222E+00  2.12847E+00  2.05322E+00  2.00488E+00  1.97694E+00  1.95862E+00  1.93941E+00  1.91289E+00  1.87673E+00
   1.82851E+00  1.76382E+00  1.68588E+00  1.60782E+00  1.53563E+00  1.46647E+00  1.40275E+00  1.35044E+00  1.31577E+00  1.30130E+00
   1.29587E+00  1.28087E+00  1.25071E+00  1.20791E+00  1.15842E+00  1.10486E+00  1.04391E+00  9.69259E-01  8.82141E-01  8.05172E-01
   7.47914E-01  7.06828E-01  6.73560E-01  6.42578E-01  6.22203E-01  6.27242E-01  6.74379E-01  7.73647E-01  9.08265E-01  1.03197E+00
   1.10666E+00  1.11671E+00  1.03808E+00  8.52726E-01  5.98734E-01  3.44572E-01  1.45826E-01  3.92298E-02  3.61235E-02  1.20077E-01
   2.52768E-01  3.91364E-01  5.08680E-01  5.79218E-01  5.70608E-01  4.69160E-01  3.14752E-01  1.60243E-01  3.19777E-02 -5.86769E-02
  -1.12356E-01 -1.34545E-01 -1.30086E-01 -1.06535E-01 -7.35463E-02 -4.18093E-02 -2.47732E-02 -2.78052E-02 -4.03157E-02 -4.68642E-02
  -4.41489E-02 -3.52165E-02 -2.24237E-02 -9.06902E-03  1.22526E-03  6.52613E-03 -1.14347E-02 -7.66211E-02 -1.84666E-01 -3.09321E-01
  -4.14004E-01 -4.71278E-01 -4.60960E-01 -3.70463E-01 -2.26433E-01 -7.94069E-02  3.31481E-02  8.05768E-02  2.70608E-02 -1.27785E-01
  -3.36549E-01 -5.34572E-01 -6.74437E-01 -7.36586E-01 -7.19383E-01 -6.39330E-01 -5.38537E-01 -4.53376E-01 -4.02583E-01 -4.08467E-01
  -4.46753E-01 -2.57207E-01  3.42069E-01  1.24040E+00  2.22098E+00  3.07557E+00  3.66406E+00  3.92516E+00  3.86134E+00  3.51381E+00
   2.93563E+00  2.19847E+00  1.45635E+00  9.42223E-01  6.58314E-01  4.57234E-01  2.87228E-01  1.36310E-01  2.47903E-03 -1.14265E-01
  -2.14016E-01 -2.98653E-01 -3.77105E-01 -4.57710E-01 -5.45473E-01 -6.42500E-01 -7.48802E-01 -8.62635E-01 -9.78159E-01 -1.08554E+00
  -1.18194E+00 -1.26625E+00 -1.33864E+00 -1.40315E+00 -1.46814E+00 -1.53857E+00 -1.61705E+00 -1.70176E+00 -1.78900E+00 -1.87531E+00
  -1.95687E+00 -2.03116E+00 -2.09984E+00 -2.16351E+00 -2.22489E+00 -2.28647E+00 -2.34789E+00 -2.40768E+00 -2.46296E+00 -2.50678E+00
  -2.53296E+00 -2.53762E+00 -2.51763E+00 -2.47020E+00 -2.39318E+00 -2.28579E+00 -2.14928E+00 -1.98469E+00 -1.79290E+00 -1.57675E+00
  -1.34051E+00 -1.08985E+00 -8.31576E-01 -5.73159E-01 -3.22274E-01 -8.61714E-02  1.28987E-01  3.18950E-01  4.82667E-01  6.24966E-01
   7.64997E-01  9.77380E-01  1.43621E+00  2.07247E+00  2.62372E+00  2.88130E+00  2.73803E+00  2.17604E+00  1.21083E+00 -1.55590E-01
  -1.69596E+00 -3.02002E+00 -3.86973E+00 -4.09763E+00 -3.69974E+00 -2.96372E+00 -2.17142E+00 -1.45156E+00 -8.82735E-01 -5.29283E-01
  -4.57355E-01 -6.65372E-01 -9.21024E-01 -1.01416E+00 -9.96457E-01 -9.42707E-01 -8.99247E-01 -8.84284E-01 -8.99446E-01 -9.48003E-01
  -9.99811E-01 -9.71590E-01 -8.11371E-01 -5.00779E-01 -4.38988E-02  5.08503E-01  1.05039E+00  1.51410E+00  1.86240E+00  2.07235E+00
   2.12879E+00  2.03196E+00  1.82931E+00  1.58813E+00  1.32857E+00  1.06198E+00  7.99238E-01  5.48899E-01  3.16485E-01  1.04686E-01
  -8.60596E-02 -2.56857E-01 -4.09677E-01 -5.46829E-01 -6.70594E-01 -7.83028E-01 -8.85865E-01 -9.80475E-01 -1.06787E+00 -1.14873E+00
  -1.22345E+00 -1.29222E+00 -1.35499E+00 -1.41158E+00 -1.46162E+00 -1.50461E+00 -1.53997E+00 -1.56701E+00 -1.58506E+00 -1.59339E+00
  -1.59133E+00 -1.57829E+00 -1.55382E+00 -1.51769E+00 -1.46988E+00 -1.41070E+00 -1.34072E+00 -1.26091E+00 -1.17255E+00 -1.07726E+00
  -9.76957E-01 -8.73764E-01 -7.69962E-01 -6.67901E-01 -5.69904E-01 -4.78173E-01 -3.94687E-01 -3.21121E-01 -2.58792E-01 -2.08621E-01
  -1.71116E-01 -1.46367E-01 -1.34071E-01 -1.33572E-01 -1.43932E-01 -1.63997E-01 -1.92465E-01 -2.27948E-01 -2.69037E-01 -3.14361E-01
  -3.62637E-01 -4.12707E-01 -4.63551E-01 -5.14294E-01 -5.64215E-01 -6.12740E-01 -6.59439E-01 -7.04007E-01 -7.46243E-01 -7.86025E-01
  -8.23306E-01 -8.58095E-01 -8.90449E-01 -9.20453E-01 -9.48206E-01 -9.73817E-01 -9.97400E-01 -1.01908E+00 -1.03897E+00 -1.05718E+00
  -1.07383E+00 -1.08900E+00 -1.10278E+00 -1.11527E+00 -1.12655E+00 -1.13668E+00 -1.14572E+00 -1.15374E+00 -1.16079E+00 -1.16692E+00
  -1.17218E+00 -1.17661E+00 -1.18025E+00 -1.18312E+00 -1.18527E+00 -1.18672E+00 -1.18750E+00 -1.18764E+00 -1.18716E+00 -1.18607E+00
  -1.18440E+00 -1.18218E+00 -1.17941E+00 -1.17611E+00 -1.17230E+00 -1.16799E+00 -1.16320E+00 -1.15794E+00 -1.15223E+00 -1.14606E+00
  -1.13945E+00 -1.13241E+00 -1.12497E+00 -1.11711E+00 -1.10885E+00 -1.10020E+00 -1.09117E+00 -1.08176E+00 -1.07199E+00 -1.06187E+00
  -1.05138E+00 -1.04055E+00 -1.02938E+00 -1.01788E+00 -1.00606E+00 -9.93924E-01 -9.81472E-01 -9.68718E-01 -9.55670E-01 -9.42338E-01
  -9.28725E-01 -9.14838E-01 -9.00687E-01 -8.86285E-01 -8.71644E-01 -8.56772E-01 -8.41680E-01 -8.26381E-01
 NY background values follow
     5.900E+00    5.881E+00    5.863E+00    5.844E+00    5.825E+00    5.807E+00    5.787E+00    5.768E+00    5.749E+00    5.729E+00
     5.710E+00    5.690E+00    5.670E+00    5.650E+00    5.630E+00    5.609E+00    5.589E+00    5.568E+00    5.548E+00    5.527E+00
     5.506E+00    5.484E+00    5.463E+00    5.442E+00    5.420E+00    5.398E+00    5.377E+00    5.355E+00    5.332E+00    5.310E+00
     5.288E+00    5.265E+00    5.243E+00    5.220E+00    5.197E+00    5.174E+00    5.151E+00    5.128E+00    5.105E+00    5.081E+00
     5.058E+00    5.034E+00    5.010E+00    4.986E+00    4.962E+00    4.938E+00    4.914E+00    4.890E+00    4.865E+00    4.841E+00
     4.816E+00    4.791E+00    4.766E+00    4.741E+00    4.716E+00    4.691E+00    4.666E+00    4.641E+00    4.615E+00    4.589E+00
     4.564E+00    4.538E+00    4.512E+00    4.486E+00    4.460E+00    4.434E+00    4.408E+00    4.382E+00    4.355E+00    4.329E+00
     4.302E+00    4.276E+00    4.249E+00    4.222E+00    4.195E+00    4.168E+00    4.141E+00    4.114E+00    4.087E+00    4.060E+00
     4.032E+00    4.005E+00    3.977E+00    3.950E+00    3.922E+00    3.895E+00    3.867E+00    3.839E+00    3.811E+00    3.783E+00
     3.755E+00    3.727E+00    3.699E+00    3.671E+00    3.642E+00    3.614E+00    3.586E+00    3.557E+00    3.529E+00    3.500E+00
     3.472E+00    3.443E+00    3.414E+00    3.386E+00    3.357E+00    3.328E+00    3.299E+00    3.270E+00    3.241E+00    3.212E+00
     3.183E+00    3.154E+00    3.125E+00    3.096E+00    3.066E+00    3.037E+00    3.008E+00    2.979E+00    2.949E+00    2.920E+00
     2.890E+00    2.861E+00    2.832E+00    2.802E+00    2.773E+00    2.743E+00    2.713E+00    2.684E+00    2.654E+00    2.625E+00
     2.595E+00    2.565E+00    2.536E+00    2.506E+00    2.476E+00    2.447E+00    2.417E+00    2.387E+00    2.357E+00    2.328E+00
     2.298E+00    2.268E+00    2.238E+00    2.208E+00    2.179E+00    2.149E+00    2.119E+00    2.089E+00    2.059E+00    2.030E+00
     2.000E+00    1.970E+00    1.940E+00    1.910E+00    1.881E+00    1.851E+00    1.821E+00    1.791E+00    1.762E+00    1.732E+00
     1.702E+00    1.673E+00    1.643E+00    1.613E+00    1.584E+00    1.554E+00    1.525E+00    1.495E+00    1.465E+00    1.436E+00
     1.406E+00    1.377E+00    1.347E+00    1.318E+00    1.289E+00    1.259E+00    1.230E+00    1.201E+00    1.172E+00    1.142E+00
     1.113E+00    1.084E+00    1.055E+00    1.026E+00    9.968E-01    9.678E-01    9.389E-01    9.100E-01    8.811E-01    8.523E-01
     8.235E-01    7.948E-01    7.662E-01    7.376E-01    7.090E-01    6.805E-01    6.521E-01    6.237E-01    5.953E-01    5.670E-01
     5.388E-01    5.106E-01    4.825E-01    4.545E-01    4.265E-01    3.986E-01    3.707E-01    3.429E-01    3.152E-01    2.875E-01
     2.599E-01    2.324E-01    2.050E-01    1.776E-01    1.503E-01    1.230E-01    9.587E-02    6.879E-02    4.178E-02    1.485E-02
    -1.200E-02   -3.878E-02   -6.547E-02   -9.208E-02   -1.186E-01   -1.450E-01   -1.714E-01   -1.977E-01   -2.239E-01   -2.500E-01
    -2.760E-01   -3.019E-01   -3.277E-01   -3.535E-01   -3.791E-01   -4.047E-01   -4.301E-01   -4.555E-01   -4.807E-01   -5.059E-01
    -5.310E-01   -5.560E-01   -5.808E-01   -6.056E-01   -6.303E-01   -6.548E-01   -6.793E-01   -7.036E-01   -7.279E-01   -7.520E-01
    -7.760E-01   -7.999E-01   -8.238E-01   -8.475E-01   -8.710E-01   -8.945E-01   -9.179E-01   -9.411E-01   -9.642E-01   -9.873E-01
    -1.010E+00   -1.033E+00   -1.056E+00   -1.078E+00   -1.101E+00   -1.123E+00   -1.145E+00   -1.167E+00   -1.189E+00   -1.211E+00
    -1.232E+00   -1.254E+00   -1.275E+00   -1.297E+00   -1.318E+00   -1.339E+00   -1.360E+00   -1.380E+00   -1.401E+00   -1.422E+00
    -1.442E+00   -1.462E+00   -1.482E+00   -1.502E+00   -1.522E+00   -1.542E+00   -1.561E+00   -1.580E+00   -1.600E+00   -1.619E+00
    -1.638E+00   -1.657E+00   -1.675E+00   -1.694E+00   -1.712E+00   -1.730E+00   -1.748E+00   -1.766E+00   -1.784E+00   -1.802E+00
    -1.819E+00   -1.836E+00   -1.853E+00   -1.870E+00   -1.887E+00   -1.904E+00   -1.921E+00   -1.937E+00   -1.953E+00   -1.969E+00
    -1.985E+00   -2.001E+00   -2.016E+00   -2.032E+00   -2.047E+00   -2.062E+00   -2.077E+00   -2.092E+00   -2.106E+00   -2.121E+00
    -2.135E+00   -2.149E+00   -2.163E+00   -2.177E+00   -2.190E+00   -2.204E+00   -2.217E+00   -2.230E+00   -2.243E+00   -2.256E+00
    -2.268E+00   -2.280E+00   -2.293E+00   -2.305E+00   -2.316E+00   -2.328E+00   -2.340E+00   -2.351E+00   -2.362E+00   -2.373E+00
    -2.384E+00   -2.394E+00   -2.405E+00   -2.415E+00   -2.425E+00   -2.435E+00   -2.444E+00   -2.454E+00   -2.463E+00   -2.472E+00
    -2.481E+00   -2.490E+00   -2.498E+00   -2.507E+00   -2.515E+00   -2.523E+00   -2.530E+00   -2.538E+00   -2.545E+00   -2.553E+00
    -2.560E+00   -2.566E+00   -2.573E+00   -2.579E+00   -2.586E+00   -2.592E+00   -2.597E+00   -2.603E+00   -2.608E+00   -2.614E+00
    -2.619E+00   -2.624E+00   -2.628E+00   -2.633E+00   -2.637E+00   -2.641E+00   -2.645E+00   -2.648E+00   -2.652E+00   -2.655E+00
    -2.658E+00   -2.661E+00   -2.663E+00   -2.666E+00   -2.668E+00   -2.670E+00   -2.672E+00   -2.673E+00   -2.675E+00   -2.676E+00
    -2.677E+00   -2.678E+00   -2.678E+00   -2.679E+00   -2.679E+00   -2.679E+00   -2.678E+00   -2.678E+00   -2.677E+00   -2.676E+00
    -2.675E+00   -2.674E+00   -2.672E+00   -2.670E+00   -2.668E+00   -2.666E+00   -2.664E+00   -2.661E+00   -2.658E+00   -2.655E+00
    -2.652E+00   -2.648E+00   -2.645E+00   -2.641E+00   -2.637E+00   -2.632E+00   -2.628E+00   -2.623E+00   -2.618E+00   -2.613E+00
    -2.607E+00   -2.602E+00   -2.596E+00   -2.590E+00   -2.583E+00   -2.577E+00   -2.570E+00   -2.563E+00   -2.556E+00   -2.548E+00
    -2.541E+00   -2.533E+00   -2.525E+00   -2.517E+00   -2.508E+00   -2.499E+00   -2.490E+00   -2.481E+00   -2.472E+00   -2.462E+00
    -2.452E+00   -2.442E+00   -2.432E+00   -2.421E+00   -2.411E+00   -2.400E+00   -2.388E+00   -2.377E+00   -2.365E+00   -2.354E+00
    -2.341E+00   -2.329E+00   -2.317E+00   -2.304E+00   -2.291E+00   -2.278E+00   -2.264E+00   -2.251E+00   -2.237E+00   -2.223E+00
    -2.208E+00   -2.194E+00   -2.179E+00   -2.164E+00   -2.149E+00   -2.133E+00   -2.118E+00   -2.102E+00   -2.086E+00   -2.069E+00
    -2.053E+00   -2.036E+00   -2.019E+00   -2.002E+00   -1.984E+00   -1.966E+00   -1.948E+00   -1.930E+00   -1.912E+00   -1.893E+00
    -1.875E+00   -1.856E+00   -1.836E+00   -1.817E+00   -1.797E+00   -1.777E+00   -1.757E+00   -1.737E+00   -1.716E+00   -1.695E+00
    -1.674E+00   -1.653E+00   -1.631E+00   -1.610E+00   -1.588E+00   -1.565E+00   -1.543E+00   -1.520E+00
 Ala      Conc. = 2.17E+02
