 LCModel (Version 6.3-1L) Copyright: S.W. Provencher.          Ref.: Magn. Reson. Med. 30:672-679 (1993).                
 Slice#1 Row#1 Col#4  PD_05_press_2_raw_act
 36 lines in following concentration table = NCONC+1
    Conc.  %SD /Cr+PCr  Metabolite                                         
  440.566  69%  19.248 Ala                                                 
    2.399 999%   0.105 Asp                                                 
    0.000 999%   0.000 Cr                                                  
   22.889 445%   1.000 PCr                                                 
 4.56E-02 999% 2.0E-03 GABA                                                
    0.427 999% 1.9E-02 Glc                                                 
    0.000 999%   0.000 Gln                                                 
    0.000 999%   0.000 Glu                                                 
    0.000 999%   0.000 GPC                                                 
    0.000 999%   0.000 PCh                                                 
  366.246  48%  16.001 GSH                                                 
  208.996 245%   9.131 Ins                                                 
    0.000 999%   0.000 Lac                                                 
    0.000 999%   0.000 NAA                                                 
    0.000 999%   0.000 NAAG                                                
    0.000 999%   0.000 Scyllo                                              
    0.000 999%   0.000 Tau                                                 
    0.000 999%   0.000 -CrCH2                                              
    0.000 999%   0.000 GPC+PCh                                             
    0.000 999%   0.000 NAA+NAAG                                            
   22.889 445%   1.000 Cr+PCr                                              
    0.000 999%   0.000 Glu+Gln                                             
 1.69E+03  44%  73.875 Lip13a                                              
    0.000 999%   0.000 Lip13b                                              
  201.104 126%   8.786 Lip09                                               
    0.000 999%   0.000 MM09                                                
  179.602 100%   7.847 Lip20                                               
    0.000 999%   0.000 MM20                                                
  243.869 108%  10.655 MM12                                                
 1.90E+03  32%  83.057 MM14                                                
 1.85E+03  26%  80.696 MM17                                                
 1.69E+03  44%  73.875 Lip13a+Lip13b                                       
 3.84E+03  18% 167.586 MM14+Lip13a+Lip13b+MM12                             
  201.104 126%   8.786 MM09+Lip09                                          
  179.602 100%   7.847 MM20+Lip20                                          
   6 lines in following misc. output table
  FWHM = 0.061 ppm    S/N =   1                                            
  Data shift = 0.054 ppm                                                   
  Ph: -90 deg      16.9 deg/ppm                                            
  alphaB,S = 8.5E+01,   5.1E+01                                            
   14 spline knots.   Ns = 6(1)                                            
   2 inflections.     1 extrema                                            
  498 points on ppm-axis = NY
      4.000000     3.992357     3.984714     3.977070     3.969427     3.961784     3.954141     3.946497     3.938854     3.931211
      3.923568     3.915925     3.908281     3.900638     3.892995     3.885352     3.877708     3.870065     3.862422     3.854779
      3.847136     3.839492     3.831849     3.824206     3.816563     3.808919     3.801276     3.793633     3.785990     3.778347
      3.770703     3.763060     3.755417     3.747774     3.740130     3.732487     3.724844     3.717201     3.709558     3.701914
      3.694271     3.686628     3.678985     3.671341     3.663698     3.656055     3.648412     3.640769     3.633125     3.625482
      3.617839     3.610196     3.602552     3.594909     3.587266     3.579623     3.571980     3.564336     3.556693     3.549050
      3.541407     3.533763     3.526120     3.518477     3.510834     3.503191     3.495547     3.487904     3.480261     3.472618
      3.464974     3.457331     3.449688     3.442045     3.434402     3.426758     3.419115     3.411472     3.403829     3.396185
      3.388542     3.380899     3.373256     3.365613     3.357969     3.350326     3.342683     3.335040     3.327396     3.319753
      3.312110     3.304467     3.296824     3.289180     3.281537     3.273894     3.266251     3.258607     3.250964     3.243321
      3.235678     3.228034     3.220391     3.212748     3.205105     3.197462     3.189818     3.182175     3.174532     3.166889
      3.159245     3.151602     3.143959     3.136316     3.128673     3.121029     3.113386     3.105743     3.098100     3.090456
      3.082813     3.075170     3.067527     3.059884     3.052240     3.044597     3.036954     3.029311     3.021667     3.014024
      3.006381     2.998738     2.991095     2.983451     2.975808     2.968165     2.960522     2.952878     2.945235     2.937592
      2.929949     2.922306     2.914662     2.907019     2.899376     2.891733     2.884089     2.876446     2.868803     2.861160
      2.853517     2.845873     2.838230     2.830587     2.822944     2.815300     2.807657     2.800014     2.792371     2.784728
      2.777084     2.769441     2.761798     2.754155     2.746511     2.738868     2.731225     2.723582     2.715939     2.708295
      2.700652     2.693009     2.685366     2.677722     2.670079     2.662436     2.654793     2.647150     2.639506     2.631863
      2.624220     2.616577     2.608933     2.601290     2.593647     2.586004     2.578361     2.570717     2.563074     2.555431
      2.547788     2.540144     2.532501     2.524858     2.517215     2.509572     2.501928     2.494285     2.486642     2.478999
      2.471355     2.463712     2.456069     2.448426     2.440783     2.433139     2.425496     2.417853     2.410210     2.402566
      2.394923     2.387280     2.379637     2.371994     2.364350     2.356707     2.349064     2.341421     2.333777     2.326134
      2.318491     2.310848     2.303205     2.295561     2.287918     2.280275     2.272632     2.264988     2.257345     2.249702
      2.242059     2.234416     2.226772     2.219129     2.211486     2.203843     2.196199     2.188556     2.180913     2.173270
      2.165627     2.157983     2.150340     2.142697     2.135054     2.127410     2.119767     2.112124     2.104481     2.096838
      2.089194     2.081551     2.073908     2.066265     2.058621     2.050978     2.043335     2.035692     2.028049     2.020405
      2.012762     2.005119     1.997476     1.989833     1.982190     1.974546     1.966903     1.959260     1.951617     1.943974
      1.936331     1.928688     1.921045     1.913402     1.905759     1.898115     1.890472     1.882829     1.875186     1.867543
      1.859900     1.852257     1.844614     1.836971     1.829327     1.821684     1.814041     1.806398     1.798755     1.791112
      1.783469     1.775826     1.768183     1.760540     1.752896     1.745253     1.737610     1.729967     1.722324     1.714681
      1.707038     1.699395     1.691752     1.684108     1.676465     1.668822     1.661179     1.653536     1.645893     1.638250
      1.630607     1.622964     1.615321     1.607677     1.600034     1.592391     1.584748     1.577105     1.569462     1.561819
      1.554176     1.546533     1.538890     1.531246     1.523603     1.515960     1.508317     1.500674     1.493031     1.485388
      1.477745     1.470102     1.462458     1.454815     1.447172     1.439529     1.431886     1.424243     1.416600     1.408957
      1.401314     1.393671     1.386027     1.378384     1.370741     1.363098     1.355455     1.347812     1.340169     1.332526
      1.324883     1.317240     1.309596     1.301953     1.294310     1.286667     1.279024     1.271381     1.263738     1.256095
      1.248452     1.240808     1.233165     1.225522     1.217879     1.210236     1.202593     1.194950     1.187307     1.179664
      1.172021     1.164377     1.156734     1.149091     1.141448     1.133805     1.126162     1.118519     1.110876     1.103233
      1.095590     1.087946     1.080303     1.072660     1.065017     1.057374     1.049731     1.042088     1.034445     1.026802
      1.019158     1.011515     1.003872     0.996229     0.988586     0.980943     0.973300     0.965657     0.958014     0.950371
      0.942727     0.935084     0.927441     0.919798     0.912155     0.904512     0.896869     0.889226     0.881583     0.873940
      0.866296     0.858653     0.851010     0.843367     0.835724     0.828081     0.820438     0.812795     0.805152     0.797508
      0.789865     0.782222     0.774579     0.766936     0.759293     0.751650     0.744007     0.736364     0.728721     0.721077
      0.713434     0.705791     0.698148     0.690505     0.682862     0.675219     0.667576     0.659933     0.652290     0.644646
      0.637003     0.629360     0.621717     0.614074     0.606431     0.598788     0.591145     0.583502     0.575858     0.568215
      0.560572     0.552929     0.545286     0.537643     0.530000     0.522357     0.514714     0.507071     0.499427     0.491784
      0.484141     0.476498     0.468855     0.461212     0.453569     0.445925     0.438282     0.430639     0.422996     0.415353
      0.407710     0.400067     0.392424     0.384780     0.377137     0.369494     0.361851     0.354208     0.346565     0.338922
      0.331278     0.323635     0.315992     0.308349     0.300706     0.293063     0.285420     0.277777     0.270133     0.262490
      0.254847     0.247204     0.239561     0.231918     0.224275     0.216631     0.208988     0.201345
 NY phased data points follow
  -2.03631E+00  1.04205E+01  5.21973E+00  3.11036E+01  8.55043E+00 -1.44168E+00  4.92621E+00  1.90409E+01  1.79621E+01  1.35127E+01
  -1.45871E+01 -2.55711E+00  4.02300E+00  1.69000E+00 -6.44960E+00  1.05925E+01  1.20739E+01  1.01483E+00  4.77974E+00  4.46868E+00
   5.39351E+00  8.20779E-01 -9.71441E+00  5.47802E+00  1.64215E+01  7.24202E+00  9.76977E+00  5.88134E+00  1.72431E+01  1.07706E+01
   4.06521E-01  3.06343E+00  2.64221E+00 -9.27893E+00  1.16718E+01  5.51110E+00  1.32002E+00  8.80517E+00  3.14167E+00  7.96267E+00
   2.35605E+00  3.72864E+00  5.92189E+00 -1.10482E+00 -5.14428E+00  1.74717E+00 -5.19764E+00  3.29578E+00  3.76421E+00  3.14494E+00
  -1.22554E+01  2.30726E+00 -6.94731E+00  3.30876E+00  1.22747E+01 -4.90861E+00  5.34963E+00  4.06918E+00  9.55218E+00  1.39990E+00
  -7.75285E+00  1.18663E+01  6.67154E+00  9.71038E+00  1.46842E+00  7.33489E+00  1.69859E+01 -2.85113E+00  1.90107E+00 -1.08518E+01
  -2.71321E+00 -1.31559E+01  3.41368E+00 -1.05782E+01  8.36383E+00 -1.18667E+01  8.60566E+00 -8.85059E-01 -1.16130E+01 -1.98990E+01
   7.09769E+00 -4.36154E+00 -4.30045E+00  2.74300E+00 -1.99873E+01 -7.89509E+00 -6.21327E+00 -2.03926E+00  1.28419E+00 -1.50789E+01
  -2.72995E+00  1.78103E+00 -7.75721E+00 -6.10253E+00  5.62674E+00 -1.43503E+00  2.31303E+00  1.40606E+00  1.06613E+01  3.94450E+00
  -7.13762E+00 -2.63025E+00 -8.18434E+00  9.51768E+00 -9.59324E+00 -5.33616E+00  2.81402E+00 -7.95942E-01 -4.17298E-01  6.00090E+00
   9.05784E+00 -1.13239E+01  7.57795E+00  9.21479E+00 -5.88409E-01 -1.59936E+00  3.64098E-01 -3.51757E+00  1.30144E+01  1.05635E+01
   1.61439E+00  9.44534E+00  5.51941E+00 -1.94633E-01  5.87510E+00 -3.31854E+00 -6.37695E+00 -1.25533E+00 -1.14531E+01 -2.74542E+00
  -5.49934E+00  3.96487E+00  1.49928E+00 -1.32948E+00 -1.65111E+00 -4.17129E-01 -2.59751E+00 -1.06985E+01 -1.00872E+00 -6.06053E+00
   1.16278E+01  1.01148E+01 -3.98134E+00 -2.32915E+00  3.61497E+00  1.13413E+00 -1.22848E+01  6.59096E+00 -4.77036E+00 -7.67722E-01
  -1.90939E+00  4.64038E+00 -7.88129E+00  2.09472E+00 -1.09172E+01 -7.75867E+00 -6.48789E+00 -1.99487E+01  5.80828E+00 -2.74852E+00
  -1.27700E-01  1.88570E+01 -3.04174E+00 -5.15691E+00  4.27123E+00  3.69678E+00 -1.42199E+01 -2.71429E+00  1.00472E+01 -7.80620E+00
   4.73174E+00 -4.42225E-01  1.60075E+01  4.05798E+00 -3.50234E+00  4.47006E+00 -2.15867E+00  7.88166E+00  1.08290E+01  3.64632E+00
  -7.07639E+00 -6.36368E+00 -4.80422E+00  5.91903E+00  5.93988E+00 -1.14965E+01  1.70141E+01  1.75151E+00 -4.72838E+00  1.15832E+01
   1.36447E+01  3.97928E+00 -1.11973E+00  8.14373E-01  6.95393E+00 -3.09015E+00 -3.87628E+00  7.80627E+00 -1.32070E+00 -9.09764E+00
  -6.05840E+00  9.60388E+00  9.34401E+00 -6.82231E+00  5.39155E+00  4.23250E+00  3.13592E+00  3.40676E+00  1.35449E+01  3.28143E-01
  -1.63048E+00  1.13092E+01  6.73763E+00 -1.42631E+01  5.90591E+00 -4.90564E+00 -8.36557E+00  1.67225E-01  7.75496E+00  9.27570E+00
  -9.13244E+00 -7.13447E+00 -5.04185E+00  8.37080E+00  1.57684E+01  6.52199E+00  5.74161E+00  2.90075E+00  1.72012E+01  2.01737E+00
  -9.24805E+00  8.79854E+00  1.47471E-01  5.12374E-01  2.22374E+00 -5.63521E+00 -3.42060E+00  1.40210E+01  5.21938E+00 -1.49493E+00
   1.77987E+01  7.65765E+00 -1.27132E+01  4.09308E+00 -1.13992E+00  1.65684E+01  1.11053E+01  3.31393E+00 -1.24254E+00  7.71286E+00
   1.06741E+01  1.00756E+01  2.42469E+01 -8.89724E+00  4.57289E+00 -1.12242E+01 -1.76540E+01 -8.79380E+00 -1.59978E+01 -2.79596E+01
   2.57175E+00 -1.71582E+01 -2.46399E+01 -8.97214E+00 -9.02350E+00  1.69619E+00  4.46030E+00  9.48170E-01  6.05888E+00  8.78440E+00
   7.01423E+00 -4.83621E+00 -1.15028E+01  8.15240E+00  1.04787E+01 -1.71605E+01  1.20656E+01  1.33642E+00 -1.89570E+00  2.94415E+00
   5.48877E+00  9.71171E+00 -1.70477E+00  1.77447E-01  7.58909E+00  4.10156E-01  1.52131E+00  9.20841E-01 -1.35472E+01 -8.17955E+00
  -3.68195E+00 -4.01885E+00  1.38560E+00  2.07072E+01 -2.09172E+00  3.15146E+00  1.30363E+01  1.03400E+01  1.80438E+01  1.62061E+00
   2.34245E+01  1.50714E+01  6.16612E+00  3.41196E+01  2.19591E+00  2.38751E+01  1.91000E+01  2.68714E+01  8.60159E+00  1.00873E+01
   1.16397E+01  9.64979E+00 -3.64162E-01  1.80658E+01  1.92535E+01  8.75945E+00  2.86466E+01  2.37652E+01  3.05762E+01  6.19843E+00
   1.48273E+01  3.84434E+01  1.63247E+01  2.21074E+01  5.82234E+00  3.04993E-01  2.21516E+01  4.65268E-01  8.87315E+00  9.70019E+00
   1.27895E+01  1.40197E+01  1.00784E+01  5.75643E+00  1.95744E+01  1.88982E+01  1.43837E+01  1.49670E+01  1.09560E+00  2.92004E+01
   8.77207E+00  2.44809E+01  1.62533E+01  3.41409E+00  7.48442E+00  7.84642E+00  1.14500E+01  5.92986E+00  2.13532E+01  2.47158E+01
   1.57228E+01  5.56875E+00  9.20410E+00  3.75208E+00  1.77849E+01  5.05216E+00  9.15666E-01  1.83602E+01  3.06862E+00  9.39367E+00
   1.20399E+01  2.99720E+01  1.56768E+01  6.81805E+00  1.09653E+01  8.82977E+00  1.96595E+01  1.59481E+01  2.50745E+01  1.95197E+01
   9.69967E+00  1.63716E+01  2.08931E+00  1.03477E+01  1.03774E+01  1.80921E+01  9.20274E+00  1.42329E+01  1.32586E+01  7.04414E+00
   7.30277E-02 -1.44878E+00  3.22070E+00 -6.54261E+00 -8.57416E+00  6.63771E+00 -8.10976E+00  3.94038E+00 -1.75742E+00 -1.55473E+01
   4.51235E+00  6.54187E-01  1.08687E+00  1.08555E+01 -3.54716E+00  6.07000E+00  1.48267E+00  4.65697E+00 -5.75977E-01 -4.21729E+00
   1.17009E+01  8.62214E+00  9.66626E+00  1.29530E+01 -1.01732E+01 -1.09095E+01  8.74603E-01  5.91871E+00  8.39172E+00 -7.29211E+00
  -7.09941E+00 -1.05097E+01  2.26311E+00 -5.53984E+00 -3.61377E+00  1.02109E+01 -1.16828E+01 -4.86003E+00  1.57411E+00 -8.08030E+00
   6.56760E+00  2.91676E+00  2.35214E+00  6.39320E-01 -9.26600E+00 -1.20763E+01  1.31306E+01  1.44666E+00  3.72560E-01 -2.57613E+00
  -1.21136E+01 -1.55665E+01 -7.37656E+00  1.37739E+00  5.51844E-01  5.61768E+00 -7.51929E-02  2.08584E+01  7.72691E+00  1.19500E+01
   2.69332E-01 -3.24056E+00 -2.00167E+00  1.22211E+00 -1.18074E+01 -1.46079E+01  1.50856E+01  4.83795E+00  1.73813E+01  9.96437E-01
   2.28003E+00  7.77990E+00  1.34955E+01 -4.18972E+00  8.92137E+00  7.54385E+00  1.17670E+01 -1.15721E+01  3.99768E+00  9.81026E+00
  -4.01518E+00  2.14330E-01 -5.54326E+00 -2.45113E-01 -5.62090E+00 -8.50839E+00  8.37320E+00  7.75809E+00 -2.20603E+00  9.20870E-01
   8.29910E+00 -4.42417E+00 -4.38580E-01  7.17158E+00  1.39103E+00  1.15194E-01 -1.92390E+00 -4.80668E+00 -1.11303E+00  8.91191E+00
  -7.70040E+00  2.27872E+00 -5.32167E+00  4.87579E+00  2.48802E-01  8.79878E+00 -2.74076E+00  2.09068E+00  1.21937E+00  8.02171E+00
   5.06451E+00  1.06393E+01  7.92058E+00  1.55142E+01  1.52503E+01  1.59651E-01 -6.69632E-02  2.34125E+00
 NY points of the fit to the data follow
   8.31494E-01  7.43020E-01  6.90256E-01  7.03740E-01  7.79475E-01  8.72449E-01  9.51930E-01  1.00482E+00  1.02614E+00  1.01658E+00
   9.80210E-01  9.06790E-01  7.77666E-01  6.36516E-01  5.32920E-01  5.01721E-01  5.75951E-01  7.58145E-01  9.76418E-01  1.20709E+00
   1.33662E+00  1.30326E+00  1.17841E+00  1.28045E+00  2.24712E+00  3.80237E+00  5.29345E+00  6.47303E+00  7.26609E+00  7.57554E+00
   7.39791E+00  6.92948E+00  6.34745E+00  5.67456E+00  4.77330E+00  3.62510E+00  2.43581E+00  1.51576E+00  1.06227E+00  8.29586E-01
   6.73854E-01  6.84735E-01  8.92312E-01  1.18902E+00  1.45770E+00  1.66207E+00  1.78149E+00  1.78659E+00  1.67038E+00  1.47524E+00
   1.25971E+00  1.04932E+00  8.46455E-01  6.78907E-01  5.97776E-01  6.36202E-01  7.77582E-01  9.41460E-01  1.05979E+00  1.10887E+00
   1.09275E+00  1.03449E+00  9.60930E-01  8.93470E-01  8.40545E-01  8.02815E-01  7.95967E-01  8.25879E-01  8.82291E-01  9.46209E-01
   1.00310E+00  1.03905E+00  1.04867E+00  1.03476E+00  1.00424E+00  9.66301E-01  9.25802E-01  8.84148E-01  8.43217E-01  8.07707E-01
   7.77416E-01  7.25636E-01  6.36453E-01  5.12897E-01  3.78188E-01  2.57583E-01  1.69502E-01  1.25618E-01  1.31169E-01  1.78294E-01
   2.57990E-01  3.56385E-01  4.48688E-01  5.17021E-01  5.51553E-01  5.46887E-01  5.07723E-01  4.44990E-01  3.74379E-01  3.09597E-01
   2.62294E-01  2.35984E-01  2.32525E-01  2.50291E-01  2.86867E-01  3.33742E-01  3.80366E-01  4.23756E-01  4.64539E-01  5.02879E-01
   5.37529E-01  5.68753E-01  5.99490E-01  6.26771E-01  6.35664E-01  6.24166E-01  6.00664E-01  5.75530E-01  5.66567E-01  5.98269E-01
   6.86404E-01  8.60589E-01  1.08432E+00  1.30490E+00  1.49828E+00  1.66803E+00  1.84680E+00  2.11892E+00  2.49548E+00  2.77643E+00
   2.79262E+00  2.51054E+00  1.97217E+00  1.33882E+00  8.07316E-01  5.24164E-01  5.38923E-01  7.44715E-01  1.02107E+00  1.29823E+00
   1.57066E+00  1.85568E+00  2.11983E+00  2.28486E+00  2.31421E+00  2.20774E+00  1.98748E+00  1.71787E+00  1.45680E+00  1.23899E+00
   1.09466E+00  1.00491E+00  9.53598E-01  9.27893E-01  9.18078E-01  9.18648E-01  9.27638E-01  9.43250E-01  9.57376E-01  9.65007E-01
   9.61946E-01  9.47199E-01  9.22563E-01  8.92965E-01  8.69675E-01  8.56807E-01  8.54071E-01  8.63671E-01  8.81180E-01  8.91916E-01
   8.85939E-01  8.62190E-01  8.22821E-01  7.70614E-01  7.08754E-01  6.41645E-01  5.73164E-01  5.04530E-01  4.39193E-01  3.42747E-01
   2.13501E-01  7.96959E-02 -3.61076E-02 -9.48728E-02 -2.29994E-02  2.30568E-01  6.43972E-01  1.11193E+00  1.51028E+00  1.75951E+00
   1.81134E+00  1.60558E+00  1.14301E+00  6.17318E-01  1.99361E-01 -6.03825E-02 -1.70159E-01 -1.36371E-01  3.06728E-02  2.94608E-01
   6.05284E-01  9.15505E-01  1.20308E+00  1.45336E+00  1.62430E+00  1.67753E+00  1.63933E+00  1.59426E+00  1.55614E+00  1.50766E+00
   1.45297E+00  1.40227E+00  1.36156E+00  1.33267E+00  1.31582E+00  1.31119E+00  1.31968E+00  1.33986E+00  1.36822E+00  1.40349E+00
   1.44414E+00  1.48568E+00  1.52149E+00  1.54821E+00  1.55311E+00  1.46621E+00  1.24868E+00  9.90394E-01  7.92463E-01  7.15319E-01
   8.02572E-01  1.10779E+00  1.59684E+00  2.04125E+00  2.26305E+00  2.22941E+00  1.98917E+00  1.59964E+00  1.10961E+00  6.32639E-01
   3.12381E-01  1.99371E-01  2.55233E-01  4.36506E-01  7.25506E-01  1.09298E+00  1.44617E+00  1.67894E+00  1.77384E+00  1.76736E+00
   1.68688E+00  1.55142E+00  1.39541E+00  1.27806E+00  1.22782E+00  1.22491E+00  1.25157E+00  1.29857E+00  1.35732E+00  1.41476E+00
   1.45719E+00  1.48283E+00  1.49547E+00  1.50216E+00  1.50566E+00  1.50735E+00  1.50822E+00  1.50896E+00  1.51020E+00  1.51277E+00
   1.51763E+00  1.52551E+00  1.53700E+00  1.55271E+00  1.57332E+00  1.59936E+00  1.63149E+00  1.67069E+00  1.71827E+00  1.77586E+00
   1.84538E+00  1.92905E+00  2.02948E+00  2.14964E+00  2.29296E+00  2.46331E+00  2.66499E+00  2.90270E+00  3.18148E+00  3.50594E+00
   3.88029E+00  4.30823E+00  4.79250E+00  5.33450E+00  5.93390E+00  6.58828E+00  7.29283E+00  8.04008E+00  8.81987E+00  9.61940E+00
   1.04236E+01  1.12158E+01  1.19782E+01  1.26927E+01  1.33418E+01  1.39098E+01  1.43834E+01  1.47531E+01  1.50133E+01  1.51635E+01
   1.52076E+01  1.51545E+01  1.50176E+01  1.48144E+01  1.45657E+01  1.42958E+01  1.40320E+01  1.38062E+01  1.36595E+01  1.36576E+01
   1.39464E+01  1.46589E+01  1.52701E+01  1.53066E+01  1.47186E+01  1.36227E+01  1.21574E+01  1.04503E+01  8.67237E+00  7.44320E+00
   7.16460E+00  7.66021E+00  8.66760E+00  1.00301E+01  1.16216E+01  1.32118E+01  1.44418E+01  1.52396E+01  1.56975E+01  1.58481E+01
   1.56653E+01  1.51595E+01  1.44837E+01  1.39453E+01  1.36197E+01  1.34010E+01  1.32400E+01  1.31150E+01  1.30135E+01  1.29266E+01
   1.28469E+01  1.27677E+01  1.26826E+01  1.25855E+01  1.24707E+01  1.23332E+01  1.21685E+01  1.19733E+01  1.17454E+01  1.14838E+01
   1.11886E+01  1.08612E+01  1.05041E+01  1.01208E+01  9.71558E+00  9.29319E+00  8.85884E+00  8.41786E+00  7.97548E+00  7.53671E+00
   7.10613E+00  6.68785E+00  6.28535E+00  5.90153E+00  5.53861E+00  5.19823E+00  4.88144E+00  4.58878E+00  4.32035E+00  4.07590E+00
   3.85485E+00  3.65641E+00  3.47964E+00  3.32349E+00  3.18685E+00  3.06859E+00  2.96756E+00  2.88265E+00  2.81274E+00  2.75674E+00
   2.71357E+00  2.68212E+00  2.66127E+00  2.64984E+00  2.64660E+00  2.65027E+00  2.65945E+00  2.67273E+00  2.68861E+00  2.70556E+00
   2.72204E+00  2.73658E+00  2.74774E+00  2.75421E+00  2.75487E+00  2.74877E+00  2.73521E+00  2.71375E+00  2.68423E+00  2.64674E+00
   2.60166E+00  2.54958E+00  2.49131E+00  2.42780E+00  2.36011E+00  2.28937E+00  2.21670E+00  2.14321E+00  2.06992E+00  1.99776E+00
   1.92751E+00  1.85984E+00  1.79527E+00  1.73417E+00  1.67679E+00  1.62326E+00  1.57360E+00  1.52775E+00  1.48560E+00  1.44696E+00
   1.41162E+00  1.37936E+00  1.34993E+00  1.32310E+00  1.29862E+00  1.27627E+00  1.25585E+00  1.23716E+00  1.22001E+00  1.20426E+00
   1.18976E+00  1.17638E+00  1.16401E+00  1.15254E+00  1.14189E+00  1.13198E+00  1.12275E+00  1.11413E+00  1.10606E+00  1.09849E+00
   1.09139E+00  1.08472E+00  1.07845E+00  1.07254E+00  1.06696E+00  1.06169E+00  1.05672E+00  1.05202E+00  1.04757E+00  1.04336E+00
   1.03936E+00  1.03557E+00  1.03197E+00  1.02856E+00  1.02532E+00  1.02224E+00  1.01931E+00  1.01652E+00  1.01387E+00  1.01136E+00
   1.00896E+00  1.00668E+00  1.00451E+00  1.00245E+00  1.00049E+00  9.98632E-01  9.96861E-01  9.95177E-01  9.93577E-01  9.92060E-01
   9.90622E-01  9.89258E-01  9.87963E-01  9.86735E-01  9.85575E-01  9.84480E-01  9.83448E-01  9.82473E-01  9.81554E-01  9.80690E-01
   9.79882E-01  9.79129E-01  9.78427E-01  9.77773E-01  9.77166E-01  9.76609E-01  9.76102E-01  9.75644E-01
 NY background values follow
     2.928E-01    2.939E-01    2.951E-01    2.962E-01    2.973E-01    2.985E-01    2.996E-01    3.008E-01    3.019E-01    3.030E-01
     3.042E-01    3.053E-01    3.065E-01    3.076E-01    3.087E-01    3.099E-01    3.110E-01    3.122E-01    3.133E-01    3.144E-01
     3.156E-01    3.167E-01    3.179E-01    3.190E-01    3.201E-01    3.213E-01    3.224E-01    3.236E-01    3.247E-01    3.259E-01
     3.270E-01    3.281E-01    3.293E-01    3.304E-01    3.316E-01    3.327E-01    3.338E-01    3.350E-01    3.361E-01    3.373E-01
     3.384E-01    3.395E-01    3.407E-01    3.418E-01    3.430E-01    3.441E-01    3.452E-01    3.464E-01    3.475E-01    3.487E-01
     3.498E-01    3.509E-01    3.521E-01    3.532E-01    3.544E-01    3.555E-01    3.566E-01    3.578E-01    3.589E-01    3.601E-01
     3.612E-01    3.623E-01    3.635E-01    3.646E-01    3.658E-01    3.669E-01    3.680E-01    3.692E-01    3.703E-01    3.715E-01
     3.726E-01    3.738E-01    3.749E-01    3.760E-01    3.772E-01    3.783E-01    3.795E-01    3.806E-01    3.817E-01    3.829E-01
     3.840E-01    3.852E-01    3.863E-01    3.874E-01    3.886E-01    3.897E-01    3.909E-01    3.920E-01    3.931E-01    3.943E-01
     3.954E-01    3.966E-01    3.977E-01    3.988E-01    4.000E-01    4.011E-01    4.023E-01    4.034E-01    4.045E-01    4.057E-01
     4.068E-01    4.080E-01    4.091E-01    4.103E-01    4.114E-01    4.125E-01    4.137E-01    4.148E-01    4.160E-01    4.171E-01
     4.182E-01    4.194E-01    4.205E-01    4.217E-01    4.228E-01    4.239E-01    4.251E-01    4.262E-01    4.274E-01    4.285E-01
     4.297E-01    4.308E-01    4.319E-01    4.331E-01    4.342E-01    4.354E-01    4.365E-01    4.376E-01    4.388E-01    4.399E-01
     4.411E-01    4.422E-01    4.433E-01    4.445E-01    4.456E-01    4.468E-01    4.479E-01    4.491E-01    4.502E-01    4.513E-01
     4.525E-01    4.536E-01    4.548E-01    4.559E-01    4.570E-01    4.582E-01    4.593E-01    4.605E-01    4.616E-01    4.627E-01
     4.639E-01    4.650E-01    4.662E-01    4.673E-01    4.685E-01    4.696E-01    4.707E-01    4.719E-01    4.730E-01    4.742E-01
     4.753E-01    4.764E-01    4.776E-01    4.787E-01    4.799E-01    4.810E-01    4.822E-01    4.833E-01    4.844E-01    4.856E-01
     4.867E-01    4.879E-01    4.890E-01    4.901E-01    4.913E-01    4.924E-01    4.936E-01    4.947E-01    4.959E-01    4.970E-01
     4.981E-01    4.993E-01    5.004E-01    5.016E-01    5.027E-01    5.038E-01    5.050E-01    5.061E-01    5.073E-01    5.084E-01
     5.096E-01    5.107E-01    5.118E-01    5.130E-01    5.141E-01    5.153E-01    5.164E-01    5.176E-01    5.187E-01    5.198E-01
     5.210E-01    5.221E-01    5.233E-01    5.244E-01    5.255E-01    5.267E-01    5.278E-01    5.290E-01    5.301E-01    5.313E-01
     5.324E-01    5.335E-01    5.347E-01    5.358E-01    5.370E-01    5.381E-01    5.393E-01    5.404E-01    5.415E-01    5.427E-01
     5.438E-01    5.450E-01    5.461E-01    5.472E-01    5.484E-01    5.495E-01    5.507E-01    5.518E-01    5.530E-01    5.541E-01
     5.552E-01    5.564E-01    5.575E-01    5.587E-01    5.598E-01    5.610E-01    5.621E-01    5.632E-01    5.644E-01    5.655E-01
     5.667E-01    5.678E-01    5.690E-01    5.701E-01    5.712E-01    5.724E-01    5.735E-01    5.747E-01    5.758E-01    5.770E-01
     5.781E-01    5.792E-01    5.804E-01    5.815E-01    5.827E-01    5.838E-01    5.849E-01    5.861E-01    5.872E-01    5.884E-01
     5.895E-01    5.907E-01    5.918E-01    5.929E-01    5.941E-01    5.952E-01    5.964E-01    5.975E-01    5.987E-01    5.998E-01
     6.009E-01    6.021E-01    6.032E-01    6.044E-01    6.055E-01    6.067E-01    6.078E-01    6.089E-01    6.101E-01    6.112E-01
     6.124E-01    6.135E-01    6.147E-01    6.158E-01    6.169E-01    6.181E-01    6.192E-01    6.204E-01    6.215E-01    6.227E-01
     6.238E-01    6.249E-01    6.261E-01    6.272E-01    6.284E-01    6.295E-01    6.307E-01    6.318E-01    6.329E-01    6.341E-01
     6.352E-01    6.364E-01    6.375E-01    6.387E-01    6.398E-01    6.409E-01    6.421E-01    6.432E-01    6.444E-01    6.455E-01
     6.467E-01    6.478E-01    6.489E-01    6.501E-01    6.512E-01    6.524E-01    6.535E-01    6.547E-01    6.558E-01    6.570E-01
     6.581E-01    6.592E-01    6.604E-01    6.615E-01    6.627E-01    6.638E-01    6.650E-01    6.661E-01    6.672E-01    6.684E-01
     6.695E-01    6.707E-01    6.718E-01    6.730E-01    6.741E-01    6.752E-01    6.764E-01    6.775E-01    6.787E-01    6.798E-01
     6.810E-01    6.821E-01    6.832E-01    6.844E-01    6.855E-01    6.867E-01    6.878E-01    6.890E-01    6.901E-01    6.912E-01
     6.924E-01    6.935E-01    6.947E-01    6.958E-01    6.970E-01    6.981E-01    6.992E-01    7.004E-01    7.015E-01    7.027E-01
     7.038E-01    7.050E-01    7.061E-01    7.073E-01    7.084E-01    7.095E-01    7.107E-01    7.118E-01    7.130E-01    7.141E-01
     7.153E-01    7.164E-01    7.175E-01    7.187E-01    7.198E-01    7.210E-01    7.221E-01    7.233E-01    7.244E-01    7.255E-01
     7.267E-01    7.278E-01    7.290E-01    7.301E-01    7.313E-01    7.324E-01    7.336E-01    7.347E-01    7.358E-01    7.370E-01
     7.381E-01    7.393E-01    7.404E-01    7.416E-01    7.427E-01    7.438E-01    7.450E-01    7.461E-01    7.473E-01    7.484E-01
     7.496E-01    7.507E-01    7.518E-01    7.530E-01    7.541E-01    7.553E-01    7.564E-01    7.576E-01    7.587E-01    7.599E-01
     7.610E-01    7.621E-01    7.633E-01    7.644E-01    7.656E-01    7.667E-01    7.679E-01    7.690E-01    7.701E-01    7.713E-01
     7.724E-01    7.736E-01    7.747E-01    7.759E-01    7.770E-01    7.781E-01    7.793E-01    7.804E-01    7.816E-01    7.827E-01
     7.839E-01    7.850E-01    7.862E-01    7.873E-01    7.884E-01    7.896E-01    7.907E-01    7.919E-01    7.930E-01    7.942E-01
     7.953E-01    7.964E-01    7.976E-01    7.987E-01    7.999E-01    8.010E-01    8.022E-01    8.033E-01    8.045E-01    8.056E-01
     8.067E-01    8.079E-01    8.090E-01    8.102E-01    8.113E-01    8.125E-01    8.136E-01    8.147E-01    8.159E-01    8.170E-01
     8.182E-01    8.193E-01    8.205E-01    8.216E-01    8.228E-01    8.239E-01    8.250E-01    8.262E-01    8.273E-01    8.285E-01
     8.296E-01    8.308E-01    8.319E-01    8.330E-01    8.342E-01    8.353E-01    8.365E-01    8.376E-01    8.388E-01    8.399E-01
     8.411E-01    8.422E-01    8.433E-01    8.445E-01    8.456E-01    8.468E-01    8.479E-01    8.491E-01    8.502E-01    8.513E-01
     8.525E-01    8.536E-01    8.548E-01    8.559E-01    8.571E-01    8.582E-01    8.594E-01    8.605E-01
 Ala      Conc. = 4.41E+02
