 LCModel (Version 6.3-1L) Copyright: S.W. Provencher.          Ref.: Magn. Reson. Med. 30:672-679 (1993).                
 Slice#1 Row#5 Col#11  PD_05_press_2_raw_act
 36 lines in following concentration table = NCONC+1
    Conc.  %SD /Cr+PCr  Metabolite                                         
 5.68E+03  24%   8.652 Ala                                                 
    0.000 999%   0.000 Asp                                                 
  656.331  24%   1.000 Cr                                                  
    0.000 999%   0.000 PCr                                                 
  150.682 113%   0.230 GABA                                                
  148.990 113%   0.227 Glc                                                 
 4.05E+03  35%   6.177 Gln                                                 
    0.000 999%   0.000 Glu                                                 
  198.743  30%   0.303 GPC                                                 
    0.000 999%   0.000 PCh                                                 
  499.383  49%   0.761 GSH                                                 
 1.60E+03  38%   2.432 Ins                                                 
 4.40E+03  46%   6.701 Lac                                                 
 3.51E+03   7%   5.351 NAA                                                 
    0.000 999%   0.000 NAAG                                                
   90.226  52%   0.137 Scyllo                                              
  349.122  74%   0.532 Tau                                                 
  121.224 141%   0.185 -CrCH2                                              
  198.743  30%   0.303 GPC+PCh                                             
 3.51E+03   7%   5.351 NAA+NAAG                                            
  656.331  24%   1.000 Cr+PCr                                              
 4.05E+03  35%   6.177 Glu+Gln                                             
 4.27E+03  55%   6.504 Lip13a                                              
  621.894  81%   0.948 Lip13b                                              
 1.15E+03  50%   1.757 Lip09                                               
 1.70E+03  29%   2.585 MM09                                                
  869.714  42%   1.325 Lip20                                               
 1.63E+03  52%   2.479 MM20                                                
  458.199  60%   0.698 MM12                                                
 6.49E+03   7%   9.882+MM14                                                
  823.583  43%   1.255 MM17                                                
 4.89E+03  39%   7.452 Lip13a+Lip13b                                       
 1.18E+04  15%  18.032 MM14+Lip13a+Lip13b+MM12                             
 2.85E+03  10%   4.342 MM09+Lip09                                          
 2.50E+03  29%   3.804 MM20+Lip20                                          
   6 lines in following misc. output table
  FWHM = 0.138 ppm    S/N =   6                                            
  Data shift =-0.046 ppm                                                   
  Ph: -45 deg     -14.5 deg/ppm                                            
  alphaB,S = 8.5E+01,   3.3E+02                                            
   12 spline knots.   Ns = 9(2)                                            
   2 inflections.     1 extrema                                            
  498 points on ppm-axis = NY
      4.000000     3.992357     3.984714     3.977070     3.969427     3.961784     3.954141     3.946497     3.938854     3.931211
      3.923568     3.915925     3.908281     3.900638     3.892995     3.885352     3.877708     3.870065     3.862422     3.854779
      3.847136     3.839492     3.831849     3.824206     3.816563     3.808919     3.801276     3.793633     3.785990     3.778347
      3.770703     3.763060     3.755417     3.747774     3.740130     3.732487     3.724844     3.717201     3.709558     3.701914
      3.694271     3.686628     3.678985     3.671341     3.663698     3.656055     3.648412     3.640769     3.633125     3.625482
      3.617839     3.610196     3.602552     3.594909     3.587266     3.579623     3.571980     3.564336     3.556693     3.549050
      3.541407     3.533763     3.526120     3.518477     3.510834     3.503191     3.495547     3.487904     3.480261     3.472618
      3.464974     3.457331     3.449688     3.442045     3.434402     3.426758     3.419115     3.411472     3.403829     3.396185
      3.388542     3.380899     3.373256     3.365613     3.357969     3.350326     3.342683     3.335040     3.327396     3.319753
      3.312110     3.304467     3.296824     3.289180     3.281537     3.273894     3.266251     3.258607     3.250964     3.243321
      3.235678     3.228034     3.220391     3.212748     3.205105     3.197462     3.189818     3.182175     3.174532     3.166889
      3.159245     3.151602     3.143959     3.136316     3.128673     3.121029     3.113386     3.105743     3.098100     3.090456
      3.082813     3.075170     3.067527     3.059884     3.052240     3.044597     3.036954     3.029311     3.021667     3.014024
      3.006381     2.998738     2.991095     2.983451     2.975808     2.968165     2.960522     2.952878     2.945235     2.937592
      2.929949     2.922306     2.914662     2.907019     2.899376     2.891733     2.884089     2.876446     2.868803     2.861160
      2.853517     2.845873     2.838230     2.830587     2.822944     2.815300     2.807657     2.800014     2.792371     2.784728
      2.777084     2.769441     2.761798     2.754155     2.746511     2.738868     2.731225     2.723582     2.715939     2.708295
      2.700652     2.693009     2.685366     2.677722     2.670079     2.662436     2.654793     2.647150     2.639506     2.631863
      2.624220     2.616577     2.608933     2.601290     2.593647     2.586004     2.578361     2.570717     2.563074     2.555431
      2.547788     2.540144     2.532501     2.524858     2.517215     2.509572     2.501928     2.494285     2.486642     2.478999
      2.471355     2.463712     2.456069     2.448426     2.440783     2.433139     2.425496     2.417853     2.410210     2.402566
      2.394923     2.387280     2.379637     2.371994     2.364350     2.356707     2.349064     2.341421     2.333777     2.326134
      2.318491     2.310848     2.303205     2.295561     2.287918     2.280275     2.272632     2.264988     2.257345     2.249702
      2.242059     2.234416     2.226772     2.219129     2.211486     2.203843     2.196199     2.188556     2.180913     2.173270
      2.165627     2.157983     2.150340     2.142697     2.135054     2.127410     2.119767     2.112124     2.104481     2.096838
      2.089194     2.081551     2.073908     2.066265     2.058621     2.050978     2.043335     2.035692     2.028049     2.020405
      2.012762     2.005119     1.997476     1.989833     1.982190     1.974546     1.966903     1.959260     1.951617     1.943974
      1.936331     1.928688     1.921045     1.913402     1.905759     1.898115     1.890472     1.882829     1.875186     1.867543
      1.859900     1.852257     1.844614     1.836971     1.829327     1.821684     1.814041     1.806398     1.798755     1.791112
      1.783469     1.775826     1.768183     1.760540     1.752896     1.745253     1.737610     1.729967     1.722324     1.714681
      1.707038     1.699395     1.691752     1.684108     1.676465     1.668822     1.661179     1.653536     1.645893     1.638250
      1.630607     1.622964     1.615321     1.607677     1.600034     1.592391     1.584748     1.577105     1.569462     1.561819
      1.554176     1.546533     1.538890     1.531246     1.523603     1.515960     1.508317     1.500674     1.493031     1.485388
      1.477745     1.470102     1.462458     1.454815     1.447172     1.439529     1.431886     1.424243     1.416600     1.408957
      1.401314     1.393671     1.386027     1.378384     1.370741     1.363098     1.355455     1.347812     1.340169     1.332526
      1.324883     1.317240     1.309596     1.301953     1.294310     1.286667     1.279024     1.271381     1.263738     1.256095
      1.248452     1.240808     1.233165     1.225522     1.217879     1.210236     1.202593     1.194950     1.187307     1.179664
      1.172021     1.164377     1.156734     1.149091     1.141448     1.133805     1.126162     1.118519     1.110876     1.103233
      1.095590     1.087946     1.080303     1.072660     1.065017     1.057374     1.049731     1.042088     1.034445     1.026802
      1.019158     1.011515     1.003872     0.996229     0.988586     0.980943     0.973300     0.965657     0.958014     0.950371
      0.942727     0.935084     0.927441     0.919798     0.912155     0.904512     0.896869     0.889226     0.881583     0.873940
      0.866296     0.858653     0.851010     0.843367     0.835724     0.828081     0.820438     0.812795     0.805152     0.797508
      0.789865     0.782222     0.774579     0.766936     0.759293     0.751650     0.744007     0.736364     0.728721     0.721077
      0.713434     0.705791     0.698148     0.690505     0.682862     0.675219     0.667576     0.659933     0.652290     0.644646
      0.637003     0.629360     0.621717     0.614074     0.606431     0.598788     0.591145     0.583502     0.575858     0.568215
      0.560572     0.552929     0.545286     0.537643     0.530000     0.522357     0.514714     0.507071     0.499427     0.491784
      0.484141     0.476498     0.468855     0.461212     0.453569     0.445925     0.438282     0.430639     0.422996     0.415353
      0.407710     0.400067     0.392424     0.384780     0.377137     0.369494     0.361851     0.354208     0.346565     0.338922
      0.331278     0.323635     0.315992     0.308349     0.300706     0.293063     0.285420     0.277777     0.270133     0.262490
      0.254847     0.247204     0.239561     0.231918     0.224275     0.216631     0.208988     0.201345
 NY phased data points follow
   5.21077E+00 -2.11115E+00  5.73791E+00  4.88925E+00  6.01611E+00  1.11354E+01 -2.39578E+00  7.93393E+00  4.36663E+00 -1.30822E+00
   5.83610E+00  6.20672E-01  5.44973E+00  5.55953E+00  1.51682E+01  2.81107E+00  6.60834E+00  1.35891E+01  1.58822E+01  1.89054E+01
   9.28846E+00  6.02816E+00  1.49621E+01  2.79283E+00  1.16976E+01  1.26240E+01  6.86913E+00 -3.14504E+00  7.21435E+00  1.13209E+01
   3.05290E+00  1.36377E+01  2.82181E-01  6.31607E+00  5.60876E+00  5.13917E+00  5.58257E+00  1.54428E+00  6.72434E+00  3.14580E+00
   1.80239E+00  1.37506E+00  2.69415E+00  1.27042E+01  8.02524E+00  5.39900E+00  1.97490E+00 -9.23162E-01  6.37637E+00  7.66060E+00
   5.98795E+00  7.62028E+00  9.95768E+00  6.25184E+00  1.40956E+01  1.26583E+01  1.04566E+01  1.40277E+01  6.48136E+00  1.35225E+01
   5.67680E+00  4.56339E+00  3.27662E+00  6.94602E+00  7.66374E+00  6.52541E+00  6.08822E+00  1.68003E+00  1.17704E+00  8.81968E+00
   2.06387E+00 -1.21116E-01  5.22757E+00  1.94725E+00  6.08746E+00  1.24719E-01  4.08286E-01 -1.81547E+00  2.20626E+00  1.19323E+01
   8.79295E+00  1.24692E+01 -1.87155E+00  6.60261E+00  9.14902E+00  2.32628E+00 -3.27904E-01  9.72816E+00  1.06075E+01  8.06024E+00
   7.44269E+00  7.24306E+00  2.22562E+00  9.22148E+00  1.01333E+01  2.99611E+00 -4.94591E+00  6.32061E+00  2.15165E+00  1.81822E+01
   1.09167E+01  1.22611E+01  4.31445E+00  6.44402E+00  6.93239E+00  3.71813E+00  4.45122E+00  1.82763E+00  3.63327E+00  1.31861E+01
   1.40264E+01  1.01590E+01  1.57289E+01  5.52647E-01  5.51771E+00  1.39824E+00  2.71650E+00  7.74990E+00  3.76998E+00 -3.45504E-01
   4.95959E+00  7.04268E+00  5.28941E+00  8.79451E+00  7.32281E+00  7.74416E+00  1.60053E+01  1.63322E+01  7.81192E+00  8.07685E+00
   2.23085E+00  9.36321E+00  1.38717E+01  5.95950E+00  1.61403E+01  1.78525E+01  1.29378E+01  9.73925E+00  1.19685E+01  6.31872E+00
   1.12665E+01  1.11484E+01  1.57134E+00  7.98409E+00  4.92229E+00  5.27817E+00 -4.78431E+00  8.10262E+00  7.83204E+00  5.21577E+00
   6.72274E-01  3.60668E+00  7.07521E+00  6.46548E+00  4.78526E+00  8.93609E+00  6.76004E+00  7.08737E+00  1.06021E+01  6.90991E+00
   1.25215E+01  6.97060E+00 -1.35785E+00 -4.15280E+00  2.34597E+00  7.84658E+00  1.21548E+00 -3.24624E+00  2.61118E+00 -4.31937E+00
  -1.05172E+01 -2.01292E+00 -2.27344E+00 -2.87365E+00 -3.41650E+00 -4.50079E+00 -9.47405E+00  7.14696E-01 -6.57727E+00 -4.75767E+00
  -7.86900E+00  6.03949E-01 -1.03924E+01 -8.72759E+00 -8.32091E+00  2.16533E+00 -3.96410E+00  3.52027E+00  4.25181E+00 -2.70130E+00
   5.00338E+00  7.20164E-01 -3.74216E+00 -1.28274E+01 -4.75929E+00 -1.02421E+00 -1.98259E+00 -9.57675E+00 -3.92351E+00 -3.84059E-01
  -2.51719E+00 -9.46704E+00 -9.77294E-02  5.45916E+00  4.89906E+00  2.17307E+00  1.09808E+01 -2.49665E+00  1.75707E+00 -9.48710E-01
   7.35273E+00  8.23489E+00 -2.61469E+00  7.79413E+00  5.82814E+00  5.97268E+00  7.59061E+00  8.96951E+00  7.11629E+00  1.38465E+01
   1.01750E+01  6.70298E+00  1.49976E+01  1.03209E+01  9.29427E+00  8.17318E+00  9.85435E+00  8.98612E+00  3.66376E+00  6.23777E+00
   9.35920E-01  2.41286E+00  1.36207E+01  1.92561E+01  8.37049E+00  1.07488E+01  1.27934E+01  1.41381E+01  1.74040E+01  1.58042E+01
   1.20658E+01  1.57626E+01  1.77761E+01  1.47059E+01  1.66201E+01  1.85472E+01  1.39927E+01  1.79291E+01  2.74890E+01  2.32907E+01
   1.62746E+01  2.66434E+01  2.58869E+01  4.03669E+01  4.58416E+01  4.93824E+01  6.04060E+01  5.79258E+01  6.11943E+01  6.66811E+01
   5.79461E+01  6.54891E+01  6.38644E+01  5.10576E+01  4.94238E+01  4.24314E+01  5.04294E+01  5.63976E+01  4.04043E+01  5.19005E+01
   3.26340E+01  1.70184E+01  7.05530E+00  1.38742E+01  7.23143E+00  7.30027E+00  2.54633E+00 -7.20154E+00  7.81945E+00  7.99355E+00
   8.30637E+00  6.20091E-01  7.86150E+00  1.02720E+01  1.47027E+00  7.91525E+00 -9.74237E-01  8.11868E+00 -1.45098E+00 -2.19997E+00
   2.09853E+00  1.62175E+00  4.75427E+00  1.78315E+00  2.26635E+00  2.64901E+00  9.07857E+00  7.89599E+00  7.60415E+00  4.36195E+00
   1.90337E+01  2.02504E+01  1.65749E+01  2.03951E+01  1.13856E+01  2.12382E+01  2.03799E+01  2.19933E+01  2.33086E+01  2.12071E+01
   3.37543E+01  2.32693E+01  3.63221E+01  2.02361E+01  2.56135E+01  3.58483E+01  1.70050E+01  2.44775E+01  3.80467E+01  4.37995E+01
   3.65189E+01  4.08119E+01  5.02673E+01  4.90775E+01  5.62939E+01  4.40643E+01  4.93846E+01  5.11215E+01  5.53162E+01  6.26679E+01
   6.89222E+01  7.66893E+01  6.95537E+01  7.57063E+01  7.68834E+01  8.11222E+01  8.17003E+01  8.20954E+01  6.92602E+01  6.44393E+01
   7.01217E+01  7.12538E+01  7.26709E+01  7.92042E+01  7.20098E+01  6.93596E+01  6.91450E+01  6.18505E+01  5.53114E+01  6.09240E+01
   5.12507E+01  4.94670E+01  5.69738E+01  5.10782E+01  4.91115E+01  4.45651E+01  4.25644E+01  4.13698E+01  3.41757E+01  4.48454E+01
   4.30313E+01  3.94825E+01  2.66956E+01  2.64706E+01  2.93232E+01  3.16679E+01  4.13901E+01  3.33779E+01  3.09367E+01  2.06247E+01
   1.23412E+01  1.49891E+01  3.02290E+01  1.53836E+01  1.63576E+01  1.63320E+01  3.10292E+01  2.78226E+01  2.03142E+01  2.05879E+01
   1.68645E+01  1.57392E+01  1.03611E+01  1.53488E+01  1.78657E+01  1.82667E+01  2.42446E+01  2.86771E+01  2.69123E+01  1.54762E+01
   1.18725E+01  2.64791E+01  2.03569E+01  2.51394E+01  1.72127E+01  2.70184E+01  1.83676E+01  2.58478E+01  1.81415E+01  3.11813E+01
   2.22545E+01  1.78018E+01  2.19760E+01  1.16966E+01  1.74691E+01  2.40430E+01  2.78755E+01  2.35541E+01  3.63051E+01  3.07842E+01
   2.77009E+01  2.09469E+01  1.57598E+01  2.07958E+01  1.69950E+01  9.90306E+00  6.30981E+00  1.15856E+01  1.85536E+01  1.37370E+01
   1.78114E+01  1.78361E+01  1.52490E+01  1.20237E+01  1.50245E+01  2.19832E+01  1.15620E+01  1.12255E+01  1.19651E+01  7.74981E+00
   1.43258E+00  3.65302E+00  9.82303E+00  4.83680E+00  6.09160E+00  8.05109E+00  1.15819E+01  1.38195E+01  6.79377E+00  4.20071E+00
   1.67681E+01  5.40227E+00  4.10839E+00  1.12442E+01  1.31500E+01  1.13474E+01  1.55322E+01  3.98601E+00  1.07501E+01  1.15669E+01
   8.53783E+00  8.70010E+00  4.45310E+00  9.90083E-01  1.75637E+00  1.14409E+01  8.95442E-01  4.14883E+00  7.12085E+00  1.97776E+00
   3.83963E+00  1.26523E+01  6.60975E+00  7.34446E+00  1.17946E+01  1.24755E+01  8.86111E+00  8.08804E+00  1.38735E+01  1.59135E+01
   6.23389E+00  6.92463E+00  1.67741E+00  1.48719E+01  8.62013E+00  7.12500E+00  1.12946E+01  7.03132E+00  3.98524E+00  1.46163E+01
   2.70146E+00  9.94677E+00  1.58159E+01  1.02961E+01  4.62791E+00  1.60535E-01  5.66013E+00  1.54031E+00  6.48107E+00  5.87499E+00
   4.07937E+00  1.10675E+01  3.72825E+00  1.45985E+01  8.87838E+00  3.89226E+00  1.37990E+01  7.18140E+00
 NY points of the fit to the data follow
   5.18347E+00  5.61191E+00  5.53297E+00  5.42515E+00  5.74126E+00  5.32270E+00  6.32132E+00  5.53813E+00  6.92774E+00  5.62654E+00
   7.23049E+00  5.55288E+00  7.41395E+00  5.38928E+00  7.90050E+00  5.90738E+00  8.78015E+00  6.74838E+00  9.48002E+00  7.14184E+00
   9.41891E+00  6.78582E+00  8.58661E+00  5.99400E+00  7.71895E+00  5.67422E+00  7.46761E+00  6.15399E+00  7.78005E+00  7.13706E+00
   8.24468E+00  7.92014E+00  8.17187E+00  8.01023E+00  7.55389E+00  7.74793E+00  7.01114E+00  7.74287E+00  6.96688E+00  8.19033E+00
   7.21984E+00  8.59562E+00  7.30523E+00  8.43272E+00  6.90817E+00  7.59077E+00  6.16717E+00  6.51895E+00  5.57031E+00  5.75822E+00
   5.39197E+00  5.52376E+00  5.52085E+00  5.55416E+00  5.67380E+00  5.49741E+00  5.57551E+00  5.21247E+00  5.20961E+00  4.76057E+00
   4.73539E+00  4.33977E+00  4.37967E+00  4.12641E+00  4.29878E+00  4.18391E+00  4.47008E+00  4.41324E+00  4.77869E+00  4.66713E+00
   4.96106E+00  4.74592E+00  4.93271E+00  4.66741E+00  4.80549E+00  4.54142E+00  4.67890E+00  4.42863E+00  4.60786E+00  4.34921E+00
   4.51981E+00  4.22460E+00  4.29242E+00  3.97276E+00  4.02159E+00  3.98771E+00  3.96166E+00  4.21406E+00  4.07312E+00  4.55539E+00
   4.31579E+00  5.02280E+00  4.66948E+00  5.62279E+00  5.13848E+00  6.41941E+00  5.76464E+00  7.34328E+00  6.47906E+00  8.19605E+00
   7.11476E+00  8.73950E+00  7.47857E+00  8.86383E+00  7.50568E+00  8.60623E+00  7.23143E+00  8.07374E+00  6.79695E+00  7.62453E+00
   6.65235E+00  7.20295E+00  6.55236E+00  6.66437E+00  6.38573E+00  6.20087E+00  6.37037E+00  6.08630E+00  6.73202E+00  6.55269E+00
   7.67413E+00  7.60443E+00  9.07133E+00  8.88460E+00  1.04875E+01  9.92576E+00  1.14605E+01  1.04714E+01  1.18098E+01  1.04923E+01
   1.15971E+01  1.01101E+01  1.09908E+01  9.45406E+00  1.01017E+01  8.51857E+00  8.86422E+00  7.29127E+00  7.31941E+00  5.91926E+00
   5.71776E+00  4.66888E+00  4.37925E+00  3.70390E+00  3.48030E+00  3.15601E+00  3.10607E+00  3.00564E+00  3.03935E+00  2.96096E+00
   2.97805E+00  2.83327E+00  2.79689E+00  2.54556E+00  2.45849E+00  2.12968E+00  2.01321E+00  1.66777E+00  1.48215E+00  1.17846E+00
   9.64927E-01  6.97938E-01  4.42929E-01  1.23946E-01 -1.63108E-01 -5.33334E-01 -8.27029E-01 -1.24677E+00 -1.54544E+00 -2.01673E+00
  -2.21238E+00 -2.66157E+00 -2.67765E+00 -3.10650E+00 -2.90725E+00 -3.37231E+00 -3.01078E+00 -3.53934E+00 -3.06515E+00 -3.67351E+00
  -3.09477E+00 -3.67033E+00 -2.95406E+00 -3.30616E+00 -2.35832E+00 -2.41357E+00 -1.35826E+00 -1.18236E+00 -2.20094E-01  1.38822E-03
   6.87607E-01  7.71753E-01  9.16998E-01  9.99550E-01  1.07156E+00  1.30138E+00  1.57453E+00  1.93254E+00  2.31298E+00  2.54977E+00
   2.80045E+00  2.65693E+00  2.62779E+00  2.08777E+00  2.01275E+00  1.29992E+00  1.57997E+00  9.49428E-01  1.78911E+00  1.29940E+00
   2.52648E+00  2.06094E+00  3.36136E+00  2.80774E+00  4.02042E+00  3.49572E+00  4.73876E+00  4.43848E+00  5.74334E+00  5.84469E+00
   7.28909E+00  7.73770E+00  9.12261E+00  9.75070E+00  1.07063E+01  1.10246E+01  1.13836E+01  1.12147E+01  1.10306E+01  1.05327E+01
   1.02137E+01  9.59267E+00  9.52379E+00  8.97598E+00  9.32889E+00  8.74473E+00  9.47910E+00  8.67340E+00  9.64960E+00  8.57829E+00
   9.80315E+00  8.93781E+00  1.20243E+01  1.20591E+01  1.61741E+01  1.69430E+01  2.11856E+01  2.24008E+01  2.64730E+01  2.79945E+01
   3.18913E+01  3.39104E+01  3.80891E+01  4.09177E+01  4.50161E+01  4.85284E+01  5.15460E+01  5.51417E+01  5.60382E+01  5.89970E+01
   5.74990E+01  5.94078E+01  5.59981E+01  5.68916E+01  5.22870E+01  5.24212E+01  4.70428E+01  4.65113E+01  4.01560E+01  3.88849E+01
   3.18122E+01  2.99266E+01  2.31506E+01  2.10765E+01  1.57947E+01  1.40432E+01  1.08308E+01  9.70957E+00  8.39883E+00  7.88648E+00
   7.54567E+00  7.35593E+00  7.23064E+00  7.15085E+00  7.10292E+00  7.09058E+00  7.10636E+00  7.15975E+00  7.24280E+00  7.37331E+00
   7.53770E+00  7.76207E+00  8.02582E+00  8.35889E+00  8.73628E+00  9.18750E+00  9.68504E+00  1.02561E+01  1.08729E+01  1.15595E+01
   1.22898E+01  1.30857E+01  1.39272E+01  1.48390E+01  1.58180E+01  1.69094E+01  1.81733E+01  1.98149E+01  2.19966E+01  2.32979E+01
   2.54844E+01  2.61179E+01  2.79490E+01  2.80634E+01  2.96035E+01  2.92356E+01  3.17801E+01  3.22083E+01  3.59617E+01  3.69986E+01
   4.10797E+01  4.20263E+01  4.55674E+01  4.62040E+01  4.88200E+01  4.95972E+01  5.18860E+01  5.38897E+01  5.65508E+01  6.07978E+01
   6.30668E+01  6.82262E+01  6.89644E+01  7.35700E+01  7.20354E+01  7.55401E+01  7.20464E+01  7.57819E+01  7.18862E+01  7.63031E+01
   7.26264E+01  7.68307E+01  7.28356E+01  7.53459E+01  7.04846E+01  7.03348E+01  6.47697E+01  6.28710E+01  5.77975E+01  5.57977E+01
   5.23065E+01  5.10701E+01  4.92259E+01  4.84989E+01  4.73066E+01  4.61411E+01  4.47712E+01  4.28833E+01  4.13524E+01  3.94271E+01
   3.81571E+01  3.69285E+01  3.61388E+01  3.53924E+01  3.47771E+01  3.38118E+01  3.28476E+01  3.11199E+01  2.96520E+01  2.73979E+01
   2.57283E+01  2.36238E+01  2.21206E+01  2.06563E+01  1.95756E+01  1.87130E+01  1.80368E+01  1.75099E+01  1.71026E+01  1.68080E+01
   1.66125E+01  1.65168E+01  1.65112E+01  1.65983E+01  1.67695E+01  1.70270E+01  1.73610E+01  1.77723E+01  1.82489E+01  1.87886E+01
   1.93763E+01  2.00066E+01  2.06609E+01  2.13307E+01  2.19944E+01  2.26415E+01  2.32491E+01  2.38065E+01  2.42916E+01  2.46959E+01
   2.50008E+01  2.52020E+01  2.52866E+01  2.52565E+01  2.51052E+01  2.48414E+01  2.44649E+01  2.39904E+01  2.34228E+01  2.27809E+01
   2.20726E+01  2.13184E+01  2.05269E+01  1.97179E+01  1.88988E+01  1.80871E+01  1.72873E+01  1.65139E+01  1.57680E+01  1.50608E+01
   1.43900E+01  1.37640E+01  1.31779E+01  1.26376E+01  1.21366E+01  1.16793E+01  1.12578E+01  1.08759E+01  1.05252E+01  1.02091E+01
   9.91915E+00  9.65874E+00  9.41965E+00  9.20550E+00  9.00833E+00  8.83209E+00  8.66915E+00  8.52377E+00  8.38863E+00  8.26832E+00
   8.15579E+00  8.05588E+00  7.96176E+00  7.87850E+00  7.79945E+00  7.72987E+00  7.66324E+00  7.60496E+00  7.54863E+00  7.49976E+00
   7.45204E+00  7.41107E+00  7.37060E+00  7.33629E+00  7.30197E+00  7.27333E+00  7.24426E+00  7.22048E+00  7.19593E+00  7.17634E+00
   7.15569E+00  7.13975E+00  7.12250E+00  7.10974E+00  7.09546E+00  7.08549E+00  7.07383E+00  7.06632E+00  7.05698E+00  7.05165E+00
   7.04436E+00  7.04098E+00  7.03553E+00  7.03389E+00  7.03008E+00  7.03001E+00  7.02769E+00  7.02904E+00  7.02806E+00  7.03070E+00
   7.03095E+00  7.03476E+00  7.03615E+00  7.04105E+00  7.04349E+00  7.04942E+00  7.05284E+00  7.05973E+00  7.06410E+00  7.07193E+00
   7.07723E+00  7.08599E+00  7.09223E+00  7.10196E+00  7.10923E+00  7.12006E+00  7.12851E+00  7.14070E+00
 NY background values follow
    -2.408E+00   -2.390E+00   -2.372E+00   -2.354E+00   -2.336E+00   -2.318E+00   -2.300E+00   -2.282E+00   -2.264E+00   -2.246E+00
    -2.228E+00   -2.210E+00   -2.192E+00   -2.174E+00   -2.156E+00   -2.138E+00   -2.120E+00   -2.102E+00   -2.084E+00   -2.066E+00
    -2.048E+00   -2.030E+00   -2.012E+00   -1.994E+00   -1.976E+00   -1.958E+00   -1.940E+00   -1.922E+00   -1.904E+00   -1.886E+00
    -1.868E+00   -1.850E+00   -1.832E+00   -1.814E+00   -1.796E+00   -1.778E+00   -1.760E+00   -1.742E+00   -1.724E+00   -1.706E+00
    -1.688E+00   -1.670E+00   -1.652E+00   -1.634E+00   -1.616E+00   -1.598E+00   -1.580E+00   -1.562E+00   -1.544E+00   -1.526E+00
    -1.508E+00   -1.490E+00   -1.472E+00   -1.454E+00   -1.436E+00   -1.418E+00   -1.400E+00   -1.382E+00   -1.364E+00   -1.346E+00
    -1.328E+00   -1.310E+00   -1.292E+00   -1.274E+00   -1.256E+00   -1.238E+00   -1.220E+00   -1.202E+00   -1.184E+00   -1.166E+00
    -1.148E+00   -1.130E+00   -1.112E+00   -1.094E+00   -1.076E+00   -1.058E+00   -1.040E+00   -1.022E+00   -1.004E+00   -9.861E-01
    -9.681E-01   -9.501E-01   -9.321E-01   -9.141E-01   -8.961E-01   -8.781E-01   -8.601E-01   -8.421E-01   -8.242E-01   -8.062E-01
    -7.882E-01   -7.702E-01   -7.522E-01   -7.342E-01   -7.162E-01   -6.982E-01   -6.802E-01   -6.622E-01   -6.442E-01   -6.262E-01
    -6.082E-01   -5.902E-01   -5.722E-01   -5.542E-01   -5.362E-01   -5.182E-01   -5.002E-01   -4.822E-01   -4.642E-01   -4.462E-01
    -4.282E-01   -4.102E-01   -3.922E-01   -3.742E-01   -3.562E-01   -3.382E-01   -3.202E-01   -3.022E-01   -2.842E-01   -2.662E-01
    -2.482E-01   -2.302E-01   -2.122E-01   -1.942E-01   -1.762E-01   -1.582E-01   -1.402E-01   -1.222E-01   -1.042E-01   -8.621E-02
    -6.821E-02   -5.021E-02   -3.221E-02   -1.421E-02    3.787E-03    2.179E-02    3.978E-02    5.778E-02    7.578E-02    9.378E-02
     1.118E-01    1.298E-01    1.478E-01    1.658E-01    1.838E-01    2.018E-01    2.198E-01    2.378E-01    2.558E-01    2.738E-01
     2.918E-01    3.098E-01    3.278E-01    3.458E-01    3.638E-01    3.818E-01    3.998E-01    4.178E-01    4.358E-01    4.538E-01
     4.718E-01    4.898E-01    5.078E-01    5.257E-01    5.437E-01    5.617E-01    5.797E-01    5.977E-01    6.157E-01    6.337E-01
     6.517E-01    6.697E-01    6.877E-01    7.057E-01    7.237E-01    7.417E-01    7.597E-01    7.777E-01    7.957E-01    8.137E-01
     8.317E-01    8.497E-01    8.677E-01    8.857E-01    9.037E-01    9.217E-01    9.397E-01    9.577E-01    9.757E-01    9.937E-01
     1.012E+00    1.030E+00    1.048E+00    1.066E+00    1.084E+00    1.102E+00    1.120E+00    1.138E+00    1.156E+00    1.174E+00
     1.192E+00    1.210E+00    1.228E+00    1.246E+00    1.264E+00    1.282E+00    1.300E+00    1.318E+00    1.336E+00    1.354E+00
     1.372E+00    1.390E+00    1.408E+00    1.426E+00    1.444E+00    1.462E+00    1.480E+00    1.498E+00    1.516E+00    1.534E+00
     1.552E+00    1.570E+00    1.588E+00    1.606E+00    1.624E+00    1.642E+00    1.660E+00    1.678E+00    1.696E+00    1.714E+00
     1.732E+00    1.750E+00    1.768E+00    1.786E+00    1.804E+00    1.822E+00    1.840E+00    1.858E+00    1.876E+00    1.894E+00
     1.912E+00    1.930E+00    1.948E+00    1.966E+00    1.984E+00    2.002E+00    2.020E+00    2.038E+00    2.056E+00    2.074E+00
     2.092E+00    2.110E+00    2.128E+00    2.146E+00    2.164E+00    2.182E+00    2.200E+00    2.218E+00    2.236E+00    2.254E+00
     2.272E+00    2.290E+00    2.308E+00    2.326E+00    2.344E+00    2.362E+00    2.380E+00    2.398E+00    2.416E+00    2.434E+00
     2.452E+00    2.470E+00    2.488E+00    2.506E+00    2.524E+00    2.542E+00    2.560E+00    2.578E+00    2.596E+00    2.614E+00
     2.632E+00    2.650E+00    2.668E+00    2.686E+00    2.704E+00    2.722E+00    2.740E+00    2.758E+00    2.776E+00    2.794E+00
     2.812E+00    2.830E+00    2.848E+00    2.866E+00    2.884E+00    2.903E+00    2.921E+00    2.939E+00    2.957E+00    2.975E+00
     2.993E+00    3.011E+00    3.029E+00    3.047E+00    3.065E+00    3.083E+00    3.101E+00    3.119E+00    3.137E+00    3.155E+00
     3.173E+00    3.191E+00    3.209E+00    3.227E+00    3.245E+00    3.263E+00    3.281E+00    3.299E+00    3.317E+00    3.335E+00
     3.353E+00    3.371E+00    3.389E+00    3.407E+00    3.425E+00    3.443E+00    3.461E+00    3.479E+00    3.497E+00    3.515E+00
     3.533E+00    3.551E+00    3.569E+00    3.587E+00    3.605E+00    3.623E+00    3.641E+00    3.659E+00    3.677E+00    3.695E+00
     3.713E+00    3.731E+00    3.749E+00    3.767E+00    3.785E+00    3.803E+00    3.822E+00    3.840E+00    3.858E+00    3.876E+00
     3.894E+00    3.912E+00    3.930E+00    3.948E+00    3.966E+00    3.984E+00    4.002E+00    4.020E+00    4.038E+00    4.056E+00
     4.074E+00    4.092E+00    4.110E+00    4.128E+00    4.146E+00    4.164E+00    4.182E+00    4.200E+00    4.218E+00    4.236E+00
     4.254E+00    4.272E+00    4.290E+00    4.308E+00    4.326E+00    4.344E+00    4.362E+00    4.380E+00    4.398E+00    4.416E+00
     4.434E+00    4.452E+00    4.470E+00    4.488E+00    4.506E+00    4.525E+00    4.543E+00    4.561E+00    4.579E+00    4.597E+00
     4.615E+00    4.633E+00    4.651E+00    4.669E+00    4.687E+00    4.705E+00    4.723E+00    4.741E+00    4.759E+00    4.777E+00
     4.795E+00    4.813E+00    4.831E+00    4.849E+00    4.867E+00    4.885E+00    4.903E+00    4.921E+00    4.939E+00    4.957E+00
     4.975E+00    4.993E+00    5.011E+00    5.029E+00    5.047E+00    5.065E+00    5.083E+00    5.101E+00    5.119E+00    5.137E+00
     5.156E+00    5.174E+00    5.192E+00    5.210E+00    5.228E+00    5.246E+00    5.264E+00    5.282E+00    5.300E+00    5.318E+00
     5.336E+00    5.354E+00    5.372E+00    5.390E+00    5.408E+00    5.426E+00    5.444E+00    5.462E+00    5.480E+00    5.498E+00
     5.516E+00    5.534E+00    5.552E+00    5.570E+00    5.588E+00    5.606E+00    5.624E+00    5.642E+00    5.660E+00    5.678E+00
     5.696E+00    5.714E+00    5.732E+00    5.751E+00    5.769E+00    5.787E+00    5.805E+00    5.823E+00    5.841E+00    5.859E+00
     5.877E+00    5.895E+00    5.913E+00    5.931E+00    5.949E+00    5.967E+00    5.985E+00    6.003E+00    6.021E+00    6.039E+00
     6.057E+00    6.075E+00    6.093E+00    6.111E+00    6.129E+00    6.147E+00    6.165E+00    6.183E+00    6.201E+00    6.219E+00
     6.237E+00    6.255E+00    6.273E+00    6.291E+00    6.309E+00    6.327E+00    6.346E+00    6.364E+00    6.382E+00    6.400E+00
     6.418E+00    6.436E+00    6.454E+00    6.472E+00    6.490E+00    6.508E+00    6.526E+00    6.544E+00
 Ala      Conc. = 5.68E+03
