 LCModel (Version 6.3-1L) Copyright: S.W. Provencher.          Ref.: Magn. Reson. Med. 30:672-679 (1993).                
 Slice#2 Row#2 Col#8  PD_05_press_2_raw_act
 36 lines in following concentration table = NCONC+1
    Conc.  %SD /Cr+PCr  Metabolite                                         
    0.000 999%   0.000 Ala                                                 
    0.000 999%   0.000 Asp                                                 
    0.000 999%   0.000 Cr                                                  
    0.000 999%   0.000 PCr                                                 
    0.569 999%   0.000 GABA                                                
    0.509 999%   0.000 Glc                                                 
 3.94E+03  44%   0.000 Gln                                                 
 2.67E+03  71%   0.000 Glu                                                 
    0.000 999%   0.000 GPC                                                 
    0.000 999%   0.000 PCh                                                 
  408.960  78%   0.000 GSH                                                 
 1.15E+03  78%   0.000 Ins                                                 
 2.60E+03  35%   0.000 Lac                                                 
    0.000 999%   0.000 NAA                                                 
    0.000 999%   0.000 NAAG                                                
    0.992 768%   0.000 Scyllo                                              
    0.133 999%   0.000 Tau                                                 
   12.848 463%   0.000 -CrCH2                                              
    0.000 999%   0.000 GPC+PCh                                             
    0.000 999%   0.000 NAA+NAAG                                            
    0.000 999%   0.000 Cr+PCr                                              
 6.61E+03  46%   0.000 Glu+Gln                                             
 1.09E+03  77%   0.000 Lip13a                                              
    0.000 999%   0.000 Lip13b                                              
  248.235  99%   0.000 Lip09                                               
  296.454 128%   0.000 MM09                                                
  170.661  87%   0.000 Lip20                                               
  444.706 128%   0.000 MM20                                                
   88.939 128%   0.000 MM12                                                
  222.329 128%   0.000 MM14                                                
  111.174 128%   0.000 MM17                                                
 1.09E+03  77%   0.000 Lip13a+Lip13b                                       
 1.40E+03  54%   0.000 MM14+Lip13a+Lip13b+MM12                             
  544.689  64%   0.000 MM09+Lip09                                          
  615.367  87%   0.000 MM20+Lip20                                          
   6 lines in following misc. output table
  FWHM = 0.115 ppm    S/N =   0                                            
  Data shift =-0.023 ppm                                                   
  Ph:  74 deg      -2.0 deg/ppm                                            
  alphaB,S = 8.5E+01,   3.6E+02                                            
   14 spline knots.   Ns =11(1)                                            
   6 inflections.     8 extrema                                            
  498 points on ppm-axis = NY
      4.000000     3.992357     3.984714     3.977070     3.969427     3.961784     3.954141     3.946497     3.938854     3.931211
      3.923568     3.915925     3.908281     3.900638     3.892995     3.885352     3.877708     3.870065     3.862422     3.854779
      3.847136     3.839492     3.831849     3.824206     3.816563     3.808919     3.801276     3.793633     3.785990     3.778347
      3.770703     3.763060     3.755417     3.747774     3.740130     3.732487     3.724844     3.717201     3.709558     3.701914
      3.694271     3.686628     3.678985     3.671341     3.663698     3.656055     3.648412     3.640769     3.633125     3.625482
      3.617839     3.610196     3.602552     3.594909     3.587266     3.579623     3.571980     3.564336     3.556693     3.549050
      3.541407     3.533763     3.526120     3.518477     3.510834     3.503191     3.495547     3.487904     3.480261     3.472618
      3.464974     3.457331     3.449688     3.442045     3.434402     3.426758     3.419115     3.411472     3.403829     3.396185
      3.388542     3.380899     3.373256     3.365613     3.357969     3.350326     3.342683     3.335040     3.327396     3.319753
      3.312110     3.304467     3.296824     3.289180     3.281537     3.273894     3.266251     3.258607     3.250964     3.243321
      3.235678     3.228034     3.220391     3.212748     3.205105     3.197462     3.189818     3.182175     3.174532     3.166889
      3.159245     3.151602     3.143959     3.136316     3.128673     3.121029     3.113386     3.105743     3.098100     3.090456
      3.082813     3.075170     3.067527     3.059884     3.052240     3.044597     3.036954     3.029311     3.021667     3.014024
      3.006381     2.998738     2.991095     2.983451     2.975808     2.968165     2.960522     2.952878     2.945235     2.937592
      2.929949     2.922306     2.914662     2.907019     2.899376     2.891733     2.884089     2.876446     2.868803     2.861160
      2.853517     2.845873     2.838230     2.830587     2.822944     2.815300     2.807657     2.800014     2.792371     2.784728
      2.777084     2.769441     2.761798     2.754155     2.746511     2.738868     2.731225     2.723582     2.715939     2.708295
      2.700652     2.693009     2.685366     2.677722     2.670079     2.662436     2.654793     2.647150     2.639506     2.631863
      2.624220     2.616577     2.608933     2.601290     2.593647     2.586004     2.578361     2.570717     2.563074     2.555431
      2.547788     2.540144     2.532501     2.524858     2.517215     2.509572     2.501928     2.494285     2.486642     2.478999
      2.471355     2.463712     2.456069     2.448426     2.440783     2.433139     2.425496     2.417853     2.410210     2.402566
      2.394923     2.387280     2.379637     2.371994     2.364350     2.356707     2.349064     2.341421     2.333777     2.326134
      2.318491     2.310848     2.303205     2.295561     2.287918     2.280275     2.272632     2.264988     2.257345     2.249702
      2.242059     2.234416     2.226772     2.219129     2.211486     2.203843     2.196199     2.188556     2.180913     2.173270
      2.165627     2.157983     2.150340     2.142697     2.135054     2.127410     2.119767     2.112124     2.104481     2.096838
      2.089194     2.081551     2.073908     2.066265     2.058621     2.050978     2.043335     2.035692     2.028049     2.020405
      2.012762     2.005119     1.997476     1.989833     1.982190     1.974546     1.966903     1.959260     1.951617     1.943974
      1.936331     1.928688     1.921045     1.913402     1.905759     1.898115     1.890472     1.882829     1.875186     1.867543
      1.859900     1.852257     1.844614     1.836971     1.829327     1.821684     1.814041     1.806398     1.798755     1.791112
      1.783469     1.775826     1.768183     1.760540     1.752896     1.745253     1.737610     1.729967     1.722324     1.714681
      1.707038     1.699395     1.691752     1.684108     1.676465     1.668822     1.661179     1.653536     1.645893     1.638250
      1.630607     1.622964     1.615321     1.607677     1.600034     1.592391     1.584748     1.577105     1.569462     1.561819
      1.554176     1.546533     1.538890     1.531246     1.523603     1.515960     1.508317     1.500674     1.493031     1.485388
      1.477745     1.470102     1.462458     1.454815     1.447172     1.439529     1.431886     1.424243     1.416600     1.408957
      1.401314     1.393671     1.386027     1.378384     1.370741     1.363098     1.355455     1.347812     1.340169     1.332526
      1.324883     1.317240     1.309596     1.301953     1.294310     1.286667     1.279024     1.271381     1.263738     1.256095
      1.248452     1.240808     1.233165     1.225522     1.217879     1.210236     1.202593     1.194950     1.187307     1.179664
      1.172021     1.164377     1.156734     1.149091     1.141448     1.133805     1.126162     1.118519     1.110876     1.103233
      1.095590     1.087946     1.080303     1.072660     1.065017     1.057374     1.049731     1.042088     1.034445     1.026802
      1.019158     1.011515     1.003872     0.996229     0.988586     0.980943     0.973300     0.965657     0.958014     0.950371
      0.942727     0.935084     0.927441     0.919798     0.912155     0.904512     0.896869     0.889226     0.881583     0.873940
      0.866296     0.858653     0.851010     0.843367     0.835724     0.828081     0.820438     0.812795     0.805152     0.797508
      0.789865     0.782222     0.774579     0.766936     0.759293     0.751650     0.744007     0.736364     0.728721     0.721077
      0.713434     0.705791     0.698148     0.690505     0.682862     0.675219     0.667576     0.659933     0.652290     0.644646
      0.637003     0.629360     0.621717     0.614074     0.606431     0.598788     0.591145     0.583502     0.575858     0.568215
      0.560572     0.552929     0.545286     0.537643     0.530000     0.522357     0.514714     0.507071     0.499427     0.491784
      0.484141     0.476498     0.468855     0.461212     0.453569     0.445925     0.438282     0.430639     0.422996     0.415353
      0.407710     0.400067     0.392424     0.384780     0.377137     0.369494     0.361851     0.354208     0.346565     0.338922
      0.331278     0.323635     0.315992     0.308349     0.300706     0.293063     0.285420     0.277777     0.270133     0.262490
      0.254847     0.247204     0.239561     0.231918     0.224275     0.216631     0.208988     0.201345
 NY phased data points follow
  -3.43430E+01  3.00192E+01  3.27193E+00  3.11264E+00 -3.68514E+01 -2.92013E+00  5.81452E+00  3.64771E+01 -7.64633E+00  1.01271E+00
  -3.73977E+00  1.74872E+01  2.09246E+01  2.76468E+01  1.00102E+01  4.05977E+00 -7.54195E-01 -4.15393E-01  1.29363E+01  3.15015E+01
   1.52844E+01  1.85956E+01 -1.06073E+01 -1.57195E+01 -3.14245E+00  1.27077E+01 -2.09781E+00 -8.91843E+00  2.15008E+00 -1.87646E+01
  -2.53815E+01  7.70963E+00 -1.11851E+01  2.09866E+01 -1.01086E+01 -5.16652E+00 -3.89866E+00  8.08221E+00 -7.20750E+00  3.03790E+00
  -8.48379E+00  2.15251E+00  4.57249E+00 -9.20072E+00 -5.79450E-02 -4.49619E+00 -2.79982E+00  3.09281E+00 -7.56549E+00 -7.66345E+00
  -5.80469E+00  1.02795E+01  1.34172E+01  1.52473E+01  8.53222E+00 -4.68104E+00 -1.47600E+01  1.41955E+01 -1.50115E+01 -5.15239E-01
  -1.59397E+01 -1.21276E+01 -7.13445E+00 -2.95001E+00  2.14908E-01  3.97668E-01 -6.72763E+00  3.68436E+00 -1.43012E+01  9.73355E+00
  -3.01733E+00  8.11454E+00  1.10714E+01  7.20154E+00  6.69323E+00  1.01296E+01  7.98408E+00 -8.83127E+00 -1.19104E+01 -1.20891E+01
  -6.30680E-01  1.01697E+01 -1.10219E+01  2.76416E+00 -1.84286E+01  3.52202E+00 -2.18668E+00  3.46032E+00  5.97654E+00  5.48090E+00
  -4.61148E+00 -3.49332E-01 -1.88264E+01  4.10361E-01 -1.90080E+01 -4.76958E+00 -1.59479E+01 -2.78287E+00 -4.31021E+00 -5.31119E-01
  -2.46792E+00  9.59202E+00  4.81234E+00  1.79914E+01  3.41248E+00  1.07358E+01  6.87110E+00  1.05628E+01  1.71176E-01 -1.03958E+01
  -6.36570E-01  8.65273E+00  2.18167E+01  6.89733E+00  4.46526E+00 -5.14918E+00  2.47199E+00 -4.70805E+00 -2.24563E+01 -5.34717E+00
  -8.31848E-01  2.07036E+01 -1.66469E+00 -4.09201E+00 -8.49666E-01 -3.55639E+00 -9.19296E+00 -1.76349E+00  2.10108E+00  1.44369E+01
   2.63753E+00 -5.91315E+00  3.06724E+00 -6.64051E+00 -3.53136E+00  5.57207E+00  1.68394E+01 -1.61892E-01 -1.02038E-02 -1.64427E+00
   5.67124E+00  9.27672E+00  2.82391E+00 -8.57848E-01 -1.86867E+00  6.96207E-01 -1.77556E+01  1.55981E+01 -4.08707E+00 -1.25465E+01
  -8.02745E-01 -3.89781E-02  2.20463E-01  6.47857E+00 -3.30687E+00 -9.82054E+00  3.39618E-01 -4.15169E+00  1.03732E+00  4.06587E+00
  -3.45725E+00 -1.12538E+01  2.34939E+00  2.16230E+00 -1.74174E+01 -6.26340E-01 -2.13968E+00 -3.82198E+00 -2.73961E+00 -5.90631E+00
  -1.47515E+01  2.07737E+01 -3.90282E+00  3.61328E+00  4.02732E+00 -6.16564E+00 -2.18363E-01  5.68010E-01  2.44054E+00  5.78787E+00
   4.58071E-01 -7.59094E+00  1.33144E+00  3.53398E+00 -8.45465E+00  1.73240E+01  1.48146E+01  5.60451E+00  4.13317E+00  5.40327E-01
   1.60235E+01  2.45527E+00  5.66952E+00 -4.66512E+00  9.91755E+00  9.64042E+00  1.42195E+01  1.59104E+01 -9.40872E+00  1.57187E+01
  -7.06955E-01 -2.98378E+00  1.14395E+01  2.87854E+00  1.26277E+01  8.18431E+00  1.30662E+01  1.58654E+01  1.02268E+01  6.32524E-01
   1.36542E+01  9.19602E+00  1.66241E+00  2.82842E+01  4.92148E+00  9.67752E+00  1.25971E+01  4.25298E+00  3.44942E+00  7.72094E+00
   9.20284E+00  2.02675E+01 -5.52666E-01 -2.23656E+00 -6.07054E+00 -2.23195E+00  5.53581E+00  5.70596E+00  1.45436E+01 -2.54682E+00
   9.33681E+00  1.58539E+01  2.67840E+00  3.05950E+00 -1.08099E+00  1.56320E+01  7.51417E-01  1.88316E+01 -6.37723E+00  1.41825E+01
  -4.25001E+00  5.77283E-01  1.12334E+01 -4.17186E+00 -1.37745E+01  3.58515E+00  6.70277E+00  5.01578E+00  1.13636E+01 -7.35279E+00
  -1.21461E+01  9.62696E+00 -7.50093E+00 -9.35266E+00  5.02909E+00 -7.28354E+00 -8.58214E+00 -1.33560E+00  1.05281E+00  1.38867E+01
   6.11178E+00  2.60076E+00  2.25442E+00  2.03482E+01  1.85416E+01 -3.60829E+00  1.45500E+01  5.00763E+00 -3.68990E+00  1.80718E+01
   1.74572E+01  1.30179E+01  1.87443E+00  9.29382E+00 -4.91662E+00 -1.45250E+01  8.34212E+00 -1.93346E+00 -1.49882E+01 -8.76951E+00
  -9.06235E+00 -4.93552E-01 -7.43416E+00 -8.36174E+00  4.15062E+00 -1.24655E+01  5.03130E+00  1.10196E+01 -1.06443E+01 -1.29352E+00
  -8.09148E+00 -1.29987E+01 -1.14916E+01 -6.07326E+00 -1.36925E+01 -9.12142E+00 -1.64767E+01 -9.77366E-02 -3.94829E+00  3.59137E+00
  -1.71753E+01  1.37797E-02  5.25754E-01  7.54579E+00 -2.10307E-01  7.95055E+00  5.13379E+00 -1.15856E+01  1.29408E+00 -6.48853E+00
   6.97863E+00  7.00191E+00 -1.33020E+01 -7.80137E-01 -5.51173E+00  4.35740E+00  2.03872E+01 -2.13287E+00 -1.09920E+00  1.53707E+01
   5.94656E+00  1.08727E+01 -1.26459E+01  1.18122E+01  1.40629E+01  5.73090E+00  9.03137E-01 -3.73440E+00 -6.41087E+00 -6.66499E+00
  -6.78456E-01 -8.17050E+00 -2.15459E+00 -2.50742E+00  6.66358E+00 -1.34847E+01 -1.07543E+01 -9.84645E+00  1.05018E+01  1.02931E+01
  -3.81149E+01 -1.20332E+01 -7.48713E+00 -6.77924E+00 -1.14203E+01 -1.15584E+01  7.96020E+00 -2.51960E+00 -4.15353E+00  2.05444E+01
   4.50249E+00  4.17658E+00 -1.74435E+00 -8.67003E+00 -1.11507E+00  1.23036E+01  5.83573E-01  2.02537E+01 -2.41171E+00  7.76037E+00
   9.08149E+00 -3.14339E+00 -7.04402E+00  2.57218E+00 -2.04186E+00  1.12834E+01  1.23681E+01 -1.89419E+01 -2.60333E+00 -1.10708E+01
  -1.22500E+01 -1.84113E+01 -1.93318E+01 -2.29084E+01 -2.31032E+01 -2.44588E+01 -2.43031E+01 -3.20333E+01 -2.87506E+01 -2.08715E+01
  -2.13863E+01 -3.06274E+01 -1.14935E+01  2.91624E+00 -5.91567E+00 -1.04052E+01 -1.64563E+01  2.83685E+00 -1.65359E+01 -1.07291E+01
  -8.50260E+00  3.05447E+00 -3.18011E+00 -1.51814E+01 -1.87553E+00 -7.82665E+00 -8.82594E+00 -1.15489E+01 -1.79955E+01  1.71887E-01
   1.15163E+00 -1.43905E+01 -1.21504E+00 -1.79763E+01 -4.38001E+00 -2.24838E+01 -1.16295E+01  9.14497E+00 -1.45567E+00 -3.03315E+00
  -2.01042E+00 -1.68163E+00 -4.81453E+00 -1.24066E+01 -7.10101E+00 -8.75148E+00  1.14809E+01  1.23207E+01 -1.19430E+01 -1.99220E+01
  -9.97378E+00 -7.65695E+00  3.98562E+00 -8.53747E-01 -1.75161E+01 -1.29070E-01 -2.16969E+01 -3.35391E+00 -5.31640E+00  2.62550E-01
  -3.06431E+00 -1.00506E+01 -1.45483E+01  9.90197E-01 -9.10596E+00 -1.30424E+00 -1.25783E+01 -8.42013E+00  3.94024E+00 -2.02825E+01
  -5.44374E+00 -1.60877E+01 -1.54172E+01 -8.00029E+00 -1.05308E+00 -4.09845E+00 -1.10148E+01 -8.55617E-01 -1.35626E+01 -1.25092E+01
   9.54807E+00 -9.58811E+00  1.41203E+00 -1.04441E+01 -1.35873E+01 -1.73862E+00 -1.34046E+01  4.35903E+00 -1.15785E-01 -2.52974E-01
  -4.43204E-02 -2.29773E+00  1.15933E+01  7.14667E-01 -9.26578E+00 -6.80104E+00 -1.07857E+01 -1.91410E+01 -4.00342E+00 -9.62946E+00
  -2.75885E+00  6.03661E+00 -6.91850E-01  1.19187E+01 -6.64860E+00  9.54631E+00 -3.35439E+00 -4.15783E+00  2.87906E+00 -9.79903E+00
   1.68450E+01 -3.16019E+00  6.78052E+00 -2.99325E+00 -1.56186E+01  2.34575E+00  7.36512E+00  7.65954E+00 -9.25020E+00  2.04485E+00
   6.77058E+00 -9.85188E+00  4.19904E-01  8.24121E+00 -1.26844E+01 -6.54562E+00 -3.64189E+00 -8.26438E+00
 NY points of the fit to the data follow
   3.14980E+00  3.42115E+00  3.90954E+00  4.55938E+00  5.22284E+00  5.78860E+00  6.22379E+00  6.53630E+00  6.75126E+00  6.86794E+00
   6.91404E+00  6.94502E+00  6.94971E+00  6.88619E+00  6.68469E+00  6.32079E+00  5.89373E+00  5.57867E+00  5.54618E+00  5.79336E+00
   6.23398E+00  6.64387E+00  6.68438E+00  6.20874E+00  5.18886E+00  3.74900E+00  2.10951E+00  5.56818E-01 -6.93832E-01 -1.57685E+00
  -2.12514E+00 -2.41635E+00 -2.55105E+00 -2.62155E+00 -2.68959E+00 -2.76996E+00 -2.86378E+00 -3.01880E+00 -3.27443E+00 -3.53502E+00
  -3.63251E+00 -3.47762E+00 -3.10739E+00 -2.68634E+00 -2.34758E+00 -2.24488E+00 -2.45015E+00 -2.81470E+00 -3.21763E+00 -3.55091E+00
  -3.74544E+00 -3.77391E+00 -3.69366E+00 -3.57520E+00 -3.42949E+00 -3.22858E+00 -2.95193E+00 -2.59873E+00 -2.18330E+00 -1.74787E+00
  -1.36665E+00 -1.13317E+00 -1.06677E+00 -1.11062E+00 -1.20770E+00 -1.32359E+00 -1.43389E+00 -1.52150E+00 -1.57839E+00 -1.60616E+00
  -1.61180E+00 -1.60117E+00 -1.59547E+00 -1.62678E+00 -1.70694E+00 -1.83769E+00 -1.98983E+00 -2.11602E+00 -2.16982E+00 -2.12258E+00
  -1.97211E+00 -1.73489E+00 -1.43129E+00 -1.08987E+00 -7.39759E-01 -4.18983E-01 -1.59555E-01  4.02966E-02  1.97610E-01  3.32780E-01
   4.60323E-01  5.88813E-01  7.21901E-01  8.59386E-01  9.98250E-01  1.12806E+00  1.23852E+00  1.32270E+00  1.37868E+00  1.41297E+00
   1.44779E+00  1.50477E+00  1.59359E+00  1.70777E+00  1.83401E+00  1.95954E+00  2.07172E+00  2.15697E+00  2.20548E+00  2.21597E+00
   2.19113E+00  2.14938E+00  2.10669E+00  2.07100E+00  2.04132E+00  2.01656E+00  1.99849E+00  1.98850E+00  1.98583E+00  1.98642E+00
   1.98988E+00  1.99520E+00  1.98774E+00  1.92972E+00  1.80539E+00  1.63495E+00  1.44923E+00  1.28412E+00  1.16997E+00  1.11048E+00
   1.10073E+00  1.11140E+00  1.11749E+00  1.10578E+00  1.06932E+00  1.00765E+00  9.27106E-01  8.38819E-01  7.51827E-01  6.74928E-01
   6.14825E-01  5.70787E-01  5.37007E-01  5.07096E-01  4.76340E-01  4.37555E-01  3.75238E-01  2.81197E-01  1.83499E-01  1.16506E-01
   9.48092E-02  1.24098E-01  1.95829E-01  2.86355E-01  3.79906E-01  4.57351E-01  5.20787E-01  5.76255E-01  6.26392E-01  6.72076E-01
   7.13949E-01  7.51688E-01  7.82072E-01  8.03139E-01  8.16108E-01  8.23438E-01  8.28024E-01  8.33529E-01  8.44218E-01  8.60485E-01
   8.80913E-01  9.05485E-01  9.34360E-01  9.63820E-01  9.93718E-01  1.03163E+00  1.08235E+00  1.14640E+00  1.22482E+00  1.30973E+00
   1.37769E+00  1.39240E+00  1.31502E+00  1.15649E+00  9.53385E-01  7.54242E-01  6.69904E-01  8.03972E-01  1.21861E+00  1.93372E+00
   2.90048E+00  3.94397E+00  4.84877E+00  5.48757E+00  5.74791E+00  5.51020E+00  4.75211E+00  3.55703E+00  2.06717E+00  7.34400E-01
   6.76755E-02  1.52262E-01  8.72925E-01  2.03860E+00  3.41541E+00  4.67948E+00  5.49150E+00  5.75332E+00  5.50371E+00  4.89203E+00
   4.14545E+00  3.50603E+00  3.25377E+00  3.51807E+00  4.13950E+00  4.82991E+00  5.35238E+00  5.55381E+00  5.29578E+00  4.51003E+00
   3.30038E+00  1.91001E+00  6.48366E-01 -1.18556E-01 -3.38214E-01 -1.46439E-01  4.58471E-01  1.33388E+00  2.22391E+00  2.82055E+00
   2.89264E+00  2.33536E+00  1.29215E+00 -5.85982E-03 -1.32615E+00 -2.39930E+00 -2.99435E+00 -3.09819E+00 -2.83028E+00 -2.25156E+00
  -1.46420E+00 -6.10004E-01  1.90455E-01  8.38279E-01  1.30337E+00  1.61200E+00  1.79436E+00  1.87666E+00  1.99566E+00  2.33909E+00
   2.88986E+00  3.45609E+00  3.90741E+00  4.13181E+00  4.01021E+00  3.54516E+00  2.95465E+00  2.33809E+00  1.73132E+00  1.19312E+00
   7.79619E-01  5.04388E-01  3.71057E-01  3.75044E-01  4.53205E-01  5.39076E-01  5.83617E-01  5.50460E-01  4.33796E-01  2.51590E-01
   5.16829E-02 -1.17102E-01 -2.00597E-01 -2.08170E-01 -1.78575E-01 -1.36463E-01 -9.51828E-02 -7.16251E-02 -7.20136E-02 -7.48668E-02
  -8.15599E-02 -9.21050E-02 -9.92651E-02 -9.53484E-02 -7.35523E-02 -2.60381E-02  4.45244E-02  1.23680E-01  2.00130E-01  2.70847E-01
   3.34739E-01  3.91171E-01  4.40408E-01  4.84336E-01  5.27506E-01  5.70647E-01  6.12547E-01  6.52545E-01  6.90335E-01  7.25861E-01
   7.59333E-01  7.91579E-01  8.23960E-01  8.57098E-01  8.91710E-01  9.29054E-01  9.69991E-01  1.01533E+00  1.06591E+00  1.12238E+00
   1.18517E+00  1.25457E+00  1.33070E+00  1.41363E+00  1.50327E+00  1.59937E+00  1.70137E+00  1.80856E+00  1.92050E+00  2.03672E+00
   2.15673E+00  2.28014E+00  2.40663E+00  2.53609E+00  2.66868E+00  2.80475E+00  2.94477E+00  3.08933E+00  3.23924E+00  3.39561E+00
   3.55977E+00  3.73304E+00  3.91612E+00  4.10782E+00  4.29999E+00  4.44274E+00  4.21239E+00  3.05014E+00  1.00829E+00 -1.58215E+00
  -4.35610E+00 -6.97115E+00 -9.08950E+00 -1.02163E+01 -1.00578E+01 -9.00058E+00 -7.50899E+00 -5.96433E+00 -4.61795E+00 -3.59184E+00
  -2.90671E+00 -2.49033E+00 -2.22061E+00 -1.96660E+00 -1.64302E+00 -1.25500E+00 -8.78513E-01 -6.41022E-01 -7.13393E-01 -1.30378E+00
  -2.67201E+00 -4.79688E+00 -7.08689E+00 -9.18855E+00 -1.09302E+01 -1.21634E+01 -1.27351E+01 -1.25499E+01 -1.18891E+01 -1.12541E+01
  -1.07176E+01 -1.02492E+01 -9.82738E+00 -9.43926E+00 -9.07669E+00 -8.73442E+00 -8.40897E+00 -8.09799E+00 -7.79999E+00 -7.51419E+00
  -7.24028E+00 -6.97820E+00 -6.72809E+00 -6.49027E+00 -6.26535E+00 -6.05423E+00 -5.85799E+00 -5.67788E+00 -5.51525E+00 -5.37160E+00
  -5.24856E+00 -5.14785E+00 -5.07110E+00 -5.01972E+00 -4.99483E+00 -4.99718E+00 -5.02709E+00 -5.08430E+00 -5.16787E+00 -5.27607E+00
  -5.40646E+00 -5.55592E+00 -5.72078E+00 -5.89681E+00 -6.07941E+00 -6.26371E+00 -6.44489E+00 -6.61834E+00 -6.77982E+00 -6.92561E+00
  -7.05259E+00 -7.15838E+00 -7.24141E+00 -7.30094E+00 -7.33699E+00 -7.35021E+00 -7.34184E+00 -7.31357E+00 -7.26747E+00 -7.20587E+00
  -7.13116E+00 -7.04572E+00 -6.95182E+00 -6.85160E+00 -6.74702E+00 -6.63981E+00 -6.53144E+00 -6.42311E+00 -6.31578E+00 -6.21023E+00
  -6.10706E+00 -6.00669E+00 -5.90940E+00 -5.81531E+00 -5.72447E+00 -5.63691E+00 -5.55258E+00 -5.47140E+00 -5.39324E+00 -5.31792E+00
  -5.24532E+00 -5.17530E+00 -5.10773E+00 -5.04246E+00 -4.97932E+00 -4.91817E+00 -4.85889E+00 -4.80138E+00 -4.74555E+00 -4.69126E+00
  -4.63840E+00 -4.58688E+00 -4.53663E+00 -4.48758E+00 -4.43965E+00 -4.39275E+00 -4.34680E+00 -4.30175E+00 -4.25757E+00 -4.21419E+00
  -4.17157E+00 -4.12963E+00 -4.08832E+00 -4.04762E+00 -4.00749E+00 -3.96789E+00 -3.92876E+00 -3.89006E+00 -3.85175E+00 -3.81381E+00
  -3.77621E+00 -3.73891E+00 -3.70186E+00 -3.66502E+00 -3.62837E+00 -3.59187E+00 -3.55549E+00 -3.51919E+00 -3.48292E+00 -3.44663E+00
  -3.41030E+00 -3.37390E+00 -3.33737E+00 -3.30065E+00 -3.26369E+00 -3.22644E+00 -3.18884E+00 -3.15084E+00 -3.11235E+00 -3.07328E+00
  -3.03355E+00 -2.99306E+00 -2.95171E+00 -2.90936E+00 -2.86586E+00 -2.82104E+00 -2.77471E+00 -2.72662E+00
 NY background values follow
     4.594E+00    4.564E+00    4.534E+00    4.504E+00    4.475E+00    4.445E+00    4.415E+00    4.386E+00    4.356E+00    4.327E+00
     4.298E+00    4.268E+00    4.239E+00    4.210E+00    4.181E+00    4.152E+00    4.123E+00    4.094E+00    4.065E+00    4.036E+00
     4.007E+00    3.979E+00    3.950E+00    3.921E+00    3.893E+00    3.865E+00    3.836E+00    3.808E+00    3.780E+00    3.751E+00
     3.723E+00    3.695E+00    3.667E+00    3.639E+00    3.611E+00    3.583E+00    3.556E+00    3.528E+00    3.500E+00    3.473E+00
     3.445E+00    3.418E+00    3.390E+00    3.363E+00    3.336E+00    3.308E+00    3.281E+00    3.254E+00    3.227E+00    3.200E+00
     3.173E+00    3.146E+00    3.120E+00    3.093E+00    3.066E+00    3.040E+00    3.013E+00    2.987E+00    2.960E+00    2.934E+00
     2.908E+00    2.882E+00    2.856E+00    2.829E+00    2.803E+00    2.778E+00    2.752E+00    2.726E+00    2.700E+00    2.674E+00
     2.649E+00    2.623E+00    2.598E+00    2.572E+00    2.547E+00    2.522E+00    2.497E+00    2.471E+00    2.446E+00    2.421E+00
     2.396E+00    2.371E+00    2.347E+00    2.322E+00    2.297E+00    2.273E+00    2.248E+00    2.224E+00    2.199E+00    2.175E+00
     2.150E+00    2.126E+00    2.102E+00    2.078E+00    2.054E+00    2.030E+00    2.006E+00    1.982E+00    1.959E+00    1.935E+00
     1.911E+00    1.888E+00    1.864E+00    1.841E+00    1.818E+00    1.794E+00    1.771E+00    1.748E+00    1.725E+00    1.702E+00
     1.679E+00    1.656E+00    1.633E+00    1.611E+00    1.588E+00    1.565E+00    1.543E+00    1.520E+00    1.498E+00    1.476E+00
     1.453E+00    1.431E+00    1.409E+00    1.387E+00    1.365E+00    1.343E+00    1.322E+00    1.300E+00    1.278E+00    1.256E+00
     1.235E+00    1.213E+00    1.192E+00    1.171E+00    1.150E+00    1.128E+00    1.107E+00    1.086E+00    1.065E+00    1.044E+00
     1.023E+00    1.003E+00    9.820E-01    9.614E-01    9.409E-01    9.204E-01    9.000E-01    8.797E-01    8.594E-01    8.392E-01
     8.191E-01    7.991E-01    7.791E-01    7.592E-01    7.394E-01    7.197E-01    7.000E-01    6.804E-01    6.608E-01    6.414E-01
     6.220E-01    6.027E-01    5.834E-01    5.643E-01    5.452E-01    5.261E-01    5.072E-01    4.883E-01    4.695E-01    4.508E-01
     4.321E-01    4.135E-01    3.950E-01    3.766E-01    3.582E-01    3.400E-01    3.217E-01    3.036E-01    2.855E-01    2.675E-01
     2.496E-01    2.318E-01    2.140E-01    1.963E-01    1.787E-01    1.611E-01    1.437E-01    1.263E-01    1.089E-01    9.170E-02
     7.453E-02    5.743E-02    4.041E-02    2.346E-02    6.586E-03   -1.021E-02   -2.693E-02   -4.358E-02   -6.015E-02   -7.665E-02
    -9.307E-02   -1.094E-01   -1.257E-01   -1.419E-01   -1.580E-01   -1.740E-01   -1.900E-01   -2.059E-01   -2.217E-01   -2.374E-01
    -2.531E-01   -2.687E-01   -2.842E-01   -2.996E-01   -3.150E-01   -3.303E-01   -3.455E-01   -3.606E-01   -3.757E-01   -3.906E-01
    -4.055E-01   -4.203E-01   -4.351E-01   -4.497E-01   -4.643E-01   -4.788E-01   -4.933E-01   -5.076E-01   -5.219E-01   -5.361E-01
    -5.502E-01   -5.643E-01   -5.783E-01   -5.921E-01   -6.060E-01   -6.197E-01   -6.334E-01   -6.469E-01   -6.604E-01   -6.739E-01
    -6.872E-01   -7.005E-01   -7.137E-01   -7.268E-01   -7.398E-01   -7.528E-01   -7.657E-01   -7.785E-01   -7.912E-01   -8.038E-01
    -8.164E-01   -8.289E-01   -8.413E-01   -8.536E-01   -8.658E-01   -8.780E-01   -8.901E-01   -9.021E-01   -9.140E-01   -9.259E-01
    -9.377E-01   -9.494E-01   -9.610E-01   -9.725E-01   -9.840E-01   -9.954E-01   -1.007E+00   -1.018E+00   -1.029E+00   -1.040E+00
    -1.051E+00   -1.062E+00   -1.073E+00   -1.084E+00   -1.094E+00   -1.105E+00   -1.115E+00   -1.126E+00   -1.136E+00   -1.146E+00
    -1.156E+00   -1.167E+00   -1.177E+00   -1.186E+00   -1.196E+00   -1.206E+00   -1.216E+00   -1.225E+00   -1.235E+00   -1.244E+00
    -1.254E+00   -1.263E+00   -1.272E+00   -1.281E+00   -1.291E+00   -1.299E+00   -1.308E+00   -1.317E+00   -1.326E+00   -1.335E+00
    -1.343E+00   -1.352E+00   -1.360E+00   -1.368E+00   -1.377E+00   -1.385E+00   -1.393E+00   -1.401E+00   -1.409E+00   -1.417E+00
    -1.424E+00   -1.432E+00   -1.440E+00   -1.447E+00   -1.454E+00   -1.462E+00   -1.469E+00   -1.476E+00   -1.483E+00   -1.490E+00
    -1.497E+00   -1.504E+00   -1.511E+00   -1.518E+00   -1.524E+00   -1.531E+00   -1.537E+00   -1.544E+00   -1.550E+00   -1.556E+00
    -1.562E+00   -1.568E+00   -1.574E+00   -1.580E+00   -1.586E+00   -1.591E+00   -1.597E+00   -1.603E+00   -1.608E+00   -1.613E+00
    -1.619E+00   -1.624E+00   -1.629E+00   -1.634E+00   -1.639E+00   -1.644E+00   -1.649E+00   -1.653E+00   -1.658E+00   -1.662E+00
    -1.667E+00   -1.671E+00   -1.676E+00   -1.680E+00   -1.684E+00   -1.688E+00   -1.692E+00   -1.696E+00   -1.700E+00   -1.703E+00
    -1.707E+00   -1.710E+00   -1.714E+00   -1.717E+00   -1.720E+00   -1.724E+00   -1.727E+00   -1.730E+00   -1.733E+00   -1.736E+00
    -1.738E+00   -1.741E+00   -1.744E+00   -1.746E+00   -1.749E+00   -1.751E+00   -1.753E+00   -1.756E+00   -1.758E+00   -1.760E+00
    -1.762E+00   -1.763E+00   -1.765E+00   -1.767E+00   -1.769E+00   -1.770E+00   -1.772E+00   -1.773E+00   -1.774E+00   -1.775E+00
    -1.776E+00   -1.777E+00   -1.778E+00   -1.779E+00   -1.780E+00   -1.781E+00   -1.781E+00   -1.782E+00   -1.782E+00   -1.782E+00
    -1.783E+00   -1.783E+00   -1.783E+00   -1.783E+00   -1.783E+00   -1.783E+00   -1.782E+00   -1.782E+00   -1.782E+00   -1.781E+00
    -1.781E+00   -1.780E+00   -1.779E+00   -1.778E+00   -1.777E+00   -1.776E+00   -1.775E+00   -1.774E+00   -1.773E+00   -1.771E+00
    -1.770E+00   -1.768E+00   -1.767E+00   -1.765E+00   -1.763E+00   -1.761E+00   -1.760E+00   -1.758E+00   -1.755E+00   -1.753E+00
    -1.751E+00   -1.748E+00   -1.746E+00   -1.743E+00   -1.741E+00   -1.738E+00   -1.735E+00   -1.732E+00   -1.729E+00   -1.726E+00
    -1.723E+00   -1.720E+00   -1.717E+00   -1.713E+00   -1.710E+00   -1.706E+00   -1.703E+00   -1.699E+00   -1.695E+00   -1.691E+00
    -1.687E+00   -1.683E+00   -1.679E+00   -1.674E+00   -1.670E+00   -1.666E+00   -1.661E+00   -1.657E+00   -1.652E+00   -1.647E+00
    -1.642E+00   -1.637E+00   -1.632E+00   -1.627E+00   -1.622E+00   -1.617E+00   -1.611E+00   -1.606E+00   -1.600E+00   -1.595E+00
    -1.589E+00   -1.583E+00   -1.577E+00   -1.571E+00   -1.565E+00   -1.559E+00   -1.553E+00   -1.546E+00   -1.540E+00   -1.534E+00
    -1.527E+00   -1.520E+00   -1.514E+00   -1.507E+00   -1.500E+00   -1.493E+00   -1.486E+00   -1.479E+00   -1.471E+00   -1.464E+00
    -1.457E+00   -1.449E+00   -1.441E+00   -1.434E+00   -1.426E+00   -1.418E+00   -1.410E+00   -1.402E+00
 GABA     Conc. = 5.69E-01
