 LCModel (Version 6.3-1L) Copyright: S.W. Provencher.          Ref.: Magn. Reson. Med. 30:672-679 (1993).                
 Slice#2 Row#4 Col#7  PD_05_press_2_raw_act
 36 lines in following concentration table = NCONC+1
    Conc.  %SD /Cr+PCr  Metabolite                                         
  264.875 135% 8.7E-02 Ala                                                 
  367.056 140%   0.120 Asp                                                 
 1.89E+03  34%   0.619 Cr                                                  
 1.17E+03  58%   0.381 PCr                                                 
  295.870 110% 9.7E-02 GABA                                                
  414.026  78%   0.135 Glc                                                 
 1.43E+03  51%   0.468 Gln                                                 
 2.44E+03  34%   0.799 Glu                                                 
 1.21E+03   6%   0.395 GPC                                                 
    0.000 999%   0.000 PCh                                                 
  842.618  27%   0.275 GSH                                                 
 3.86E+03  19%   1.261 Ins                                                 
    0.000 999%   0.000 Lac                                                 
 3.25E+03  10%   1.061 NAA                                                 
 1.03E+03  33%   0.337 NAAG                                                
  175.428  42% 5.7E-02 Scyllo                                              
    0.000 999%   0.000 Tau                                                 
  145.491 212% 4.8E-02 -CrCH2                                              
 1.21E+03   6%   0.395 GPC+PCh                                             
 4.28E+03   6%   1.398 NAA+NAAG                                            
 3.06E+03   6%   1.000 Cr+PCr                                              
 3.88E+03  29%   1.267 Glu+Gln                                             
 3.71E+03  37%   1.214 Lip13a                                              
    0.000 999%   0.000 Lip13b                                              
  713.794  81%   0.233 Lip09                                               
 2.47E+03  27%   0.808 MM09                                                
  468.619  81%   0.153 Lip20                                               
 4.23E+03  24%   1.384 MM20                                                
  699.704  58%   0.229 MM12                                                
 4.63E+03  23%   1.513 MM14                                                
 2.28E+03  26%   0.745 MM17                                                
 3.71E+03  37%   1.214 Lip13a+Lip13b                                       
 9.04E+03  11%   2.955 MM14+Lip13a+Lip13b+MM12                             
 3.18E+03  15%   1.041 MM09+Lip09                                          
 4.70E+03  21%   1.537 MM20+Lip20                                          
   6 lines in following misc. output table
  FWHM = 0.054 ppm    S/N =   6                                            
  Data shift = 0.031 ppm                                                   
  Ph: -14 deg       4.3 deg/ppm                                            
  alphaB,S = 8.5E+01,   1.0E+02                                            
   14 spline knots.   Ns = 7(1)                                            
   2 inflections.     1 extrema                                            
  498 points on ppm-axis = NY
      4.000000     3.992357     3.984714     3.977070     3.969427     3.961784     3.954141     3.946497     3.938854     3.931211
      3.923568     3.915925     3.908281     3.900638     3.892995     3.885352     3.877708     3.870065     3.862422     3.854779
      3.847136     3.839492     3.831849     3.824206     3.816563     3.808919     3.801276     3.793633     3.785990     3.778347
      3.770703     3.763060     3.755417     3.747774     3.740130     3.732487     3.724844     3.717201     3.709558     3.701914
      3.694271     3.686628     3.678985     3.671341     3.663698     3.656055     3.648412     3.640769     3.633125     3.625482
      3.617839     3.610196     3.602552     3.594909     3.587266     3.579623     3.571980     3.564336     3.556693     3.549050
      3.541407     3.533763     3.526120     3.518477     3.510834     3.503191     3.495547     3.487904     3.480261     3.472618
      3.464974     3.457331     3.449688     3.442045     3.434402     3.426758     3.419115     3.411472     3.403829     3.396185
      3.388542     3.380899     3.373256     3.365613     3.357969     3.350326     3.342683     3.335040     3.327396     3.319753
      3.312110     3.304467     3.296824     3.289180     3.281537     3.273894     3.266251     3.258607     3.250964     3.243321
      3.235678     3.228034     3.220391     3.212748     3.205105     3.197462     3.189818     3.182175     3.174532     3.166889
      3.159245     3.151602     3.143959     3.136316     3.128673     3.121029     3.113386     3.105743     3.098100     3.090456
      3.082813     3.075170     3.067527     3.059884     3.052240     3.044597     3.036954     3.029311     3.021667     3.014024
      3.006381     2.998738     2.991095     2.983451     2.975808     2.968165     2.960522     2.952878     2.945235     2.937592
      2.929949     2.922306     2.914662     2.907019     2.899376     2.891733     2.884089     2.876446     2.868803     2.861160
      2.853517     2.845873     2.838230     2.830587     2.822944     2.815300     2.807657     2.800014     2.792371     2.784728
      2.777084     2.769441     2.761798     2.754155     2.746511     2.738868     2.731225     2.723582     2.715939     2.708295
      2.700652     2.693009     2.685366     2.677722     2.670079     2.662436     2.654793     2.647150     2.639506     2.631863
      2.624220     2.616577     2.608933     2.601290     2.593647     2.586004     2.578361     2.570717     2.563074     2.555431
      2.547788     2.540144     2.532501     2.524858     2.517215     2.509572     2.501928     2.494285     2.486642     2.478999
      2.471355     2.463712     2.456069     2.448426     2.440783     2.433139     2.425496     2.417853     2.410210     2.402566
      2.394923     2.387280     2.379637     2.371994     2.364350     2.356707     2.349064     2.341421     2.333777     2.326134
      2.318491     2.310848     2.303205     2.295561     2.287918     2.280275     2.272632     2.264988     2.257345     2.249702
      2.242059     2.234416     2.226772     2.219129     2.211486     2.203843     2.196199     2.188556     2.180913     2.173270
      2.165627     2.157983     2.150340     2.142697     2.135054     2.127410     2.119767     2.112124     2.104481     2.096838
      2.089194     2.081551     2.073908     2.066265     2.058621     2.050978     2.043335     2.035692     2.028049     2.020405
      2.012762     2.005119     1.997476     1.989833     1.982190     1.974546     1.966903     1.959260     1.951617     1.943974
      1.936331     1.928688     1.921045     1.913402     1.905759     1.898115     1.890472     1.882829     1.875186     1.867543
      1.859900     1.852257     1.844614     1.836971     1.829327     1.821684     1.814041     1.806398     1.798755     1.791112
      1.783469     1.775826     1.768183     1.760540     1.752896     1.745253     1.737610     1.729967     1.722324     1.714681
      1.707038     1.699395     1.691752     1.684108     1.676465     1.668822     1.661179     1.653536     1.645893     1.638250
      1.630607     1.622964     1.615321     1.607677     1.600034     1.592391     1.584748     1.577105     1.569462     1.561819
      1.554176     1.546533     1.538890     1.531246     1.523603     1.515960     1.508317     1.500674     1.493031     1.485388
      1.477745     1.470102     1.462458     1.454815     1.447172     1.439529     1.431886     1.424243     1.416600     1.408957
      1.401314     1.393671     1.386027     1.378384     1.370741     1.363098     1.355455     1.347812     1.340169     1.332526
      1.324883     1.317240     1.309596     1.301953     1.294310     1.286667     1.279024     1.271381     1.263738     1.256095
      1.248452     1.240808     1.233165     1.225522     1.217879     1.210236     1.202593     1.194950     1.187307     1.179664
      1.172021     1.164377     1.156734     1.149091     1.141448     1.133805     1.126162     1.118519     1.110876     1.103233
      1.095590     1.087946     1.080303     1.072660     1.065017     1.057374     1.049731     1.042088     1.034445     1.026802
      1.019158     1.011515     1.003872     0.996229     0.988586     0.980943     0.973300     0.965657     0.958014     0.950371
      0.942727     0.935084     0.927441     0.919798     0.912155     0.904512     0.896869     0.889226     0.881583     0.873940
      0.866296     0.858653     0.851010     0.843367     0.835724     0.828081     0.820438     0.812795     0.805152     0.797508
      0.789865     0.782222     0.774579     0.766936     0.759293     0.751650     0.744007     0.736364     0.728721     0.721077
      0.713434     0.705791     0.698148     0.690505     0.682862     0.675219     0.667576     0.659933     0.652290     0.644646
      0.637003     0.629360     0.621717     0.614074     0.606431     0.598788     0.591145     0.583502     0.575858     0.568215
      0.560572     0.552929     0.545286     0.537643     0.530000     0.522357     0.514714     0.507071     0.499427     0.491784
      0.484141     0.476498     0.468855     0.461212     0.453569     0.445925     0.438282     0.430639     0.422996     0.415353
      0.407710     0.400067     0.392424     0.384780     0.377137     0.369494     0.361851     0.354208     0.346565     0.338922
      0.331278     0.323635     0.315992     0.308349     0.300706     0.293063     0.285420     0.277777     0.270133     0.262490
      0.254847     0.247204     0.239561     0.231918     0.224275     0.216631     0.208988     0.201345
 NY phased data points follow
   5.45496E+00 -1.54387E+01  5.02114E+00  4.17109E+00  2.52311E+01  3.45015E+01  4.31061E+01  1.78175E+01  5.28929E+01  7.02046E+01
   5.50207E+01  6.14331E+01  6.77551E+01  4.56644E+01  3.27075E+01  1.21927E+01 -2.79922E-02  1.60867E+01  2.27313E+01 -3.70276E+00
   2.96722E+01  8.39652E+00  1.37797E+01  2.16521E+01 -7.77740E+00  2.17970E+01  1.76028E+01  9.14246E+00  3.30158E+01  1.44643E+01
   2.21214E+01  2.98433E+01  1.27669E+01 -5.46028E+00 -1.38937E+00 -6.08560E-01 -4.31302E+00  1.23838E+01  2.07340E+01  1.96568E+01
   2.21481E+01 -1.38799E+00  2.03279E+00  1.17990E+01  1.91470E+01  1.30127E+01  2.89928E+01  5.31005E+01  3.94502E+01  9.81095E+00
   1.45747E+01  1.34149E+01  3.18496E+01  3.26156E+00  2.27884E+01  1.21221E+01  1.32398E+01  2.43595E+01  1.97795E+01  1.25591E+01
   9.56974E+00  1.79473E+00  1.67135E+01 -1.39984E+01 -1.09662E+01 -1.21828E+01 -4.25695E-01 -1.35835E+01 -1.00463E+01 -2.02631E+01
  -1.22923E+01 -1.39860E+01 -8.56726E+00 -7.49066E-01 -4.34289E+00  1.56603E+00  7.58571E+00  4.02232E+00  7.58433E+00  5.50386E+00
  -2.77975E-01  2.88747E-01  2.48400E+00 -8.22453E-01  2.95069E+00  1.40729E+00  5.37028E+00 -2.06084E+01  1.29433E+01  5.32905E+00
   2.14266E+01 -1.94474E+01  9.11112E+00  2.70275E+00  6.58416E-02  9.77103E+00  1.50462E+01  1.72235E+01  1.73809E+01  3.36859E+01
   5.81264E+01  9.49538E+01  1.06024E+02  1.03623E+02  9.64575E+01  8.28331E+01  7.58953E+01  3.55964E+01  2.92098E+01  2.84281E+00
  -5.15705E+00 -6.16622E+00  1.07548E+01  1.17459E+01  1.10157E+01  1.82011E+00 -1.12709E+01  5.63974E+00  2.20515E+01  5.17194E+00
   2.97160E+00  1.45997E+01  1.90472E+01  3.46170E+01  4.40478E+01  8.72985E+01  1.02355E+02  9.69840E+01  9.87837E+01  6.86962E+01
   5.55737E+01  4.75191E+01  1.60603E+01  3.26254E+01  3.46759E+01 -2.68238E+00  4.85998E+00  2.92781E+00 -8.33930E+00 -9.07957E+00
   5.85358E+00 -9.27288E+00 -3.75338E+00 -1.46841E+01  6.83851E+00 -1.37280E+01 -1.23262E+01 -1.31124E+01 -5.66777E+00 -7.13671E+00
   6.12910E+00 -1.37062E+01 -1.57233E+01  1.52222E+00 -9.88484E+00  9.87226E-01 -1.88768E+01 -1.08080E+01  6.87683E+00 -8.90935E-01
  -1.21724E+01 -2.77830E+01 -2.35508E+01 -1.07416E+01  2.44941E+00 -1.87728E+01  1.56592E+01 -1.07117E+00  8.31645E+00 -1.67385E+01
  -2.35028E+01 -2.88853E+01 -1.04892E+01  1.23493E+00 -5.73544E+00 -2.24717E+01 -1.23455E+01 -1.42909E+01 -2.31001E+01 -3.07396E+01
  -1.27999E+01 -1.44904E+01 -2.03682E+01 -1.84595E+01 -2.71308E+01 -3.13403E+01 -3.75918E+01 -1.05369E+01  2.54742E+00 -1.46790E+01
   4.43638E+00 -1.13942E+01 -7.66190E+00 -3.11691E+00 -6.89279E+00 -9.47390E+00 -1.39806E+01 -2.68840E-01  6.42039E+00 -1.12220E+01
  -9.35058E+00 -8.71648E+00  2.19771E+00 -1.01200E+01 -1.10409E+01  9.68210E+00 -9.77622E+00 -6.52701E+00 -2.67252E+01 -1.29074E+01
   8.19143E+00 -1.95814E+01  8.76996E+00 -4.54022E+00  3.80173E+00  1.61493E+01  3.42328E+01 -1.41433E+00 -6.32015E+00  9.36569E+00
  -8.98985E+00 -1.37244E+01 -1.13014E+01 -1.05360E+01 -4.16421E+00 -3.45673E+00  5.73651E+00  1.56742E+01  2.32966E+00  8.96333E+00
  -4.85032E+00 -2.93611E+00  4.53064E+00 -3.70826E+00  1.20660E+01  4.58495E+00 -6.85222E+00  2.88151E+01  2.29371E+01  1.08786E+01
   1.50499E+01  1.90515E+00  1.14406E+01  9.75463E+00  9.55270E+00  4.98829E-01  1.59482E+01  1.78808E+01  2.92738E+01  2.55926E+01
   1.75928E+01  3.48319E+01  5.08054E+01  5.20050E+01  6.03654E+01  7.03760E+01  8.06511E+01  9.69846E+01  1.19259E+02  1.21810E+02
   1.43839E+02  1.53251E+02  1.06360E+02  9.53178E+01  5.67456E+01  4.23886E+01  2.73924E+01  1.11770E+01  2.59125E+01  1.39994E+01
   2.72721E+01  1.17989E-02  2.67443E+00  4.87217E+00 -2.98034E+00 -3.30936E+00  2.45781E+01 -4.93976E+00 -2.43522E+00  2.45631E+00
   5.15175E+00 -5.98805E+00 -3.76141E+00  2.08302E+00  2.87614E+00 -1.70220E+01 -1.58514E+01  3.84025E+00  1.32587E+01 -1.14824E+01
   1.56656E+01  7.73828E+00  2.01857E+01 -8.12028E+00  1.40012E+01 -5.60310E+00  1.78132E+01  7.24718E+00  8.29668E+00  1.23037E+01
   3.94557E-02  2.07836E+00  8.69683E+00 -8.29823E-01  3.23670E+01  2.77610E+01  2.80045E+00 -5.91134E+00  1.83073E+01  2.72991E+01
   2.82430E+01  2.56694E+01  2.16668E+01  1.57675E+01  2.82967E+01  2.70321E+01  2.45318E+01  2.00324E+01  2.01128E+01  1.51978E+01
   2.18299E+01  3.82180E+00  3.00997E+01  4.56513E+01  1.62937E+01  6.04847E+00  1.67339E+01  1.51674E+01  2.90037E+01  3.56650E+01
   5.29371E+00  1.57466E+01  3.70408E+01  2.58545E+01  3.30310E+01  6.44906E+00  2.64851E+01  2.67910E+01  4.29276E+01  3.34155E+01
   3.33497E+01  3.35389E+01  2.36267E+01  4.46040E+01  3.40228E+01  3.93374E+01  4.40846E+01  3.74142E+01  4.12836E+01  4.96949E+01
   4.18095E+01  3.39664E+01  2.82516E+01  4.27125E+01  3.35342E+01  3.86881E+01  2.21083E+01  2.76393E+01  2.66210E+01  2.49877E+01
   3.46602E+01  1.65973E+01  3.89227E+00  1.55124E+01  2.54063E+01  2.47553E+01  8.72699E+00  1.47827E+01  1.05871E+01  2.23110E+01
   2.10001E+01  2.11460E+01  1.75153E+01  1.68778E+01 -3.27403E-01  2.72745E+01  1.25342E+01  2.13134E+01  2.88248E+01  5.04856E-01
   1.82199E+01 -9.48494E-01  2.32369E+01  1.55976E+00  1.90868E-02  1.58603E+01  2.09144E+01  7.25979E+00 -3.83966E-01  2.00681E+01
   8.24593E+00 -9.09913E+00  2.00841E+01 -5.94257E+00  2.49589E+01  8.04939E+00  1.19198E+01  2.82563E+01  2.29627E+01  2.60054E+01
   9.46381E+00  5.59604E+00  2.84894E+01  3.08775E+01  2.93603E+01  2.96626E+01  3.31675E+01  1.64239E+01  1.83675E+01  2.93594E+01
   2.52331E+01  4.65024E+01  2.88820E+01  2.79707E+01  1.49657E+01  1.87865E+00  2.56610E+01  1.14520E+01  3.30046E+00  2.10797E+01
   2.05764E+01 -9.51615E-03  6.60298E+00  1.15997E+01 -4.67985E-01  1.46517E+01  2.40262E+01  1.35741E+01 -9.54507E-01  5.44973E+00
   2.80829E+01  2.00746E+01  2.85733E+01  1.99182E+01 -4.85706E-01  8.05779E+00  1.29089E+01  1.94676E+00  1.69862E+01  1.08518E+01
   1.33957E+01  1.72519E+01  1.56011E+00  2.17071E+01  1.46694E+01  1.71791E+01  1.73597E+01  2.49070E+01 -3.07843E-01  6.04454E+00
   7.86894E+00  2.15932E+01  3.40455E+00  1.90536E+01  1.71713E+01  7.72233E-01 -8.90994E+00  1.05976E+01  6.35463E+00  9.73383E+00
   7.27413E+00 -4.64177E+00  2.69370E+00 -1.81705E+01  1.18695E+00  1.02132E+01  9.03710E+00  1.55737E+00  5.19160E+00 -8.69500E+00
   1.75929E+01  1.32174E+01  1.57259E+01  1.16909E+01  1.88032E+01  2.24686E+01  5.86174E+00 -1.42301E+00  1.64330E+01  3.06037E+00
   1.14244E+01  4.44833E+00 -8.11369E+00  1.68912E+01 -5.86043E+00 -2.58191E+00  2.02734E+00 -3.03233E+00  1.94728E+01  2.39080E+01
   7.80133E+00 -2.40444E+00 -1.12709E+01  6.92843E+00 -4.64725E+00  7.97045E+00 -5.27581E+00  6.02072E+00
 NY points of the fit to the data follow
   5.21835E+00  4.95343E+00  6.46299E+00  9.53786E+00  1.45429E+01  2.20403E+01  3.11923E+01  4.13413E+01  5.14301E+01  5.95039E+01
   6.33518E+01  6.17022E+01  5.48964E+01  4.47265E+01  3.36847E+01  2.37482E+01  1.58276E+01  1.00349E+01  6.21274E+00  3.68005E+00
   2.28761E+00  1.91566E+00  1.97901E+00  2.49880E+00  3.25482E+00  4.72423E+00  7.49774E+00  1.16435E+01  1.64081E+01  2.06036E+01
   2.31617E+01  2.34340E+01  2.14036E+01  1.77708E+01  1.35106E+01  9.53334E+00  6.39845E+00  4.05285E+00  2.49915E+00  2.09446E+00
   2.92755E+00  5.03283E+00  8.19417E+00  1.24522E+01  1.76408E+01  2.28641E+01  2.67145E+01  2.78500E+01  2.56788E+01  2.07822E+01
   1.44432E+01  8.25216E+00  3.62625E+00  1.02617E+00  3.20718E-03  1.87052E-01  1.47592E+00  3.58458E+00  5.74788E+00  7.18241E+00
   7.41775E+00  6.31924E+00  4.21010E+00  1.73476E+00 -3.10924E-01 -1.28523E+00 -1.17617E+00 -2.92671E-01  1.10950E+00  2.75352E+00
   4.28433E+00  5.42561E+00  5.98570E+00  5.95861E+00  5.47141E+00  4.71864E+00  3.92064E+00  3.20651E+00  2.64877E+00  2.37222E+00
   2.31619E+00  2.38234E+00  2.59092E+00  2.88046E+00  2.88517E+00  2.17369E+00  6.11371E-01 -1.48629E+00 -3.48610E+00 -4.68533E+00
  -4.75462E+00 -3.85383E+00 -2.39221E+00 -8.44781E-01  5.60425E-01  2.47324E+00  7.34754E+00  1.57478E+01  2.70853E+01  4.31301E+01
   6.40689E+01  8.61162E+01  1.02924E+02  1.08975E+02  1.02193E+02  8.51139E+01  6.33196E+01  4.22893E+01  2.54902E+01  1.35785E+01
   5.12563E+00 -1.08693E+00 -4.13523E+00 -4.49859E+00 -4.25241E+00 -3.88652E+00 -3.49080E+00 -3.00380E+00 -2.21784E+00 -4.03520E-01
   4.60479E+00  1.31399E+01  2.45630E+01  4.00164E+01  5.93184E+01  7.90674E+01  9.39509E+01  9.94073E+01  9.37629E+01  7.92914E+01
   6.06896E+01  4.23802E+01  2.70659E+01  1.51895E+01  5.79108E+00 -1.57951E+00 -5.57063E+00 -6.36620E+00 -5.69589E+00 -4.36241E+00
  -2.98892E+00 -1.99652E+00 -1.47826E+00 -1.40289E+00 -1.70267E+00 -2.20823E+00 -2.81928E+00 -3.52789E+00 -4.25923E+00 -4.95204E+00
  -5.56207E+00 -6.07312E+00 -6.47610E+00 -6.76162E+00 -6.95601E+00 -7.05482E+00 -7.15191E+00 -7.42170E+00 -7.90604E+00 -8.56958E+00
  -9.18622E+00 -9.47081E+00 -9.34935E+00 -9.03081E+00 -8.78595E+00 -8.80806E+00 -9.16599E+00 -9.71852E+00 -1.02569E+01 -1.07116E+01
  -1.11073E+01 -1.14563E+01 -1.19061E+01 -1.25077E+01 -1.31142E+01 -1.35248E+01 -1.35826E+01 -1.33240E+01 -1.30139E+01 -1.28596E+01
  -1.28481E+01 -1.27454E+01 -1.23258E+01 -1.15585E+01 -1.04936E+01 -9.14667E+00 -7.47711E+00 -5.39947E+00 -3.07396E+00 -1.00798E+00
   1.95549E-01  1.63899E-01 -9.27002E-01 -2.60504E+00 -4.30823E+00 -5.51439E+00 -5.85639E+00 -5.02721E+00 -3.06089E+00 -3.58868E-01
   2.52522E+00  5.03885E+00  6.50417E+00  6.38860E+00  4.76772E+00  1.70617E+00 -2.51992E+00 -7.02210E+00 -1.05094E+01 -1.18612E+01
  -1.08540E+01 -7.76262E+00 -3.17045E+00  1.98257E+00  6.40193E+00  8.80002E+00  8.59911E+00  6.09457E+00  1.93172E+00 -2.97256E+00
  -7.05517E+00 -9.11480E+00 -8.75444E+00 -6.26633E+00 -2.54605E+00  1.46385E+00  4.73226E+00  6.58982E+00  7.01714E+00  6.56474E+00
   6.05227E+00  5.86392E+00  6.18075E+00  7.21520E+00  8.88888E+00  1.06226E+01  1.18864E+01  1.24343E+01  1.21413E+01  1.10065E+01
   9.26635E+00  7.60033E+00  6.73754E+00  7.02279E+00  8.28877E+00  1.00785E+01  1.20429E+01  1.38576E+01  1.57003E+01  1.84626E+01
   2.22301E+01  2.71206E+01  3.38862E+01  4.42667E+01  5.81366E+01  7.25068E+01  8.73383E+01  1.03485E+02  1.19586E+02  1.31826E+02
   1.35975E+02  1.29595E+02  1.13552E+02  9.18289E+01  6.95666E+01  5.09951E+01  3.70868E+01  2.65554E+01  1.81184E+01  1.25440E+01
   1.02622E+01  9.24590E+00  8.74524E+00  8.50706E+00  8.28366E+00  7.91145E+00  7.37494E+00  6.70381E+00  5.96844E+00  5.26060E+00
   4.65480E+00  4.17698E+00  3.83543E+00  3.62370E+00  3.50791E+00  3.45747E+00  3.44526E+00  3.46289E+00  3.53145E+00  3.67836E+00
   3.91356E+00  4.23808E+00  4.64042E+00  5.10185E+00  5.60554E+00  6.15253E+00  6.75057E+00  7.41267E+00  8.15450E+00  8.97981E+00
   9.87995E+00  1.08428E+01  1.18419E+01  1.28409E+01  1.38074E+01  1.47162E+01  1.55487E+01  1.62881E+01  1.69178E+01  1.74318E+01
   1.78285E+01  1.81097E+01  1.82838E+01  1.83648E+01  1.83725E+01  1.83310E+01  1.82691E+01  1.82193E+01  1.82203E+01  1.83253E+01
   1.86098E+01  1.90464E+01  1.95808E+01  2.02286E+01  2.09094E+01  2.14351E+01  2.16252E+01  2.14218E+01  2.10024E+01  2.06852E+01
   2.06843E+01  2.11828E+01  2.23013E+01  2.40007E+01  2.60688E+01  2.82236E+01  3.02127E+01  3.17880E+01  3.28359E+01  3.34532E+01
   3.37970E+01  3.39989E+01  3.41075E+01  3.41070E+01  3.40403E+01  3.39803E+01  3.38996E+01  3.37772E+01  3.36052E+01  3.33797E+01
   3.30980E+01  3.27576E+01  3.23562E+01  3.18918E+01  3.13622E+01  3.07659E+01  3.01025E+01  2.93730E+01  2.85801E+01  2.77278E+01
   2.68218E+01  2.58694E+01  2.48792E+01  2.38610E+01  2.28254E+01  2.17832E+01  2.07452E+01  1.97216E+01  1.87226E+01  1.77572E+01
   1.68338E+01  1.59593E+01  1.51395E+01  1.43794E+01  1.36830E+01  1.30539E+01  1.24945E+01  1.20069E+01  1.15928E+01  1.12541E+01
   1.09926E+01  1.08103E+01  1.07093E+01  1.06918E+01  1.07605E+01  1.09181E+01  1.11675E+01  1.15112E+01  1.19509E+01  1.24876E+01
   1.31209E+01  1.38486E+01  1.46667E+01  1.55680E+01  1.65426E+01  1.75773E+01  1.86561E+01  1.97599E+01  2.08667E+01  2.19524E+01
   2.29914E+01  2.39576E+01  2.48260E+01  2.55728E+01  2.61772E+01  2.66219E+01  2.68942E+01  2.69868E+01  2.68980E+01  2.66315E+01
   2.61963E+01  2.56059E+01  2.48780E+01  2.40332E+01  2.30944E+01  2.20849E+01  2.10282E+01  1.99464E+01  1.88600E+01  1.77874E+01
   1.67439E+01  1.57421E+01  1.47914E+01  1.38983E+01  1.30672E+01  1.23000E+01  1.15966E+01  1.09556E+01  1.03740E+01  9.84846E+00
   9.37507E+00  8.94961E+00  8.56777E+00  8.22518E+00  7.91778E+00  7.64180E+00  7.39393E+00  7.17100E+00  6.97016E+00  6.78878E+00
   6.62467E+00  6.47594E+00  6.34099E+00  6.21827E+00  6.10643E+00  6.00421E+00  5.91071E+00  5.82510E+00  5.74669E+00  5.67471E+00
   5.60852E+00  5.54753E+00  5.49139E+00  5.43974E+00  5.39225E+00  5.34846E+00  5.30804E+00  5.27072E+00  5.23638E+00  5.20481E+00
   5.17581E+00  5.14907E+00  5.12443E+00  5.10179E+00  5.08112E+00  5.06226E+00  5.04507E+00  5.02931E+00  5.01494E+00  5.00192E+00
   4.99026E+00  4.97982E+00  4.97047E+00  4.96207E+00  4.95463E+00  4.94816E+00  4.94265E+00  4.93794E+00  4.93393E+00  4.93054E+00
   4.92783E+00  4.92580E+00  4.92441E+00  4.92351E+00  4.92303E+00  4.92294E+00  4.92332E+00  4.92414E+00  4.92533E+00  4.92672E+00
   4.92830E+00  4.93007E+00  4.93209E+00  4.93427E+00  4.93653E+00  4.93870E+00  4.94079E+00  4.94280E+00
 NY background values follow
    -1.102E+01   -1.099E+01   -1.096E+01   -1.094E+01   -1.091E+01   -1.089E+01   -1.086E+01   -1.084E+01   -1.081E+01   -1.079E+01
    -1.076E+01   -1.073E+01   -1.071E+01   -1.068E+01   -1.066E+01   -1.063E+01   -1.061E+01   -1.058E+01   -1.056E+01   -1.053E+01
    -1.050E+01   -1.048E+01   -1.045E+01   -1.043E+01   -1.040E+01   -1.038E+01   -1.035E+01   -1.032E+01   -1.030E+01   -1.027E+01
    -1.025E+01   -1.022E+01   -1.020E+01   -1.017E+01   -1.014E+01   -1.012E+01   -1.009E+01   -1.007E+01   -1.004E+01   -1.001E+01
    -9.989E+00   -9.963E+00   -9.937E+00   -9.911E+00   -9.885E+00   -9.859E+00   -9.833E+00   -9.807E+00   -9.781E+00   -9.755E+00
    -9.729E+00   -9.703E+00   -9.677E+00   -9.651E+00   -9.625E+00   -9.599E+00   -9.573E+00   -9.547E+00   -9.521E+00   -9.495E+00
    -9.469E+00   -9.443E+00   -9.417E+00   -9.391E+00   -9.364E+00   -9.338E+00   -9.312E+00   -9.286E+00   -9.260E+00   -9.234E+00
    -9.207E+00   -9.181E+00   -9.155E+00   -9.129E+00   -9.103E+00   -9.076E+00   -9.050E+00   -9.024E+00   -8.998E+00   -8.971E+00
    -8.945E+00   -8.919E+00   -8.893E+00   -8.866E+00   -8.840E+00   -8.814E+00   -8.787E+00   -8.761E+00   -8.735E+00   -8.708E+00
    -8.682E+00   -8.656E+00   -8.629E+00   -8.603E+00   -8.576E+00   -8.550E+00   -8.524E+00   -8.497E+00   -8.471E+00   -8.444E+00
    -8.418E+00   -8.391E+00   -8.365E+00   -8.338E+00   -8.312E+00   -8.285E+00   -8.259E+00   -8.232E+00   -8.206E+00   -8.179E+00
    -8.153E+00   -8.126E+00   -8.100E+00   -8.073E+00   -8.047E+00   -8.020E+00   -7.993E+00   -7.967E+00   -7.940E+00   -7.914E+00
    -7.887E+00   -7.860E+00   -7.834E+00   -7.807E+00   -7.780E+00   -7.754E+00   -7.727E+00   -7.700E+00   -7.674E+00   -7.647E+00
    -7.620E+00   -7.594E+00   -7.567E+00   -7.540E+00   -7.513E+00   -7.487E+00   -7.460E+00   -7.433E+00   -7.406E+00   -7.380E+00
    -7.353E+00   -7.326E+00   -7.299E+00   -7.272E+00   -7.246E+00   -7.219E+00   -7.192E+00   -7.165E+00   -7.138E+00   -7.112E+00
    -7.085E+00   -7.058E+00   -7.031E+00   -7.004E+00   -6.977E+00   -6.950E+00   -6.923E+00   -6.896E+00   -6.870E+00   -6.843E+00
    -6.816E+00   -6.789E+00   -6.762E+00   -6.735E+00   -6.708E+00   -6.681E+00   -6.654E+00   -6.627E+00   -6.600E+00   -6.573E+00
    -6.546E+00   -6.519E+00   -6.492E+00   -6.465E+00   -6.438E+00   -6.411E+00   -6.384E+00   -6.357E+00   -6.330E+00   -6.303E+00
    -6.276E+00   -6.249E+00   -6.221E+00   -6.194E+00   -6.167E+00   -6.140E+00   -6.113E+00   -6.086E+00   -6.059E+00   -6.032E+00
    -6.005E+00   -5.977E+00   -5.950E+00   -5.923E+00   -5.896E+00   -5.869E+00   -5.842E+00   -5.814E+00   -5.787E+00   -5.760E+00
    -5.733E+00   -5.706E+00   -5.678E+00   -5.651E+00   -5.624E+00   -5.597E+00   -5.570E+00   -5.542E+00   -5.515E+00   -5.488E+00
    -5.461E+00   -5.433E+00   -5.406E+00   -5.379E+00   -5.351E+00   -5.324E+00   -5.297E+00   -5.270E+00   -5.242E+00   -5.215E+00
    -5.188E+00   -5.160E+00   -5.133E+00   -5.106E+00   -5.078E+00   -5.051E+00   -5.024E+00   -4.996E+00   -4.969E+00   -4.942E+00
    -4.914E+00   -4.887E+00   -4.859E+00   -4.832E+00   -4.805E+00   -4.777E+00   -4.750E+00   -4.722E+00   -4.695E+00   -4.668E+00
    -4.640E+00   -4.613E+00   -4.585E+00   -4.558E+00   -4.531E+00   -4.503E+00   -4.476E+00   -4.448E+00   -4.421E+00   -4.393E+00
    -4.366E+00   -4.338E+00   -4.311E+00   -4.284E+00   -4.256E+00   -4.229E+00   -4.201E+00   -4.174E+00   -4.146E+00   -4.119E+00
    -4.091E+00   -4.064E+00   -4.036E+00   -4.009E+00   -3.981E+00   -3.954E+00   -3.926E+00   -3.899E+00   -3.871E+00   -3.844E+00
    -3.816E+00   -3.789E+00   -3.761E+00   -3.734E+00   -3.706E+00   -3.679E+00   -3.651E+00   -3.623E+00   -3.596E+00   -3.568E+00
    -3.541E+00   -3.513E+00   -3.486E+00   -3.458E+00   -3.431E+00   -3.403E+00   -3.376E+00   -3.348E+00   -3.320E+00   -3.293E+00
    -3.265E+00   -3.238E+00   -3.210E+00   -3.183E+00   -3.155E+00   -3.127E+00   -3.100E+00   -3.072E+00   -3.045E+00   -3.017E+00
    -2.990E+00   -2.962E+00   -2.934E+00   -2.907E+00   -2.879E+00   -2.852E+00   -2.824E+00   -2.796E+00   -2.769E+00   -2.741E+00
    -2.714E+00   -2.686E+00   -2.659E+00   -2.631E+00   -2.603E+00   -2.576E+00   -2.548E+00   -2.521E+00   -2.493E+00   -2.465E+00
    -2.438E+00   -2.410E+00   -2.383E+00   -2.355E+00   -2.327E+00   -2.300E+00   -2.272E+00   -2.245E+00   -2.217E+00   -2.189E+00
    -2.162E+00   -2.134E+00   -2.107E+00   -2.079E+00   -2.051E+00   -2.024E+00   -1.996E+00   -1.969E+00   -1.941E+00   -1.914E+00
    -1.886E+00   -1.858E+00   -1.831E+00   -1.803E+00   -1.776E+00   -1.748E+00   -1.720E+00   -1.693E+00   -1.665E+00   -1.638E+00
    -1.610E+00   -1.583E+00   -1.555E+00   -1.527E+00   -1.500E+00   -1.472E+00   -1.445E+00   -1.417E+00   -1.390E+00   -1.362E+00
    -1.334E+00   -1.307E+00   -1.279E+00   -1.252E+00   -1.224E+00   -1.197E+00   -1.169E+00   -1.142E+00   -1.114E+00   -1.087E+00
    -1.059E+00   -1.031E+00   -1.004E+00   -9.764E-01   -9.488E-01   -9.213E-01   -8.938E-01   -8.663E-01   -8.388E-01   -8.112E-01
    -7.837E-01   -7.562E-01   -7.287E-01   -7.012E-01   -6.737E-01   -6.462E-01   -6.187E-01   -5.912E-01   -5.638E-01   -5.363E-01
    -5.088E-01   -4.813E-01   -4.539E-01   -4.264E-01   -3.989E-01   -3.715E-01   -3.440E-01   -3.165E-01   -2.891E-01   -2.617E-01
    -2.342E-01   -2.068E-01   -1.793E-01   -1.519E-01   -1.245E-01   -9.706E-02   -6.964E-02   -4.223E-02   -1.482E-02    1.258E-02
     3.998E-02    6.738E-02    9.477E-02    1.222E-01    1.495E-01    1.769E-01    2.043E-01    2.317E-01    2.590E-01    2.864E-01
     3.137E-01    3.411E-01    3.684E-01    3.957E-01    4.231E-01    4.504E-01    4.777E-01    5.050E-01    5.324E-01    5.597E-01
     5.870E-01    6.142E-01    6.415E-01    6.688E-01    6.961E-01    7.234E-01    7.506E-01    7.779E-01    8.051E-01    8.324E-01
     8.596E-01    8.869E-01    9.141E-01    9.413E-01    9.685E-01    9.957E-01    1.023E+00    1.050E+00    1.077E+00    1.104E+00
     1.132E+00    1.159E+00    1.186E+00    1.213E+00    1.240E+00    1.267E+00    1.295E+00    1.322E+00    1.349E+00    1.376E+00
     1.403E+00    1.430E+00    1.457E+00    1.484E+00    1.511E+00    1.538E+00    1.566E+00    1.593E+00    1.620E+00    1.647E+00
     1.674E+00    1.701E+00    1.728E+00    1.755E+00    1.782E+00    1.809E+00    1.836E+00    1.863E+00    1.890E+00    1.917E+00
     1.944E+00    1.970E+00    1.997E+00    2.024E+00    2.051E+00    2.078E+00    2.105E+00    2.132E+00    2.159E+00    2.186E+00
     2.213E+00    2.239E+00    2.266E+00    2.293E+00    2.320E+00    2.347E+00    2.374E+00    2.400E+00
 Ala      Conc. = 2.65E+02
