 LCModel (Version 6.3-1L) Copyright: S.W. Provencher.          Ref.: Magn. Reson. Med. 30:672-679 (1993).                
 Slice#1 Row#8 Col#11  PD_05_press_2_raw_act
 36 lines in following concentration table = NCONC+1
    Conc.  %SD /Cr+PCr  Metabolite                                         
   15.351 785% 3.3E-02 Ala                                                 
  208.158  80%   0.452 Asp                                                 
  131.239 144%   0.285 Cr                                                  
  329.625  58%   0.715 PCr                                                 
   32.428 324% 7.0E-02 GABA                                                
  113.260  93%   0.246 Glc                                                 
  634.306  39%   1.376 Gln                                                 
 1.53E+03  19%   3.312 Glu                                                 
  122.845  18%   0.267 GPC                                                 
    0.000 999%   0.000 PCh                                                 
   39.881 201% 8.7E-02 GSH                                                 
  228.883 111%   0.497 Ins                                                 
    0.000 999%   0.000 Lac                                                 
 2.45E+03   6%   5.320 NAA                                                 
  241.361  63%   0.524 NAAG                                                
   57.405  43%   0.125 Scyllo                                              
  348.584  44%   0.756 Tau                                                 
  399.810  22%   0.868 -CrCH2                                              
  122.845  18%   0.267 GPC+PCh                                             
 2.69E+03   4%   5.844 NAA+NAAG                                            
  460.864  13%   1.000 Cr+PCr                                              
 2.16E+03  19%   4.688 Glu+Gln                                             
 1.33E+03  30%   2.882 Lip13a                                              
    0.000 999%   0.000 Lip13b                                              
    0.000 999%   0.000 Lip09                                               
 1.69E+03  11%   3.658 MM09                                                
  199.405  72%   0.433 Lip20                                               
 3.26E+03  11%   7.067 MM20                                                
  542.449  24%   1.177 MM12                                                
 2.30E+03  16%   4.989 MM14                                                
 1.65E+03  15%   3.577 MM17                                                
 1.33E+03  30%   2.882 Lip13a+Lip13b                                       
 4.17E+03   9%   9.048 MM14+Lip13a+Lip13b+MM12                             
 1.69E+03  11%   3.658 MM09+Lip09                                          
 3.46E+03  11%   7.500 MM20+Lip20                                          
   6 lines in following misc. output table
  FWHM = 0.046 ppm    S/N =  12                                            
  Data shift = 0.008 ppm                                                   
  Ph: -81 deg     -27.9 deg/ppm                                            
  alphaB,S = 8.5E+01,   9.0E+01                                            
   14 spline knots.   Ns = 7(1)                                            
   2 inflections.     1 extrema                                            
  498 points on ppm-axis = NY
      4.000000     3.992357     3.984714     3.977070     3.969427     3.961784     3.954141     3.946497     3.938854     3.931211
      3.923568     3.915925     3.908281     3.900638     3.892995     3.885352     3.877708     3.870065     3.862422     3.854779
      3.847136     3.839492     3.831849     3.824206     3.816563     3.808919     3.801276     3.793633     3.785990     3.778347
      3.770703     3.763060     3.755417     3.747774     3.740130     3.732487     3.724844     3.717201     3.709558     3.701914
      3.694271     3.686628     3.678985     3.671341     3.663698     3.656055     3.648412     3.640769     3.633125     3.625482
      3.617839     3.610196     3.602552     3.594909     3.587266     3.579623     3.571980     3.564336     3.556693     3.549050
      3.541407     3.533763     3.526120     3.518477     3.510834     3.503191     3.495547     3.487904     3.480261     3.472618
      3.464974     3.457331     3.449688     3.442045     3.434402     3.426758     3.419115     3.411472     3.403829     3.396185
      3.388542     3.380899     3.373256     3.365613     3.357969     3.350326     3.342683     3.335040     3.327396     3.319753
      3.312110     3.304467     3.296824     3.289180     3.281537     3.273894     3.266251     3.258607     3.250964     3.243321
      3.235678     3.228034     3.220391     3.212748     3.205105     3.197462     3.189818     3.182175     3.174532     3.166889
      3.159245     3.151602     3.143959     3.136316     3.128673     3.121029     3.113386     3.105743     3.098100     3.090456
      3.082813     3.075170     3.067527     3.059884     3.052240     3.044597     3.036954     3.029311     3.021667     3.014024
      3.006381     2.998738     2.991095     2.983451     2.975808     2.968165     2.960522     2.952878     2.945235     2.937592
      2.929949     2.922306     2.914662     2.907019     2.899376     2.891733     2.884089     2.876446     2.868803     2.861160
      2.853517     2.845873     2.838230     2.830587     2.822944     2.815300     2.807657     2.800014     2.792371     2.784728
      2.777084     2.769441     2.761798     2.754155     2.746511     2.738868     2.731225     2.723582     2.715939     2.708295
      2.700652     2.693009     2.685366     2.677722     2.670079     2.662436     2.654793     2.647150     2.639506     2.631863
      2.624220     2.616577     2.608933     2.601290     2.593647     2.586004     2.578361     2.570717     2.563074     2.555431
      2.547788     2.540144     2.532501     2.524858     2.517215     2.509572     2.501928     2.494285     2.486642     2.478999
      2.471355     2.463712     2.456069     2.448426     2.440783     2.433139     2.425496     2.417853     2.410210     2.402566
      2.394923     2.387280     2.379637     2.371994     2.364350     2.356707     2.349064     2.341421     2.333777     2.326134
      2.318491     2.310848     2.303205     2.295561     2.287918     2.280275     2.272632     2.264988     2.257345     2.249702
      2.242059     2.234416     2.226772     2.219129     2.211486     2.203843     2.196199     2.188556     2.180913     2.173270
      2.165627     2.157983     2.150340     2.142697     2.135054     2.127410     2.119767     2.112124     2.104481     2.096838
      2.089194     2.081551     2.073908     2.066265     2.058621     2.050978     2.043335     2.035692     2.028049     2.020405
      2.012762     2.005119     1.997476     1.989833     1.982190     1.974546     1.966903     1.959260     1.951617     1.943974
      1.936331     1.928688     1.921045     1.913402     1.905759     1.898115     1.890472     1.882829     1.875186     1.867543
      1.859900     1.852257     1.844614     1.836971     1.829327     1.821684     1.814041     1.806398     1.798755     1.791112
      1.783469     1.775826     1.768183     1.760540     1.752896     1.745253     1.737610     1.729967     1.722324     1.714681
      1.707038     1.699395     1.691752     1.684108     1.676465     1.668822     1.661179     1.653536     1.645893     1.638250
      1.630607     1.622964     1.615321     1.607677     1.600034     1.592391     1.584748     1.577105     1.569462     1.561819
      1.554176     1.546533     1.538890     1.531246     1.523603     1.515960     1.508317     1.500674     1.493031     1.485388
      1.477745     1.470102     1.462458     1.454815     1.447172     1.439529     1.431886     1.424243     1.416600     1.408957
      1.401314     1.393671     1.386027     1.378384     1.370741     1.363098     1.355455     1.347812     1.340169     1.332526
      1.324883     1.317240     1.309596     1.301953     1.294310     1.286667     1.279024     1.271381     1.263738     1.256095
      1.248452     1.240808     1.233165     1.225522     1.217879     1.210236     1.202593     1.194950     1.187307     1.179664
      1.172021     1.164377     1.156734     1.149091     1.141448     1.133805     1.126162     1.118519     1.110876     1.103233
      1.095590     1.087946     1.080303     1.072660     1.065017     1.057374     1.049731     1.042088     1.034445     1.026802
      1.019158     1.011515     1.003872     0.996229     0.988586     0.980943     0.973300     0.965657     0.958014     0.950371
      0.942727     0.935084     0.927441     0.919798     0.912155     0.904512     0.896869     0.889226     0.881583     0.873940
      0.866296     0.858653     0.851010     0.843367     0.835724     0.828081     0.820438     0.812795     0.805152     0.797508
      0.789865     0.782222     0.774579     0.766936     0.759293     0.751650     0.744007     0.736364     0.728721     0.721077
      0.713434     0.705791     0.698148     0.690505     0.682862     0.675219     0.667576     0.659933     0.652290     0.644646
      0.637003     0.629360     0.621717     0.614074     0.606431     0.598788     0.591145     0.583502     0.575858     0.568215
      0.560572     0.552929     0.545286     0.537643     0.530000     0.522357     0.514714     0.507071     0.499427     0.491784
      0.484141     0.476498     0.468855     0.461212     0.453569     0.445925     0.438282     0.430639     0.422996     0.415353
      0.407710     0.400067     0.392424     0.384780     0.377137     0.369494     0.361851     0.354208     0.346565     0.338922
      0.331278     0.323635     0.315992     0.308349     0.300706     0.293063     0.285420     0.277777     0.270133     0.262490
      0.254847     0.247204     0.239561     0.231918     0.224275     0.216631     0.208988     0.201345
 NY phased data points follow
   3.75602E-01  1.07225E+01  1.29675E+01 -9.37989E-01 -6.99013E-01 -6.66622E-01  3.48050E+00  1.31830E+01  7.41821E-01  2.59969E-01
  -6.60723E+00  2.77212E+00  8.24821E-01  6.62005E-01  1.02960E+01  1.14482E+01  6.92828E+00  6.45532E+00  2.84303E+00  4.35154E+00
   5.70145E+00  1.10117E+01  5.01897E+00  5.84036E+00  8.39692E+00  8.86782E+00  4.25048E+00  4.48218E+00  2.98756E+00  1.02479E+01
  -1.20372E+00  3.07929E+00  5.06307E+00  6.34691E+00  1.96610E+00  4.10930E+00  8.57679E+00  7.17171E+00  4.83199E+00  2.39959E+00
   1.79100E+00  4.19474E+00  6.64979E+00  1.68222E+00  8.91630E+00  6.60137E+00  3.95964E+00  1.07609E+01  2.16925E-01  6.78728E+00
   5.04939E+00  4.34321E+00  3.21043E+00  3.35368E+00  4.35367E+00  6.13575E+00  2.19121E+00  1.00977E+01  5.47343E+00  1.84224E+00
  -9.37849E-01  2.11956E+00  1.71894E+00  5.71233E+00  1.01043E+00 -2.64937E+00  3.99799E+00  6.09249E+00  4.58258E+00  3.44975E+00
   1.30445E+01  4.59055E+00 -9.89980E-01  8.92632E+00  2.55164E+00  6.34603E+00  5.35396E+00  4.95916E+00  8.84122E+00  2.07492E+00
   3.99541E+00  8.45280E+00  7.07243E+00  1.45721E+01  3.39264E+00  7.40958E+00  2.57725E+00  7.48335E+00  6.12691E+00  4.61657E+00
   6.31185E+00  8.54056E+00  6.24543E+00  6.28585E+00  1.08480E+01  1.37196E+01  1.09372E+01  4.65123E+00  5.04680E+00  1.83546E+01
   1.71479E+01  1.91780E+01  1.45699E+01  1.36430E+01  1.00663E+01  1.02735E+01  7.41809E+00  6.59235E+00  7.24724E+00  6.11712E+00
   9.42332E+00  8.72288E+00  5.56977E+00  9.54156E+00  3.91722E+00  1.23723E+01  4.51743E+00  4.37517E+00  6.94383E+00  6.44255E+00
  -1.99139E-01  6.35857E+00  4.09654E+00  5.59753E+00  2.08636E+01  2.12247E+01  2.59117E+01  2.14041E+01  2.35896E+01  1.54415E+01
   1.36287E+01  1.15580E+01  1.00228E+01  4.88411E+00  9.87697E+00  6.85838E+00  8.36019E+00  8.30319E+00  4.21305E+00  4.16833E+00
   5.49087E+00  5.87960E+00  9.37929E+00  4.45612E-01  1.96134E+00  3.97956E+00 -2.96124E+00  4.71455E+00  3.65055E+00  1.36498E+00
   4.30538E-01  4.98135E-01  1.44726E+00  2.63995E+00  3.15460E+00  4.45465E+00  3.44790E+00  4.23508E+00  4.15678E+00  3.87872E+00
  -7.53858E+00  1.16762E+00  4.17443E+00  2.72191E+00  4.36704E-01  1.93454E+00  5.40340E-01 -5.17540E+00 -3.23855E+00 -8.82585E-01
  -7.22037E+00 -7.35870E+00  1.72943E-01 -8.24983E+00 -9.71981E+00 -6.69690E+00 -8.48835E+00 -1.01329E+01 -8.90726E+00 -8.85516E+00
  -5.69085E+00 -6.38935E+00 -1.60514E+00  6.32267E-01  1.55906E+00 -2.75802E+00  3.45963E-01 -1.82256E-01 -5.48741E-01  2.50114E+00
   1.54589E+00 -1.43512E+00 -2.43552E+00  4.22595E+00 -5.47864E-01 -6.51940E+00 -8.01391E+00 -1.35539E+00 -1.15564E+01 -5.28660E-01
  -7.17254E-01  1.88663E+00  5.53837E+00  6.18229E+00  6.81523E+00  8.91881E+00  6.42794E+00  6.33546E+00  4.05785E+00  3.19894E+00
  -1.14532E+00  5.13316E+00  1.07525E+01  7.43533E+00  1.66522E+01  2.07686E+01  1.86692E+01  1.62238E+01  1.59227E+01  9.08005E+00
   4.28771E+00 -1.48940E+00  3.96475E+00  4.03894E+00  6.13632E-01  8.23914E+00  6.07775E+00  7.20480E+00  1.60955E+01  1.28894E+01
   8.31880E+00  7.61357E+00  1.32087E+01  1.26024E+01  4.67886E+00  6.44716E+00  9.71615E+00  1.19441E+01  1.02959E+01  1.38693E+01
   8.33603E+00  7.15156E+00  6.05632E+00  6.54636E+00  7.49539E+00  1.41734E+01  1.79337E+01  1.92251E+01  1.37118E+01  1.72197E+01
   2.08797E+01  1.88690E+01  2.65796E+01  2.65878E+01  3.42346E+01  3.42008E+01  4.32983E+01  5.95779E+01  8.63118E+01  9.97440E+01
   1.06587E+02  1.00335E+02  8.77879E+01  6.21795E+01  5.10434E+01  4.23461E+01  2.17592E+01  2.46562E+01  1.40518E+01  1.78800E+01
   1.57063E+01  7.35816E+00  1.11510E+01  1.45047E+01  1.03461E+01  8.10239E+00  3.13215E+00  4.90410E+00  3.63043E+00  5.81237E+00
   1.45047E+01  1.07967E+01  8.21645E+00  3.32664E+00  6.52611E+00  5.87113E+00  7.64696E+00  3.02363E+00  5.13851E+00  1.05623E+01
   9.50648E+00  9.16382E+00  1.36331E+01  9.44005E+00  8.66630E+00  7.63233E+00  9.81704E+00  1.23632E+01  7.66259E+00  7.67492E+00
   1.38317E+01  1.12426E+01  9.91242E+00  1.33933E+01  8.47152E+00  7.78638E+00  1.54536E+01  1.46880E+01  1.29497E+01  2.19801E+01
   1.63076E+01  1.67765E+01  2.21313E+01  1.73203E+01  1.93721E+01  1.87806E+01  1.55699E+01  1.44510E+01  1.57645E+01  1.56546E+01
   9.93385E+00  1.37410E+01  1.05615E+01  9.94160E+00  1.16586E+01  8.80916E+00  1.26142E+01  7.98822E+00  6.26774E+00  1.50656E+01
   1.51870E+01  1.20854E+01  1.76317E+01  1.65866E+01  1.40032E+01  1.43689E+01  1.78789E+01  1.81330E+01  1.76568E+01  1.37169E+01
   1.67944E+01  1.60527E+01  1.23495E+01  1.81913E+01  1.84641E+01  1.46841E+01  1.36997E+01  1.03282E+01  1.69623E+01  1.38639E+01
   1.72291E+01  1.72021E+01  1.13836E+01  1.47728E+01  1.65201E+01  9.50220E+00  9.69037E+00  1.62468E+01  6.65023E+00  1.22429E+01
   1.23865E+01  1.12929E+01  1.05957E+01  9.28410E+00  6.84426E+00  9.96451E+00  1.01113E+01  8.76510E-01  1.25221E+01  8.78784E+00
   1.05125E+01  1.24492E+01  1.35794E+01  3.90744E+00  5.59938E+00  5.30228E+00  8.63148E+00  3.97431E+00  4.50294E-01  6.02604E+00
   3.38895E+00  4.93875E+00  5.23048E+00  9.79172E+00  8.84564E+00  8.65592E+00  1.67528E+00  6.94270E+00  8.22539E+00  9.21945E-01
   5.91399E+00 -2.94619E+00  3.25541E+00  3.95752E+00  9.26207E+00  5.90610E+00  8.66370E+00  6.08449E+00  5.94056E+00  1.12997E+01
   7.41317E+00  4.74377E+00  1.03461E+01  8.39478E+00  1.11972E+01  9.86082E+00  1.00654E+01  8.77781E+00  1.32028E+01  1.35051E+01
   8.41708E+00  6.56448E+00  1.13546E+01  7.60859E+00  1.07668E+01  1.23642E+01  9.35725E+00  1.09064E+01  5.62601E+00  6.43811E+00
   2.87984E+00 -5.33858E-01 -5.81403E-01  6.09990E+00  3.38432E+00 -1.49184E-01  7.35830E-01  3.98365E+00 -9.85614E-02  1.91354E+00
   4.05629E+00 -2.99794E+00 -4.86339E+00 -3.96447E+00 -1.81049E+00  3.85152E+00 -2.59630E-01 -2.60651E+00 -1.35529E+00  8.46560E-01
   1.45051E+00  7.09453E-01  1.04886E+00 -1.45611E+00 -1.47334E+00 -2.35163E+00  2.20611E+00  1.67396E+00  2.02664E+00  5.27688E-01
  -2.31873E+00 -7.57068E+00  1.43146E+00  5.42044E-01  5.72092E+00 -4.39988E+00  8.22979E-01 -6.57067E+00 -6.74622E+00 -5.02404E+00
   1.56414E+00 -2.91150E+00 -2.07253E-02  8.83978E-01 -3.73646E+00 -3.26276E+00  1.58876E+00 -5.99982E+00  2.05757E+00  1.94930E+00
  -2.02692E+00  6.65942E-01  5.23368E+00  4.04809E-01 -3.68652E+00  4.21345E+00  7.93909E-01 -7.36645E+00  1.16735E+00  3.00108E-01
   2.26132E+00  1.58409E+00  4.96002E-01  3.11883E+00  1.45042E+00  6.88240E+00  6.30291E-01 -4.32181E+00 -1.98398E+00  4.34037E+00
  -2.18104E+00 -2.56447E-01 -8.10412E+00 -4.12372E+00  1.43053E+00 -3.31713E+00  8.94955E-01  1.96744E+00
 NY points of the fit to the data follow
   3.71260E+00  3.73807E+00  3.84858E+00  3.99778E+00  4.18967E+00  4.29111E+00  4.14988E+00  3.91583E+00  3.89262E+00  4.18794E+00
   4.66684E+00  5.13116E+00  5.41725E+00  5.44271E+00  5.27831E+00  5.01750E+00  4.68626E+00  4.42194E+00  4.31414E+00  4.32459E+00
   4.54604E+00  4.93633E+00  5.29942E+00  5.47862E+00  5.31398E+00  4.74872E+00  3.94851E+00  3.30757E+00  3.29169E+00  4.10732E+00
   5.63557E+00  7.41040E+00  8.75156E+00  9.13218E+00  8.44333E+00  6.93198E+00  5.18799E+00  3.79906E+00  3.11144E+00  3.13836E+00
   3.60270E+00  4.23135E+00  4.82484E+00  5.31188E+00  5.76661E+00  6.17467E+00  6.44236E+00  6.49079E+00  6.27909E+00  5.84077E+00
   5.31636E+00  4.82019E+00  4.42343E+00  4.13065E+00  3.93150E+00  3.82271E+00  3.80718E+00  3.88301E+00  4.01625E+00  4.14150E+00
   4.21024E+00  4.20729E+00  4.18239E+00  4.17500E+00  4.19141E+00  4.22297E+00  4.23065E+00  4.16938E+00  4.08093E+00  4.04169E+00
   4.09710E+00  4.31661E+00  4.73483E+00  5.22860E+00  5.56659E+00  5.59013E+00  5.26159E+00  4.67278E+00  4.08878E+00  3.76752E+00
   3.77941E+00  4.14624E+00  4.88400E+00  5.82157E+00  6.65929E+00  7.14234E+00  7.13573E+00  6.70482E+00  6.06143E+00  5.38979E+00
   4.73134E+00  4.07685E+00  3.48005E+00  3.00527E+00  2.81300E+00  3.21288E+00  4.22267E+00  5.82772E+00  8.26937E+00  1.13825E+01
   1.43375E+01  1.62286E+01  1.65908E+01  1.54990E+01  1.35006E+01  1.13309E+01  9.42741E+00  7.88911E+00  6.75499E+00  5.89487E+00
   5.16157E+00  4.70143E+00  4.50317E+00  4.38015E+00  4.30084E+00  4.25398E+00  4.22154E+00  4.21820E+00  4.25979E+00  4.43462E+00
   4.94613E+00  5.93166E+00  7.83496E+00  1.10593E+01  1.51692E+01  1.89167E+01  2.11082E+01  2.12345E+01  1.95522E+01  1.68643E+01
   1.40644E+01  1.16257E+01  9.65901E+00  8.16359E+00  6.97300E+00  6.02657E+00  5.50791E+00  5.27395E+00  5.13055E+00  5.00907E+00
   4.88935E+00  4.78011E+00  4.70703E+00  4.66863E+00  4.62547E+00  4.53846E+00  4.39355E+00  4.20144E+00  3.99205E+00  3.79188E+00
   3.60888E+00  3.43969E+00  3.29521E+00  3.19129E+00  3.11513E+00  3.03625E+00  2.87148E+00  2.47662E+00  1.83611E+00  1.11745E+00
   6.02403E-01  5.32981E-01  8.96540E-01  1.41117E+00  1.74445E+00  1.72192E+00  1.37138E+00  8.48139E-01  3.37270E-01 -7.71108E-02
  -4.64958E-01 -8.93809E-01 -1.44173E+00 -2.09595E+00 -2.61565E+00 -2.77215E+00 -2.57077E+00 -2.23039E+00 -1.99593E+00 -1.93785E+00
  -1.93463E+00 -1.81219E+00 -1.53410E+00 -1.24562E+00 -9.87390E-01 -6.40095E-01 -5.17829E-02  8.55744E-01  1.94428E+00  2.94814E+00
   3.62924E+00  3.90780E+00  3.94419E+00  3.93417E+00  3.97345E+00  4.04185E+00  4.07518E+00  4.15383E+00  4.45097E+00  5.05139E+00
   5.99780E+00  7.15719E+00  8.18285E+00  8.63295E+00  8.20574E+00  6.74879E+00  4.40649E+00  1.71246E+00 -6.26914E-01 -2.08423E+00
  -2.31821E+00 -1.22356E+00  1.22260E+00  4.68555E+00  8.27824E+00  1.08842E+01  1.16976E+01  1.05576E+01  7.82816E+00  4.08034E+00
   3.26650E-01 -2.28645E+00 -3.08656E+00 -2.01857E+00  3.96380E-01  3.37747E+00  6.24082E+00  8.40132E+00  9.69258E+00  1.02235E+01
   1.02838E+01  1.01072E+01  9.79197E+00  9.55185E+00  9.67407E+00  1.02298E+01  1.10917E+01  1.20315E+01  1.27059E+01  1.28478E+01
   1.24875E+01  1.19350E+01  1.15799E+01  1.16709E+01  1.21993E+01  1.29775E+01  1.38276E+01  1.45956E+01  1.52581E+01  1.60060E+01
   1.70636E+01  1.87799E+01  2.13993E+01  2.52092E+01  3.04676E+01  3.72549E+01  4.81396E+01  6.48038E+01  8.39972E+01  9.89871E+01
   1.04477E+02  9.91289E+01  8.54521E+01  6.82512E+01  5.20460E+01  3.87928E+01  2.87074E+01  2.14647E+01  1.58208E+01  1.16872E+01
   9.86772E+00  9.09932E+00  8.67913E+00  8.42024E+00  8.21902E+00  7.97535E+00  7.66115E+00  7.29538E+00  6.90686E+00  6.53275E+00
   6.20947E+00  5.95065E+00  5.75162E+00  5.60911E+00  5.51587E+00  5.45869E+00  5.43163E+00  5.44007E+00  5.49948E+00  5.62476E+00
   5.81733E+00  6.07364E+00  6.39175E+00  6.76701E+00  7.19483E+00  7.67382E+00  8.20412E+00  8.78564E+00  9.41568E+00  1.00858E+01
   1.07833E+01  1.14916E+01  1.21900E+01  1.28562E+01  1.34703E+01  1.40139E+01  1.44733E+01  1.48368E+01  1.50960E+01  1.52473E+01
   1.52919E+01  1.52351E+01  1.50868E+01  1.48608E+01  1.45739E+01  1.42447E+01  1.38937E+01  1.35413E+01  1.32072E+01  1.29096E+01
   1.26650E+01  1.24839E+01  1.23753E+01  1.23410E+01  1.23670E+01  1.24307E+01  1.25188E+01  1.26315E+01  1.27790E+01  1.29696E+01
   1.32063E+01  1.34899E+01  1.38157E+01  1.41652E+01  1.45068E+01  1.48094E+01  1.50542E+01  1.52300E+01  1.53388E+01  1.53918E+01
   1.53979E+01  1.53643E+01  1.52962E+01  1.51954E+01  1.50686E+01  1.49226E+01  1.47596E+01  1.45815E+01  1.43907E+01  1.41886E+01
   1.39767E+01  1.37551E+01  1.35238E+01  1.32816E+01  1.30275E+01  1.27599E+01  1.24778E+01  1.21799E+01  1.18657E+01  1.15348E+01
   1.11875E+01  1.08247E+01  1.04484E+01  1.00605E+01  9.66408E+00  9.26191E+00  8.85768E+00  8.45506E+00  8.05809E+00  7.67045E+00
   7.29590E+00  6.93779E+00  6.59960E+00  6.28429E+00  5.99478E+00  5.73327E+00  5.50195E+00  5.30249E+00  5.13671E+00  5.00596E+00
   4.91160E+00  4.85455E+00  4.83588E+00  4.85642E+00  4.91719E+00  5.01883E+00  5.16193E+00  5.34656E+00  5.57271E+00  5.83971E+00
   6.14653E+00  6.49102E+00  6.87027E+00  7.28003E+00  7.71519E+00  8.16919E+00  8.63447E+00  9.10194E+00  9.56173E+00  1.00029E+01
   1.04145E+01  1.07852E+01  1.11041E+01  1.13609E+01  1.15470E+01  1.16550E+01  1.16800E+01  1.16191E+01  1.14723E+01  1.12415E+01
   1.09314E+01  1.05487E+01  1.01022E+01  9.60172E+00  9.05848E+00  8.48368E+00  7.88889E+00  7.28505E+00  6.68252E+00  6.09023E+00
   5.51603E+00  4.96606E+00  4.44533E+00  3.95722E+00  3.50400E+00  3.08644E+00  2.70455E+00  2.35730E+00  2.04333E+00  1.76063E+00
   1.50706E+00  1.28004E+00  1.07716E+00  8.95895E-01  7.34078E-01  5.89456E-01  4.60119E-01  3.44072E-01  2.39775E-01  1.45700E-01
   6.07467E-02 -1.63002E-02 -8.63395E-02 -1.50384E-01 -2.09052E-01 -2.63045E-01 -3.12755E-01 -3.58786E-01 -4.01486E-01 -4.41363E-01
  -4.78584E-01 -5.13484E-01 -5.46161E-01 -5.76971E-01 -6.06034E-01 -6.33634E-01 -6.59758E-01 -6.84604E-01 -7.08175E-01 -7.30734E-01
  -7.52293E-01 -7.73027E-01 -7.92841E-01 -8.11887E-01 -8.30138E-01 -8.47809E-01 -8.64854E-01 -8.81393E-01 -8.97305E-01 -9.12732E-01
  -9.27637E-01 -9.42199E-01 -9.56321E-01 -9.70091E-01 -9.83387E-01 -9.96359E-01 -1.00897E+00 -1.02135E+00 -1.03340E+00 -1.04518E+00
  -1.05659E+00 -1.06777E+00 -1.07867E+00 -1.08941E+00 -1.09984E+00 -1.11004E+00 -1.11991E+00 -1.12961E+00 -1.13905E+00 -1.14833E+00
  -1.15728E+00 -1.16599E+00 -1.17438E+00 -1.18259E+00 -1.19050E+00 -1.19817E+00 -1.20544E+00 -1.21239E+00
 NY background values follow
     3.689E+00    3.681E+00    3.672E+00    3.664E+00    3.656E+00    3.647E+00    3.639E+00    3.631E+00    3.622E+00    3.614E+00
     3.606E+00    3.598E+00    3.589E+00    3.581E+00    3.572E+00    3.564E+00    3.556E+00    3.547E+00    3.539E+00    3.531E+00
     3.522E+00    3.514E+00    3.506E+00    3.497E+00    3.489E+00    3.480E+00    3.472E+00    3.464E+00    3.455E+00    3.447E+00
     3.438E+00    3.430E+00    3.422E+00    3.413E+00    3.405E+00    3.396E+00    3.388E+00    3.379E+00    3.371E+00    3.363E+00
     3.354E+00    3.346E+00    3.337E+00    3.329E+00    3.320E+00    3.312E+00    3.303E+00    3.295E+00    3.286E+00    3.278E+00
     3.269E+00    3.261E+00    3.252E+00    3.244E+00    3.235E+00    3.227E+00    3.218E+00    3.210E+00    3.201E+00    3.193E+00
     3.184E+00    3.176E+00    3.167E+00    3.159E+00    3.150E+00    3.142E+00    3.133E+00    3.125E+00    3.116E+00    3.108E+00
     3.099E+00    3.090E+00    3.082E+00    3.073E+00    3.065E+00    3.056E+00    3.048E+00    3.039E+00    3.030E+00    3.022E+00
     3.013E+00    3.005E+00    2.996E+00    2.987E+00    2.979E+00    2.970E+00    2.962E+00    2.953E+00    2.944E+00    2.936E+00
     2.927E+00    2.919E+00    2.910E+00    2.901E+00    2.893E+00    2.884E+00    2.875E+00    2.867E+00    2.858E+00    2.849E+00
     2.841E+00    2.832E+00    2.823E+00    2.815E+00    2.806E+00    2.798E+00    2.789E+00    2.780E+00    2.771E+00    2.763E+00
     2.754E+00    2.745E+00    2.737E+00    2.728E+00    2.719E+00    2.711E+00    2.702E+00    2.693E+00    2.685E+00    2.676E+00
     2.667E+00    2.659E+00    2.650E+00    2.641E+00    2.632E+00    2.624E+00    2.615E+00    2.606E+00    2.597E+00    2.589E+00
     2.580E+00    2.571E+00    2.563E+00    2.554E+00    2.545E+00    2.536E+00    2.528E+00    2.519E+00    2.510E+00    2.501E+00
     2.493E+00    2.484E+00    2.475E+00    2.466E+00    2.458E+00    2.449E+00    2.440E+00    2.431E+00    2.422E+00    2.414E+00
     2.405E+00    2.396E+00    2.387E+00    2.379E+00    2.370E+00    2.361E+00    2.352E+00    2.343E+00    2.335E+00    2.326E+00
     2.317E+00    2.308E+00    2.299E+00    2.291E+00    2.282E+00    2.273E+00    2.264E+00    2.255E+00    2.247E+00    2.238E+00
     2.229E+00    2.220E+00    2.211E+00    2.202E+00    2.194E+00    2.185E+00    2.176E+00    2.167E+00    2.158E+00    2.149E+00
     2.141E+00    2.132E+00    2.123E+00    2.114E+00    2.105E+00    2.096E+00    2.088E+00    2.079E+00    2.070E+00    2.061E+00
     2.052E+00    2.043E+00    2.034E+00    2.026E+00    2.017E+00    2.008E+00    1.999E+00    1.990E+00    1.981E+00    1.972E+00
     1.964E+00    1.955E+00    1.946E+00    1.937E+00    1.928E+00    1.919E+00    1.910E+00    1.901E+00    1.893E+00    1.884E+00
     1.875E+00    1.866E+00    1.857E+00    1.848E+00    1.839E+00    1.830E+00    1.821E+00    1.813E+00    1.804E+00    1.795E+00
     1.786E+00    1.777E+00    1.768E+00    1.759E+00    1.750E+00    1.741E+00    1.733E+00    1.724E+00    1.715E+00    1.706E+00
     1.697E+00    1.688E+00    1.679E+00    1.670E+00    1.661E+00    1.652E+00    1.643E+00    1.635E+00    1.626E+00    1.617E+00
     1.608E+00    1.599E+00    1.590E+00    1.581E+00    1.572E+00    1.563E+00    1.554E+00    1.545E+00    1.536E+00    1.528E+00
     1.519E+00    1.510E+00    1.501E+00    1.492E+00    1.483E+00    1.474E+00    1.465E+00    1.456E+00    1.447E+00    1.438E+00
     1.429E+00    1.420E+00    1.411E+00    1.403E+00    1.394E+00    1.385E+00    1.376E+00    1.367E+00    1.358E+00    1.349E+00
     1.340E+00    1.331E+00    1.322E+00    1.313E+00    1.304E+00    1.295E+00    1.286E+00    1.277E+00    1.268E+00    1.260E+00
     1.251E+00    1.242E+00    1.233E+00    1.224E+00    1.215E+00    1.206E+00    1.197E+00    1.188E+00    1.179E+00    1.170E+00
     1.161E+00    1.152E+00    1.143E+00    1.134E+00    1.125E+00    1.116E+00    1.108E+00    1.099E+00    1.090E+00    1.081E+00
     1.072E+00    1.063E+00    1.054E+00    1.045E+00    1.036E+00    1.027E+00    1.018E+00    1.009E+00    1.000E+00    9.913E-01
     9.824E-01    9.734E-01    9.645E-01    9.555E-01    9.466E-01    9.376E-01    9.287E-01    9.198E-01    9.108E-01    9.019E-01
     8.929E-01    8.840E-01    8.751E-01    8.661E-01    8.572E-01    8.482E-01    8.393E-01    8.304E-01    8.214E-01    8.125E-01
     8.036E-01    7.946E-01    7.857E-01    7.767E-01    7.678E-01    7.589E-01    7.499E-01    7.410E-01    7.321E-01    7.231E-01
     7.142E-01    7.053E-01    6.964E-01    6.874E-01    6.785E-01    6.696E-01    6.606E-01    6.517E-01    6.428E-01    6.339E-01
     6.249E-01    6.160E-01    6.071E-01    5.982E-01    5.892E-01    5.803E-01    5.714E-01    5.625E-01    5.536E-01    5.446E-01
     5.357E-01    5.268E-01    5.179E-01    5.090E-01    5.001E-01    4.911E-01    4.822E-01    4.733E-01    4.644E-01    4.555E-01
     4.466E-01    4.377E-01    4.288E-01    4.199E-01    4.110E-01    4.021E-01    3.932E-01    3.843E-01    3.754E-01    3.665E-01
     3.576E-01    3.487E-01    3.398E-01    3.309E-01    3.220E-01    3.131E-01    3.042E-01    2.953E-01    2.864E-01    2.776E-01
     2.687E-01    2.598E-01    2.509E-01    2.420E-01    2.331E-01    2.243E-01    2.154E-01    2.065E-01    1.976E-01    1.888E-01
     1.799E-01    1.710E-01    1.622E-01    1.533E-01    1.444E-01    1.356E-01    1.267E-01    1.178E-01    1.090E-01    1.001E-01
     9.127E-02    8.242E-02    7.357E-02    6.472E-02    5.587E-02    4.702E-02    3.818E-02    2.933E-02    2.049E-02    1.165E-02
     2.812E-03   -6.025E-03   -1.486E-02   -2.369E-02   -3.252E-02   -4.135E-02   -5.018E-02   -5.901E-02   -6.783E-02   -7.665E-02
    -8.547E-02   -9.429E-02   -1.031E-01   -1.119E-01   -1.207E-01   -1.295E-01   -1.384E-01   -1.472E-01   -1.560E-01   -1.648E-01
    -1.736E-01   -1.824E-01   -1.912E-01   -2.000E-01   -2.087E-01   -2.175E-01   -2.263E-01   -2.351E-01   -2.439E-01   -2.527E-01
    -2.615E-01   -2.702E-01   -2.790E-01   -2.878E-01   -2.966E-01   -3.053E-01   -3.141E-01   -3.228E-01   -3.316E-01   -3.404E-01
    -3.491E-01   -3.579E-01   -3.666E-01   -3.754E-01   -3.841E-01   -3.929E-01   -4.016E-01   -4.104E-01   -4.191E-01   -4.278E-01
    -4.366E-01   -4.453E-01   -4.540E-01   -4.627E-01   -4.715E-01   -4.802E-01   -4.889E-01   -4.976E-01   -5.063E-01   -5.150E-01
    -5.237E-01   -5.325E-01   -5.412E-01   -5.499E-01   -5.585E-01   -5.672E-01   -5.759E-01   -5.846E-01   -5.933E-01   -6.020E-01
    -6.107E-01   -6.193E-01   -6.280E-01   -6.367E-01   -6.454E-01   -6.540E-01   -6.627E-01   -6.714E-01
 Ala      Conc. = 1.54E+01
