 LCModel (Version 6.3-1L) Copyright: S.W. Provencher.          Ref.: Magn. Reson. Med. 30:672-679 (1993).                
 Slice#2 Row#12 Col#1  PD_05_press_2_raw_act
 36 lines in following concentration table = NCONC+1
    Conc.  %SD /Cr+PCr  Metabolite                                         
    0.000 999%   0.000 Ala                                                 
   34.104  52%   0.282 Asp                                                 
  120.897  41%   1.000 Cr                                                  
    0.000 999%   0.000 PCr                                                 
   23.557  45%   0.195 GABA                                                
   23.290  46%   0.193 Glc                                                 
 2.45E+03  22%  20.291 Gln                                                 
    0.000 999%   0.000 Glu                                                 
   85.297  23%   0.706 GPC                                                 
    0.000 999%   0.000 PCh                                                 
   73.308 124%   0.606 GSH                                                 
  920.275  22%   7.612 Ins                                                 
   61.601 605%   0.510 Lac                                                 
    0.000 999%   0.000 NAA                                                 
  383.852  17%   3.175 NAAG                                                
    8.293  43% 6.9E-02 Scyllo                                              
   39.990  44%   0.331 Tau                                                 
    0.000 999%   0.000 -CrCH2                                              
   85.297  23%   0.706 GPC+PCh                                             
  383.852  17%   3.175 NAA+NAAG                                            
  120.897  41%   1.000 Cr+PCr                                              
 2.45E+03  22%  20.291 Glu+Gln                                             
    0.000 999%   0.000 Lip13a                                              
  332.386  44%   2.749 Lip13b                                              
    0.000 999%   0.000 Lip09                                               
  691.627  13%   5.721 MM09                                                
   87.249  56%   0.722 Lip20                                               
 1.06E+03  13%   8.806 MM20                                                
  205.955  15%   1.704 MM12                                                
  646.409  13%   5.347 MM14                                                
  319.207  16%   2.640 MM17                                                
  332.386  44%   2.749 Lip13a+Lip13b                                       
 1.18E+03  15%   9.800 MM14+Lip13a+Lip13b+MM12                             
  691.627  13%   5.721 MM09+Lip09                                          
 1.15E+03  13%   9.528 MM20+Lip20                                          
   6 lines in following misc. output table
  FWHM = 0.168 ppm    S/N =   2                                            
  Data shift = 0.115 ppm                                                   
  Ph:  77 deg      31.5 deg/ppm                                            
  alphaB,S = 8.5E+00,   4.7E+01                                            
    6 spline knots.   Ns = 9(2)                                            
  (15)13 infls.   (15) 7 extrs.                                            
  498 points on ppm-axis = NY
      4.000000     3.992357     3.984714     3.977070     3.969427     3.961784     3.954141     3.946497     3.938854     3.931211
      3.923568     3.915925     3.908281     3.900638     3.892995     3.885352     3.877708     3.870065     3.862422     3.854779
      3.847136     3.839492     3.831849     3.824206     3.816563     3.808919     3.801276     3.793633     3.785990     3.778347
      3.770703     3.763060     3.755417     3.747774     3.740130     3.732487     3.724844     3.717201     3.709558     3.701914
      3.694271     3.686628     3.678985     3.671341     3.663698     3.656055     3.648412     3.640769     3.633125     3.625482
      3.617839     3.610196     3.602552     3.594909     3.587266     3.579623     3.571980     3.564336     3.556693     3.549050
      3.541407     3.533763     3.526120     3.518477     3.510834     3.503191     3.495547     3.487904     3.480261     3.472618
      3.464974     3.457331     3.449688     3.442045     3.434402     3.426758     3.419115     3.411472     3.403829     3.396185
      3.388542     3.380899     3.373256     3.365613     3.357969     3.350326     3.342683     3.335040     3.327396     3.319753
      3.312110     3.304467     3.296824     3.289180     3.281537     3.273894     3.266251     3.258607     3.250964     3.243321
      3.235678     3.228034     3.220391     3.212748     3.205105     3.197462     3.189818     3.182175     3.174532     3.166889
      3.159245     3.151602     3.143959     3.136316     3.128673     3.121029     3.113386     3.105743     3.098100     3.090456
      3.082813     3.075170     3.067527     3.059884     3.052240     3.044597     3.036954     3.029311     3.021667     3.014024
      3.006381     2.998738     2.991095     2.983451     2.975808     2.968165     2.960522     2.952878     2.945235     2.937592
      2.929949     2.922306     2.914662     2.907019     2.899376     2.891733     2.884089     2.876446     2.868803     2.861160
      2.853517     2.845873     2.838230     2.830587     2.822944     2.815300     2.807657     2.800014     2.792371     2.784728
      2.777084     2.769441     2.761798     2.754155     2.746511     2.738868     2.731225     2.723582     2.715939     2.708295
      2.700652     2.693009     2.685366     2.677722     2.670079     2.662436     2.654793     2.647150     2.639506     2.631863
      2.624220     2.616577     2.608933     2.601290     2.593647     2.586004     2.578361     2.570717     2.563074     2.555431
      2.547788     2.540144     2.532501     2.524858     2.517215     2.509572     2.501928     2.494285     2.486642     2.478999
      2.471355     2.463712     2.456069     2.448426     2.440783     2.433139     2.425496     2.417853     2.410210     2.402566
      2.394923     2.387280     2.379637     2.371994     2.364350     2.356707     2.349064     2.341421     2.333777     2.326134
      2.318491     2.310848     2.303205     2.295561     2.287918     2.280275     2.272632     2.264988     2.257345     2.249702
      2.242059     2.234416     2.226772     2.219129     2.211486     2.203843     2.196199     2.188556     2.180913     2.173270
      2.165627     2.157983     2.150340     2.142697     2.135054     2.127410     2.119767     2.112124     2.104481     2.096838
      2.089194     2.081551     2.073908     2.066265     2.058621     2.050978     2.043335     2.035692     2.028049     2.020405
      2.012762     2.005119     1.997476     1.989833     1.982190     1.974546     1.966903     1.959260     1.951617     1.943974
      1.936331     1.928688     1.921045     1.913402     1.905759     1.898115     1.890472     1.882829     1.875186     1.867543
      1.859900     1.852257     1.844614     1.836971     1.829327     1.821684     1.814041     1.806398     1.798755     1.791112
      1.783469     1.775826     1.768183     1.760540     1.752896     1.745253     1.737610     1.729967     1.722324     1.714681
      1.707038     1.699395     1.691752     1.684108     1.676465     1.668822     1.661179     1.653536     1.645893     1.638250
      1.630607     1.622964     1.615321     1.607677     1.600034     1.592391     1.584748     1.577105     1.569462     1.561819
      1.554176     1.546533     1.538890     1.531246     1.523603     1.515960     1.508317     1.500674     1.493031     1.485388
      1.477745     1.470102     1.462458     1.454815     1.447172     1.439529     1.431886     1.424243     1.416600     1.408957
      1.401314     1.393671     1.386027     1.378384     1.370741     1.363098     1.355455     1.347812     1.340169     1.332526
      1.324883     1.317240     1.309596     1.301953     1.294310     1.286667     1.279024     1.271381     1.263738     1.256095
      1.248452     1.240808     1.233165     1.225522     1.217879     1.210236     1.202593     1.194950     1.187307     1.179664
      1.172021     1.164377     1.156734     1.149091     1.141448     1.133805     1.126162     1.118519     1.110876     1.103233
      1.095590     1.087946     1.080303     1.072660     1.065017     1.057374     1.049731     1.042088     1.034445     1.026802
      1.019158     1.011515     1.003872     0.996229     0.988586     0.980943     0.973300     0.965657     0.958014     0.950371
      0.942727     0.935084     0.927441     0.919798     0.912155     0.904512     0.896869     0.889226     0.881583     0.873940
      0.866296     0.858653     0.851010     0.843367     0.835724     0.828081     0.820438     0.812795     0.805152     0.797508
      0.789865     0.782222     0.774579     0.766936     0.759293     0.751650     0.744007     0.736364     0.728721     0.721077
      0.713434     0.705791     0.698148     0.690505     0.682862     0.675219     0.667576     0.659933     0.652290     0.644646
      0.637003     0.629360     0.621717     0.614074     0.606431     0.598788     0.591145     0.583502     0.575858     0.568215
      0.560572     0.552929     0.545286     0.537643     0.530000     0.522357     0.514714     0.507071     0.499427     0.491784
      0.484141     0.476498     0.468855     0.461212     0.453569     0.445925     0.438282     0.430639     0.422996     0.415353
      0.407710     0.400067     0.392424     0.384780     0.377137     0.369494     0.361851     0.354208     0.346565     0.338922
      0.331278     0.323635     0.315992     0.308349     0.300706     0.293063     0.285420     0.277777     0.270133     0.262490
      0.254847     0.247204     0.239561     0.231918     0.224275     0.216631     0.208988     0.201345
 NY phased data points follow
  -2.10275E+00 -1.33096E+00 -6.54521E-01 -5.63657E-01  4.23087E-01 -2.98861E+00  1.67131E+00 -3.36272E+00 -1.13214E+00 -2.32537E+00
   1.24981E+00  1.91494E+00 -1.95111E+00  8.03630E-01  8.37258E-01  1.50952E-01  5.37859E-01 -9.89128E-01 -5.67602E-01  8.59092E-02
  -1.89572E+00  6.54144E-01 -1.39470E+00 -3.73189E-01 -1.37846E+00 -1.15069E-01 -1.49058E+00 -1.28326E+00 -1.83937E+00 -2.56697E-01
   1.69922E+00 -1.50523E+00 -8.73221E-01  1.22519E+00 -2.03087E-01 -1.02609E+00 -5.67230E-01 -1.15416E+00  3.03119E-02 -1.03349E+00
  -1.56018E+00  1.62574E+00  2.48077E+00 -1.95977E+00 -2.15524E+00  1.08039E+00 -1.99908E+00 -1.18101E-01 -2.15485E+00 -1.21976E+00
   1.05817E+00  9.02101E-01 -6.45838E-01 -1.67479E+00 -2.47351E+00  7.78616E-01 -3.92019E-01 -1.13487E+00  7.83423E-01  2.55296E-01
  -2.06357E+00  7.31524E-01 -1.13783E+00 -1.75385E+00  1.61702E+00  5.57268E-01 -1.62331E+00 -1.83665E+00 -3.32986E+00 -2.74612E+00
  -3.61142E+00  3.80758E-02 -2.76334E+00  3.07273E-01 -5.58244E-01 -3.81884E+00 -1.23268E+00 -3.11954E-01 -1.27257E+00 -1.23643E+00
  -2.19918E+00 -2.81670E-01 -3.26834E+00 -2.57347E+00 -2.38205E+00 -3.54481E+00  4.25489E-01 -4.93758E-01 -3.85667E+00 -1.45919E+00
  -4.29276E+00 -3.27743E+00 -2.24325E+00 -6.50638E-01 -1.14225E+00 -9.86888E-01 -2.14444E+00  1.45692E+00 -2.63019E+00 -5.28511E-01
  -2.94778E+00 -2.68462E+00  9.61191E-01  3.02726E-01 -2.66276E+00 -2.20833E+00 -3.81798E-01 -2.85832E+00 -2.13710E+00 -8.24223E-01
  -1.66933E+00  4.27671E-01 -4.57105E+00 -3.15743E+00 -3.16417E+00 -2.36364E+00 -3.44475E+00 -4.18417E+00 -1.24389E+00 -9.93288E-02
   6.19432E-01 -1.98657E+00  2.18076E+00 -2.42424E+00 -1.68253E+00 -2.63928E+00 -1.57855E+00 -3.18774E-01 -2.30400E+00 -2.49733E+00
  -5.65371E+00 -2.36893E+00 -1.83370E+00 -7.29426E-01 -3.24779E+00 -3.63845E+00 -3.83969E+00 -2.15693E+00 -6.25233E-01  1.06045E-01
  -9.75858E-01 -1.50730E+00 -3.69052E+00 -2.07595E+00 -4.86566E-01 -3.19533E+00 -8.17196E-01 -2.53196E+00  2.10794E-01 -2.40320E-01
  -1.27877E+00 -3.36344E+00 -2.06754E+00 -2.18866E+00 -3.24538E+00 -4.21408E+00 -2.90167E+00 -1.45775E+00 -2.68945E+00 -4.04433E+00
  -2.62239E+00 -2.42743E+00 -1.24135E+00 -1.51839E+00 -5.14622E+00 -4.49624E+00  2.67921E-01 -2.19933E+00 -4.81403E+00 -2.49151E+00
  -4.09274E+00 -2.95080E+00 -4.65246E+00 -3.27607E+00 -3.46957E+00 -2.36300E+00 -2.23674E+00 -5.53283E+00 -5.27069E+00 -4.32987E+00
  -4.85191E+00 -4.58714E+00 -7.49899E+00 -5.84069E+00 -3.76961E+00 -7.00598E+00 -7.41589E+00 -5.65761E+00 -5.49490E+00 -5.89927E+00
  -6.64222E+00 -5.82566E+00 -6.71889E+00 -3.35642E+00 -4.52363E+00 -6.40024E+00 -5.29995E+00 -4.83592E+00 -5.57295E+00 -6.17575E+00
  -3.75028E+00 -5.50311E+00 -4.31004E+00 -4.28086E+00 -5.06365E+00 -4.46048E+00 -2.64160E+00 -3.89569E+00 -3.68272E+00 -1.34046E+00
  -3.04034E+00 -1.47757E+00 -5.87899E+00 -9.26941E-01 -2.68282E+00 -3.23323E+00 -2.84171E+00 -2.95649E+00 -1.04541E+00  1.10660E-01
   4.06244E-01 -1.30922E+00 -1.73731E+00 -5.36243E-02 -1.26865E+00 -9.41514E-01 -1.25335E+00  5.75821E-01  5.34166E-01  2.14393E+00
   1.52643E+00  1.09067E+00  5.98276E-01  3.03212E+00  4.68737E-01  3.37044E+00  1.03104E+00  1.13843E+00  2.39167E+00 -4.56854E-01
   2.87709E+00  3.93494E+00  3.24675E+00  3.58948E+00  8.69323E-01  3.62594E-01  3.14760E+00  1.82712E+00  4.13044E+00  7.01184E+00
   7.64778E+00  5.40997E+00  5.14375E+00  3.94710E+00  8.32815E+00  8.09065E+00  4.91924E+00  3.47864E+00  5.24322E+00  4.46554E+00
   3.99708E+00  1.87274E+00  4.37161E+00  2.00297E+00  1.70002E+00  1.85033E+00  1.51136E+00  2.07881E-01  4.03276E+00 -8.83475E-01
   1.84088E+00  1.95326E+00 -7.30777E-01 -7.84915E-01  2.00018E+00  8.67625E-01 -1.06040E+00 -9.92542E-02 -1.07269E+00  1.08551E+00
  -3.67184E+00 -3.51822E+00 -1.34925E+00 -1.41838E+00 -1.14142E+00 -2.34445E+00 -4.07147E+00 -4.38964E+00 -4.60257E+00 -2.71628E+00
  -5.05225E+00 -4.90790E+00 -3.29019E+00 -3.33306E+00 -3.58991E+00 -5.78222E+00 -4.92054E+00 -4.31748E+00 -4.35527E+00 -4.76665E+00
  -2.56183E+00 -5.36787E+00 -4.88121E+00 -4.23211E+00 -4.68649E+00 -4.63098E-01 -3.89924E+00 -2.48734E+00 -6.86377E+00 -2.47277E-01
  -1.96666E+00 -7.79476E-01  1.00247E+00 -2.68417E+00 -2.55863E+00  8.55025E-01  4.98767E-01  3.62503E+00  8.49343E-01  1.54285E+00
   4.18737E+00  3.88051E+00  3.65462E+00  5.69948E+00  3.94265E+00  8.51462E+00  7.86695E+00  9.45302E+00  6.17052E+00  6.33383E+00
   5.56107E+00  6.54057E+00  4.18716E+00  4.65074E+00  4.34938E+00  3.29672E+00  1.02239E+00  6.32340E-01  3.28694E+00  5.27447E+00
   5.01851E+00  2.53370E+00  4.19883E+00  5.14125E+00  4.90056E+00  4.45376E+00  3.88970E+00  5.74480E+00  2.23926E+00  1.51938E+00
   2.50721E+00  4.00796E+00  3.97393E+00  2.44041E+00  1.95873E+00  2.10214E+00  3.29696E+00  2.67854E+00 -6.62721E-01  1.42410E+00
   9.92592E-01 -3.53533E-01  1.66843E+00 -1.42604E+00 -5.15258E-01  2.00177E-01 -7.80395E-01  1.63899E+00 -5.88998E-01  1.93904E+00
  -2.92489E+00  1.14311E-01 -1.45775E+00 -7.84993E-01  1.89337E+00  2.10532E+00  1.42725E+00  1.96991E+00  2.38604E+00 -3.44740E-01
   1.64978E+00 -3.26868E-02  1.99425E+00  1.91850E+00  2.96816E+00  1.36277E+00  6.43868E-01  1.43338E+00  2.21526E+00  2.44354E+00
   2.00825E+00  1.04301E+00  3.51560E+00  9.81336E-01  1.30451E+00  5.54822E-01  2.17417E+00  2.03568E-01  2.48762E-01  1.33612E-01
   1.60456E+00 -1.59008E-01  1.30899E+00  1.42944E+00 -5.63118E-01 -2.45249E+00  3.21441E+00 -8.63543E-01  2.82104E+00 -6.07168E-01
   1.86583E+00  2.47129E-01  8.95135E-01 -3.41218E-01  1.41843E+00  1.05526E+00 -1.73064E+00  1.81087E+00  6.32542E-01  5.45467E-01
  -2.61236E+00 -1.58042E+00  1.61458E+00 -1.00187E+00 -1.03115E+00  2.68481E+00 -1.25407E-01  4.99259E-01  2.00237E+00 -2.57813E+00
  -9.00022E-01  2.15537E+00  2.62816E+00  1.60872E+00  1.02060E+00 -2.56979E-01 -5.87003E-01  9.71985E-01 -2.63306E-01  2.21950E+00
   1.78339E-02  1.13821E+00 -8.14792E-01  3.14247E+00  1.23640E+00  9.48880E-01 -2.99811E-01 -1.23522E+00  1.12786E+00  6.09905E-01
  -1.92633E+00  5.89722E-01 -4.40599E-01 -1.19906E+00  1.21583E+00  4.10176E-01  1.35033E+00  1.42375E+00  2.65872E+00 -5.22968E-01
  -7.23477E-01  1.27048E+00 -2.27616E-01 -5.76941E-01  5.61104E-01  1.52292E+00  7.87968E-01  2.05543E-01  1.92208E+00 -7.36647E-01
  -2.24611E-01  1.98250E+00 -1.23956E+00 -1.40961E+00  1.54660E+00  1.51502E+00  9.14158E-01 -1.69393E-01  1.09644E+00  7.72681E-01
  -2.13405E+00  2.56679E-01  8.85502E-01  7.27179E-01  3.12625E-01 -8.67264E-01 -1.87144E-01  1.90384E+00 -8.29051E-02  9.88917E-01
   8.15638E-01  1.09316E-01  1.19247E+00  7.40279E-01  1.86922E-01  1.75499E+00 -4.65257E-01  7.41412E-01
 NY points of the fit to the data follow
  -8.91084E-01 -9.11831E-01 -8.57433E-01 -8.59765E-01 -7.35325E-01 -7.37778E-01 -5.32535E-01 -6.99971E-01 -8.08095E-01 -9.01988E-01
  -1.02066E+00 -1.07384E+00 -1.15022E+00 -9.65390E-01 -7.04797E-01 -8.57152E-01 -9.63544E-01 -1.00212E+00 -1.13297E+00 -1.26254E+00
  -1.22400E+00 -1.03752E+00 -7.90348E-01 -7.19614E-01 -4.48321E-01 -5.13840E-01 -3.49325E-01 -7.40254E-01 -5.73672E-01 -6.15128E-01
  -8.93065E-02 -3.97206E-01 -4.37212E-02 -1.73577E-01  8.69248E-02 -3.63258E-01 -1.86736E-01 -3.76547E-01 -3.19722E-02 -7.46294E-02
   3.37602E-01  2.47682E-01  3.16288E-01 -2.32195E-02 -6.17351E-02 -1.70679E-01  3.43097E-01  3.00710E-01  6.13904E-01  2.99144E-01
   2.29168E-01 -5.51607E-01 -9.21868E-01 -1.00311E+00 -8.28833E-01 -7.76327E-01 -6.15416E-01 -5.70522E-01 -6.71723E-01 -8.73963E-01
  -8.57649E-01 -9.65842E-01 -8.78342E-01 -9.72506E-01 -8.50318E-01 -1.05002E+00 -1.10664E+00 -1.51296E+00 -1.65806E+00 -1.85259E+00
  -1.73929E+00 -1.87729E+00 -1.77766E+00 -1.94359E+00 -1.85882E+00 -2.02489E+00 -1.95885E+00 -2.16755E+00 -2.11142E+00 -2.46261E+00
  -2.51526E+00 -2.83689E+00 -2.82674E+00 -2.97164E+00 -2.71514E+00 -2.52631E+00 -2.49279E+00 -2.46869E+00 -2.43540E+00 -2.32544E+00
  -2.39979E+00 -2.22872E+00 -2.32958E+00 -1.91626E+00 -2.02910E+00 -1.50112E+00 -1.76684E+00 -1.22157E+00 -1.66341E+00 -1.25398E+00
  -1.64832E+00 -1.12896E+00 -1.60025E+00 -1.16369E+00 -1.63227E+00 -1.18968E+00 -1.74771E+00 -1.40799E+00 -1.79151E+00 -1.32871E+00
  -1.62076E+00 -1.29794E+00 -1.62109E+00 -1.34609E+00 -1.64740E+00 -1.45320E+00 -1.66034E+00 -1.41474E+00 -1.42927E+00 -1.09580E+00
  -1.17600E+00 -1.08254E+00 -1.32928E+00 -1.74083E+00 -1.61416E+00 -1.67690E+00 -1.51137E+00 -1.62458E+00 -1.48715E+00 -1.61663E+00
  -1.50884E+00 -1.73458E+00 -1.66374E+00 -1.86917E+00 -1.79962E+00 -1.98037E+00 -1.93551E+00 -2.15141E+00 -2.11944E+00 -2.32904E+00
  -2.29903E+00 -2.47429E+00 -2.46001E+00 -2.58070E+00 -2.57910E+00 -2.78287E+00 -2.87013E+00 -3.20677E+00 -3.33031E+00 -3.39822E+00
  -3.44810E+00 -3.51237E+00 -3.59867E+00 -3.64015E+00 -3.71851E+00 -3.72022E+00 -3.77627E+00 -3.77823E+00 -3.83571E+00 -3.83765E+00
  -3.92562E+00 -3.92404E+00 -4.02996E+00 -4.01062E+00 -4.10277E+00 -4.07394E+00 -4.11664E+00 -4.09606E+00 -4.15227E+00 -4.12177E+00
  -4.16263E+00 -4.12587E+00 -4.13836E+00 -4.08203E+00 -4.03971E+00 -4.07626E+00 -4.12848E+00 -4.19432E+00 -4.35573E+00 -4.38493E+00
  -4.51105E+00 -4.46468E+00 -4.48556E+00 -4.22570E+00 -4.23874E+00 -4.08750E+00 -4.17050E+00 -3.87552E+00 -4.18376E+00 -3.93147E+00
  -4.38256E+00 -4.44919E+00 -4.93995E+00 -4.21053E+00 -4.55921E+00 -3.96517E+00 -4.52654E+00 -3.85910E+00 -4.59092E+00 -4.03744E+00
  -4.89396E+00 -4.28706E+00 -5.08716E+00 -4.14284E+00 -4.94185E+00 -3.72887E+00 -4.47236E+00 -3.54974E+00 -4.31616E+00 -3.20272E+00
  -3.86433E+00 -2.82414E+00 -3.36762E+00 -1.92017E+00 -2.21922E+00 -1.09343E+00 -1.32367E+00 -7.50122E-01 -1.14733E+00 -3.77914E-01
  -7.86856E-01 -3.12036E-01 -6.88622E-01 -6.39812E-02 -8.85099E-01 -6.81454E-01 -1.20994E+00 -4.00772E-01 -6.85638E-01  7.12174E-01
   4.86032E-01  9.45756E-01  3.52305E-01  8.98517E-01  5.95946E-02  6.59732E-01 -2.22640E-01  6.17747E-01  4.35303E-01  1.27318E+00
   9.37141E-01  1.73701E+00  1.72589E+00  2.29469E+00  2.21704E+00  2.81691E+00  3.20592E+00  3.66367E+00  4.32635E+00  4.53104E+00
   5.10892E+00  4.80109E+00  5.18487E+00  4.94893E+00  5.60076E+00  5.46532E+00  6.03371E+00  5.19652E+00  5.33123E+00  4.12723E+00
   3.90618E+00  2.81772E+00  3.34256E+00  2.66724E+00  3.13152E+00  2.53483E+00  2.89974E+00  2.20723E+00  2.35248E+00  1.71141E+00
   1.62039E+00  9.90808E-01  1.07747E+00  4.10327E-01  3.09258E-01 -5.17522E-01 -1.08925E+00 -1.29306E+00 -1.31247E+00 -1.40181E+00
  -1.46724E+00 -1.55742E+00 -1.60795E+00 -1.68163E+00 -1.72188E+00 -1.78737E+00 -1.81244E+00 -1.86312E+00 -1.87196E+00 -1.91403E+00
  -1.91202E+00 -1.95265E+00 -1.95395E+00 -1.98792E+00 -1.97501E+00 -1.99828E+00 -1.97408E+00 -1.97472E+00 -1.94418E+00 -1.93841E+00
  -1.89973E+00 -1.88148E+00 -1.82805E+00 -1.79590E+00 -1.72367E+00 -1.65418E+00 -1.55112E+00 -1.43877E+00 -1.28389E+00 -1.11731E+00
  -9.03838E-01 -6.73637E-01 -4.08102E-01 -1.11710E-01  2.22997E-01  5.83603E-01  9.77843E-01  1.39031E+00  1.82488E+00  2.26755E+00
   2.70670E+00  3.13689E+00  3.54774E+00  3.93104E+00  4.27810E+00  4.58130E+00  4.83499E+00  5.03582E+00  5.18492E+00  5.28453E+00
   5.28231E+00  5.22563E+00  5.11086E+00  4.95466E+00  4.73503E+00  4.48506E+00  4.20584E+00  3.96617E+00  3.66973E+00  3.41200E+00
   3.12561E+00  2.92149E+00  2.70646E+00  2.58733E+00  2.50241E+00  2.54574E+00  2.58087E+00  2.73324E+00  2.84630E+00  3.03658E+00
   3.11898E+00  3.20081E+00  3.17469E+00  3.13977E+00  2.96666E+00  2.78030E+00  2.47501E+00  2.19743E+00  1.84743E+00  1.53983E+00
   1.22253E+00  9.79998E-01  7.49765E-01  6.06958E-01  4.52927E-01  3.60919E-01  2.68092E-01  2.07836E-01  2.03266E-01  2.34308E-01
   2.50526E-01  3.09333E-01  3.46632E-01  4.07348E-01  4.49789E-01  4.59251E-01  4.97571E-01  5.54021E-01  6.23137E-01  7.03232E-01
   7.93523E-01  8.93398E-01  1.00218E+00  1.11901E+00  1.24278E+00  1.37214E+00  1.50544E+00  1.64079E+00  1.77605E+00  1.90893E+00
   2.03697E+00  2.15769E+00  2.26859E+00  2.36728E+00  2.45154E+00  2.51943E+00  2.56934E+00  2.60004E+00  2.61077E+00  2.60123E+00
   2.57161E+00  2.52256E+00  2.45522E+00  2.37107E+00  2.27194E+00  2.15993E+00  2.03728E+00  1.90635E+00  1.76950E+00  1.62903E+00
   1.48708E+00  1.34565E+00  1.20650E+00  1.07114E+00  9.40819E-01  8.16534E-01  6.99025E-01  5.88797E-01  4.86147E-01  3.91192E-01
   3.03891E-01  2.24081E-01  1.51494E-01  8.57934E-02  2.65961E-02 -2.65111E-02 -7.39585E-02 -1.16177E-01 -1.53587E-01 -1.86596E-01
  -2.15586E-01 -2.40914E-01 -2.62912E-01 -2.81890E-01 -2.98129E-01 -3.11878E-01 -3.23368E-01 -3.32808E-01 -3.40385E-01 -3.46270E-01
  -3.50615E-01 -3.53558E-01 -3.55217E-01 -3.55707E-01 -3.55125E-01 -3.53560E-01 -3.51093E-01 -3.47795E-01 -3.43731E-01 -3.38962E-01
  -3.33543E-01 -3.27521E-01 -3.20946E-01 -3.13847E-01 -3.06271E-01 -2.98240E-01 -2.89799E-01 -2.80965E-01 -2.71772E-01 -2.62232E-01
  -2.52381E-01 -2.42226E-01 -2.31798E-01 -2.21102E-01 -2.10163E-01 -1.98987E-01 -1.87596E-01 -1.75995E-01 -1.64203E-01 -1.52222E-01
  -1.40070E-01 -1.27747E-01 -1.15269E-01 -1.02639E-01 -8.98701E-02 -7.69626E-02 -6.39267E-02 -5.07622E-02 -3.74812E-02 -2.40809E-02
  -1.05706E-02  3.04786E-03  1.67746E-02  3.06033E-02  4.45313E-02  5.85590E-02  7.26860E-02  8.69150E-02  1.01247E-01  1.15684E-01
   1.30230E-01  1.44891E-01  1.59677E-01  1.74601E-01  1.89679E-01  2.04936E-01  2.20405E-01  2.36138E-01
 NY background values follow
    -4.155E+00   -4.151E+00   -4.147E+00   -4.143E+00   -4.140E+00   -4.136E+00   -4.132E+00   -4.128E+00   -4.124E+00   -4.120E+00
    -4.116E+00   -4.112E+00   -4.109E+00   -4.105E+00   -4.101E+00   -4.097E+00   -4.093E+00   -4.089E+00   -4.085E+00   -4.082E+00
    -4.078E+00   -4.074E+00   -4.070E+00   -4.066E+00   -4.062E+00   -4.059E+00   -4.055E+00   -4.051E+00   -4.047E+00   -4.043E+00
    -4.040E+00   -4.036E+00   -4.032E+00   -4.028E+00   -4.024E+00   -4.021E+00   -4.017E+00   -4.013E+00   -4.009E+00   -4.005E+00
    -4.001E+00   -3.998E+00   -3.994E+00   -3.990E+00   -3.986E+00   -3.982E+00   -3.979E+00   -3.975E+00   -3.971E+00   -3.967E+00
    -3.963E+00   -3.960E+00   -3.956E+00   -3.952E+00   -3.948E+00   -3.944E+00   -3.940E+00   -3.937E+00   -3.933E+00   -3.929E+00
    -3.925E+00   -3.921E+00   -3.917E+00   -3.914E+00   -3.910E+00   -3.906E+00   -3.902E+00   -3.898E+00   -3.894E+00   -3.890E+00
    -3.886E+00   -3.883E+00   -3.879E+00   -3.875E+00   -3.871E+00   -3.867E+00   -3.863E+00   -3.859E+00   -3.855E+00   -3.851E+00
    -3.847E+00   -3.843E+00   -3.839E+00   -3.835E+00   -3.832E+00   -3.828E+00   -3.824E+00   -3.820E+00   -3.816E+00   -3.812E+00
    -3.808E+00   -3.804E+00   -3.800E+00   -3.796E+00   -3.792E+00   -3.788E+00   -3.783E+00   -3.779E+00   -3.775E+00   -3.771E+00
    -3.767E+00   -3.763E+00   -3.759E+00   -3.755E+00   -3.751E+00   -3.747E+00   -3.743E+00   -3.738E+00   -3.734E+00   -3.730E+00
    -3.726E+00   -3.722E+00   -3.718E+00   -3.713E+00   -3.709E+00   -3.705E+00   -3.701E+00   -3.696E+00   -3.692E+00   -3.688E+00
    -3.684E+00   -3.679E+00   -3.675E+00   -3.671E+00   -3.666E+00   -3.662E+00   -3.658E+00   -3.653E+00   -3.649E+00   -3.644E+00
    -3.640E+00   -3.636E+00   -3.631E+00   -3.627E+00   -3.622E+00   -3.618E+00   -3.613E+00   -3.609E+00   -3.604E+00   -3.600E+00
    -3.595E+00   -3.591E+00   -3.586E+00   -3.581E+00   -3.577E+00   -3.572E+00   -3.568E+00   -3.563E+00   -3.558E+00   -3.554E+00
    -3.549E+00   -3.544E+00   -3.539E+00   -3.535E+00   -3.530E+00   -3.525E+00   -3.520E+00   -3.516E+00   -3.511E+00   -3.506E+00
    -3.501E+00   -3.496E+00   -3.491E+00   -3.486E+00   -3.481E+00   -3.476E+00   -3.472E+00   -3.467E+00   -3.462E+00   -3.456E+00
    -3.451E+00   -3.446E+00   -3.441E+00   -3.436E+00   -3.431E+00   -3.426E+00   -3.421E+00   -3.416E+00   -3.410E+00   -3.405E+00
    -3.400E+00   -3.395E+00   -3.389E+00   -3.384E+00   -3.379E+00   -3.373E+00   -3.368E+00   -3.363E+00   -3.357E+00   -3.352E+00
    -3.346E+00   -3.341E+00   -3.335E+00   -3.330E+00   -3.324E+00   -3.318E+00   -3.313E+00   -3.307E+00   -3.302E+00   -3.296E+00
    -3.290E+00   -3.284E+00   -3.279E+00   -3.273E+00   -3.267E+00   -3.261E+00   -3.255E+00   -3.249E+00   -3.243E+00   -3.237E+00
    -3.231E+00   -3.225E+00   -3.219E+00   -3.213E+00   -3.207E+00   -3.201E+00   -3.195E+00   -3.188E+00   -3.182E+00   -3.176E+00
    -3.170E+00   -3.163E+00   -3.157E+00   -3.150E+00   -3.144E+00   -3.138E+00   -3.131E+00   -3.124E+00   -3.118E+00   -3.111E+00
    -3.105E+00   -3.098E+00   -3.091E+00   -3.085E+00   -3.078E+00   -3.071E+00   -3.064E+00   -3.057E+00   -3.050E+00   -3.043E+00
    -3.036E+00   -3.029E+00   -3.022E+00   -3.015E+00   -3.008E+00   -3.001E+00   -2.994E+00   -2.986E+00   -2.979E+00   -2.972E+00
    -2.964E+00   -2.957E+00   -2.949E+00   -2.942E+00   -2.934E+00   -2.927E+00   -2.919E+00   -2.912E+00   -2.904E+00   -2.896E+00
    -2.888E+00   -2.881E+00   -2.873E+00   -2.865E+00   -2.857E+00   -2.849E+00   -2.841E+00   -2.833E+00   -2.825E+00   -2.817E+00
    -2.808E+00   -2.800E+00   -2.792E+00   -2.783E+00   -2.775E+00   -2.767E+00   -2.758E+00   -2.750E+00   -2.741E+00   -2.732E+00
    -2.724E+00   -2.715E+00   -2.706E+00   -2.698E+00   -2.689E+00   -2.680E+00   -2.671E+00   -2.662E+00   -2.653E+00   -2.644E+00
    -2.635E+00   -2.625E+00   -2.616E+00   -2.607E+00   -2.598E+00   -2.588E+00   -2.579E+00   -2.569E+00   -2.560E+00   -2.550E+00
    -2.541E+00   -2.531E+00   -2.521E+00   -2.511E+00   -2.501E+00   -2.492E+00   -2.482E+00   -2.472E+00   -2.462E+00   -2.451E+00
    -2.441E+00   -2.431E+00   -2.421E+00   -2.410E+00   -2.400E+00   -2.390E+00   -2.379E+00   -2.369E+00   -2.358E+00   -2.347E+00
    -2.337E+00   -2.326E+00   -2.315E+00   -2.304E+00   -2.293E+00   -2.282E+00   -2.271E+00   -2.260E+00   -2.249E+00   -2.237E+00
    -2.226E+00   -2.215E+00   -2.203E+00   -2.192E+00   -2.180E+00   -2.169E+00   -2.157E+00   -2.145E+00   -2.134E+00   -2.122E+00
    -2.110E+00   -2.098E+00   -2.086E+00   -2.074E+00   -2.062E+00   -2.050E+00   -2.037E+00   -2.025E+00   -2.013E+00   -2.001E+00
    -1.988E+00   -1.976E+00   -1.963E+00   -1.951E+00   -1.938E+00   -1.925E+00   -1.912E+00   -1.900E+00   -1.887E+00   -1.874E+00
    -1.861E+00   -1.848E+00   -1.835E+00   -1.822E+00   -1.809E+00   -1.796E+00   -1.783E+00   -1.769E+00   -1.756E+00   -1.743E+00
    -1.729E+00   -1.716E+00   -1.702E+00   -1.689E+00   -1.675E+00   -1.662E+00   -1.648E+00   -1.634E+00   -1.621E+00   -1.607E+00
    -1.593E+00   -1.579E+00   -1.565E+00   -1.551E+00   -1.538E+00   -1.524E+00   -1.510E+00   -1.495E+00   -1.481E+00   -1.467E+00
    -1.453E+00   -1.439E+00   -1.425E+00   -1.410E+00   -1.396E+00   -1.382E+00   -1.367E+00   -1.353E+00   -1.338E+00   -1.324E+00
    -1.309E+00   -1.295E+00   -1.280E+00   -1.266E+00   -1.251E+00   -1.236E+00   -1.222E+00   -1.207E+00   -1.192E+00   -1.177E+00
    -1.163E+00   -1.148E+00   -1.133E+00   -1.118E+00   -1.103E+00   -1.088E+00   -1.073E+00   -1.058E+00   -1.043E+00   -1.028E+00
    -1.013E+00   -9.981E-01   -9.830E-01   -9.679E-01   -9.527E-01   -9.375E-01   -9.223E-01   -9.071E-01   -8.919E-01   -8.767E-01
    -8.614E-01   -8.461E-01   -8.308E-01   -8.155E-01   -8.001E-01   -7.848E-01   -7.694E-01   -7.540E-01   -7.386E-01   -7.232E-01
    -7.077E-01   -6.923E-01   -6.768E-01   -6.613E-01   -6.458E-01   -6.303E-01   -6.148E-01   -5.992E-01   -5.837E-01   -5.681E-01
    -5.526E-01   -5.370E-01   -5.214E-01   -5.058E-01   -4.902E-01   -4.746E-01   -4.589E-01   -4.433E-01   -4.277E-01   -4.120E-01
    -3.963E-01   -3.807E-01   -3.650E-01   -3.493E-01   -3.337E-01   -3.180E-01   -3.023E-01   -2.866E-01   -2.709E-01   -2.552E-01
    -2.395E-01   -2.238E-01   -2.081E-01   -1.923E-01   -1.766E-01   -1.609E-01   -1.452E-01   -1.295E-01   -1.138E-01   -9.806E-02
    -8.235E-02   -6.664E-02   -5.093E-02   -3.523E-02   -1.952E-02   -3.826E-03    1.187E-02    2.756E-02    4.325E-02    5.893E-02
     7.461E-02    9.028E-02    1.059E-01    1.216E-01    1.372E-01    1.529E-01    1.685E-01    1.842E-01
 Asp      Conc. = 3.41E+01
