 LCModel (Version 6.3-1L) Copyright: S.W. Provencher.          Ref.: Magn. Reson. Med. 30:672-679 (1993).                
 Slice#3 Row#10 Col#6  PD_05_press_2_raw_act
 36 lines in following concentration table = NCONC+1
    Conc.  %SD /Cr+PCr  Metabolite                                         
  386.552  66%   0.187 Ala                                                 
  121.033 271% 5.9E-02 Asp                                                 
    0.000 999%   0.000 Cr                                                  
 2.06E+03   5%   1.000 PCr                                                 
  116.635 198% 5.7E-02 GABA                                                
   35.422 611% 1.7E-02 Glc                                                 
  648.633  92%   0.314 Gln                                                 
 2.24E+03  30%   1.084 Glu                                                 
  568.103   7%   0.275 GPC                                                 
    0.000 999%   0.000 PCh                                                 
 1.18E+03  13%   0.570 GSH                                                 
 2.92E+03  20%   1.413 Ins                                                 
  260.138 116%   0.126 Lac                                                 
 2.91E+03   4%   1.408 NAA                                                 
    0.000 999%   0.000 NAAG                                                
  209.681  22%   0.102 Scyllo                                              
    0.000 999%   0.000 Tau                                                 
 1.30E+03  16%   0.632 -CrCH2                                              
  568.103   7%   0.275 GPC+PCh                                             
 2.91E+03   4%   1.408 NAA+NAAG                                            
 2.06E+03   5%   1.000 Cr+PCr                                              
 2.89E+03  38%   1.398 Glu+Gln                                             
  666.145 169%   0.323 Lip13a                                              
  156.680 277% 7.6E-02 Lip13b                                              
  197.162 126% 9.6E-02 Lip09                                               
  919.687  32%   0.446 MM09                                                
  111.490 132% 5.4E-02 Lip20                                               
 1.32E+03  39%   0.642 MM20                                                
  259.941  62%   0.126 MM12                                                
 1.46E+03  29%   0.707 MM14                                                
  602.711  47%   0.292 MM17                                                
  822.825  97%   0.399 Lip13a+Lip13b                                       
 2.54E+03  30%   1.232 MM14+Lip13a+Lip13b+MM12                             
 1.12E+03  26%   0.541 MM09+Lip09                                          
 1.44E+03  34%   0.696 MM20+Lip20                                          
   6 lines in following misc. output table
  FWHM = 0.076 ppm    S/N =   8                                            
  Data shift =-0.023 ppm                                                   
  Ph: -36 deg     -15.1 deg/ppm                                            
  alphaB,S = 5.3E-01,   5.1E+02                                            
   14 spline knots.   Ns = 9(1)                                            
  ( 5) 2 infls.   ( 1) 1 extrs.                                            
  498 points on ppm-axis = NY
      4.000000     3.992357     3.984714     3.977070     3.969427     3.961784     3.954141     3.946497     3.938854     3.931211
      3.923568     3.915925     3.908281     3.900638     3.892995     3.885352     3.877708     3.870065     3.862422     3.854779
      3.847136     3.839492     3.831849     3.824206     3.816563     3.808919     3.801276     3.793633     3.785990     3.778347
      3.770703     3.763060     3.755417     3.747774     3.740130     3.732487     3.724844     3.717201     3.709558     3.701914
      3.694271     3.686628     3.678985     3.671341     3.663698     3.656055     3.648412     3.640769     3.633125     3.625482
      3.617839     3.610196     3.602552     3.594909     3.587266     3.579623     3.571980     3.564336     3.556693     3.549050
      3.541407     3.533763     3.526120     3.518477     3.510834     3.503191     3.495547     3.487904     3.480261     3.472618
      3.464974     3.457331     3.449688     3.442045     3.434402     3.426758     3.419115     3.411472     3.403829     3.396185
      3.388542     3.380899     3.373256     3.365613     3.357969     3.350326     3.342683     3.335040     3.327396     3.319753
      3.312110     3.304467     3.296824     3.289180     3.281537     3.273894     3.266251     3.258607     3.250964     3.243321
      3.235678     3.228034     3.220391     3.212748     3.205105     3.197462     3.189818     3.182175     3.174532     3.166889
      3.159245     3.151602     3.143959     3.136316     3.128673     3.121029     3.113386     3.105743     3.098100     3.090456
      3.082813     3.075170     3.067527     3.059884     3.052240     3.044597     3.036954     3.029311     3.021667     3.014024
      3.006381     2.998738     2.991095     2.983451     2.975808     2.968165     2.960522     2.952878     2.945235     2.937592
      2.929949     2.922306     2.914662     2.907019     2.899376     2.891733     2.884089     2.876446     2.868803     2.861160
      2.853517     2.845873     2.838230     2.830587     2.822944     2.815300     2.807657     2.800014     2.792371     2.784728
      2.777084     2.769441     2.761798     2.754155     2.746511     2.738868     2.731225     2.723582     2.715939     2.708295
      2.700652     2.693009     2.685366     2.677722     2.670079     2.662436     2.654793     2.647150     2.639506     2.631863
      2.624220     2.616577     2.608933     2.601290     2.593647     2.586004     2.578361     2.570717     2.563074     2.555431
      2.547788     2.540144     2.532501     2.524858     2.517215     2.509572     2.501928     2.494285     2.486642     2.478999
      2.471355     2.463712     2.456069     2.448426     2.440783     2.433139     2.425496     2.417853     2.410210     2.402566
      2.394923     2.387280     2.379637     2.371994     2.364350     2.356707     2.349064     2.341421     2.333777     2.326134
      2.318491     2.310848     2.303205     2.295561     2.287918     2.280275     2.272632     2.264988     2.257345     2.249702
      2.242059     2.234416     2.226772     2.219129     2.211486     2.203843     2.196199     2.188556     2.180913     2.173270
      2.165627     2.157983     2.150340     2.142697     2.135054     2.127410     2.119767     2.112124     2.104481     2.096838
      2.089194     2.081551     2.073908     2.066265     2.058621     2.050978     2.043335     2.035692     2.028049     2.020405
      2.012762     2.005119     1.997476     1.989833     1.982190     1.974546     1.966903     1.959260     1.951617     1.943974
      1.936331     1.928688     1.921045     1.913402     1.905759     1.898115     1.890472     1.882829     1.875186     1.867543
      1.859900     1.852257     1.844614     1.836971     1.829327     1.821684     1.814041     1.806398     1.798755     1.791112
      1.783469     1.775826     1.768183     1.760540     1.752896     1.745253     1.737610     1.729967     1.722324     1.714681
      1.707038     1.699395     1.691752     1.684108     1.676465     1.668822     1.661179     1.653536     1.645893     1.638250
      1.630607     1.622964     1.615321     1.607677     1.600034     1.592391     1.584748     1.577105     1.569462     1.561819
      1.554176     1.546533     1.538890     1.531246     1.523603     1.515960     1.508317     1.500674     1.493031     1.485388
      1.477745     1.470102     1.462458     1.454815     1.447172     1.439529     1.431886     1.424243     1.416600     1.408957
      1.401314     1.393671     1.386027     1.378384     1.370741     1.363098     1.355455     1.347812     1.340169     1.332526
      1.324883     1.317240     1.309596     1.301953     1.294310     1.286667     1.279024     1.271381     1.263738     1.256095
      1.248452     1.240808     1.233165     1.225522     1.217879     1.210236     1.202593     1.194950     1.187307     1.179664
      1.172021     1.164377     1.156734     1.149091     1.141448     1.133805     1.126162     1.118519     1.110876     1.103233
      1.095590     1.087946     1.080303     1.072660     1.065017     1.057374     1.049731     1.042088     1.034445     1.026802
      1.019158     1.011515     1.003872     0.996229     0.988586     0.980943     0.973300     0.965657     0.958014     0.950371
      0.942727     0.935084     0.927441     0.919798     0.912155     0.904512     0.896869     0.889226     0.881583     0.873940
      0.866296     0.858653     0.851010     0.843367     0.835724     0.828081     0.820438     0.812795     0.805152     0.797508
      0.789865     0.782222     0.774579     0.766936     0.759293     0.751650     0.744007     0.736364     0.728721     0.721077
      0.713434     0.705791     0.698148     0.690505     0.682862     0.675219     0.667576     0.659933     0.652290     0.644646
      0.637003     0.629360     0.621717     0.614074     0.606431     0.598788     0.591145     0.583502     0.575858     0.568215
      0.560572     0.552929     0.545286     0.537643     0.530000     0.522357     0.514714     0.507071     0.499427     0.491784
      0.484141     0.476498     0.468855     0.461212     0.453569     0.445925     0.438282     0.430639     0.422996     0.415353
      0.407710     0.400067     0.392424     0.384780     0.377137     0.369494     0.361851     0.354208     0.346565     0.338922
      0.331278     0.323635     0.315992     0.308349     0.300706     0.293063     0.285420     0.277777     0.270133     0.262490
      0.254847     0.247204     0.239561     0.231918     0.224275     0.216631     0.208988     0.201345
 NY phased data points follow
  -1.88827E+02 -1.81623E+02 -1.75007E+02 -1.63520E+02 -1.61685E+02 -1.57671E+02 -1.54184E+02 -1.47275E+02 -1.42501E+02 -1.31352E+02
  -1.36395E+02 -1.37158E+02 -1.42603E+02 -1.38410E+02 -1.44387E+02 -1.48834E+02 -1.46415E+02 -1.45007E+02 -1.47457E+02 -1.40849E+02
  -1.41087E+02 -1.33281E+02 -1.35255E+02 -1.27946E+02 -1.26265E+02 -1.21018E+02 -1.23922E+02 -1.11791E+02 -1.20258E+02 -1.11820E+02
  -1.13230E+02 -1.03214E+02 -1.14214E+02 -1.09137E+02 -1.07785E+02 -1.06948E+02 -1.12623E+02 -1.11187E+02 -1.09207E+02 -1.03139E+02
  -1.07962E+02 -1.05365E+02 -1.02619E+02 -9.88772E+01 -1.05195E+02 -1.01166E+02 -9.69636E+01 -9.13188E+01 -9.52693E+01 -9.36037E+01
  -9.50162E+01 -9.24998E+01 -9.77087E+01 -9.74117E+01 -1.04773E+02 -9.10415E+01 -1.00358E+02 -9.62387E+01 -9.37067E+01 -9.53937E+01
  -9.75966E+01 -9.13915E+01 -1.02386E+02 -9.44573E+01 -9.38537E+01 -9.14440E+01 -9.72701E+01 -9.59335E+01 -9.53976E+01 -8.45522E+01
  -8.84414E+01 -8.65907E+01 -9.22853E+01 -8.15196E+01 -9.12968E+01 -8.46952E+01 -8.40919E+01 -8.08308E+01 -8.18190E+01 -8.00230E+01
  -8.06695E+01 -7.24412E+01 -7.94240E+01 -7.01620E+01 -7.87230E+01 -7.51752E+01 -7.45041E+01 -7.05217E+01 -6.86552E+01 -6.81275E+01
  -6.92963E+01 -6.58647E+01 -6.76336E+01 -6.02903E+01 -6.17507E+01 -6.08922E+01 -6.27973E+01 -4.85151E+01 -5.13951E+01 -4.85970E+01
  -3.10308E+01 -3.23609E+01 -3.44627E+01 -2.97145E+01 -3.17745E+01 -3.47510E+01 -4.48668E+01 -4.16530E+01 -5.61262E+01 -5.15652E+01
  -5.06332E+01 -5.34323E+01 -5.84573E+01 -5.42678E+01 -5.44093E+01 -5.53925E+01 -5.85559E+01 -4.59967E+01 -4.89648E+01 -4.26653E+01
  -4.00039E+01 -3.12356E+01 -3.28791E+01 -1.96587E+01 -1.61901E+01 -9.34455E+00 -1.24582E+01  9.55040E-01 -4.59130E+00 -3.42863E+00
  -1.55545E+01 -1.95316E+01 -1.84838E+01 -3.37254E+01 -3.82962E+01 -4.09372E+01 -4.50923E+01 -4.82119E+01 -5.51401E+01 -5.00670E+01
  -5.37636E+01 -4.48111E+01 -5.12919E+01 -4.52887E+01 -4.86786E+01 -5.12113E+01 -4.53958E+01 -4.77595E+01 -4.37244E+01 -4.53337E+01
  -5.52194E+01 -4.35091E+01 -4.55961E+01 -4.30455E+01 -4.35857E+01 -4.38803E+01 -4.66669E+01 -4.70487E+01 -5.34948E+01 -4.74479E+01
  -4.50587E+01 -4.13097E+01 -4.87249E+01 -3.77634E+01 -4.16368E+01 -3.74841E+01 -3.46218E+01 -2.99847E+01 -4.16237E+01 -4.33691E+01
  -3.72149E+01 -4.52824E+01 -4.00798E+01 -4.82707E+01 -4.15687E+01 -5.27629E+01 -5.06416E+01 -4.63770E+01 -4.97248E+01 -4.25278E+01
  -4.98113E+01 -4.36809E+01 -4.75208E+01 -4.30919E+01 -4.74799E+01 -3.74422E+01 -3.64750E+01 -3.54889E+01 -4.18416E+01 -3.47060E+01
  -2.97548E+01 -2.38202E+01 -2.73344E+01 -2.91575E+01 -2.62488E+01 -2.81607E+01 -2.15997E+01 -1.74828E+01 -2.01684E+01 -3.07547E+01
  -3.13656E+01 -2.54065E+01 -2.43468E+01 -2.53831E+01 -3.21936E+01 -2.76967E+01 -2.28642E+01 -2.66837E+01 -2.38725E+01 -2.76247E+01
  -3.10415E+01 -2.52592E+01 -3.04975E+01 -2.23922E+01 -2.07840E+01 -2.32703E+01 -1.87405E+01 -1.68499E+01 -2.23974E+01 -2.27972E+01
  -2.05833E+01 -2.52932E+01 -2.98704E+01 -2.40835E+01 -2.50308E+01 -2.84393E+01 -1.99154E+01 -2.41297E+01 -1.90150E+01 -1.55439E+01
  -1.62400E+01 -1.65192E+01 -2.28064E+01 -1.25802E+01 -1.70207E+01 -1.41880E+01 -1.72738E+01 -1.80785E+01 -2.09247E+01 -1.93408E+01
  -1.72896E+01 -1.83687E+01 -1.66646E+01 -1.42993E+01 -2.13456E+01 -1.19252E+01 -1.56953E+01 -1.05772E+01 -9.17909E+00 -5.20744E+00
  -6.13819E+00 -1.42449E+00 -2.01604E+00  3.40360E+00  1.59068E+01  2.14243E+01  2.39501E+01  4.36424E+01  5.02421E+01  6.09280E+01
   5.64277E+01  6.53536E+01  5.40784E+01  5.35654E+01  3.64447E+01  2.50030E+01  1.42351E+01  6.49727E+00  2.12696E-01  1.90007E+00
  -4.81701E+00 -3.52954E+00 -3.41361E+00 -1.63773E+00 -7.34492E+00 -6.69114E+00 -8.09554E+00 -6.19137E+00 -8.77338E+00 -6.18049E+00
  -1.62236E+01 -1.03662E+01 -6.12325E+00 -1.09084E+01 -1.09174E+01 -1.16527E+01 -8.38722E+00 -7.32759E+00 -1.65238E+01 -1.05193E+01
  -8.01087E+00 -7.92125E+00 -1.25890E+01 -8.04761E+00 -7.75635E+00 -6.71122E+00 -8.26006E+00 -2.21533E+00 -8.64692E+00 -1.12954E+01
  -1.13042E+01 -4.64963E+00 -3.72807E+00 -1.02948E+00 -4.05533E+00 -6.31903E-01 -6.10182E-01  5.43867E+00 -1.24282E+00 -1.86095E+00
  -1.56179E+00  7.09209E+00  2.63325E+00  8.27002E+00 -2.05596E+00  6.39000E+00 -8.20068E-01 -2.53888E+00  7.36014E-02  6.83381E+00
   3.36615E-01 -5.06052E+00  8.69802E+00  4.60714E+00 -3.81939E+00  2.39328E+00 -6.48277E-01  6.46798E-01  1.65846E+00  1.01732E+00
   4.17451E+00  5.37051E+00 -1.89950E-01  1.28978E+01  6.48798E+00  8.68320E+00  4.96437E+00  1.07290E+01  1.38626E+01  1.40049E+01
   9.14993E+00  1.57637E+01  7.86774E+00  1.14630E+01  1.22219E+01  6.63873E+00  4.46976E+00  2.89761E+00  1.44060E+01  1.32123E+01
   8.95758E+00  7.38247E+00  3.52643E+00  1.31287E+01  9.96550E+00  6.38911E+00  6.77606E+00  1.04894E+01  1.04854E+01 -6.58662E-01
   1.03079E+01  9.08617E+00  1.17854E+01  6.18812E+00  7.60112E+00  5.37137E+00  7.11333E+00  1.48847E+01  3.77146E+00  2.94231E+00
   1.57931E+00  7.57593E+00  9.75171E+00  7.00843E-01 -8.13921E-01  8.46503E+00  2.48264E+00  3.12122E+00  4.15241E-01  5.83245E+00
   5.06453E+00  1.05043E+01  5.39162E+00  5.49722E+00 -1.65571E-01  6.86996E+00  1.86116E+00  5.85805E+00  1.24482E+00  6.76378E+00
   1.03984E+01  1.37389E+01  1.07164E+01  5.16329E+00  1.19686E+01  1.45798E+01  1.16865E+01  1.57663E+01  5.87514E+00  5.47084E+00
   1.15643E+01  1.15289E+01  1.13683E+01  2.09715E+01  1.38437E+01  1.45676E+01  1.54900E+01  1.84469E+01  9.58671E+00  1.65992E+01
   1.73341E+01  1.31262E+01  1.48767E+01  1.31267E+01  5.25820E+00  8.94004E+00  1.23649E+01  1.25980E+01  1.33144E+01  9.35582E+00
   7.13547E+00  5.76656E+00  1.71357E+01  1.06630E+01  4.19515E+00  1.17771E+01  9.18948E+00  3.45765E+00  9.31474E+00  1.33750E+01
   1.16185E+01  1.35799E+01  1.15218E+01  7.66940E+00  1.52295E+01  1.17542E+01  9.50881E+00  1.22381E+01  6.02723E+00  9.09052E+00
   7.86020E+00  1.39428E+01  1.57111E+01  6.78160E+00  4.56520E+00  1.67140E+01  1.70596E+01  1.03034E+01  9.31389E+00  1.04125E+01
   1.25707E+01  1.74473E+01  5.96632E+00  8.92118E+00  4.85725E+00  1.42880E+01  3.97995E-01  9.78791E+00  4.65382E+00  7.55475E+00
   5.43156E+00  9.44288E+00  1.04140E+01  1.20474E+01  5.29833E+00  1.47298E+01  4.06038E+00  9.73953E+00  6.85142E+00  1.00265E+01
   7.50067E+00  1.24706E+01  5.82988E+00  1.12592E+01  8.81713E+00  1.03677E+01  7.59020E+00  1.18642E+01  1.43821E+01  9.56701E+00
   1.17837E+01  8.04992E+00  8.07168E+00  6.66721E+00  1.33495E+01  9.15227E+00  3.61087E+00  1.47669E+01  7.93861E+00  1.22876E+01
   9.07990E+00  7.65108E+00  6.76974E+00  7.83799E+00  1.33384E+01  3.57601E+00  7.18046E+00  6.95002E+00
 NY points of the fit to the data follow
  -1.68263E+02 -1.67351E+02 -1.65464E+02 -1.62882E+02 -1.59900E+02 -1.56606E+02 -1.53044E+02 -1.49421E+02 -1.45991E+02 -1.43006E+02
  -1.40703E+02 -1.39246E+02 -1.38636E+02 -1.38696E+02 -1.39171E+02 -1.39814E+02 -1.40404E+02 -1.40863E+02 -1.41225E+02 -1.41381E+02
  -1.40744E+02 -1.39016E+02 -1.36452E+02 -1.33354E+02 -1.29881E+02 -1.26125E+02 -1.22168E+02 -1.18219E+02 -1.14512E+02 -1.11353E+02
  -1.09032E+02 -1.07722E+02 -1.07447E+02 -1.08081E+02 -1.09389E+02 -1.11124E+02 -1.12903E+02 -1.14163E+02 -1.14469E+02 -1.13794E+02
  -1.12238E+02 -1.09868E+02 -1.07098E+02 -1.04316E+02 -1.01762E+02 -9.96878E+01 -9.82805E+01 -9.76600E+01 -9.78093E+01 -9.85535E+01
  -9.95581E+01 -1.00475E+02 -1.01041E+02 -1.01168E+02 -1.00878E+02 -1.00258E+02 -9.93484E+01 -9.81382E+01 -9.67774E+01 -9.55374E+01
  -9.45790E+01 -9.38840E+01 -9.33189E+01 -9.27744E+01 -9.21696E+01 -9.14402E+01 -9.05508E+01 -8.95176E+01 -8.83839E+01 -8.71797E+01
  -8.59669E+01 -8.48351E+01 -8.38499E+01 -8.30576E+01 -8.24412E+01 -8.19477E+01 -8.15149E+01 -8.10203E+01 -8.02677E+01 -7.93385E+01
  -7.83497E+01 -7.73455E+01 -7.63241E+01 -7.53123E+01 -7.43377E+01 -7.34417E+01 -7.26395E+01 -7.19550E+01 -7.14429E+01 -7.11111E+01
  -7.09053E+01 -7.07248E+01 -7.03840E+01 -6.92419E+01 -6.64922E+01 -6.24595E+01 -5.77062E+01 -5.25910E+01 -4.73340E+01 -4.22721E+01
  -3.77589E+01 -3.41958E+01 -3.19576E+01 -3.13237E+01 -3.24031E+01 -3.50461E+01 -3.88414E+01 -4.32546E+01 -4.77619E+01 -5.19163E+01
  -5.54429E+01 -5.82217E+01 -6.01130E+01 -6.08833E+01 -6.06348E+01 -5.99868E+01 -5.90887E+01 -5.75303E+01 -5.40898E+01 -4.87032E+01
  -4.21604E+01 -3.50886E+01 -2.78763E+01 -2.07999E+01 -1.42072E+01 -8.60761E+00 -4.65884E+00 -2.92413E+00 -3.70904E+00 -6.95780E+00
  -1.21916E+01 -1.86479E+01 -2.55252E+01 -3.21027E+01 -3.79350E+01 -4.27900E+01 -4.64620E+01 -4.86214E+01 -4.90785E+01 -4.85983E+01
  -4.78054E+01 -4.69082E+01 -4.60472E+01 -4.53128E+01 -4.47389E+01 -4.43613E+01 -4.42356E+01 -4.43231E+01 -4.45315E+01 -4.47799E+01
  -4.49832E+01 -4.50944E+01 -4.51477E+01 -4.51635E+01 -4.51575E+01 -4.51104E+01 -4.49784E+01 -4.47803E+01 -4.45687E+01 -4.43598E+01
  -4.41466E+01 -4.39230E+01 -4.36872E+01 -4.34452E+01 -4.32125E+01 -4.30168E+01 -4.28964E+01 -4.28930E+01 -4.30118E+01 -4.31664E+01
  -4.32935E+01 -4.33878E+01 -4.35021E+01 -4.36303E+01 -4.36984E+01 -4.36494E+01 -4.34932E+01 -4.33007E+01 -4.31335E+01 -4.29686E+01
  -4.27143E+01 -4.22828E+01 -4.16026E+01 -4.06422E+01 -3.94302E+01 -3.80438E+01 -3.65611E+01 -3.50691E+01 -3.36517E+01 -3.24337E+01
  -3.14812E+01 -3.08137E+01 -3.04376E+01 -3.02964E+01 -3.02737E+01 -3.02111E+01 -2.99901E+01 -2.95413E+01 -2.88560E+01 -2.79712E+01
  -2.69468E+01 -2.59889E+01 -2.52482E+01 -2.48060E+01 -2.47643E+01 -2.51085E+01 -2.56681E+01 -2.61594E+01 -2.63463E+01 -2.62358E+01
  -2.57973E+01 -2.50407E+01 -2.40662E+01 -2.31034E+01 -2.24425E+01 -2.21988E+01 -2.23317E+01 -2.28218E+01 -2.36350E+01 -2.46436E+01
  -2.56383E+01 -2.64155E+01 -2.68002E+01 -2.67328E+01 -2.61900E+01 -2.51644E+01 -2.37426E+01 -2.20871E+01 -2.03551E+01 -1.87031E+01
  -1.72505E+01 -1.60806E+01 -1.52290E+01 -1.47054E+01 -1.45296E+01 -1.46124E+01 -1.48164E+01 -1.50686E+01 -1.53620E+01 -1.56718E+01
  -1.59390E+01 -1.61017E+01 -1.61244E+01 -1.59653E+01 -1.55347E+01 -1.48134E+01 -1.38716E+01 -1.27993E+01 -1.16398E+01 -1.04349E+01
  -9.04689E+00 -6.22047E+00 -6.14518E-01  7.06487E+00  1.57906E+01  2.49090E+01  3.40328E+01  4.26875E+01  5.01567E+01  5.56559E+01
   5.85044E+01  5.82108E+01  5.46308E+01  4.81274E+01  3.95377E+01  2.99231E+01  2.02925E+01  1.14285E+01  3.77686E+00 -2.45495E+00
  -6.99266E+00 -9.40396E+00 -1.00569E+01 -1.01472E+01 -1.00761E+01 -9.93527E+00 -9.77815E+00 -9.64811E+00 -9.54609E+00 -9.47009E+00
  -9.41684E+00 -9.37440E+00 -9.32731E+00 -9.26472E+00 -9.17235E+00 -9.03794E+00 -8.86196E+00 -8.65230E+00 -8.41661E+00 -8.16121E+00
  -7.88960E+00 -7.60404E+00 -7.30655E+00 -6.99423E+00 -6.66407E+00 -6.31486E+00 -5.94584E+00 -5.55777E+00 -5.15381E+00 -4.73828E+00
  -4.31574E+00 -3.89087E+00 -3.46928E+00 -3.05666E+00 -2.65803E+00 -2.27818E+00 -1.92080E+00 -1.58838E+00 -1.28195E+00 -1.00094E+00
  -7.43076E-01 -5.04277E-01 -2.78542E-01 -5.77224E-02  1.68971E-01  4.16044E-01  7.05166E-01  1.07788E+00  1.58694E+00  2.15506E+00
   2.67206E+00  3.08898E+00  3.38647E+00  3.54706E+00  3.53641E+00  3.32367E+00  3.00325E+00  2.70814E+00  2.49649E+00  2.41286E+00
   2.51067E+00  2.84381E+00  3.43945E+00  4.27814E+00  5.29733E+00  6.41060E+00  7.53205E+00  8.60107E+00  9.57942E+00  1.03418E+01
   1.07981E+01  1.09672E+01  1.08943E+01  1.06170E+01  1.01524E+01  9.53600E+00  8.91943E+00  8.39678E+00  7.96185E+00  7.62400E+00
   7.41109E+00  7.35439E+00  7.46531E+00  7.72160E+00  8.07152E+00  8.44647E+00  8.77801E+00  9.01518E+00  9.12253E+00  9.05460E+00
   8.80805E+00  8.43761E+00  7.99754E+00  7.52834E+00  7.06005E+00  6.62912E+00  6.28462E+00  6.02379E+00  5.81826E+00  5.65390E+00
   5.52287E+00  5.42011E+00  5.34230E+00  5.28739E+00  5.25422E+00  5.24239E+00  5.25193E+00  5.28328E+00  5.33713E+00  5.41439E+00
   5.51612E+00  5.64354E+00  5.79793E+00  5.98066E+00  6.19309E+00  6.43653E+00  6.71210E+00  7.02067E+00  7.36261E+00  7.73773E+00
   8.14505E+00  8.58267E+00  9.04755E+00  9.53550E+00  1.00410E+01  1.05572E+01  1.10763E+01  1.15891E+01  1.20859E+01  1.25566E+01
   1.29908E+01  1.33788E+01  1.37116E+01  1.39818E+01  1.41834E+01  1.43127E+01  1.43682E+01  1.43508E+01  1.42635E+01  1.41116E+01
   1.39020E+01  1.36434E+01  1.33450E+01  1.30170E+01  1.26693E+01  1.23117E+01  1.19531E+01  1.16014E+01  1.12633E+01  1.09443E+01
   1.06484E+01  1.03784E+01  1.01359E+01  9.92130E+00  9.73435E+00  9.57405E+00  9.43882E+00  9.32681E+00  9.23588E+00  9.16389E+00
   9.10861E+00  9.06800E+00  9.04004E+00  9.02294E+00  9.01501E+00  9.01482E+00  9.02103E+00  9.03253E+00  9.04830E+00  9.06749E+00
   9.08933E+00  9.11321E+00  9.13852E+00  9.16482E+00  9.19166E+00  9.21868E+00  9.24555E+00  9.27199E+00  9.29774E+00  9.32261E+00
   9.34634E+00  9.36880E+00  9.38978E+00  9.40922E+00  9.42702E+00  9.44323E+00  9.45780E+00  9.47076E+00  9.48210E+00  9.49186E+00
   9.50004E+00  9.50670E+00  9.51181E+00  9.51547E+00  9.51767E+00  9.51849E+00  9.51794E+00  9.51609E+00  9.51296E+00  9.50863E+00
   9.50313E+00  9.49655E+00  9.48890E+00  9.48026E+00  9.47067E+00  9.46023E+00  9.44894E+00  9.43692E+00  9.42418E+00  9.41082E+00
   9.39686E+00  9.38242E+00  9.36751E+00  9.35224E+00  9.33663E+00  9.32080E+00  9.30477E+00  9.28865E+00  9.27248E+00  9.25636E+00
   9.24032E+00  9.22449E+00  9.20889E+00  9.19366E+00  9.17883E+00  9.16451E+00  9.15077E+00  9.13773E+00
 NY background values follow
    -1.748E+02   -1.734E+02   -1.721E+02   -1.708E+02   -1.695E+02   -1.682E+02   -1.669E+02   -1.656E+02   -1.643E+02   -1.630E+02
    -1.617E+02   -1.604E+02   -1.591E+02   -1.578E+02   -1.566E+02   -1.553E+02   -1.540E+02   -1.527E+02   -1.514E+02   -1.502E+02
    -1.489E+02   -1.476E+02   -1.464E+02   -1.451E+02   -1.439E+02   -1.426E+02   -1.414E+02   -1.402E+02   -1.389E+02   -1.377E+02
    -1.365E+02   -1.353E+02   -1.341E+02   -1.329E+02   -1.317E+02   -1.305E+02   -1.293E+02   -1.281E+02   -1.270E+02   -1.258E+02
    -1.247E+02   -1.235E+02   -1.224E+02   -1.213E+02   -1.201E+02   -1.190E+02   -1.179E+02   -1.168E+02   -1.158E+02   -1.147E+02
    -1.136E+02   -1.125E+02   -1.115E+02   -1.104E+02   -1.094E+02   -1.084E+02   -1.074E+02   -1.064E+02   -1.054E+02   -1.044E+02
    -1.034E+02   -1.024E+02   -1.014E+02   -1.005E+02   -9.953E+01   -9.859E+01   -9.765E+01   -9.673E+01   -9.581E+01   -9.490E+01
    -9.400E+01   -9.311E+01   -9.223E+01   -9.136E+01   -9.049E+01   -8.963E+01   -8.878E+01   -8.794E+01   -8.711E+01   -8.629E+01
    -8.547E+01   -8.466E+01   -8.387E+01   -8.307E+01   -8.229E+01   -8.152E+01   -8.075E+01   -8.000E+01   -7.925E+01   -7.851E+01
    -7.778E+01   -7.706E+01   -7.634E+01   -7.563E+01   -7.494E+01   -7.425E+01   -7.356E+01   -7.289E+01   -7.222E+01   -7.156E+01
    -7.091E+01   -7.027E+01   -6.963E+01   -6.901E+01   -6.839E+01   -6.777E+01   -6.717E+01   -6.657E+01   -6.597E+01   -6.539E+01
    -6.481E+01   -6.424E+01   -6.368E+01   -6.312E+01   -6.257E+01   -6.202E+01   -6.148E+01   -6.095E+01   -6.043E+01   -5.991E+01
    -5.939E+01   -5.889E+01   -5.839E+01   -5.789E+01   -5.740E+01   -5.692E+01   -5.644E+01   -5.597E+01   -5.550E+01   -5.504E+01
    -5.458E+01   -5.413E+01   -5.369E+01   -5.325E+01   -5.281E+01   -5.238E+01   -5.196E+01   -5.154E+01   -5.112E+01   -5.071E+01
    -5.030E+01   -4.990E+01   -4.950E+01   -4.911E+01   -4.872E+01   -4.833E+01   -4.795E+01   -4.758E+01   -4.720E+01   -4.683E+01
    -4.647E+01   -4.610E+01   -4.574E+01   -4.539E+01   -4.504E+01   -4.469E+01   -4.434E+01   -4.400E+01   -4.366E+01   -4.332E+01
    -4.299E+01   -4.265E+01   -4.232E+01   -4.200E+01   -4.167E+01   -4.135E+01   -4.103E+01   -4.071E+01   -4.040E+01   -4.008E+01
    -3.977E+01   -3.946E+01   -3.915E+01   -3.884E+01   -3.854E+01   -3.823E+01   -3.793E+01   -3.763E+01   -3.733E+01   -3.703E+01
    -3.673E+01   -3.643E+01   -3.613E+01   -3.584E+01   -3.554E+01   -3.525E+01   -3.495E+01   -3.466E+01   -3.437E+01   -3.408E+01
    -3.379E+01   -3.350E+01   -3.321E+01   -3.292E+01   -3.263E+01   -3.235E+01   -3.206E+01   -3.178E+01   -3.150E+01   -3.121E+01
    -3.093E+01   -3.065E+01   -3.038E+01   -3.010E+01   -2.982E+01   -2.955E+01   -2.927E+01   -2.900E+01   -2.873E+01   -2.846E+01
    -2.819E+01   -2.792E+01   -2.765E+01   -2.738E+01   -2.712E+01   -2.685E+01   -2.659E+01   -2.633E+01   -2.607E+01   -2.581E+01
    -2.555E+01   -2.530E+01   -2.504E+01   -2.479E+01   -2.454E+01   -2.429E+01   -2.404E+01   -2.379E+01   -2.354E+01   -2.330E+01
    -2.305E+01   -2.281E+01   -2.257E+01   -2.233E+01   -2.209E+01   -2.185E+01   -2.162E+01   -2.138E+01   -2.115E+01   -2.091E+01
    -2.068E+01   -2.045E+01   -2.022E+01   -2.000E+01   -1.977E+01   -1.954E+01   -1.932E+01   -1.909E+01   -1.887E+01   -1.865E+01
    -1.843E+01   -1.821E+01   -1.799E+01   -1.777E+01   -1.756E+01   -1.734E+01   -1.713E+01   -1.691E+01   -1.670E+01   -1.649E+01
    -1.628E+01   -1.607E+01   -1.586E+01   -1.565E+01   -1.544E+01   -1.523E+01   -1.503E+01   -1.482E+01   -1.462E+01   -1.441E+01
    -1.421E+01   -1.401E+01   -1.380E+01   -1.360E+01   -1.340E+01   -1.320E+01   -1.300E+01   -1.281E+01   -1.261E+01   -1.241E+01
    -1.221E+01   -1.202E+01   -1.183E+01   -1.163E+01   -1.144E+01   -1.125E+01   -1.106E+01   -1.087E+01   -1.068E+01   -1.049E+01
    -1.030E+01   -1.012E+01   -9.930E+00   -9.746E+00   -9.562E+00   -9.380E+00   -9.199E+00   -9.019E+00   -8.839E+00   -8.661E+00
    -8.484E+00   -8.309E+00   -8.134E+00   -7.960E+00   -7.788E+00   -7.616E+00   -7.446E+00   -7.277E+00   -7.110E+00   -6.943E+00
    -6.778E+00   -6.614E+00   -6.451E+00   -6.290E+00   -6.130E+00   -5.971E+00   -5.813E+00   -5.657E+00   -5.502E+00   -5.349E+00
    -5.197E+00   -5.045E+00   -4.896E+00   -4.747E+00   -4.600E+00   -4.453E+00   -4.308E+00   -4.164E+00   -4.021E+00   -3.879E+00
    -3.738E+00   -3.599E+00   -3.460E+00   -3.322E+00   -3.184E+00   -3.048E+00   -2.913E+00   -2.778E+00   -2.645E+00   -2.512E+00
    -2.380E+00   -2.248E+00   -2.117E+00   -1.987E+00   -1.858E+00   -1.729E+00   -1.601E+00   -1.474E+00   -1.347E+00   -1.220E+00
    -1.094E+00   -9.686E-01   -8.436E-01   -7.189E-01   -5.947E-01   -4.709E-01   -3.474E-01   -2.242E-01   -1.013E-01    2.134E-02
     1.437E-01    2.659E-01    3.878E-01    5.096E-01    6.312E-01    7.526E-01    8.738E-01    9.948E-01    1.116E+00    1.236E+00
     1.356E+00    1.476E+00    1.596E+00    1.716E+00    1.835E+00    1.954E+00    2.073E+00    2.191E+00    2.309E+00    2.427E+00
     2.544E+00    2.662E+00    2.778E+00    2.895E+00    3.011E+00    3.127E+00    3.242E+00    3.357E+00    3.472E+00    3.586E+00
     3.700E+00    3.814E+00    3.927E+00    4.040E+00    4.152E+00    4.264E+00    4.375E+00    4.486E+00    4.597E+00    4.707E+00
     4.817E+00    4.926E+00    5.034E+00    5.143E+00    5.250E+00    5.357E+00    5.464E+00    5.570E+00    5.676E+00    5.781E+00
     5.885E+00    5.989E+00    6.092E+00    6.194E+00    6.296E+00    6.396E+00    6.496E+00    6.595E+00    6.692E+00    6.789E+00
     6.884E+00    6.979E+00    7.072E+00    7.164E+00    7.255E+00    7.344E+00    7.432E+00    7.519E+00    7.604E+00    7.687E+00
     7.769E+00    7.850E+00    7.928E+00    8.006E+00    8.081E+00    8.154E+00    8.226E+00    8.296E+00    8.364E+00    8.430E+00
     8.494E+00    8.556E+00    8.615E+00    8.673E+00    8.728E+00    8.781E+00    8.832E+00    8.880E+00    8.927E+00    8.970E+00
     9.011E+00    9.050E+00    9.086E+00    9.119E+00    9.150E+00    9.179E+00    9.205E+00    9.228E+00    9.250E+00    9.269E+00
     9.286E+00    9.301E+00    9.315E+00    9.326E+00    9.335E+00    9.343E+00    9.349E+00    9.353E+00    9.355E+00    9.357E+00
     9.356E+00    9.355E+00    9.352E+00    9.347E+00    9.342E+00    9.336E+00    9.328E+00    9.320E+00    9.310E+00    9.300E+00
     9.289E+00    9.278E+00    9.266E+00    9.253E+00    9.240E+00    9.226E+00    9.212E+00    9.198E+00    9.184E+00    9.169E+00
     9.155E+00    9.140E+00    9.126E+00    9.111E+00    9.097E+00    9.083E+00    9.070E+00    9.057E+00
 Ala      Conc. = 3.87E+02
