 LCModel (Version 6.3-1L) Copyright: S.W. Provencher.          Ref.: Magn. Reson. Med. 30:672-679 (1993).                
 Slice#2 Row#2 Col#12  PD_05_press_2_raw_act
 36 lines in following concentration table = NCONC+1
    Conc.  %SD /Cr+PCr  Metabolite                                         
  277.637  58%   4.752 Ala                                                 
    4.235 497% 7.2E-02 Asp                                                 
    0.000 999%   0.000 Cr                                                  
   58.426 114%   1.000 PCr                                                 
    2.998 421% 5.1E-02 GABA                                                
    2.753 460% 4.7E-02 Glc                                                 
    7.433 999%   0.127 Gln                                                 
  540.374  66%   9.249 Glu                                                 
    0.000 999%   0.000 GPC                                                 
   15.979 153%   0.273 PCh                                                 
    0.000 999%   0.000 GSH                                                 
    0.000 999%   0.000 Ins                                                 
  165.446 107%   2.832 Lac                                                 
    0.000 999%   0.000 NAA                                                 
    0.000 999%   0.000 NAAG                                                
    1.075 391% 1.8E-02 Scyllo                                              
    4.742 442% 8.1E-02 Tau                                                 
   60.973  96%   1.044 -CrCH2                                              
   15.979 153%   0.273 GPC+PCh                                             
    0.000 999%   0.000 NAA+NAAG                                            
   58.426 114%   1.000 Cr+PCr                                              
  547.806  92%   9.376 Glu+Gln                                             
  714.623  84%  12.231 Lip13a                                              
    0.000 999%   0.000 Lip13b                                              
  190.924  84%   3.268 Lip09                                               
 1.18E+03  22%  20.160 MM09                                                
  107.327  85%   1.837 Lip20                                               
 1.01E+03  46%  17.320 MM20                                                
  297.262  74%   5.088 MM12                                                
 2.38E+03  21%  40.663 MM14                                                
 1.05E+03  34%  18.016 MM17                                                
  714.623  84%  12.231 Lip13a+Lip13b                                       
 3.39E+03  14%  57.982 MM14+Lip13a+Lip13b+MM12                             
 1.37E+03  16%  23.428 MM09+Lip09                                          
 1.12E+03  39%  19.157 MM20+Lip20                                          
   6 lines in following misc. output table
  FWHM = 0.061 ppm    S/N =   1                                            
  Data shift = 0.038 ppm                                                   
  Ph: 122 deg      24.8 deg/ppm                                            
  alphaB,S = 8.5E+01,   3.6E+01                                            
   14 spline knots.   Ns = 5(1)                                            
   2 inflections.     1 extrema                                            
  498 points on ppm-axis = NY
      4.000000     3.992357     3.984714     3.977070     3.969427     3.961784     3.954141     3.946497     3.938854     3.931211
      3.923568     3.915925     3.908281     3.900638     3.892995     3.885352     3.877708     3.870065     3.862422     3.854779
      3.847136     3.839492     3.831849     3.824206     3.816563     3.808919     3.801276     3.793633     3.785990     3.778347
      3.770703     3.763060     3.755417     3.747774     3.740130     3.732487     3.724844     3.717201     3.709558     3.701914
      3.694271     3.686628     3.678985     3.671341     3.663698     3.656055     3.648412     3.640769     3.633125     3.625482
      3.617839     3.610196     3.602552     3.594909     3.587266     3.579623     3.571980     3.564336     3.556693     3.549050
      3.541407     3.533763     3.526120     3.518477     3.510834     3.503191     3.495547     3.487904     3.480261     3.472618
      3.464974     3.457331     3.449688     3.442045     3.434402     3.426758     3.419115     3.411472     3.403829     3.396185
      3.388542     3.380899     3.373256     3.365613     3.357969     3.350326     3.342683     3.335040     3.327396     3.319753
      3.312110     3.304467     3.296824     3.289180     3.281537     3.273894     3.266251     3.258607     3.250964     3.243321
      3.235678     3.228034     3.220391     3.212748     3.205105     3.197462     3.189818     3.182175     3.174532     3.166889
      3.159245     3.151602     3.143959     3.136316     3.128673     3.121029     3.113386     3.105743     3.098100     3.090456
      3.082813     3.075170     3.067527     3.059884     3.052240     3.044597     3.036954     3.029311     3.021667     3.014024
      3.006381     2.998738     2.991095     2.983451     2.975808     2.968165     2.960522     2.952878     2.945235     2.937592
      2.929949     2.922306     2.914662     2.907019     2.899376     2.891733     2.884089     2.876446     2.868803     2.861160
      2.853517     2.845873     2.838230     2.830587     2.822944     2.815300     2.807657     2.800014     2.792371     2.784728
      2.777084     2.769441     2.761798     2.754155     2.746511     2.738868     2.731225     2.723582     2.715939     2.708295
      2.700652     2.693009     2.685366     2.677722     2.670079     2.662436     2.654793     2.647150     2.639506     2.631863
      2.624220     2.616577     2.608933     2.601290     2.593647     2.586004     2.578361     2.570717     2.563074     2.555431
      2.547788     2.540144     2.532501     2.524858     2.517215     2.509572     2.501928     2.494285     2.486642     2.478999
      2.471355     2.463712     2.456069     2.448426     2.440783     2.433139     2.425496     2.417853     2.410210     2.402566
      2.394923     2.387280     2.379637     2.371994     2.364350     2.356707     2.349064     2.341421     2.333777     2.326134
      2.318491     2.310848     2.303205     2.295561     2.287918     2.280275     2.272632     2.264988     2.257345     2.249702
      2.242059     2.234416     2.226772     2.219129     2.211486     2.203843     2.196199     2.188556     2.180913     2.173270
      2.165627     2.157983     2.150340     2.142697     2.135054     2.127410     2.119767     2.112124     2.104481     2.096838
      2.089194     2.081551     2.073908     2.066265     2.058621     2.050978     2.043335     2.035692     2.028049     2.020405
      2.012762     2.005119     1.997476     1.989833     1.982190     1.974546     1.966903     1.959260     1.951617     1.943974
      1.936331     1.928688     1.921045     1.913402     1.905759     1.898115     1.890472     1.882829     1.875186     1.867543
      1.859900     1.852257     1.844614     1.836971     1.829327     1.821684     1.814041     1.806398     1.798755     1.791112
      1.783469     1.775826     1.768183     1.760540     1.752896     1.745253     1.737610     1.729967     1.722324     1.714681
      1.707038     1.699395     1.691752     1.684108     1.676465     1.668822     1.661179     1.653536     1.645893     1.638250
      1.630607     1.622964     1.615321     1.607677     1.600034     1.592391     1.584748     1.577105     1.569462     1.561819
      1.554176     1.546533     1.538890     1.531246     1.523603     1.515960     1.508317     1.500674     1.493031     1.485388
      1.477745     1.470102     1.462458     1.454815     1.447172     1.439529     1.431886     1.424243     1.416600     1.408957
      1.401314     1.393671     1.386027     1.378384     1.370741     1.363098     1.355455     1.347812     1.340169     1.332526
      1.324883     1.317240     1.309596     1.301953     1.294310     1.286667     1.279024     1.271381     1.263738     1.256095
      1.248452     1.240808     1.233165     1.225522     1.217879     1.210236     1.202593     1.194950     1.187307     1.179664
      1.172021     1.164377     1.156734     1.149091     1.141448     1.133805     1.126162     1.118519     1.110876     1.103233
      1.095590     1.087946     1.080303     1.072660     1.065017     1.057374     1.049731     1.042088     1.034445     1.026802
      1.019158     1.011515     1.003872     0.996229     0.988586     0.980943     0.973300     0.965657     0.958014     0.950371
      0.942727     0.935084     0.927441     0.919798     0.912155     0.904512     0.896869     0.889226     0.881583     0.873940
      0.866296     0.858653     0.851010     0.843367     0.835724     0.828081     0.820438     0.812795     0.805152     0.797508
      0.789865     0.782222     0.774579     0.766936     0.759293     0.751650     0.744007     0.736364     0.728721     0.721077
      0.713434     0.705791     0.698148     0.690505     0.682862     0.675219     0.667576     0.659933     0.652290     0.644646
      0.637003     0.629360     0.621717     0.614074     0.606431     0.598788     0.591145     0.583502     0.575858     0.568215
      0.560572     0.552929     0.545286     0.537643     0.530000     0.522357     0.514714     0.507071     0.499427     0.491784
      0.484141     0.476498     0.468855     0.461212     0.453569     0.445925     0.438282     0.430639     0.422996     0.415353
      0.407710     0.400067     0.392424     0.384780     0.377137     0.369494     0.361851     0.354208     0.346565     0.338922
      0.331278     0.323635     0.315992     0.308349     0.300706     0.293063     0.285420     0.277777     0.270133     0.262490
      0.254847     0.247204     0.239561     0.231918     0.224275     0.216631     0.208988     0.201345
 NY phased data points follow
  -1.88558E+00  3.24380E+00  5.72294E+00 -1.10626E+01 -1.51658E+01 -3.91102E+00 -4.55915E-01  1.60419E+01 -8.38509E-01 -3.02723E+00
  -7.84179E+00 -3.57002E+00 -1.11300E+01  4.92047E+00 -3.01002E+00  5.72868E-01  5.47217E-01 -3.54463E+00  2.50647E+00 -7.81448E-01
  -1.05076E+01 -4.03945E+00  1.05704E+01 -2.48299E+00  7.90178E+00  4.73941E+00 -3.56181E+00 -2.12609E+00  3.46227E+00  5.05601E+00
   1.01305E+01  1.24010E+00 -3.86258E+00 -1.20101E+01 -5.27367E+00 -1.56168E-01  3.61087E+00  5.10438E+00 -6.61895E+00  8.15091E+00
  -3.46808E+00 -5.41687E+00 -6.20440E+00  3.90384E+00 -2.98580E+00 -1.51961E+00 -4.29051E+00  7.36345E-01  4.25584E+00  3.09249E+00
   6.06272E-01 -2.84537E+00 -1.14995E+00 -3.23406E+00 -2.67599E+00 -2.11286E+00 -7.12554E+00  3.32357E+00  5.15607E-02  2.09202E+00
   5.38020E+00  1.00935E+00 -3.84268E+00  2.72155E+00 -3.59947E+00  8.89632E+00  2.14490E+00  4.33265E-01  4.85321E+00 -4.18089E+00
   8.44545E+00  4.11726E+00 -2.25671E+00 -6.47287E+00  2.09910E+00  3.50171E-01 -7.93934E-01  3.99272E+00 -4.19715E+00  2.32573E+00
   3.05521E+00 -1.15088E+01  5.97890E+00 -3.02587E+00  1.48769E+00  1.64193E+00 -5.81699E+00  7.47204E+00 -1.30920E+00  2.42970E+00
   7.01816E+00 -3.11914E+00  7.84053E+00  7.19647E-01 -1.22810E+00  4.93586E+00  6.15432E+00 -8.26310E+00 -5.45641E+00  1.68140E+00
   2.24563E+00  2.38226E+00  5.86684E+00  4.08825E+00  1.43082E+00  4.38967E+00 -3.79780E+00  4.24832E+00 -3.26196E+00  2.61112E+00
  -3.11391E-01  6.81154E+00  3.45568E+00 -1.13257E+01 -5.27251E+00  5.27704E+00  8.12970E+00 -5.70411E+00  7.67661E+00 -5.40574E-01
  -1.03583E+00 -1.72789E+00  6.73709E+00 -1.74485E+00  3.01491E+00  7.37283E+00  9.29941E+00  4.65416E+00  3.82544E+00  4.18870E+00
   3.53616E+00 -2.53624E+00  7.69021E+00  5.71440E+00  4.48386E+00  6.81877E+00 -5.91435E-01  1.05985E+00 -6.70913E+00  3.42584E+00
   1.38339E+00  3.51878E+00  3.07981E+00 -3.67492E-01  5.75334E+00  4.26166E+00  2.85476E+00 -7.94755E-01 -2.95702E+00  8.80312E-01
  -1.26477E+00  2.01442E+00  5.93926E+00  6.57696E+00  1.05456E+01  9.62514E+00  4.10445E-01  8.45376E+00  4.42640E+00  6.69527E+00
   4.13545E+00 -3.20387E+00  1.71014E+00  9.74738E+00 -2.63203E+00  5.33898E+00 -5.17306E+00  2.90980E+00  8.22691E+00  4.78389E+00
   3.81558E+00 -4.80263E+00  4.73674E+00 -4.53064E+00  5.50101E+00 -4.05822E+00 -7.14481E+00 -2.64366E+00  4.88232E+00  3.81490E+00
  -8.43084E+00  8.24299E+00  6.56055E+00  5.71863E+00  8.82728E+00  4.53708E+00 -1.51482E+00 -3.31669E+00  1.04683E+00  4.43281E+00
   4.48608E+00  4.86281E+00 -5.55959E+00  2.14156E+00  8.48553E-01  8.74139E-01  3.22846E+00 -3.64785E-01  4.39631E+00  1.40508E+00
   7.72806E+00  2.61075E+00  3.59075E+00  1.41296E+01  6.14938E-01  3.18059E+00  1.86076E+00  4.14954E+00 -1.71815E+00  1.01227E+01
   9.14855E+00  5.89995E+00 -1.25044E+00  5.12966E+00  8.97640E+00  6.64091E+00  4.29418E+00  4.24852E+00 -2.88493E+00 -7.82851E+00
  -1.67184E+00  3.43825E+00 -1.65585E+00 -5.37770E+00  8.79517E+00  6.62740E+00 -2.75593E+00  7.22218E+00  4.51541E+00  1.82483E+00
   8.38819E+00  9.74875E+00  6.16507E-01 -3.16519E+00 -1.10562E+00  6.09865E-02  2.12096E+00  1.01731E+00  2.40372E+00  8.19720E-02
   9.13296E+00  9.67868E-01  7.65729E+00  2.70667E-01  1.70836E+00 -1.78884E+00 -3.30854E+00  5.88450E+00 -2.30097E+00  4.75487E+00
  -4.21705E-01  3.76509E+00  3.31530E+00  4.61437E+00  3.28543E+00  1.03429E+01  2.86752E-01  1.99602E+00  1.03486E+01  6.15124E+00
   2.21840E+00  3.69259E+00  6.47841E-01  3.56320E+00  8.70938E+00  4.06269E+00 -5.39677E+00  8.04541E+00 -3.47802E+00 -4.92171E+00
   3.24394E+00 -3.45176E-01  1.34748E+01  2.90744E+00  5.82333E+00  6.84483E+00  4.54349E+00 -1.19799E+00  9.70770E+00  1.06067E+01
   9.68378E+00  2.67019E+00  6.83489E+00  6.40600E+00  1.13342E+01  1.08735E+01  8.47387E+00  1.00425E+01  4.64992E+00  6.25402E+00
   8.53265E+00  3.87559E+00  7.50882E+00  3.71771E+00 -2.42677E+00  6.70342E+00  8.02286E+00  8.35246E+00  6.30683E+00  5.10397E+00
   7.67691E+00  2.99421E+00  2.03924E+00  4.11261E+00  4.77683E+00  1.13653E+01  5.54517E+00  8.58932E+00  2.81690E+00  2.11092E+00
   7.06951E+00  1.07777E+01  9.41113E-01  1.00196E+01  2.79049E+00  8.93218E+00  1.85060E+01  1.23721E+01  1.14063E+01  2.17512E+01
   1.82020E+01  1.19607E+01  1.68918E+01  1.80916E+01  1.59980E+01  5.29671E+00  4.92101E+00  9.90060E+00  1.42277E+01  6.37240E+00
   7.79589E+00  8.91148E+00  1.41331E+01  1.29254E+01  1.60226E+01  3.86850E+00  1.13115E+01  9.51350E+00  1.24302E+01  9.57412E+00
   1.72347E+01  1.48784E+01  2.03641E+01  1.43845E+01  1.83121E+01  1.29222E+01  1.51315E+01  8.42967E+00  1.50082E+01  1.83028E+01
   8.56196E+00  4.44074E+00  2.12635E+00  7.22666E+00  9.62912E+00  4.03502E+00  1.09995E+01  5.65054E+00  9.57376E+00  6.53410E+00
   2.71279E+00  4.34078E+00  3.95388E+00  9.29958E+00  4.54247E+00  1.04875E+01 -6.71205E+00  2.54485E+00 -1.72098E+00  5.28365E+00
   5.96994E+00  4.37927E-01  6.32413E+00  2.61845E+00  4.35279E+00  8.73540E+00  8.69440E+00  3.91129E+00  1.99024E+00  3.90982E+00
   5.96651E+00  2.00887E+00  1.07746E+01  1.05856E+01  1.17953E+01  5.57623E+00  4.06614E+00  1.17646E+01  1.03401E+01 -9.77513E-01
   1.07277E+01  8.16820E+00  1.55306E+01  5.44541E+00  3.72341E+00  4.50303E+00  1.63916E+01  1.01157E+01  1.02434E+00  1.13007E+01
   1.82508E+01  5.51399E+00  6.29825E-01  7.88701E+00  1.05904E+01  1.15643E+01  5.90067E+00  1.07820E+01  1.38828E+01  7.30212E+00
   4.49877E+00  3.45750E+00  4.52226E+00  4.42490E+00 -9.57978E+00  4.41061E+00  1.12374E+01  5.35817E+00 -1.87884E+00  1.14435E+01
   2.59606E+00  1.20020E+01  1.36292E+01  8.98311E+00  7.83045E+00  6.25555E+00  7.56769E+00  6.97482E+00  8.62912E+00  8.10240E+00
   2.35503E+00  1.53809E-01 -9.94469E-01  1.10314E+01  6.87766E+00  1.56508E+00 -2.82550E+00  1.02418E+01  5.56956E+00 -1.22545E+00
  -3.93653E+00  4.65831E+00 -9.15391E-01  3.51319E+00  1.01838E+01  1.49297E-01 -3.57959E-01  4.32742E+00 -4.40299E+00  5.81749E+00
   1.69338E+00  7.02695E-01 -8.93670E-01  4.76040E+00 -6.11002E+00 -3.14204E+00 -1.00008E+01 -1.94268E+00  3.88243E-01  2.37517E+00
  -4.27371E-01  2.34312E+00 -8.89419E+00 -4.17097E+00  2.30913E-01 -2.90206E+00 -1.15767E+00  6.19284E+00 -7.78104E+00  7.85290E+00
  -5.87993E+00 -1.34595E+00 -8.69581E+00 -2.53697E-01 -1.27944E+01 -3.19002E+00 -1.18816E+01 -5.03775E+00 -5.40271E+00  3.38577E+00
  -3.42118E+00 -1.11934E+01  1.43906E+00 -7.45840E+00  5.20769E+00  2.70496E+00 -4.53781E-01 -2.50031E+00 -5.47536E+00 -3.86802E+00
  -1.19133E+01 -7.93304E+00 -1.64562E+00  3.58053E-01 -6.07365E+00 -7.26501E+00 -3.93296E+00 -4.14349E+00
 NY points of the fit to the data follow
   8.55031E-01  8.63089E-01  8.88640E-01  9.04231E-01  8.93084E-01  8.90424E-01  9.07467E-01  9.36638E-01  9.60709E-01  9.73695E-01
   9.82775E-01  9.92863E-01  9.91189E-01  9.48143E-01  8.93467E-01  8.61898E-01  8.81600E-01  9.76900E-01  1.12828E+00  1.35508E+00
   1.69536E+00  2.04538E+00  2.18265E+00  1.96113E+00  1.47287E+00  8.92186E-01  3.82806E-01  7.18984E-02  8.68279E-02  4.61108E-01
   9.64292E-01  1.39183E+00  1.69230E+00  1.82706E+00  1.81901E+00  1.75673E+00  1.65336E+00  1.46682E+00  1.17720E+00  8.78741E-01
   7.28005E-01  7.82938E-01  9.29989E-01  1.07895E+00  1.16997E+00  1.16716E+00  1.11174E+00  1.06532E+00  1.02207E+00  9.89105E-01
   9.63549E-01  9.42935E-01  9.24401E-01  9.07297E-01  8.93260E-01  8.82037E-01  8.72475E-01  8.63977E-01  8.54517E-01  8.45257E-01
   8.38080E-01  8.33020E-01  8.29686E-01  8.26100E-01  8.21894E-01  8.16484E-01  8.09727E-01  8.02428E-01  7.95410E-01  7.89042E-01
   7.86261E-01  7.89130E-01  7.93864E-01  7.96384E-01  7.95027E-01  7.89881E-01  7.83667E-01  7.78560E-01  7.74969E-01  7.72056E-01
   7.70122E-01  7.75454E-01  7.90447E-01  8.07600E-01  8.19116E-01  8.23539E-01  8.23466E-01  8.21416E-01  8.16952E-01  8.08449E-01
   7.95571E-01  7.80502E-01  7.68289E-01  7.67035E-01  7.78532E-01  7.97177E-01  8.23526E-01  8.79825E-01  1.07802E+00  1.48480E+00
   1.91578E+00  2.20668E+00  2.31855E+00  2.30853E+00  2.24382E+00  2.14628E+00  2.00241E+00  1.79503E+00  1.52798E+00  1.25190E+00
   1.07606E+00  1.03913E+00  1.04708E+00  1.06632E+00  1.09078E+00  1.11880E+00  1.14969E+00  1.18398E+00  1.22212E+00  1.26673E+00
   1.32967E+00  1.48172E+00  1.89292E+00  2.45540E+00  2.92334E+00  3.17478E+00  3.23389E+00  3.18769E+00  3.08981E+00  2.93644E+00
   2.70499E+00  2.38670E+00  2.01247E+00  1.68468E+00  1.53082E+00  1.48011E+00  1.44966E+00  1.42322E+00  1.39713E+00  1.37077E+00
   1.34440E+00  1.31837E+00  1.29197E+00  1.26428E+00  1.23477E+00  1.20411E+00  1.17382E+00  1.14454E+00  1.11610E+00  1.08784E+00
   1.05982E+00  1.03271E+00  1.00708E+00  9.83344E-01  9.60802E-01  9.38267E-01  9.16222E-01  8.95477E-01  8.76238E-01  8.57965E-01
   8.40182E-01  8.23154E-01  8.08241E-01  7.95832E-01  7.85305E-01  7.75799E-01  7.66189E-01  7.55825E-01  7.45263E-01  7.35213E-01
   7.26245E-01  7.17497E-01  7.07910E-01  6.97399E-01  6.86829E-01  6.76422E-01  6.66444E-01  6.57740E-01  6.50460E-01  6.44954E-01
   6.41642E-01  6.39567E-01  6.38380E-01  6.38723E-01  6.41011E-01  6.44913E-01  6.49301E-01  6.53363E-01  6.56862E-01  6.60821E-01
   6.66403E-01  6.74207E-01  6.85496E-01  7.02448E-01  7.26299E-01  7.55524E-01  7.90343E-01  8.33726E-01  8.89495E-01  9.62074E-01
   1.06049E+00  1.17742E+00  1.23952E+00  1.24222E+00  1.16848E+00  9.82553E-01  7.32957E-01  5.01257E-01  3.82541E-01  4.78907E-01
   8.93749E-01  1.72419E+00  2.61809E+00  3.23010E+00  3.42726E+00  3.28417E+00  2.79449E+00  1.83530E+00  5.65648E-01 -5.70576E-01
  -1.27372E+00 -1.51287E+00 -1.30596E+00 -6.94000E-01  9.32997E-02  9.52828E-01  1.80180E+00  2.54929E+00  3.07177E+00  3.26013E+00
   3.21802E+00  3.15023E+00  3.12266E+00  3.12069E+00  3.15743E+00  3.18623E+00  3.19732E+00  3.18337E+00  3.12866E+00  3.12718E+00
   3.25480E+00  3.47555E+00  3.72733E+00  4.00061E+00  4.26805E+00  4.46334E+00  4.54731E+00  4.55032E+00  4.56799E+00  4.61598E+00
   4.66215E+00  4.71023E+00  4.73926E+00  4.68219E+00  4.59405E+00  4.58178E+00  4.65742E+00  4.73623E+00  4.76158E+00  4.75828E+00
   4.71918E+00  4.64303E+00  4.56377E+00  4.48341E+00  4.36940E+00  4.17516E+00  3.92449E+00  3.66064E+00  3.43534E+00  3.28087E+00
   3.20349E+00  3.18362E+00  3.16712E+00  3.14903E+00  3.14388E+00  3.14066E+00  3.13113E+00  3.11605E+00  3.09340E+00  3.06753E+00
   3.05766E+00  3.07765E+00  3.12691E+00  3.20247E+00  3.30452E+00  3.43391E+00  3.58778E+00  3.75898E+00  3.94566E+00  4.14962E+00
   4.37011E+00  4.60502E+00  4.85176E+00  5.10718E+00  5.36710E+00  5.62616E+00  5.88000E+00  6.12462E+00  6.35602E+00  6.57031E+00
   6.76422E+00  6.93506E+00  7.08139E+00  7.20303E+00  7.30112E+00  7.37785E+00  7.43653E+00  7.48144E+00  7.51784E+00  7.55195E+00
   7.59083E+00  7.64150E+00  7.71095E+00  7.80613E+00  7.93394E+00  8.10120E+00  8.31497E+00  8.58312E+00  8.91606E+00  9.33093E+00
   9.86436E+00  1.06165E+01  1.17134E+01  1.26783E+01  1.29849E+01  1.26522E+01  1.19834E+01  1.12405E+01  1.04593E+01  9.56012E+00
   8.94230E+00  9.06131E+00  9.80157E+00  1.09107E+01  1.21922E+01  1.32945E+01  1.40998E+01  1.46930E+01  1.50665E+01  1.51466E+01
   1.48593E+01  1.42873E+01  1.38984E+01  1.37665E+01  1.33923E+01  1.26363E+01  1.16351E+01  1.05716E+01  9.51416E+00  8.44358E+00
   7.60152E+00  7.21361E+00  7.17951E+00  7.35386E+00  7.68145E+00  8.03504E+00  8.26828E+00  8.40239E+00  8.42733E+00  8.29263E+00
   7.94515E+00  7.41253E+00  6.90984E+00  6.54452E+00  6.24765E+00  5.98538E+00  5.74494E+00  5.52068E+00  5.31023E+00  5.11285E+00
   4.92884E+00  4.75898E+00  4.60445E+00  4.46667E+00  4.34739E+00  4.24839E+00  4.17159E+00  4.11883E+00  4.09198E+00  4.09290E+00
   4.12346E+00  4.18535E+00  4.28013E+00  4.40900E+00  4.57287E+00  4.77217E+00  5.00680E+00  5.27586E+00  5.57763E+00  5.90934E+00
   6.26721E+00  6.64629E+00  7.04059E+00  7.44290E+00  7.84512E+00  8.23830E+00  8.61306E+00  8.95978E+00  9.26905E+00  9.53195E+00
   9.74055E+00  9.88817E+00  9.96985E+00  9.98240E+00  9.92472E+00  9.79766E+00  9.60413E+00  9.34880E+00  9.03801E+00  8.67928E+00
   8.28106E+00  7.85225E+00  7.40191E+00  6.93884E+00  6.47138E+00  6.00701E+00  5.55227E+00  5.11261E+00  4.69238E+00  4.29482E+00
   3.92218E+00  3.57569E+00  3.25581E+00  2.96228E+00  2.69434E+00  2.45079E+00  2.23021E+00  2.03088E+00  1.85111E+00  1.68908E+00
   1.54312E+00  1.41157E+00  1.29293E+00  1.18572E+00  1.08869E+00  1.00066E+00  9.20619E-01  8.47636E-01  7.80929E-01  7.19747E-01
   6.63498E-01  6.11611E-01  5.63652E-01  5.19173E-01  4.77836E-01  4.39283E-01  4.03270E-01  3.69525E-01  3.37869E-01  3.08076E-01
   2.80001E-01  2.53461E-01  2.28360E-01  2.04553E-01  1.81967E-01  1.60468E-01  1.39995E-01  1.20440E-01  1.01771E-01  8.38984E-02
   6.67939E-02  5.03653E-02  3.45951E-02  1.94110E-02  4.81295E-03 -9.26826E-03 -2.28375E-02 -3.59639E-02 -4.86423E-02 -6.09260E-02
  -7.28005E-02 -8.43231E-02 -9.54871E-02 -1.06348E-01 -1.16886E-01 -1.27146E-01 -1.37108E-01 -1.46826E-01 -1.56285E-01 -1.65529E-01
  -1.74533E-01 -1.83335E-01 -1.91915E-01 -2.00321E-01 -2.08532E-01 -2.16585E-01 -2.24448E-01 -2.32164E-01 -2.39708E-01 -2.47126E-01
  -2.54389E-01 -2.61532E-01 -2.68521E-01 -2.75398E-01 -2.82140E-01 -2.88786E-01 -2.95301E-01 -3.01717E-01
 NY background values follow
     8.910E-01    8.882E-01    8.854E-01    8.826E-01    8.797E-01    8.769E-01    8.741E-01    8.713E-01    8.684E-01    8.656E-01
     8.628E-01    8.600E-01    8.572E-01    8.543E-01    8.515E-01    8.487E-01    8.459E-01    8.430E-01    8.402E-01    8.374E-01
     8.346E-01    8.317E-01    8.289E-01    8.261E-01    8.233E-01    8.205E-01    8.176E-01    8.148E-01    8.120E-01    8.092E-01
     8.063E-01    8.035E-01    8.007E-01    7.979E-01    7.951E-01    7.922E-01    7.894E-01    7.866E-01    7.838E-01    7.809E-01
     7.781E-01    7.753E-01    7.725E-01    7.696E-01    7.668E-01    7.640E-01    7.612E-01    7.584E-01    7.555E-01    7.527E-01
     7.499E-01    7.471E-01    7.442E-01    7.414E-01    7.386E-01    7.358E-01    7.329E-01    7.301E-01    7.273E-01    7.245E-01
     7.217E-01    7.188E-01    7.160E-01    7.132E-01    7.104E-01    7.075E-01    7.047E-01    7.019E-01    6.991E-01    6.963E-01
     6.934E-01    6.906E-01    6.878E-01    6.850E-01    6.821E-01    6.793E-01    6.765E-01    6.737E-01    6.708E-01    6.680E-01
     6.652E-01    6.624E-01    6.596E-01    6.567E-01    6.539E-01    6.511E-01    6.483E-01    6.454E-01    6.426E-01    6.398E-01
     6.370E-01    6.341E-01    6.313E-01    6.285E-01    6.257E-01    6.228E-01    6.200E-01    6.172E-01    6.144E-01    6.116E-01
     6.087E-01    6.059E-01    6.031E-01    6.003E-01    5.974E-01    5.946E-01    5.918E-01    5.890E-01    5.861E-01    5.833E-01
     5.805E-01    5.777E-01    5.749E-01    5.720E-01    5.692E-01    5.664E-01    5.636E-01    5.607E-01    5.579E-01    5.551E-01
     5.523E-01    5.494E-01    5.466E-01    5.438E-01    5.410E-01    5.381E-01    5.353E-01    5.325E-01    5.297E-01    5.268E-01
     5.240E-01    5.212E-01    5.184E-01    5.156E-01    5.127E-01    5.099E-01    5.071E-01    5.043E-01    5.014E-01    4.986E-01
     4.958E-01    4.930E-01    4.901E-01    4.873E-01    4.845E-01    4.817E-01    4.788E-01    4.760E-01    4.732E-01    4.704E-01
     4.675E-01    4.647E-01    4.619E-01    4.591E-01    4.562E-01    4.534E-01    4.506E-01    4.478E-01    4.449E-01    4.421E-01
     4.393E-01    4.365E-01    4.336E-01    4.308E-01    4.280E-01    4.252E-01    4.223E-01    4.195E-01    4.167E-01    4.139E-01
     4.110E-01    4.082E-01    4.054E-01    4.026E-01    3.997E-01    3.969E-01    3.941E-01    3.913E-01    3.884E-01    3.856E-01
     3.828E-01    3.800E-01    3.771E-01    3.743E-01    3.715E-01    3.687E-01    3.658E-01    3.630E-01    3.602E-01    3.574E-01
     3.545E-01    3.517E-01    3.489E-01    3.461E-01    3.432E-01    3.404E-01    3.376E-01    3.348E-01    3.319E-01    3.291E-01
     3.263E-01    3.235E-01    3.206E-01    3.178E-01    3.150E-01    3.122E-01    3.093E-01    3.065E-01    3.037E-01    3.008E-01
     2.980E-01    2.952E-01    2.924E-01    2.895E-01    2.867E-01    2.839E-01    2.811E-01    2.782E-01    2.754E-01    2.726E-01
     2.698E-01    2.669E-01    2.641E-01    2.613E-01    2.585E-01    2.556E-01    2.528E-01    2.500E-01    2.471E-01    2.443E-01
     2.415E-01    2.387E-01    2.358E-01    2.330E-01    2.302E-01    2.274E-01    2.245E-01    2.217E-01    2.189E-01    2.161E-01
     2.132E-01    2.104E-01    2.076E-01    2.047E-01    2.019E-01    1.991E-01    1.963E-01    1.934E-01    1.906E-01    1.878E-01
     1.850E-01    1.821E-01    1.793E-01    1.765E-01    1.736E-01    1.708E-01    1.680E-01    1.652E-01    1.623E-01    1.595E-01
     1.567E-01    1.539E-01    1.510E-01    1.482E-01    1.454E-01    1.425E-01    1.397E-01    1.369E-01    1.341E-01    1.312E-01
     1.284E-01    1.256E-01    1.227E-01    1.199E-01    1.171E-01    1.143E-01    1.114E-01    1.086E-01    1.058E-01    1.029E-01
     1.001E-01    9.729E-02    9.446E-02    9.164E-02    8.881E-02    8.598E-02    8.315E-02    8.032E-02    7.749E-02    7.467E-02
     7.184E-02    6.901E-02    6.618E-02    6.335E-02    6.052E-02    5.770E-02    5.487E-02    5.204E-02    4.921E-02    4.638E-02
     4.355E-02    4.072E-02    3.790E-02    3.507E-02    3.224E-02    2.941E-02    2.658E-02    2.375E-02    2.092E-02    1.809E-02
     1.526E-02    1.244E-02    9.607E-03    6.778E-03    3.949E-03    1.120E-03   -1.709E-03   -4.538E-03   -7.367E-03   -1.020E-02
    -1.303E-02   -1.585E-02   -1.868E-02   -2.151E-02   -2.434E-02   -2.717E-02   -3.000E-02   -3.283E-02   -3.566E-02   -3.849E-02
    -4.132E-02   -4.415E-02   -4.698E-02   -4.981E-02   -5.264E-02   -5.547E-02   -5.830E-02   -6.112E-02   -6.395E-02   -6.678E-02
    -6.961E-02   -7.244E-02   -7.527E-02   -7.810E-02   -8.093E-02   -8.376E-02   -8.659E-02   -8.942E-02   -9.225E-02   -9.508E-02
    -9.791E-02   -1.007E-01   -1.036E-01   -1.064E-01   -1.092E-01   -1.121E-01   -1.149E-01   -1.177E-01   -1.206E-01   -1.234E-01
    -1.262E-01   -1.290E-01   -1.319E-01   -1.347E-01   -1.375E-01   -1.404E-01   -1.432E-01   -1.460E-01   -1.489E-01   -1.517E-01
    -1.545E-01   -1.573E-01   -1.602E-01   -1.630E-01   -1.658E-01   -1.687E-01   -1.715E-01   -1.743E-01   -1.772E-01   -1.800E-01
    -1.828E-01   -1.856E-01   -1.885E-01   -1.913E-01   -1.941E-01   -1.970E-01   -1.998E-01   -2.026E-01   -2.055E-01   -2.083E-01
    -2.111E-01   -2.139E-01   -2.168E-01   -2.196E-01   -2.224E-01   -2.253E-01   -2.281E-01   -2.309E-01   -2.338E-01   -2.366E-01
    -2.394E-01   -2.423E-01   -2.451E-01   -2.479E-01   -2.507E-01   -2.536E-01   -2.564E-01   -2.592E-01   -2.621E-01   -2.649E-01
    -2.677E-01   -2.706E-01   -2.734E-01   -2.762E-01   -2.791E-01   -2.819E-01   -2.847E-01   -2.876E-01   -2.904E-01   -2.932E-01
    -2.960E-01   -2.989E-01   -3.017E-01   -3.045E-01   -3.074E-01   -3.102E-01   -3.130E-01   -3.159E-01   -3.187E-01   -3.215E-01
    -3.244E-01   -3.272E-01   -3.300E-01   -3.328E-01   -3.357E-01   -3.385E-01   -3.413E-01   -3.442E-01   -3.470E-01   -3.498E-01
    -3.527E-01   -3.555E-01   -3.583E-01   -3.612E-01   -3.640E-01   -3.668E-01   -3.697E-01   -3.725E-01   -3.753E-01   -3.781E-01
    -3.810E-01   -3.838E-01   -3.866E-01   -3.895E-01   -3.923E-01   -3.951E-01   -3.980E-01   -4.008E-01   -4.036E-01   -4.065E-01
    -4.093E-01   -4.121E-01   -4.150E-01   -4.178E-01   -4.206E-01   -4.234E-01   -4.263E-01   -4.291E-01   -4.319E-01   -4.348E-01
    -4.376E-01   -4.404E-01   -4.433E-01   -4.461E-01   -4.489E-01   -4.518E-01   -4.546E-01   -4.574E-01   -4.603E-01   -4.631E-01
    -4.659E-01   -4.688E-01   -4.716E-01   -4.744E-01   -4.772E-01   -4.801E-01   -4.829E-01   -4.857E-01   -4.886E-01   -4.914E-01
    -4.942E-01   -4.971E-01   -4.999E-01   -5.027E-01   -5.056E-01   -5.084E-01   -5.112E-01   -5.141E-01
 Ala      Conc. = 2.78E+02
