 LCModel (Version 6.3-1L) Copyright: S.W. Provencher.          Ref.: Magn. Reson. Med. 30:672-679 (1993).                
 Slice#1 Row#8 Col#1  PD_05_press_2_raw_act
 36 lines in following concentration table = NCONC+1
    Conc.  %SD /Cr+PCr  Metabolite                                         
 5.51E+03  82%   8.700 Ala                                                 
  175.616 138%   0.277 Asp                                                 
  633.471  55%   1.000 Cr                                                  
    0.000 999%   0.000 PCr                                                 
    0.000 999%   0.000 GABA                                                
   19.100 765% 3.0E-02 Glc                                                 
    0.000 999%   0.000 Gln                                                 
 4.15E+04  12%  65.573 Glu                                                 
    0.000 999%   0.000 GPC                                                 
    0.000 999%   0.000 PCh                                                 
    0.000 999%   0.000 GSH                                                 
 5.92E+03  29%   9.338 Ins                                                 
  763.063 621%   1.205 Lac                                                 
    0.000 999%   0.000 NAA                                                 
    0.000 999%   0.000 NAAG                                                
    8.604 558% 1.4E-02 Scyllo                                              
    0.000 999%   0.000 Tau                                                 
   54.013 129% 8.5E-02 -CrCH2                                              
    0.000 999%   0.000 GPC+PCh                                             
    0.000 999%   0.000 NAA+NAAG                                            
  633.471  55%   1.000 Cr+PCr                                              
 4.15E+04  12%  65.573 Glu+Gln                                             
 2.71E+04  26%  42.726 Lip13a                                              
    0.000 999%   0.000 Lip13b                                              
 1.22E+04  23%  19.256 Lip09                                               
 6.74E+03  25%  10.647 MM09                                                
    0.000 999%   0.000 Lip20                                               
    0.000 999%   0.000-MM20                                                
 2.63E+03  44%   4.154 MM12                                                
 1.58E+04  19%  24.970 MM14                                                
 8.72E+03  24%  13.759 MM17                                                
 2.71E+04  26%  42.726 Lip13a+Lip13b                                       
 4.55E+04  14%  71.850 MM14+Lip13a+Lip13b+MM12                             
 1.89E+04  15%  29.903 MM09+Lip09                                          
    0.000 999%   0.000 MM20+Lip20                                          
   6 lines in following misc. output table
  FWHM = 0.199 ppm    S/N =   6                                            
  Data shift = 0.000 ppm                                                   
  Ph:-125 deg     124.5 deg/ppm                                            
  alphaB,S = 1.0E+00,   3.6E+02                                            
    6 spline knots.   Ns = 9(2)                                            
  (13) 2 infls.   (13) 1 extrs.                                            
  498 points on ppm-axis = NY
      4.000000     3.992357     3.984714     3.977070     3.969427     3.961784     3.954141     3.946497     3.938854     3.931211
      3.923568     3.915925     3.908281     3.900638     3.892995     3.885352     3.877708     3.870065     3.862422     3.854779
      3.847136     3.839492     3.831849     3.824206     3.816563     3.808919     3.801276     3.793633     3.785990     3.778347
      3.770703     3.763060     3.755417     3.747774     3.740130     3.732487     3.724844     3.717201     3.709558     3.701914
      3.694271     3.686628     3.678985     3.671341     3.663698     3.656055     3.648412     3.640769     3.633125     3.625482
      3.617839     3.610196     3.602552     3.594909     3.587266     3.579623     3.571980     3.564336     3.556693     3.549050
      3.541407     3.533763     3.526120     3.518477     3.510834     3.503191     3.495547     3.487904     3.480261     3.472618
      3.464974     3.457331     3.449688     3.442045     3.434402     3.426758     3.419115     3.411472     3.403829     3.396185
      3.388542     3.380899     3.373256     3.365613     3.357969     3.350326     3.342683     3.335040     3.327396     3.319753
      3.312110     3.304467     3.296824     3.289180     3.281537     3.273894     3.266251     3.258607     3.250964     3.243321
      3.235678     3.228034     3.220391     3.212748     3.205105     3.197462     3.189818     3.182175     3.174532     3.166889
      3.159245     3.151602     3.143959     3.136316     3.128673     3.121029     3.113386     3.105743     3.098100     3.090456
      3.082813     3.075170     3.067527     3.059884     3.052240     3.044597     3.036954     3.029311     3.021667     3.014024
      3.006381     2.998738     2.991095     2.983451     2.975808     2.968165     2.960522     2.952878     2.945235     2.937592
      2.929949     2.922306     2.914662     2.907019     2.899376     2.891733     2.884089     2.876446     2.868803     2.861160
      2.853517     2.845873     2.838230     2.830587     2.822944     2.815300     2.807657     2.800014     2.792371     2.784728
      2.777084     2.769441     2.761798     2.754155     2.746511     2.738868     2.731225     2.723582     2.715939     2.708295
      2.700652     2.693009     2.685366     2.677722     2.670079     2.662436     2.654793     2.647150     2.639506     2.631863
      2.624220     2.616577     2.608933     2.601290     2.593647     2.586004     2.578361     2.570717     2.563074     2.555431
      2.547788     2.540144     2.532501     2.524858     2.517215     2.509572     2.501928     2.494285     2.486642     2.478999
      2.471355     2.463712     2.456069     2.448426     2.440783     2.433139     2.425496     2.417853     2.410210     2.402566
      2.394923     2.387280     2.379637     2.371994     2.364350     2.356707     2.349064     2.341421     2.333777     2.326134
      2.318491     2.310848     2.303205     2.295561     2.287918     2.280275     2.272632     2.264988     2.257345     2.249702
      2.242059     2.234416     2.226772     2.219129     2.211486     2.203843     2.196199     2.188556     2.180913     2.173270
      2.165627     2.157983     2.150340     2.142697     2.135054     2.127410     2.119767     2.112124     2.104481     2.096838
      2.089194     2.081551     2.073908     2.066265     2.058621     2.050978     2.043335     2.035692     2.028049     2.020405
      2.012762     2.005119     1.997476     1.989833     1.982190     1.974546     1.966903     1.959260     1.951617     1.943974
      1.936331     1.928688     1.921045     1.913402     1.905759     1.898115     1.890472     1.882829     1.875186     1.867543
      1.859900     1.852257     1.844614     1.836971     1.829327     1.821684     1.814041     1.806398     1.798755     1.791112
      1.783469     1.775826     1.768183     1.760540     1.752896     1.745253     1.737610     1.729967     1.722324     1.714681
      1.707038     1.699395     1.691752     1.684108     1.676465     1.668822     1.661179     1.653536     1.645893     1.638250
      1.630607     1.622964     1.615321     1.607677     1.600034     1.592391     1.584748     1.577105     1.569462     1.561819
      1.554176     1.546533     1.538890     1.531246     1.523603     1.515960     1.508317     1.500674     1.493031     1.485388
      1.477745     1.470102     1.462458     1.454815     1.447172     1.439529     1.431886     1.424243     1.416600     1.408957
      1.401314     1.393671     1.386027     1.378384     1.370741     1.363098     1.355455     1.347812     1.340169     1.332526
      1.324883     1.317240     1.309596     1.301953     1.294310     1.286667     1.279024     1.271381     1.263738     1.256095
      1.248452     1.240808     1.233165     1.225522     1.217879     1.210236     1.202593     1.194950     1.187307     1.179664
      1.172021     1.164377     1.156734     1.149091     1.141448     1.133805     1.126162     1.118519     1.110876     1.103233
      1.095590     1.087946     1.080303     1.072660     1.065017     1.057374     1.049731     1.042088     1.034445     1.026802
      1.019158     1.011515     1.003872     0.996229     0.988586     0.980943     0.973300     0.965657     0.958014     0.950371
      0.942727     0.935084     0.927441     0.919798     0.912155     0.904512     0.896869     0.889226     0.881583     0.873940
      0.866296     0.858653     0.851010     0.843367     0.835724     0.828081     0.820438     0.812795     0.805152     0.797508
      0.789865     0.782222     0.774579     0.766936     0.759293     0.751650     0.744007     0.736364     0.728721     0.721077
      0.713434     0.705791     0.698148     0.690505     0.682862     0.675219     0.667576     0.659933     0.652290     0.644646
      0.637003     0.629360     0.621717     0.614074     0.606431     0.598788     0.591145     0.583502     0.575858     0.568215
      0.560572     0.552929     0.545286     0.537643     0.530000     0.522357     0.514714     0.507071     0.499427     0.491784
      0.484141     0.476498     0.468855     0.461212     0.453569     0.445925     0.438282     0.430639     0.422996     0.415353
      0.407710     0.400067     0.392424     0.384780     0.377137     0.369494     0.361851     0.354208     0.346565     0.338922
      0.331278     0.323635     0.315992     0.308349     0.300706     0.293063     0.285420     0.277777     0.270133     0.262490
      0.254847     0.247204     0.239561     0.231918     0.224275     0.216631     0.208988     0.201345
 NY phased data points follow
   6.46503E+01  6.81229E+01  6.83304E+01  6.11747E+01  6.73106E+01  6.91087E+01  7.04259E+01  6.84852E+01  7.31167E+01  6.77965E+01
   6.90724E+01  6.51726E+01  7.13192E+01  6.53798E+01  6.31448E+01  6.43097E+01  6.38454E+01  6.23714E+01  6.34610E+01  6.79429E+01
   6.74158E+01  6.46979E+01  6.63439E+01  7.05984E+01  7.02437E+01  7.06825E+01  6.68719E+01  6.66842E+01  6.55112E+01  6.38121E+01
   6.41863E+01  5.97997E+01  6.77236E+01  5.66623E+01  6.94245E+01  5.74420E+01  5.97930E+01  5.83585E+01  6.32274E+01  5.99444E+01
   5.91486E+01  5.89501E+01  6.01185E+01  5.90667E+01  5.98653E+01  5.55601E+01  5.91295E+01  5.89415E+01  5.66117E+01  6.01778E+01
   5.69800E+01  5.34492E+01  5.81723E+01  5.78813E+01  5.44512E+01  6.03329E+01  6.01132E+01  5.23583E+01  5.44359E+01  5.26636E+01
   4.96263E+01  4.62422E+01  5.63171E+01  4.93055E+01  4.93431E+01  4.77312E+01  5.26638E+01  4.81010E+01  4.64660E+01  4.58699E+01
   4.60200E+01  4.00733E+01  4.58053E+01  3.56359E+01  3.47584E+01  3.72189E+01  4.22407E+01  3.73930E+01  3.96152E+01  2.98779E+01
   3.94112E+01  3.71977E+01  3.99946E+01  3.65943E+01  3.14272E+01  3.23948E+01  3.34614E+01  2.93947E+01  2.88446E+01  2.66134E+01
   2.86617E+01  3.02476E+01  3.06089E+01  2.89577E+01  2.24613E+01  1.97765E+01  2.26960E+01  2.01646E+01  2.53024E+01  2.40319E+01
   2.95414E+01  2.58328E+01  1.42090E+01  1.89175E+01  1.62619E+01  1.57044E+01  2.81996E+01  2.91022E+01  2.22126E+01  2.56043E+01
   3.12942E+01  2.61520E+01  2.07602E+01  2.55080E+01  2.21257E+01  2.46232E+01  2.22893E+01  2.32424E+01  2.34829E+01  2.82648E+01
   2.74501E+01  2.20134E+01  2.40224E+01  2.22784E+01  3.36281E+01  2.15236E+01  2.82055E+01  3.21850E+01  3.18523E+01  3.13720E+01
   3.67024E+01  3.96531E+01  4.58627E+01  4.52467E+01  4.01007E+01  4.16123E+01  3.60846E+01  3.33679E+01  3.32133E+01  2.88554E+01
   2.56977E+01  2.40706E+01  2.60472E+01  2.63436E+01  2.35630E+01  1.94550E+01  1.14406E+01  7.29008E+00  6.84439E+00  7.52550E+00
   4.85651E+00  1.05043E+01  1.23013E+01  1.00010E+01  5.45455E+00  8.23188E+00  4.86986E+00  1.44349E-01  8.34710E-01  7.11649E+00
   4.84390E+00  9.47992E+00  7.60173E+00  3.72859E+00  9.57561E+00  5.26862E+00  7.96843E+00  2.65688E+00  4.29902E+00  1.05361E+01
   1.71582E+01  1.40794E+01  1.04235E+01  1.25807E+01  1.42134E+01  1.21138E+01  1.29451E+01  2.23608E+01  2.14524E+01  2.25373E+01
   2.69371E+01  2.82475E+01  2.92189E+01  4.21388E+01  4.29950E+01  4.25676E+01  4.52274E+01  4.32594E+01  4.71455E+01  4.66164E+01
   5.32290E+01  4.79518E+01  4.78119E+01  4.25648E+01  5.28506E+01  4.54990E+01  4.21836E+01  3.84204E+01  3.49382E+01  2.41262E+01
   1.86619E+01  1.53689E+01  1.59440E+01  7.61814E+00  2.95000E+00  4.33487E+00 -1.06642E+01 -8.42677E+00 -2.04036E+01 -1.46926E+01
  -2.44574E+01 -2.54346E+01 -2.92483E+01 -3.59936E+01 -3.19082E+01 -3.96521E+01 -3.13621E+01 -4.36233E+01 -4.55946E+01 -3.74488E+01
  -4.11528E+01 -4.40928E+01 -4.77458E+01 -5.11250E+01 -5.39149E+01 -5.08791E+01 -5.55532E+01 -5.89477E+01 -5.53321E+01 -6.39193E+01
  -6.78532E+01 -6.59928E+01 -6.68330E+01 -6.47603E+01 -7.04853E+01 -7.23879E+01 -7.14814E+01 -6.94132E+01 -7.30876E+01 -6.85152E+01
  -6.97661E+01 -6.72222E+01 -7.09023E+01 -6.69049E+01 -6.82755E+01 -5.92728E+01 -6.73239E+01 -5.62596E+01 -5.16271E+01 -4.49459E+01
  -5.52900E+01 -5.35964E+01 -4.67094E+01 -5.38615E+01 -4.31808E+01 -4.07968E+01 -4.00355E+01 -3.76607E+01 -3.88113E+01 -3.54497E+01
  -3.65163E+01 -3.53714E+01 -3.91796E+01 -3.87233E+01 -5.11249E+01 -6.02606E+01 -6.57870E+01 -7.57634E+01 -7.19989E+01 -7.07705E+01
  -7.31140E+01 -6.58795E+01 -6.41389E+01 -6.36340E+01 -6.35268E+01 -5.57809E+01 -5.85767E+01 -5.29786E+01 -5.34431E+01 -4.78972E+01
  -5.06902E+01 -4.36939E+01 -5.33572E+01 -3.81970E+01 -3.93173E+01 -3.94049E+01 -3.92665E+01 -3.09033E+01 -3.41929E+01 -2.93607E+01
  -3.02220E+01 -2.94256E+01 -3.52087E+01 -2.80874E+01 -3.50483E+01 -2.19853E+01 -2.16106E+01 -3.03103E+01 -2.75187E+01 -1.80077E+01
  -2.15859E+01 -1.77419E+01 -2.34621E+01 -2.26342E+01 -2.48643E+01 -1.79775E+01 -2.59074E+01 -2.09641E+01 -2.47114E+01 -2.47289E+01
  -2.46375E+01 -2.73470E+01 -1.78234E+01 -2.03571E+01 -2.00275E+01 -1.71143E+01 -7.92643E+00 -4.26841E+00 -1.97478E+00 -2.55735E+00
   2.37862E+00  6.01384E+00 -4.43905E-01  5.78924E+00  9.46759E+00  1.60648E+01  1.82405E+01  2.56519E+01  2.41498E+01  2.78981E+01
   4.47159E+01  3.70597E+01  4.05235E+01  4.04581E+01  2.74345E+01  2.83182E+01  2.71661E+01  2.77030E+01  1.81640E+01  1.53537E+01
   1.50708E+01  9.19569E+00 -5.47552E-01  9.61259E+00  4.90846E+00 -1.08614E+00 -1.37912E+00  3.34489E+00 -2.28204E+00 -7.71362E+00
  -8.04882E+00 -5.57673E+00 -9.03100E+00 -1.07587E+01 -1.02439E+01 -5.74794E+00 -5.22942E+00 -9.62288E+00  1.61307E+00 -2.54290E+00
   1.26735E+00  6.68204E+00  3.92176E+00  2.81033E+00  5.81925E+00  5.29504E+00  6.81911E+00  1.29141E+01  1.07671E+01  6.80654E+00
   9.42147E+00  8.95170E+00  1.20165E+01  1.16650E+01  5.64458E+00  9.44920E+00  7.61899E+00  9.81759E+00  6.08432E+00  4.20812E+00
   9.59341E+00  1.05716E+01  1.43799E+01  1.24738E+01  1.25582E+01  1.47565E+01  1.12047E+01  1.35927E+01  2.07057E+01  1.20648E+01
   1.53965E+01  1.56893E+01  1.54502E+01  2.75967E+01  1.82364E+01  1.90489E+01  2.56595E+01  1.97100E+01  2.24412E+01  2.55105E+01
   2.06152E+01  2.21435E+01  2.35368E+01  2.41537E+01  2.06518E+01  2.60918E+01  2.06699E+01  2.26574E+01  2.20318E+01  1.89127E+01
   2.05670E+01  2.80808E+01  2.23059E+01  2.29328E+01  2.11349E+01  1.90189E+01  2.47208E+01  2.56129E+01  2.05678E+01  2.06444E+01
   2.24139E+01  2.39151E+01  1.96242E+01  2.23587E+01  2.58000E+01  3.09454E+01  2.39145E+01  2.41008E+01  2.11440E+01  1.96715E+01
   2.50113E+01  2.63068E+01  3.00591E+01  2.39345E+01  2.24482E+01  3.05856E+01  2.78762E+01  2.09702E+01  1.94781E+01  1.81575E+01
   1.81307E+01  2.23402E+01  2.04599E+01  2.20736E+01  2.15146E+01  2.18416E+01  2.41458E+01  2.23814E+01  2.27917E+01  1.65650E+01
   1.81417E+01  2.75091E+01  1.94664E+01  1.65534E+01  1.37159E+01  1.83334E+01  2.10353E+01  2.02634E+01  2.31467E+01  2.25656E+01
   2.07400E+01  1.86479E+01  2.21124E+01  1.82523E+01  1.61427E+01  1.72515E+01  2.03202E+01  1.92587E+01  1.71106E+01  6.55956E+00
   1.76263E+01  1.33702E+01  1.82826E+01  1.35827E+01  1.21308E+01  1.54672E+01  1.79509E+01  1.12327E+01  1.86769E+01  1.52961E+01
   1.48965E+01  1.48868E+01  1.75038E+01  1.21489E+01  1.90587E+01  1.14339E+01  1.33640E+01  8.85194E+00  7.35303E+00  1.27041E+01
   7.50191E+00  8.54771E+00  1.65244E+01  1.20178E+01  1.03365E+01  9.93332E+00  1.11928E+01  1.13506E+01
 NY points of the fit to the data follow
   6.71371E+01  6.61712E+01  6.58463E+01  6.48797E+01  6.48157E+01  6.40909E+01  6.45541E+01  6.46364E+01  6.56092E+01  6.52185E+01
   6.42562E+01  6.32826E+01  6.08173E+01  6.02907E+01  5.82076E+01  6.06264E+01  6.00658E+01  6.35964E+01  6.26364E+01  6.58634E+01
   6.32979E+01  6.61281E+01  6.37528E+01  6.65454E+01  6.46144E+01  6.69766E+01  6.51290E+01  6.67587E+01  6.50023E+01  6.64720E+01
   6.58828E+01  6.73770E+01  6.73920E+01  6.84798E+01  6.87761E+01  6.88978E+01  6.91412E+01  6.84103E+01  6.87952E+01  6.73474E+01
   6.77712E+01  6.58380E+01  6.65773E+01  6.42121E+01  6.53720E+01  6.28034E+01  6.46362E+01  6.21070E+01  6.41182E+01  6.05997E+01
   6.09615E+01  5.67764E+01  5.65194E+01  5.28208E+01  5.36511E+01  5.18417E+01  5.37668E+01  5.21480E+01  5.31173E+01  5.09743E+01
   5.07456E+01  4.84577E+01  4.84470E+01  4.64136E+01  4.64832E+01  4.46007E+01  4.46322E+01  4.29672E+01  4.31332E+01  4.18438E+01
   4.23700E+01  4.11166E+01  4.13261E+01  3.98134E+01  3.97800E+01  3.81654E+01  3.80496E+01  3.64849E+01  3.63422E+01  3.50248E+01
   3.47046E+01  3.36691E+01  3.33551E+01  3.26071E+01  3.22106E+01  3.15674E+01  3.09002E+01  3.03075E+01  2.94433E+01  2.89600E+01
   2.80589E+01  2.77132E+01  2.68997E+01  2.66743E+01  2.60864E+01  2.60271E+01  2.55714E+01  2.56362E+01  2.52928E+01  2.54821E+01
   2.52410E+01  2.55388E+01  2.53802E+01  2.57597E+01  2.56663E+01  2.61110E+01  2.60838E+01  2.65646E+01  2.66566E+01  2.74367E+01
   2.77651E+01  2.83924E+01  2.89289E+01  2.93630E+01  3.01261E+01  3.03778E+01  3.13869E+01  3.14604E+01  3.26137E+01  3.24771E+01
   3.35590E+01  3.31203E+01  3.40689E+01  3.33899E+01  3.41826E+01  3.33331E+01  3.39926E+01  3.30420E+01  3.36295E+01  3.25872E+01
   3.30734E+01  3.19829E+01  3.23728E+01  3.12584E+01  3.15514E+01  3.04245E+01  3.06059E+01  2.94568E+01  2.94972E+01  2.83495E+01
   2.82398E+01  2.71163E+01  2.68526E+01  2.57840E+01  2.53777E+01  2.43767E+01  2.38461E+01  2.30249E+01  2.24886E+01  2.21114E+01
   2.17102E+01  2.13569E+01  2.09489E+01  2.05882E+01  2.01615E+01  1.97868E+01  1.93421E+01  1.89591E+01  1.84915E+01  1.80909E+01
   1.75963E+01  1.71703E+01  1.66399E+01  1.61801E+01  1.56170E+01  1.51269E+01  1.45485E+01  1.40368E+01  1.34376E+01  1.28961E+01
   1.22879E+01  1.17269E+01  1.11173E+01  1.05365E+01  9.92908E+00  9.33224E+00  8.74473E+00  8.14368E+00  7.58776E+00  7.01500E+00
   6.53618E+00  6.03391E+00  5.62542E+00  5.22382E+00  4.93706E+00  4.73154E+00  4.71563E+00  4.94039E+00  5.29686E+00  5.10194E+00
   5.56950E+00  4.55039E+00  3.77670E+00  2.11799E+00  4.52467E-01 -7.47696E-01 -1.34310E+00  3.26936E-01  4.39272E+00  6.00328E+00
   1.15536E+01  1.08995E+01  1.58904E+01  1.05438E+01  1.15669E+01  1.45225E+00  2.28461E+00 -9.16961E+00 -7.97090E+00 -1.92178E+01
  -1.76593E+01 -2.80022E+01 -2.60136E+01 -3.52615E+01 -3.26237E+01 -4.02009E+01 -3.68551E+01 -4.26994E+01 -3.89560E+01 -4.32861E+01
  -3.96230E+01 -4.29869E+01 -4.04440E+01 -4.34547E+01 -4.20783E+01 -4.52308E+01 -4.40117E+01 -4.63235E+01 -4.48939E+01 -4.71127E+01
  -4.53573E+01 -4.77536E+01 -4.73961E+01 -5.01944E+01 -5.03033E+01 -5.13429E+01 -4.95647E+01 -4.76355E+01 -4.26119E+01 -4.10663E+01
  -3.73801E+01 -3.74458E+01 -3.59096E+01 -3.82791E+01 -4.01136E+01 -4.35026E+01 -4.46144E+01 -4.69245E+01 -4.76829E+01 -4.84790E+01
  -4.90260E+01 -4.87919E+01 -4.95089E+01 -4.90575E+01 -5.04375E+01 -4.94830E+01 -5.11424E+01 -4.94800E+01 -5.13068E+01 -4.89237E+01
  -5.10604E+01 -4.81739E+01 -5.12791E+01 -4.85591E+01 -5.21861E+01 -4.98319E+01 -5.29262E+01 -5.02384E+01 -5.26835E+01 -5.01992E+01
  -5.20129E+01 -5.02615E+01 -5.22916E+01 -5.16080E+01 -5.33157E+01 -5.27224E+01 -5.36640E+01 -5.31187E+01 -5.35409E+01 -5.31626E+01
  -5.35994E+01 -5.29408E+01 -5.25257E+01 -5.10420E+01 -4.97198E+01 -4.75393E+01 -4.52410E+01 -4.28632E+01 -4.01328E+01 -3.74425E+01
  -3.45700E+01 -3.19599E+01 -2.93282E+01 -2.71350E+01 -2.50607E+01 -2.33115E+01 -2.17681E+01 -2.06815E+01 -1.99471E+01 -1.96963E+01
  -1.98467E+01 -2.04138E+01 -2.13661E+01 -2.25429E+01 -2.38640E+01 -2.51482E+01 -2.62514E+01 -2.69051E+01 -2.66873E+01 -2.52792E+01
  -2.51954E+01 -2.32306E+01 -2.32210E+01 -2.07738E+01 -2.07058E+01 -1.79918E+01 -1.81473E+01 -1.34455E+01 -1.20175E+01 -6.18360E+00
  -3.50294E+00  2.63215E+00  6.08651E+00  1.19734E+01  1.57992E+01  2.09650E+01  2.46280E+01  2.84636E+01  3.13972E+01  3.35208E+01
   3.50778E+01  3.51266E+01  3.50766E+01  3.32003E+01  3.17255E+01  2.82710E+01  2.57958E+01  2.15007E+01  1.86060E+01  1.40644E+01
   1.13186E+01  7.06348E+00  4.93927E+00  1.39872E+00  2.35756E-01 -2.37727E+00 -2.31176E+00 -3.57559E+00 -2.24169E+00 -1.87704E+00
  -9.15045E-01 -6.20754E-01 -1.03783E-02  1.34226E-01  1.33162E-01  1.63035E-01 -4.28846E-01  7.07775E-01  8.83535E-01  2.22673E+00
   2.54773E+00  3.76667E+00  4.03343E+00  4.98293E+00  5.10731E+00  5.71346E+00  5.70571E+00  6.02267E+00  5.93763E+00  6.08207E+00
   5.78053E+00  5.62369E+00  5.24505E+00  4.91901E+00  4.59700E+00  4.28009E+00  4.18172E+00  4.27596E+00  4.55476E+00  5.02476E+00
   5.68493E+00  6.53418E+00  7.55922E+00  8.74513E+00  1.00648E+01  1.14905E+01  1.29839E+01  1.45088E+01  1.60216E+01  1.74842E+01
   1.88551E+01  2.01023E+01  2.11937E+01  2.21097E+01  2.28333E+01  2.33617E+01  2.36951E+01  2.38478E+01  2.38357E+01  2.36866E+01
   2.34276E+01  2.30939E+01  2.27167E+01  2.23318E+01  2.19672E+01  2.16531E+01  2.14091E+01  2.12552E+01  2.11997E+01  2.12508E+01
   2.14052E+01  2.16599E+01  2.20017E+01  2.24195E+01  2.28933E+01  2.34070E+01  2.39376E+01  2.44678E+01  2.49751E+01  2.54440E+01
   2.58553E+01  2.61975E+01  2.64563E+01  2.66259E+01  2.66978E+01  2.66720E+01  2.65457E+01  2.63243E+01  2.60098E+01  2.56121E+01
   2.51368E+01  2.45966E+01  2.39993E+01  2.33590E+01  2.26841E+01  2.19888E+01  2.12811E+01  2.05738E+01  1.98734E+01  1.91912E+01
   1.85316E+01  1.79036E+01  1.73096E+01  1.67565E+01  1.62443E+01  1.57781E+01  1.53562E+01  1.49821E+01  1.46525E+01  1.43697E+01
   1.41295E+01  1.39332E+01  1.37759E+01  1.36584E+01  1.35755E+01  1.35277E+01  1.35096E+01  1.35216E+01  1.35583E+01  1.36201E+01
   1.37018E+01  1.38040E+01  1.39214E+01  1.40548E+01  1.41993E+01  1.43558E+01  1.45195E+01  1.46916E+01  1.48674E+01  1.50482E+01
   1.52297E+01  1.54133E+01  1.55946E+01  1.57754E+01  1.59515E+01  1.61245E+01  1.62907E+01  1.64516E+01  1.66035E+01  1.67483E+01
   1.68823E+01  1.70074E+01  1.71199E+01  1.72220E+01  1.73099E+01  1.73859E+01  1.74464E+01  1.74936E+01  1.75240E+01  1.75399E+01
   1.75380E+01  1.75204E+01  1.74839E+01  1.74309E+01  1.73582E+01  1.72683E+01  1.71582E+01  1.70308E+01
 NY background values follow
     4.714E+01    4.645E+01    4.578E+01    4.512E+01    4.448E+01    4.386E+01    4.326E+01    4.267E+01    4.210E+01    4.155E+01
     4.101E+01    4.048E+01    3.997E+01    3.948E+01    3.900E+01    3.853E+01    3.808E+01    3.765E+01    3.722E+01    3.682E+01
     3.642E+01    3.604E+01    3.567E+01    3.532E+01    3.498E+01    3.465E+01    3.433E+01    3.403E+01    3.374E+01    3.346E+01
     3.319E+01    3.293E+01    3.268E+01    3.245E+01    3.222E+01    3.201E+01    3.181E+01    3.161E+01    3.143E+01    3.126E+01
     3.109E+01    3.094E+01    3.080E+01    3.066E+01    3.053E+01    3.042E+01    3.031E+01    3.020E+01    3.011E+01    3.002E+01
     2.995E+01    2.988E+01    2.981E+01    2.976E+01    2.971E+01    2.966E+01    2.963E+01    2.960E+01    2.957E+01    2.955E+01
     2.954E+01    2.953E+01    2.953E+01    2.953E+01    2.954E+01    2.955E+01    2.957E+01    2.959E+01    2.961E+01    2.964E+01
     2.968E+01    2.971E+01    2.975E+01    2.979E+01    2.984E+01    2.988E+01    2.993E+01    2.998E+01    3.004E+01    3.009E+01
     3.015E+01    3.021E+01    3.027E+01    3.033E+01    3.039E+01    3.045E+01    3.051E+01    3.057E+01    3.064E+01    3.070E+01
     3.076E+01    3.082E+01    3.088E+01    3.094E+01    3.100E+01    3.105E+01    3.111E+01    3.116E+01    3.121E+01    3.126E+01
     3.131E+01    3.135E+01    3.139E+01    3.143E+01    3.146E+01    3.149E+01    3.152E+01    3.155E+01    3.156E+01    3.158E+01
     3.159E+01    3.160E+01    3.160E+01    3.159E+01    3.158E+01    3.157E+01    3.155E+01    3.152E+01    3.149E+01    3.145E+01
     3.141E+01    3.135E+01    3.130E+01    3.123E+01    3.116E+01    3.108E+01    3.099E+01    3.089E+01    3.079E+01    3.067E+01
     3.055E+01    3.042E+01    3.029E+01    3.014E+01    2.998E+01    2.981E+01    2.964E+01    2.945E+01    2.926E+01    2.905E+01
     2.883E+01    2.860E+01    2.837E+01    2.812E+01    2.786E+01    2.758E+01    2.730E+01    2.700E+01    2.669E+01    2.637E+01
     2.604E+01    2.569E+01    2.534E+01    2.496E+01    2.458E+01    2.418E+01    2.377E+01    2.334E+01    2.290E+01    2.244E+01
     2.198E+01    2.149E+01    2.099E+01    2.048E+01    1.995E+01    1.940E+01    1.884E+01    1.827E+01    1.767E+01    1.707E+01
     1.644E+01    1.581E+01    1.515E+01    1.449E+01    1.381E+01    1.311E+01    1.240E+01    1.168E+01    1.095E+01    1.020E+01
     9.441E+00    8.668E+00    7.883E+00    7.087E+00    6.278E+00    5.458E+00    4.627E+00    3.785E+00    2.932E+00    2.069E+00
     1.195E+00    3.113E-01   -5.822E-01   -1.485E+00   -2.398E+00   -3.319E+00   -4.249E+00   -5.188E+00   -6.135E+00   -7.090E+00
    -8.054E+00   -9.024E+00   -1.000E+01   -1.099E+01   -1.198E+01   -1.298E+01   -1.398E+01   -1.500E+01   -1.601E+01   -1.704E+01
    -1.806E+01   -1.910E+01   -2.014E+01   -2.118E+01   -2.223E+01   -2.328E+01   -2.434E+01   -2.540E+01   -2.646E+01   -2.753E+01
    -2.860E+01   -2.967E+01   -3.074E+01   -3.182E+01   -3.290E+01   -3.398E+01   -3.507E+01   -3.615E+01   -3.724E+01   -3.832E+01
    -3.941E+01   -4.050E+01   -4.159E+01   -4.267E+01   -4.376E+01   -4.485E+01   -4.593E+01   -4.702E+01   -4.810E+01   -4.918E+01
    -5.026E+01   -5.134E+01   -5.242E+01   -5.349E+01   -5.456E+01   -5.563E+01   -5.670E+01   -5.776E+01   -5.882E+01   -5.987E+01
    -6.092E+01   -6.196E+01   -6.300E+01   -6.404E+01   -6.507E+01   -6.610E+01   -6.712E+01   -6.813E+01   -6.914E+01   -7.014E+01
    -7.113E+01   -7.212E+01   -7.310E+01   -7.408E+01   -7.504E+01   -7.600E+01   -7.695E+01   -7.789E+01   -7.883E+01   -7.975E+01
    -8.067E+01   -8.157E+01   -8.247E+01   -8.336E+01   -8.424E+01   -8.510E+01   -8.596E+01   -8.681E+01   -8.764E+01   -8.847E+01
    -8.928E+01   -9.008E+01   -9.087E+01   -9.165E+01   -9.241E+01   -9.316E+01   -9.390E+01   -9.463E+01   -9.534E+01   -9.604E+01
    -9.673E+01   -9.740E+01   -9.806E+01   -9.870E+01   -9.933E+01   -9.994E+01   -1.005E+02   -1.011E+02   -1.017E+02   -1.022E+02
    -1.028E+02   -1.033E+02   -1.038E+02   -1.043E+02   -1.047E+02   -1.052E+02   -1.056E+02   -1.060E+02   -1.064E+02   -1.068E+02
    -1.072E+02   -1.075E+02   -1.078E+02   -1.081E+02   -1.084E+02   -1.087E+02   -1.089E+02   -1.092E+02   -1.094E+02   -1.095E+02
    -1.097E+02   -1.098E+02   -1.100E+02   -1.101E+02   -1.101E+02   -1.102E+02   -1.102E+02   -1.102E+02   -1.102E+02   -1.102E+02
    -1.101E+02   -1.100E+02   -1.099E+02   -1.098E+02   -1.096E+02   -1.094E+02   -1.092E+02   -1.090E+02   -1.088E+02   -1.085E+02
    -1.082E+02   -1.079E+02   -1.075E+02   -1.072E+02   -1.068E+02   -1.064E+02   -1.060E+02   -1.056E+02   -1.051E+02   -1.046E+02
    -1.041E+02   -1.036E+02   -1.031E+02   -1.026E+02   -1.020E+02   -1.014E+02   -1.008E+02   -1.002E+02   -9.957E+01   -9.892E+01
    -9.826E+01   -9.758E+01   -9.689E+01   -9.618E+01   -9.546E+01   -9.472E+01   -9.397E+01   -9.321E+01   -9.243E+01   -9.164E+01
    -9.083E+01   -9.002E+01   -8.919E+01   -8.835E+01   -8.750E+01   -8.664E+01   -8.576E+01   -8.488E+01   -8.398E+01   -8.308E+01
    -8.217E+01   -8.124E+01   -8.031E+01   -7.937E+01   -7.842E+01   -7.746E+01   -7.649E+01   -7.552E+01   -7.454E+01   -7.355E+01
    -7.255E+01   -7.155E+01   -7.054E+01   -6.953E+01   -6.851E+01   -6.748E+01   -6.645E+01   -6.542E+01   -6.438E+01   -6.334E+01
    -6.229E+01   -6.124E+01   -6.019E+01   -5.913E+01   -5.807E+01   -5.701E+01   -5.595E+01   -5.488E+01   -5.382E+01   -5.275E+01
    -5.168E+01   -5.062E+01   -4.955E+01   -4.848E+01   -4.741E+01   -4.634E+01   -4.528E+01   -4.421E+01   -4.315E+01   -4.209E+01
    -4.103E+01   -3.997E+01   -3.892E+01   -3.786E+01   -3.682E+01   -3.577E+01   -3.473E+01   -3.370E+01   -3.267E+01   -3.164E+01
    -3.062E+01   -2.960E+01   -2.859E+01   -2.759E+01   -2.659E+01   -2.560E+01   -2.462E+01   -2.364E+01   -2.267E+01   -2.171E+01
    -2.076E+01   -1.981E+01   -1.888E+01   -1.795E+01   -1.703E+01   -1.613E+01   -1.523E+01   -1.434E+01   -1.346E+01   -1.260E+01
    -1.174E+01   -1.090E+01   -1.007E+01   -9.249E+00   -8.441E+00   -7.647E+00   -6.865E+00   -6.096E+00   -5.341E+00   -4.600E+00
    -3.873E+00   -3.160E+00   -2.463E+00   -1.780E+00   -1.112E+00   -4.601E-01    1.759E-01    7.957E-01    1.399E+00    1.986E+00
     2.555E+00    3.107E+00    3.641E+00    4.157E+00    4.655E+00    5.135E+00    5.595E+00    6.037E+00    6.458E+00    6.860E+00
     7.242E+00    7.604E+00    7.944E+00    8.264E+00    8.563E+00    8.840E+00    9.095E+00    9.328E+00    9.538E+00    9.726E+00
     9.890E+00    1.003E+01    1.015E+01    1.024E+01    1.031E+01    1.036E+01    1.038E+01    1.037E+01
 Ala      Conc. = 5.51E+03
