 LCModel (Version 6.3-1L) Copyright: S.W. Provencher.          Ref.: Magn. Reson. Med. 30:672-679 (1993).                
 Slice#1 Row#9 Col#10  PD_05_press_2_raw_act
 36 lines in following concentration table = NCONC+1
    Conc.  %SD /Cr+PCr  Metabolite                                         
   65.852 280% 4.5E-02 Ala                                                 
    0.000 999%   0.000 Asp                                                 
    0.000 999%   0.000 Cr                                                  
 1.47E+03   5%   1.000 PCr                                                 
    0.000 999%   0.000 GABA                                                
    0.000 999%   0.000 Glc                                                 
 1.34E+03  26%   0.908 Gln                                                 
 1.84E+03  21%   1.253 Glu                                                 
  466.559   6%   0.317 GPC                                                 
    0.000 999%   0.000 PCh                                                 
  458.119  22%   0.311 GSH                                                 
 1.64E+03  21%   1.113 Ins                                                 
  199.876  97%   0.136 Lac                                                 
 3.35E+03   3%   2.275 NAA                                                 
    0.000 999%   0.000 NAAG                                                
  117.631  30% 8.0E-02 Scyllo                                              
  463.149  54%   0.315 Tau                                                 
  991.907  14%   0.674 -CrCH2                                              
  466.559   6%   0.317 GPC+PCh                                             
 3.35E+03   3%   2.275 NAA+NAAG                                            
 1.47E+03   5%   1.000 Cr+PCr                                              
 3.18E+03  18%   2.161 Glu+Gln                                             
 1.47E+03  60%   1.002 Lip13a                                              
    0.000 999%   0.000 Lip13b                                              
  241.392 141%   0.164 Lip09                                               
 2.88E+03  16%   1.959 MM09                                                
  239.027  89%   0.163 Lip20                                               
 5.89E+03  10%   4.001 MM20                                                
 1.13E+03  34%   0.771 MM12                                                
 4.92E+03  17%   3.344 MM14                                                
 1.69E+03  30%   1.150 MM17                                                
 1.47E+03  60%   1.002 Lip13a+Lip13b                                       
 7.53E+03   9%   5.117 MM14+Lip13a+Lip13b+MM12                             
 3.12E+03  10%   2.124 MM09+Lip09                                          
 6.12E+03   9%   4.164 MM20+Lip20                                          
   6 lines in following misc. output table
  FWHM = 0.061 ppm    S/N =  14                                            
  Data shift = 0.023 ppm                                                   
  Ph: -21 deg       0.6 deg/ppm                                            
  alphaB,S = 1.5E+00,   1.6E+02                                            
   14 spline knots.   Ns = 8(1)                                            
  (13) 4 infls.   (11) 1 extrs.                                            
  498 points on ppm-axis = NY
      4.000000     3.992357     3.984714     3.977070     3.969427     3.961784     3.954141     3.946497     3.938854     3.931211
      3.923568     3.915925     3.908281     3.900638     3.892995     3.885352     3.877708     3.870065     3.862422     3.854779
      3.847136     3.839492     3.831849     3.824206     3.816563     3.808919     3.801276     3.793633     3.785990     3.778347
      3.770703     3.763060     3.755417     3.747774     3.740130     3.732487     3.724844     3.717201     3.709558     3.701914
      3.694271     3.686628     3.678985     3.671341     3.663698     3.656055     3.648412     3.640769     3.633125     3.625482
      3.617839     3.610196     3.602552     3.594909     3.587266     3.579623     3.571980     3.564336     3.556693     3.549050
      3.541407     3.533763     3.526120     3.518477     3.510834     3.503191     3.495547     3.487904     3.480261     3.472618
      3.464974     3.457331     3.449688     3.442045     3.434402     3.426758     3.419115     3.411472     3.403829     3.396185
      3.388542     3.380899     3.373256     3.365613     3.357969     3.350326     3.342683     3.335040     3.327396     3.319753
      3.312110     3.304467     3.296824     3.289180     3.281537     3.273894     3.266251     3.258607     3.250964     3.243321
      3.235678     3.228034     3.220391     3.212748     3.205105     3.197462     3.189818     3.182175     3.174532     3.166889
      3.159245     3.151602     3.143959     3.136316     3.128673     3.121029     3.113386     3.105743     3.098100     3.090456
      3.082813     3.075170     3.067527     3.059884     3.052240     3.044597     3.036954     3.029311     3.021667     3.014024
      3.006381     2.998738     2.991095     2.983451     2.975808     2.968165     2.960522     2.952878     2.945235     2.937592
      2.929949     2.922306     2.914662     2.907019     2.899376     2.891733     2.884089     2.876446     2.868803     2.861160
      2.853517     2.845873     2.838230     2.830587     2.822944     2.815300     2.807657     2.800014     2.792371     2.784728
      2.777084     2.769441     2.761798     2.754155     2.746511     2.738868     2.731225     2.723582     2.715939     2.708295
      2.700652     2.693009     2.685366     2.677722     2.670079     2.662436     2.654793     2.647150     2.639506     2.631863
      2.624220     2.616577     2.608933     2.601290     2.593647     2.586004     2.578361     2.570717     2.563074     2.555431
      2.547788     2.540144     2.532501     2.524858     2.517215     2.509572     2.501928     2.494285     2.486642     2.478999
      2.471355     2.463712     2.456069     2.448426     2.440783     2.433139     2.425496     2.417853     2.410210     2.402566
      2.394923     2.387280     2.379637     2.371994     2.364350     2.356707     2.349064     2.341421     2.333777     2.326134
      2.318491     2.310848     2.303205     2.295561     2.287918     2.280275     2.272632     2.264988     2.257345     2.249702
      2.242059     2.234416     2.226772     2.219129     2.211486     2.203843     2.196199     2.188556     2.180913     2.173270
      2.165627     2.157983     2.150340     2.142697     2.135054     2.127410     2.119767     2.112124     2.104481     2.096838
      2.089194     2.081551     2.073908     2.066265     2.058621     2.050978     2.043335     2.035692     2.028049     2.020405
      2.012762     2.005119     1.997476     1.989833     1.982190     1.974546     1.966903     1.959260     1.951617     1.943974
      1.936331     1.928688     1.921045     1.913402     1.905759     1.898115     1.890472     1.882829     1.875186     1.867543
      1.859900     1.852257     1.844614     1.836971     1.829327     1.821684     1.814041     1.806398     1.798755     1.791112
      1.783469     1.775826     1.768183     1.760540     1.752896     1.745253     1.737610     1.729967     1.722324     1.714681
      1.707038     1.699395     1.691752     1.684108     1.676465     1.668822     1.661179     1.653536     1.645893     1.638250
      1.630607     1.622964     1.615321     1.607677     1.600034     1.592391     1.584748     1.577105     1.569462     1.561819
      1.554176     1.546533     1.538890     1.531246     1.523603     1.515960     1.508317     1.500674     1.493031     1.485388
      1.477745     1.470102     1.462458     1.454815     1.447172     1.439529     1.431886     1.424243     1.416600     1.408957
      1.401314     1.393671     1.386027     1.378384     1.370741     1.363098     1.355455     1.347812     1.340169     1.332526
      1.324883     1.317240     1.309596     1.301953     1.294310     1.286667     1.279024     1.271381     1.263738     1.256095
      1.248452     1.240808     1.233165     1.225522     1.217879     1.210236     1.202593     1.194950     1.187307     1.179664
      1.172021     1.164377     1.156734     1.149091     1.141448     1.133805     1.126162     1.118519     1.110876     1.103233
      1.095590     1.087946     1.080303     1.072660     1.065017     1.057374     1.049731     1.042088     1.034445     1.026802
      1.019158     1.011515     1.003872     0.996229     0.988586     0.980943     0.973300     0.965657     0.958014     0.950371
      0.942727     0.935084     0.927441     0.919798     0.912155     0.904512     0.896869     0.889226     0.881583     0.873940
      0.866296     0.858653     0.851010     0.843367     0.835724     0.828081     0.820438     0.812795     0.805152     0.797508
      0.789865     0.782222     0.774579     0.766936     0.759293     0.751650     0.744007     0.736364     0.728721     0.721077
      0.713434     0.705791     0.698148     0.690505     0.682862     0.675219     0.667576     0.659933     0.652290     0.644646
      0.637003     0.629360     0.621717     0.614074     0.606431     0.598788     0.591145     0.583502     0.575858     0.568215
      0.560572     0.552929     0.545286     0.537643     0.530000     0.522357     0.514714     0.507071     0.499427     0.491784
      0.484141     0.476498     0.468855     0.461212     0.453569     0.445925     0.438282     0.430639     0.422996     0.415353
      0.407710     0.400067     0.392424     0.384780     0.377137     0.369494     0.361851     0.354208     0.346565     0.338922
      0.331278     0.323635     0.315992     0.308349     0.300706     0.293063     0.285420     0.277777     0.270133     0.262490
      0.254847     0.247204     0.239561     0.231918     0.224275     0.216631     0.208988     0.201345
 NY phased data points follow
   3.48738E+00  8.91354E+00  1.11888E+01  9.18987E+00  1.35442E+01  1.32260E+01  1.11113E+01  9.72453E+00  1.57937E+01  1.58616E+01
   2.11278E+01  1.79122E+01  1.17645E+01  1.15974E+01  1.33452E+01  1.87188E+01  1.41186E+01  1.63849E+01  1.65703E+01  1.32478E+01
   6.41146E+00  7.16036E+00  1.22565E+01  7.72284E+00  1.20209E+01  1.09492E+01  1.09068E+01  1.17399E+01  1.19710E+01  1.48370E+01
   1.48419E+01  1.61233E+01  1.49808E+01  1.29039E+01  1.59412E+01  1.55704E+01  1.81731E+01  8.83804E+00  1.46094E+01  1.42512E+01
   5.71878E+00  1.14345E+01  8.44918E+00  1.46774E+01  1.92934E+01  1.55710E+01  1.76107E+01  1.73793E+01  2.03816E+01  1.79593E+01
   1.71904E+01  5.39336E+00  1.49714E+01  1.14608E+01  1.60620E+01  9.22893E+00  1.10704E+01  8.88835E+00  1.61488E+01  9.81423E+00
   6.14528E+00  6.57802E+00  9.25812E+00  6.30598E+00  4.00363E+00  5.55952E+00  9.31953E+00  3.79287E-01  1.73009E+00  7.66169E+00
   7.55825E+00  3.90862E+00  4.26812E+00  5.62848E+00  1.14163E+01  9.39618E+00  5.22710E+00 -2.36025E+00  8.25879E+00  4.66106E+00
   8.28080E+00  5.98602E+00  5.77932E+00  6.67075E+00  3.44229E+00  5.88157E+00  9.29014E+00  3.88538E+00  6.17534E+00  6.92353E+00
   1.05427E+01  6.36984E+00  1.18339E+01  7.01436E+00  5.83174E+00  1.08596E+01  1.41446E+01  1.50788E+01  2.35268E+01  1.84112E+01
   2.65436E+01  3.08826E+01  4.06231E+01  3.33503E+01  4.15148E+01  3.42126E+01  2.87112E+01  2.46764E+01  2.27737E+01  1.61209E+01
   1.48200E+01  1.47429E+01  1.76284E+01  5.10436E+00  1.13368E+01  7.04391E+00  1.00107E+01  7.44157E+00  1.18989E+01  5.50375E+00
   1.18441E+01  8.47602E+00  1.63826E+01  2.17248E+01  3.14964E+01  3.73029E+01  4.35288E+01  4.55907E+01  4.72732E+01  4.25392E+01
   4.69457E+01  3.15458E+01  2.90990E+01  1.85118E+01  1.37953E+01  1.54425E+01  8.80260E+00  1.48201E+01  1.66299E+01  3.42503E+00
   1.20277E+01  3.31643E+00  6.13804E+00  7.24499E+00 -7.83334E-01  3.27339E+00  1.01658E+01  5.46134E+00 -1.07049E-01  3.61349E+00
   1.34266E+00  1.20708E+00  1.83549E-01  5.25481E+00  2.78601E+00  1.61823E+00  2.86552E+00  1.86158E+00  3.81820E+00  2.70972E+00
   6.89300E+00 -1.49301E+00  2.86779E-01  3.78993E+00  2.23117E+00  2.30491E+00 -8.65109E-01 -3.94128E+00 -3.60939E+00 -1.33443E+01
  -7.92265E+00 -2.84456E+00 -1.24282E+01 -1.23176E+01 -1.42477E+01 -2.14132E+01 -1.63145E+01 -1.58881E+01 -1.70763E+01 -1.96518E+01
  -1.52054E+01 -1.04099E+01 -1.46969E+01 -5.47340E+00 -8.50156E+00 -2.23016E+00  3.29715E-01 -1.22417E+01 -1.04170E+01 -4.61628E+00
  -5.54191E+00 -4.90716E+00 -9.33274E+00 -3.43293E+00 -3.96761E+00 -8.78924E+00 -7.93726E+00 -1.02236E+01 -1.02241E+01 -1.13803E+01
  -8.44308E+00 -5.67416E+00 -3.81603E+00 -4.03701E-01 -3.07835E+00  2.21776E+00  9.14071E-01  4.61093E+00 -3.97171E+00 -4.56077E+00
  -3.01683E+00  6.13072E+00  8.13937E+00  3.98780E+00  7.20648E+00  1.78995E+01  1.53410E+01  1.34988E+01  8.81993E+00  7.18201E+00
   6.45704E+00  3.04484E+00 -5.07698E-01 -1.95776E+00  5.39062E+00  2.98596E+00  7.66176E+00  1.12719E+01  9.17819E+00  1.21297E+01
   7.93501E+00  1.44403E+01  1.56801E+01  1.17485E+01  1.37609E+01  1.51028E+01  1.73945E+01  9.87231E+00  1.83325E+01  1.12352E+01
   1.20588E+01  1.58702E+01  1.13884E+01  6.34962E+00  1.42041E+01  1.06428E+01  1.18287E+01  2.07175E+01  2.42221E+01  2.31868E+01
   1.73662E+01  2.66426E+01  3.23278E+01  4.13534E+01  4.02287E+01  5.39602E+01  7.02651E+01  7.66506E+01  9.65928E+01  1.10019E+02
   1.26284E+02  1.17379E+02  9.94737E+01  9.02529E+01  6.21518E+01  4.38241E+01  3.61108E+01  2.71155E+01  2.42135E+01  1.69712E+01
   1.16328E+01  8.06626E+00  1.08116E+01  9.34768E+00  5.01760E+00  6.23936E+00  2.52238E+00  6.94728E+00  2.07709E+00  1.63650E+00
   6.16907E+00  3.03445E-01  3.53119E+00  2.91439E+00  7.23430E+00  4.50170E-01  2.75128E+00  6.06658E+00 -7.12593E-01  6.06564E+00
   6.01653E+00  4.65182E+00  7.12210E+00 -3.12107E-01  3.97276E+00  4.74335E+00  6.96259E+00 -3.38010E+00 -6.35413E-02  8.62323E+00
   3.35739E+00  7.74940E+00  4.41937E+00  7.18102E+00  3.45068E+00  5.25274E+00  1.35898E+01  1.13578E+01  1.50421E+01  1.25408E+01
   1.53987E+01  1.45120E+01  1.35248E+01  1.92565E+01  1.67841E+01  1.82264E+01  1.97598E+01  1.72270E+01  1.83448E+01  2.29350E+01
   1.82483E+01  1.83121E+01  2.11376E+01  1.77236E+01  2.25566E+01  2.52532E+01  2.30404E+01  2.37139E+01  2.68275E+01  2.39594E+01
   2.62738E+01  3.28100E+01  2.77250E+01  2.65060E+01  2.74555E+01  3.03748E+01  2.85568E+01  2.95957E+01  3.20171E+01  2.59475E+01
   3.05096E+01  2.80952E+01  2.98804E+01  2.74460E+01  2.92542E+01  2.62309E+01  2.24567E+01  2.58630E+01  1.75925E+01  2.12821E+01
   1.89704E+01  1.56590E+01  1.92334E+01  1.69134E+01  1.46754E+01  1.99829E+01  1.23519E+01  1.26685E+01  1.70433E+01  1.07364E+01
   1.71447E+01  1.98088E+01  1.41040E+01  1.60000E+01  1.64285E+01  1.07413E+01  1.34822E+01  1.91659E+01  1.44767E+01  1.00054E+01
   1.22469E+01  1.12061E+01  1.15186E+01  1.01891E+01  9.64984E+00  1.53973E+01  7.71914E+00  8.64681E+00  9.27247E+00  1.13884E+01
   1.35778E+01  9.34630E+00  8.16570E+00  9.04092E+00  1.15127E+01  1.09920E+01  9.16839E+00  1.32556E+01  8.41206E+00  1.57013E+01
   1.33402E+01  1.26332E+01  1.18269E+01  1.59410E+01  1.77900E+01  1.48542E+01  1.73352E+01  2.03252E+01  1.71881E+01  1.72831E+01
   1.44323E+01  1.39940E+01  2.03250E+01  1.73218E+01  2.04293E+01  1.78899E+01  2.24026E+01  1.97622E+01  2.34394E+01  2.07446E+01
   1.63530E+01  1.50094E+01  1.60498E+01  1.16830E+01  1.29602E+01  1.53983E+01  1.60314E+01  1.81149E+01  7.60499E+00  1.06127E+01
   8.44229E+00  1.01065E+01  1.12289E+01  1.05424E+01  7.67952E+00  7.87636E+00  9.37907E+00  8.97731E+00  5.22290E+00  5.99731E+00
   4.36596E+00  1.77913E+00  8.71705E+00  2.43649E+00  9.62681E+00  4.67850E+00  4.52325E+00  3.15180E+00  5.93088E+00  8.37563E+00
   4.22091E+00  5.55605E+00  4.34167E+00  2.84505E+00  5.90901E+00  9.15745E-01  6.30318E+00  6.17086E+00  3.87570E+00  1.06598E+00
   4.57004E+00  4.06992E+00  4.91291E+00 -2.85565E-01 -1.43274E+00  8.79482E+00 -6.90395E-01 -1.22029E-01  4.33403E+00  1.26133E+00
   3.51836E+00  3.75965E+00 -2.21697E-01  1.93671E+00 -4.24980E-01  2.31346E+00  2.42055E+00  6.81014E+00  2.08108E+00  1.31090E+00
   5.50867E+00  5.33891E+00  4.41047E+00 -4.85052E-01  3.40555E+00  1.38598E+00  1.46748E+00  6.37567E+00  1.40062E+00 -8.87745E-01
   5.19027E+00  3.85276E-01  4.19699E+00  1.96477E+00  5.99924E+00 -1.60354E+00  9.20142E-01  6.10826E+00  3.34539E+00  1.41923E+00
   5.28964E+00  3.16827E+00  1.82809E+00  1.92369E+00  4.98348E+00  4.98812E+00 -4.54149E-01  5.63492E+00
 NY points of the fit to the data follow
   9.33847E+00  8.59419E+00  8.58546E+00  9.18138E+00  9.94492E+00  1.09065E+01  1.21306E+01  1.36035E+01  1.52875E+01  1.69362E+01
   1.80823E+01  1.83345E+01  1.77083E+01  1.64777E+01  1.49783E+01  1.36212E+01  1.26633E+01  1.20196E+01  1.13700E+01  1.05376E+01
   9.92008E+00  9.45388E+00  9.29683E+00  9.42088E+00  9.65965E+00  1.00626E+01  1.07885E+01  1.20617E+01  1.38677E+01  1.60333E+01
   1.81128E+01  1.94462E+01  1.96557E+01  1.87128E+01  1.68028E+01  1.44470E+01  1.21563E+01  1.03142E+01  9.04027E+00  8.52674E+00
   8.95607E+00  9.98461E+00  1.12653E+01  1.26839E+01  1.42288E+01  1.58348E+01  1.71356E+01  1.77063E+01  1.72744E+01  1.58097E+01
   1.36495E+01  1.13748E+01  9.49527E+00  8.32600E+00  7.80222E+00  7.59866E+00  7.57056E+00  7.83122E+00  8.35837E+00  8.89635E+00
   9.16084E+00  9.07597E+00  8.63964E+00  7.98877E+00  7.38841E+00  7.01295E+00  6.90480E+00  7.04754E+00  7.34544E+00  7.68172E+00
   7.99051E+00  8.25055E+00  8.41898E+00  8.45560E+00  8.37321E+00  8.12492E+00  7.65954E+00  7.05462E+00  6.49475E+00  6.21833E+00
   6.11293E+00  6.17301E+00  6.47584E+00  6.92153E+00  7.36317E+00  7.69357E+00  7.75566E+00  7.40170E+00  6.71473E+00  5.88627E+00
   5.09837E+00  4.52387E+00  4.20129E+00  4.11012E+00  4.48682E+00  6.23351E+00  9.16989E+00  1.26758E+01  1.67170E+01  2.14375E+01
   2.69092E+01  3.28137E+01  3.80296E+01  4.09471E+01  4.04831E+01  3.68329E+01  3.11271E+01  2.47336E+01  1.90414E+01  1.48275E+01
   1.17748E+01  9.10979E+00  6.65045E+00  5.22065E+00  4.70942E+00  4.49640E+00  4.42114E+00  4.47372E+00  4.84209E+00  6.37960E+00
   9.59762E+00  1.34829E+01  1.78283E+01  2.29704E+01  2.90498E+01  3.58908E+01  4.25499E+01  4.72201E+01  4.83066E+01  4.55060E+01
   3.98130E+01  3.27389E+01  2.58392E+01  2.02119E+01  1.59378E+01  1.22995E+01  8.82709E+00  6.26425E+00  5.27818E+00  5.09398E+00
   5.23288E+00  5.40813E+00  5.42244E+00  5.23872E+00  4.92213E+00  4.50623E+00  4.03879E+00  3.57771E+00  3.13428E+00  2.71376E+00
   2.32292E+00  1.97213E+00  1.65053E+00  1.24719E+00  8.35366E-01  4.70257E-01  1.61316E-01 -9.45941E-02 -4.68972E-01 -9.63533E-01
  -1.42678E+00 -1.70009E+00 -1.71288E+00 -1.56374E+00 -1.47440E+00 -1.65024E+00 -2.17732E+00 -2.98623E+00 -3.95727E+00 -4.80553E+00
  -5.37938E+00 -5.87118E+00 -6.40633E+00 -7.07265E+00 -7.66009E+00 -7.92145E+00 -7.88552E+00 -7.65850E+00 -7.44556E+00 -7.42930E+00
  -7.46898E+00 -7.45243E+00 -7.32642E+00 -7.01510E+00 -6.48034E+00 -5.77147E+00 -4.95976E+00 -3.91044E+00 -2.56281E+00 -1.10602E+00
   2.78378E-02  5.74286E-01  5.76654E-01  2.42379E-01 -1.72508E-01 -4.27314E-01 -3.92274E-01 -6.64283E-02  6.95623E-01  1.89303E+00
   3.28306E+00  4.53118E+00  5.26530E+00  5.36246E+00  4.58300E+00  2.77371E+00  3.21568E-01 -2.23950E+00 -4.37385E+00 -5.45960E+00
  -5.34231E+00 -4.00723E+00 -1.68472E+00  1.24576E+00  4.21224E+00  6.44054E+00  7.51041E+00  7.37834E+00  6.06094E+00  3.81953E+00
   1.18150E+00 -9.64045E-01 -1.98083E+00 -1.74457E+00 -3.95876E-01  1.70723E+00  4.16532E+00  6.43914E+00  7.98231E+00  8.85846E+00
   9.34829E+00  9.72054E+00  1.01246E+01  1.05600E+01  1.10798E+01  1.18638E+01  1.29172E+01  1.40409E+01  1.49744E+01  1.54784E+01
   1.54703E+01  1.50222E+01  1.44450E+01  1.42265E+01  1.46252E+01  1.55544E+01  1.67988E+01  1.81951E+01  1.95152E+01  2.06150E+01
   2.15896E+01  2.33760E+01  2.91553E+01  3.77033E+01  4.66392E+01  5.65644E+01  6.83663E+01  8.22592E+01  9.73448E+01  1.10463E+02
   1.17088E+02  1.14245E+02  1.02729E+02  8.58551E+01  6.74724E+01  5.14195E+01  3.96663E+01  3.12282E+01  2.36882E+01  1.64441E+01
   1.23213E+01  1.07063E+01  9.68322E+00  8.90117E+00  8.28135E+00  7.75734E+00  7.22695E+00  6.67597E+00  6.10940E+00  5.54300E+00
   5.00598E+00  4.52230E+00  4.09094E+00  3.71171E+00  3.39480E+00  3.14235E+00  2.94116E+00  2.78305E+00  2.66861E+00  2.60511E+00
   2.59509E+00  2.63510E+00  2.72847E+00  2.88207E+00  3.09881E+00  3.38178E+00  3.73268E+00  4.15336E+00  4.64312E+00  5.20073E+00
   5.82359E+00  6.50787E+00  7.24552E+00  8.02771E+00  8.84296E+00  9.67944E+00  1.05233E+01  1.13616E+01  1.21810E+01  1.29715E+01
   1.37239E+01  1.44329E+01  1.50953E+01  1.57124E+01  1.62890E+01  1.68346E+01  1.73614E+01  1.78858E+01  1.84280E+01  1.90137E+01
   1.96337E+01  2.02758E+01  2.09543E+01  2.16742E+01  2.24226E+01  2.31725E+01  2.38825E+01  2.45423E+01  2.51687E+01  2.57697E+01
   2.63631E+01  2.69663E+01  2.75836E+01  2.82011E+01  2.87752E+01  2.92446E+01  2.95583E+01  2.97005E+01  2.96669E+01  2.94923E+01
   2.91689E+01  2.86618E+01  2.80272E+01  2.72939E+01  2.64379E+01  2.54321E+01  2.42325E+01  2.28684E+01  2.14101E+01  1.99448E+01
   1.86272E+01  1.75982E+01  1.69509E+01  1.67034E+01  1.67486E+01  1.68985E+01  1.69932E+01  1.69837E+01  1.68211E+01  1.64633E+01
   1.59925E+01  1.55092E+01  1.50537E+01  1.45949E+01  1.40915E+01  1.36018E+01  1.31628E+01  1.27479E+01  1.23447E+01  1.19508E+01
   1.15665E+01  1.11954E+01  1.08414E+01  1.05100E+01  1.02058E+01  9.93492E+00  9.70240E+00  9.51421E+00  9.37500E+00  9.28988E+00
   9.26246E+00  9.29682E+00  9.39557E+00  9.56159E+00  9.79596E+00  1.00996E+01  1.04717E+01  1.09111E+01  1.14145E+01  1.19783E+01
   1.25961E+01  1.32606E+01  1.39623E+01  1.46907E+01  1.54331E+01  1.61760E+01  1.69039E+01  1.76014E+01  1.82523E+01  1.88412E+01
   1.93528E+01  1.97741E+01  2.00928E+01  2.03001E+01  2.03891E+01  2.03571E+01  2.02036E+01  1.99319E+01  1.95476E+01  1.90599E+01
   1.84796E+01  1.78202E+01  1.70953E+01  1.63202E+01  1.55092E+01  1.46773E+01  1.38378E+01  1.30035E+01  1.21848E+01  1.13911E+01
   1.06295E+01  9.90620E+00  9.22480E+00  8.58828E+00  7.99734E+00  7.45239E+00  6.95218E+00  6.49560E+00  6.08016E+00  5.70375E+00
   5.36317E+00  5.05603E+00  4.77916E+00  4.53032E+00  4.30650E+00  4.10562E+00  3.92493E+00  3.76279E+00  3.61698E+00  3.48627E+00
   3.36869E+00  3.26323E+00  3.16824E+00  3.08310E+00  3.00651E+00  2.93804E+00  2.87649E+00  2.82152E+00  2.77214E+00  2.72830E+00
   2.68916E+00  2.65471E+00  2.62408E+00  2.59731E+00  2.57374E+00  2.55355E+00  2.53614E+00  2.52163E+00  2.50936E+00  2.49953E+00
   2.49165E+00  2.48602E+00  2.48209E+00  2.48008E+00  2.47944E+00  2.48047E+00  2.48275E+00  2.48662E+00  2.49156E+00  2.49783E+00
   2.50495E+00  2.51331E+00  2.52250E+00  2.53288E+00  2.54394E+00  2.55597E+00  2.56856E+00  2.58212E+00  2.59626E+00  2.61130E+00
   2.62677E+00  2.64298E+00  2.65959E+00  2.67699E+00  2.69480E+00  2.71332E+00  2.73210E+00  2.75152E+00  2.77122E+00  2.79163E+00
   2.81232E+00  2.83361E+00  2.85508E+00  2.87712E+00  2.89943E+00  2.92239E+00  2.94559E+00  2.96935E+00
 NY background values follow
     5.436E+00    5.391E+00    5.347E+00    5.303E+00    5.258E+00    5.214E+00    5.170E+00    5.125E+00    5.081E+00    5.036E+00
     4.992E+00    4.948E+00    4.903E+00    4.859E+00    4.815E+00    4.770E+00    4.726E+00    4.681E+00    4.637E+00    4.593E+00
     4.548E+00    4.504E+00    4.459E+00    4.415E+00    4.371E+00    4.326E+00    4.282E+00    4.237E+00    4.193E+00    4.148E+00
     4.104E+00    4.060E+00    4.015E+00    3.971E+00    3.926E+00    3.882E+00    3.837E+00    3.793E+00    3.748E+00    3.704E+00
     3.659E+00    3.615E+00    3.571E+00    3.526E+00    3.482E+00    3.437E+00    3.393E+00    3.348E+00    3.304E+00    3.259E+00
     3.215E+00    3.170E+00    3.126E+00    3.081E+00    3.037E+00    2.992E+00    2.948E+00    2.903E+00    2.859E+00    2.814E+00
     2.770E+00    2.725E+00    2.681E+00    2.636E+00    2.592E+00    2.548E+00    2.503E+00    2.459E+00    2.414E+00    2.370E+00
     2.326E+00    2.281E+00    2.237E+00    2.192E+00    2.148E+00    2.104E+00    2.059E+00    2.015E+00    1.971E+00    1.927E+00
     1.882E+00    1.838E+00    1.794E+00    1.750E+00    1.706E+00    1.662E+00    1.617E+00    1.573E+00    1.529E+00    1.485E+00
     1.441E+00    1.397E+00    1.353E+00    1.309E+00    1.265E+00    1.221E+00    1.177E+00    1.134E+00    1.090E+00    1.046E+00
     1.002E+00    9.587E-01    9.151E-01    8.715E-01    8.280E-01    7.845E-01    7.411E-01    6.977E-01    6.544E-01    6.111E-01
     5.680E-01    5.248E-01    4.818E-01    4.388E-01    3.958E-01    3.530E-01    3.102E-01    2.675E-01    2.249E-01    1.823E-01
     1.398E-01    9.744E-02    5.514E-02    1.292E-02   -2.920E-02   -7.124E-02   -1.132E-01   -1.550E-01   -1.968E-01   -2.384E-01
    -2.800E-01   -3.214E-01   -3.628E-01   -4.040E-01   -4.451E-01   -4.862E-01   -5.271E-01   -5.678E-01   -6.085E-01   -6.490E-01
    -6.894E-01   -7.297E-01   -7.698E-01   -8.097E-01   -8.494E-01   -8.890E-01   -9.284E-01   -9.676E-01   -1.007E+00   -1.045E+00
    -1.084E+00   -1.122E+00   -1.161E+00   -1.199E+00   -1.236E+00   -1.274E+00   -1.311E+00   -1.348E+00   -1.384E+00   -1.421E+00
    -1.457E+00   -1.493E+00   -1.528E+00   -1.563E+00   -1.598E+00   -1.633E+00   -1.667E+00   -1.701E+00   -1.735E+00   -1.768E+00
    -1.801E+00   -1.833E+00   -1.865E+00   -1.897E+00   -1.928E+00   -1.959E+00   -1.990E+00   -2.020E+00   -2.050E+00   -2.079E+00
    -2.108E+00   -2.136E+00   -2.164E+00   -2.192E+00   -2.219E+00   -2.246E+00   -2.272E+00   -2.298E+00   -2.323E+00   -2.348E+00
    -2.373E+00   -2.397E+00   -2.421E+00   -2.444E+00   -2.467E+00   -2.490E+00   -2.512E+00   -2.534E+00   -2.555E+00   -2.576E+00
    -2.596E+00   -2.616E+00   -2.636E+00   -2.655E+00   -2.674E+00   -2.693E+00   -2.711E+00   -2.729E+00   -2.746E+00   -2.763E+00
    -2.780E+00   -2.796E+00   -2.812E+00   -2.828E+00   -2.843E+00   -2.858E+00   -2.872E+00   -2.886E+00   -2.900E+00   -2.913E+00
    -2.926E+00   -2.939E+00   -2.951E+00   -2.963E+00   -2.975E+00   -2.986E+00   -2.997E+00   -3.008E+00   -3.018E+00   -3.028E+00
    -3.038E+00   -3.047E+00   -3.056E+00   -3.065E+00   -3.073E+00   -3.081E+00   -3.089E+00   -3.096E+00   -3.103E+00   -3.110E+00
    -3.116E+00   -3.122E+00   -3.128E+00   -3.133E+00   -3.138E+00   -3.143E+00   -3.147E+00   -3.151E+00   -3.155E+00   -3.158E+00
    -3.161E+00   -3.164E+00   -3.166E+00   -3.168E+00   -3.170E+00   -3.171E+00   -3.172E+00   -3.173E+00   -3.173E+00   -3.173E+00
    -3.173E+00   -3.172E+00   -3.171E+00   -3.170E+00   -3.168E+00   -3.166E+00   -3.164E+00   -3.161E+00   -3.158E+00   -3.155E+00
    -3.151E+00   -3.147E+00   -3.143E+00   -3.138E+00   -3.133E+00   -3.128E+00   -3.122E+00   -3.116E+00   -3.110E+00   -3.103E+00
    -3.096E+00   -3.089E+00   -3.081E+00   -3.074E+00   -3.065E+00   -3.057E+00   -3.048E+00   -3.039E+00   -3.030E+00   -3.020E+00
    -3.010E+00   -3.000E+00   -2.989E+00   -2.979E+00   -2.968E+00   -2.956E+00   -2.944E+00   -2.932E+00   -2.920E+00   -2.908E+00
    -2.895E+00   -2.882E+00   -2.869E+00   -2.855E+00   -2.841E+00   -2.827E+00   -2.813E+00   -2.798E+00   -2.783E+00   -2.768E+00
    -2.752E+00   -2.737E+00   -2.721E+00   -2.705E+00   -2.688E+00   -2.672E+00   -2.655E+00   -2.638E+00   -2.620E+00   -2.603E+00
    -2.585E+00   -2.567E+00   -2.548E+00   -2.530E+00   -2.511E+00   -2.492E+00   -2.473E+00   -2.454E+00   -2.434E+00   -2.414E+00
    -2.394E+00   -2.374E+00   -2.353E+00   -2.333E+00   -2.312E+00   -2.291E+00   -2.269E+00   -2.248E+00   -2.226E+00   -2.204E+00
    -2.182E+00   -2.160E+00   -2.138E+00   -2.115E+00   -2.092E+00   -2.069E+00   -2.046E+00   -2.023E+00   -1.999E+00   -1.976E+00
    -1.952E+00   -1.928E+00   -1.904E+00   -1.879E+00   -1.855E+00   -1.830E+00   -1.805E+00   -1.780E+00   -1.755E+00   -1.730E+00
    -1.704E+00   -1.679E+00   -1.653E+00   -1.627E+00   -1.601E+00   -1.575E+00   -1.549E+00   -1.522E+00   -1.496E+00   -1.469E+00
    -1.442E+00   -1.415E+00   -1.388E+00   -1.361E+00   -1.333E+00   -1.306E+00   -1.278E+00   -1.250E+00   -1.223E+00   -1.195E+00
    -1.166E+00   -1.138E+00   -1.110E+00   -1.081E+00   -1.053E+00   -1.024E+00   -9.954E-01   -9.666E-01   -9.376E-01   -9.085E-01
    -8.793E-01   -8.500E-01   -8.206E-01   -7.911E-01   -7.615E-01   -7.318E-01   -7.020E-01   -6.721E-01   -6.421E-01   -6.120E-01
    -5.819E-01   -5.517E-01   -5.213E-01   -4.909E-01   -4.604E-01   -4.299E-01   -3.992E-01   -3.685E-01   -3.377E-01   -3.068E-01
    -2.759E-01   -2.448E-01   -2.137E-01   -1.826E-01   -1.514E-01   -1.201E-01   -8.870E-02   -5.729E-02   -2.581E-02    5.728E-03
     3.732E-02    6.897E-02    1.007E-01    1.324E-01    1.642E-01    1.961E-01    2.280E-01    2.599E-01    2.919E-01    3.240E-01
     3.561E-01    3.882E-01    4.203E-01    4.525E-01    4.848E-01    5.170E-01    5.493E-01    5.816E-01    6.140E-01    6.464E-01
     6.788E-01    7.112E-01    7.437E-01    7.761E-01    8.086E-01    8.411E-01    8.737E-01    9.062E-01    9.388E-01    9.713E-01
     1.004E+00    1.037E+00    1.069E+00    1.102E+00    1.134E+00    1.167E+00    1.200E+00    1.232E+00    1.265E+00    1.297E+00
     1.330E+00    1.363E+00    1.395E+00    1.428E+00    1.461E+00    1.493E+00    1.526E+00    1.559E+00    1.591E+00    1.624E+00
     1.657E+00    1.689E+00    1.722E+00    1.755E+00    1.787E+00    1.820E+00    1.853E+00    1.885E+00    1.918E+00    1.951E+00
     1.984E+00    2.016E+00    2.049E+00    2.082E+00    2.114E+00    2.147E+00    2.180E+00    2.213E+00    2.245E+00    2.278E+00
     2.311E+00    2.343E+00    2.376E+00    2.409E+00    2.442E+00    2.474E+00    2.507E+00    2.540E+00
 Ala      Conc. = 6.59E+01
