 LCModel (Version 6.3-1L) Copyright: S.W. Provencher.          Ref.: Magn. Reson. Med. 30:672-679 (1993).                
 Slice#3 Row#11 Col#7  PD_05_press_2_raw_act
 36 lines in following concentration table = NCONC+1
    Conc.  %SD /Cr+PCr  Metabolite                                         
    0.000 999%   0.000 Ala                                                 
   25.167 113%   0.166 Asp                                                 
  103.649 190%   0.683 Cr                                                  
   48.061 415%   0.317 PCr                                                 
   15.036 113% 9.9E-02 GABA                                                
   17.745  96%   0.117 Glc                                                 
  209.184 143%   1.379 Gln                                                 
  640.626  53%   4.223 Glu                                                 
   60.609  40%   0.400 GPC                                                 
    0.000 999%   0.000 PCh                                                 
   48.067 192%   0.317 GSH                                                 
  424.114  67%   2.796 Ins                                                 
  287.921  58%   1.898 Lac                                                 
    0.000 999%   0.000 NAA                                                 
  199.664  36%   1.316 NAAG                                                
    5.899  96% 3.9E-02 Scyllo                                              
   31.829  89%   0.210 Tau                                                 
   22.653 224%   0.149 -CrCH2                                              
   60.609  40%   0.400 GPC+PCh                                             
  199.664  36%   1.316 NAA+NAAG                                            
  151.710  42%   1.000 Cr+PCr                                              
  849.810  56%   5.602 Glu+Gln                                             
 4.36E+03   9%  28.708 Lip13a                                              
    0.000 999%   0.000 Lip13b                                              
  691.259  32%   4.556 Lip09                                               
    0.000 999%   0.000 MM09                                                
  287.841  99%   1.897 Lip20                                               
    0.000 999%   0.000 MM20                                                
   27.965 227%   0.184 MM12                                                
  116.081 235%   0.765 MM14                                                
    0.000 999%   0.000 MM17                                                
 4.36E+03   9%  28.708 Lip13a+Lip13b                                       
 4.50E+03   8%  29.658 MM14+Lip13a+Lip13b+MM12                             
  691.259  32%   4.556 MM09+Lip09                                          
  287.841  99%   1.897 MM20+Lip20                                          
   6 lines in following misc. output table
  FWHM = 0.069 ppm    S/N =   3                                            
  Data shift = 0.038 ppm                                                   
  Ph:  58 deg      -3.8 deg/ppm                                            
  alphaB,S = 8.5E+01,   2.6E+01                                            
   14 spline knots.   Ns = 5(1)                                            
   2 inflections.     1 extrema                                            
  498 points on ppm-axis = NY
      4.000000     3.992357     3.984714     3.977070     3.969427     3.961784     3.954141     3.946497     3.938854     3.931211
      3.923568     3.915925     3.908281     3.900638     3.892995     3.885352     3.877708     3.870065     3.862422     3.854779
      3.847136     3.839492     3.831849     3.824206     3.816563     3.808919     3.801276     3.793633     3.785990     3.778347
      3.770703     3.763060     3.755417     3.747774     3.740130     3.732487     3.724844     3.717201     3.709558     3.701914
      3.694271     3.686628     3.678985     3.671341     3.663698     3.656055     3.648412     3.640769     3.633125     3.625482
      3.617839     3.610196     3.602552     3.594909     3.587266     3.579623     3.571980     3.564336     3.556693     3.549050
      3.541407     3.533763     3.526120     3.518477     3.510834     3.503191     3.495547     3.487904     3.480261     3.472618
      3.464974     3.457331     3.449688     3.442045     3.434402     3.426758     3.419115     3.411472     3.403829     3.396185
      3.388542     3.380899     3.373256     3.365613     3.357969     3.350326     3.342683     3.335040     3.327396     3.319753
      3.312110     3.304467     3.296824     3.289180     3.281537     3.273894     3.266251     3.258607     3.250964     3.243321
      3.235678     3.228034     3.220391     3.212748     3.205105     3.197462     3.189818     3.182175     3.174532     3.166889
      3.159245     3.151602     3.143959     3.136316     3.128673     3.121029     3.113386     3.105743     3.098100     3.090456
      3.082813     3.075170     3.067527     3.059884     3.052240     3.044597     3.036954     3.029311     3.021667     3.014024
      3.006381     2.998738     2.991095     2.983451     2.975808     2.968165     2.960522     2.952878     2.945235     2.937592
      2.929949     2.922306     2.914662     2.907019     2.899376     2.891733     2.884089     2.876446     2.868803     2.861160
      2.853517     2.845873     2.838230     2.830587     2.822944     2.815300     2.807657     2.800014     2.792371     2.784728
      2.777084     2.769441     2.761798     2.754155     2.746511     2.738868     2.731225     2.723582     2.715939     2.708295
      2.700652     2.693009     2.685366     2.677722     2.670079     2.662436     2.654793     2.647150     2.639506     2.631863
      2.624220     2.616577     2.608933     2.601290     2.593647     2.586004     2.578361     2.570717     2.563074     2.555431
      2.547788     2.540144     2.532501     2.524858     2.517215     2.509572     2.501928     2.494285     2.486642     2.478999
      2.471355     2.463712     2.456069     2.448426     2.440783     2.433139     2.425496     2.417853     2.410210     2.402566
      2.394923     2.387280     2.379637     2.371994     2.364350     2.356707     2.349064     2.341421     2.333777     2.326134
      2.318491     2.310848     2.303205     2.295561     2.287918     2.280275     2.272632     2.264988     2.257345     2.249702
      2.242059     2.234416     2.226772     2.219129     2.211486     2.203843     2.196199     2.188556     2.180913     2.173270
      2.165627     2.157983     2.150340     2.142697     2.135054     2.127410     2.119767     2.112124     2.104481     2.096838
      2.089194     2.081551     2.073908     2.066265     2.058621     2.050978     2.043335     2.035692     2.028049     2.020405
      2.012762     2.005119     1.997476     1.989833     1.982190     1.974546     1.966903     1.959260     1.951617     1.943974
      1.936331     1.928688     1.921045     1.913402     1.905759     1.898115     1.890472     1.882829     1.875186     1.867543
      1.859900     1.852257     1.844614     1.836971     1.829327     1.821684     1.814041     1.806398     1.798755     1.791112
      1.783469     1.775826     1.768183     1.760540     1.752896     1.745253     1.737610     1.729967     1.722324     1.714681
      1.707038     1.699395     1.691752     1.684108     1.676465     1.668822     1.661179     1.653536     1.645893     1.638250
      1.630607     1.622964     1.615321     1.607677     1.600034     1.592391     1.584748     1.577105     1.569462     1.561819
      1.554176     1.546533     1.538890     1.531246     1.523603     1.515960     1.508317     1.500674     1.493031     1.485388
      1.477745     1.470102     1.462458     1.454815     1.447172     1.439529     1.431886     1.424243     1.416600     1.408957
      1.401314     1.393671     1.386027     1.378384     1.370741     1.363098     1.355455     1.347812     1.340169     1.332526
      1.324883     1.317240     1.309596     1.301953     1.294310     1.286667     1.279024     1.271381     1.263738     1.256095
      1.248452     1.240808     1.233165     1.225522     1.217879     1.210236     1.202593     1.194950     1.187307     1.179664
      1.172021     1.164377     1.156734     1.149091     1.141448     1.133805     1.126162     1.118519     1.110876     1.103233
      1.095590     1.087946     1.080303     1.072660     1.065017     1.057374     1.049731     1.042088     1.034445     1.026802
      1.019158     1.011515     1.003872     0.996229     0.988586     0.980943     0.973300     0.965657     0.958014     0.950371
      0.942727     0.935084     0.927441     0.919798     0.912155     0.904512     0.896869     0.889226     0.881583     0.873940
      0.866296     0.858653     0.851010     0.843367     0.835724     0.828081     0.820438     0.812795     0.805152     0.797508
      0.789865     0.782222     0.774579     0.766936     0.759293     0.751650     0.744007     0.736364     0.728721     0.721077
      0.713434     0.705791     0.698148     0.690505     0.682862     0.675219     0.667576     0.659933     0.652290     0.644646
      0.637003     0.629360     0.621717     0.614074     0.606431     0.598788     0.591145     0.583502     0.575858     0.568215
      0.560572     0.552929     0.545286     0.537643     0.530000     0.522357     0.514714     0.507071     0.499427     0.491784
      0.484141     0.476498     0.468855     0.461212     0.453569     0.445925     0.438282     0.430639     0.422996     0.415353
      0.407710     0.400067     0.392424     0.384780     0.377137     0.369494     0.361851     0.354208     0.346565     0.338922
      0.331278     0.323635     0.315992     0.308349     0.300706     0.293063     0.285420     0.277777     0.270133     0.262490
      0.254847     0.247204     0.239561     0.231918     0.224275     0.216631     0.208988     0.201345
 NY phased data points follow
   7.00013E+00  1.44820E+01  1.06297E+01  1.04743E+01  4.13608E+00  6.30668E+00  6.22314E+00  1.25427E+01  1.55415E+01  9.62372E-01
   6.99068E+00  9.59085E+00  1.17572E+01  1.49280E+01  8.78149E+00  8.29569E+00  7.05784E+00  1.06324E+01  7.56444E+00  1.14272E+01
   7.66010E+00  1.27758E+01  4.92812E+00  1.17680E+01  8.45297E+00  9.72843E+00  3.52247E+00  6.72578E+00  1.14994E+01  3.91398E+00
   1.06427E+01  1.31545E+01  1.34245E+01  7.77306E+00  9.83435E+00  6.72682E+00  8.57609E+00  5.54036E+00  1.30316E+01  1.26573E+01
   1.30964E+01  1.07720E+01  1.51792E+01  1.51895E+01  3.60188E+00  8.24328E+00  9.40714E+00  2.21990E+00  6.07640E+00  6.58585E+00
   1.13489E+01  9.30157E+00  1.12269E+01  9.23990E+00  1.07746E+01  6.98458E+00  6.04369E+00  7.70209E+00  4.12050E+00  1.13711E+01
   9.54782E+00  7.21657E+00  6.47926E+00  5.88114E+00  1.05451E+01  1.33758E+01  1.42270E+01  1.20118E+01  5.17685E+00  1.01358E+01
   9.51592E+00  1.43120E+01  7.21103E+00  9.44544E+00  1.02329E+01  8.04605E+00  8.47567E+00  8.51171E+00  1.34665E+01  9.88783E+00
   8.42724E+00  5.67455E+00  8.46420E+00  3.17708E+00  1.00024E+01  1.13655E+01  9.65416E+00  1.04670E+01  5.33962E+00  6.80273E+00
  -1.63821E+00  8.90032E+00  1.33418E+00  1.38598E+00  3.62555E+00  8.16750E+00  9.07762E+00  1.05891E+01  8.60003E+00  1.28105E+01
   4.72772E+00  1.21894E+01  1.04826E+01  1.69583E+01  1.05866E+01  8.77723E+00  5.71946E+00  1.03539E+01  8.02172E+00  8.16188E+00
   6.16584E+00  1.01127E+01  7.87635E+00  9.35536E+00  1.33284E+00  4.90616E+00  1.02292E+01  4.66194E+00  6.23301E+00  8.69694E+00
   1.02995E+01  9.26971E+00  1.13943E+01  1.07260E+01  7.58167E+00  1.40486E+01  1.55455E+01  1.07366E+01  7.22846E+00  7.09983E+00
   1.07883E+01  8.99869E+00  4.82079E+00  1.33212E+01  5.48584E+00  6.90475E-01  3.10481E+00  1.20166E+01  1.58686E+01  9.37357E+00
   1.05080E+01  8.88054E+00  4.43482E+00  5.28481E+00 -1.04035E+00  6.77635E+00  7.15128E+00  8.92677E+00  5.95155E+00  5.91512E+00
   1.20796E+01  9.00055E+00  1.23482E+01  1.06957E+01  7.19761E+00  3.13929E+00  2.38965E+00  2.52164E+00  5.96441E+00  8.46516E+00
  -1.53948E+00  1.60365E+01  1.68015E+00  1.53469E+01  1.28458E+01  3.46595E+00  8.06217E+00  6.30976E+00  2.66660E+00  8.86291E+00
   6.92798E+00 -1.83318E+00  9.21861E+00  5.14348E+00  5.23715E+00  1.71690E+00  4.42878E+00  3.05077E+00  6.86327E+00  1.09087E+01
   1.40152E+00  3.65097E+00  4.52219E+00  8.60176E+00  7.64369E+00  9.24877E+00  4.46511E+00  5.04052E+00  7.02636E+00  6.90173E+00
   7.85961E-01  7.64526E+00  8.45574E+00  2.08498E+00  1.14142E+01  4.27369E+00  5.42447E+00  6.78154E+00 -2.45274E+00  1.05096E+01
   2.38771E+00  4.94859E+00  6.64280E+00  4.29763E+00  1.43789E+01  5.25313E+00  9.53591E+00  2.40597E+00  6.25600E+00  6.47605E+00
   2.83262E+00  9.66117E+00  3.38961E+00  1.94761E+00  1.31211E+01  7.89557E+00  1.09651E+01  9.98409E+00  7.63442E+00  5.06202E+00
   7.73472E+00  1.18866E+00  2.38566E+00  2.39556E+00  8.79561E+00  1.60282E+00 -3.17441E+00  2.89875E+00  3.22349E+00  5.75425E+00
   6.73874E+00  6.45287E+00  8.85855E+00  1.20152E+00  5.91982E+00  4.53997E+00  7.31858E-01  3.88471E+00 -1.70414E-01  1.69261E+00
   4.18243E+00  5.73363E+00  7.48257E+00  3.55365E+00  4.95553E+00  2.78311E+00  1.82591E+00  4.51829E+00  8.26648E+00  1.24605E+01
   1.41005E+01  6.61203E+00  1.48217E+01  1.19308E+01  1.09175E+01  2.05200E+01  1.56791E+01  1.07965E+01  1.18736E+01  5.75862E+00
   6.57350E+00  9.16105E+00  5.68001E+00  1.16888E+01  9.77164E+00  1.37934E+01  9.41453E+00  9.86209E+00  1.73308E+01  1.34158E+01
   1.10908E+01 -3.56007E+00  2.79406E-01  1.24196E+00  7.15309E+00  5.71041E+00  1.12386E+01  4.72282E+00  7.45077E+00  1.09109E+01
   2.77029E+00  9.49698E+00  5.83207E+00  7.56472E+00  6.64196E+00  2.58659E+00  9.18120E+00  9.43016E+00  5.22320E+00  9.67362E+00
   1.32715E+01  8.57240E+00  3.27743E+00  7.75276E+00  2.19361E+00  3.68497E+00  6.23156E+00  8.90127E+00  6.65841E+00  5.58388E+00
   1.11605E+01  8.96105E+00  5.20722E+00  5.77914E+00  5.05663E+00  1.09877E+01  8.61534E+00  1.06267E+01  2.10469E-01  7.74541E+00
   7.93379E+00  2.24630E+00  5.40984E+00  3.17665E+00  6.00722E+00  6.99129E+00  7.01381E+00  1.02150E+01  4.58614E-01  4.38605E+00
   1.23403E+00  2.15905E+00 -4.77910E-01 -3.82550E+00 -4.00543E+00  3.39139E+00  2.70474E+00  5.97997E+00  1.00435E+01  1.03641E+01
   1.47355E+01  2.17367E+01  2.30277E+01  2.07656E+01  2.43440E+01  2.47271E+01  2.47544E+01  2.78908E+01  2.33871E+01  3.11060E+01
   3.53088E+01  2.95793E+01  4.35621E+01  3.63241E+01  4.05270E+01  4.40986E+01  3.67001E+01  4.05391E+01  3.55730E+01  3.72528E+01
   3.06993E+01  3.08248E+01  2.76839E+01  2.59523E+01  2.07302E+01  2.39061E+01  2.14623E+01  2.13635E+01  1.74285E+01  1.27791E+01
   1.51031E+01  1.28769E+01  1.21543E+01  1.19792E+01  1.37700E+01  8.48439E+00  1.18470E+01  7.42922E+00  1.02627E+01  1.46968E+01
   1.18042E+01  1.03294E+01  1.81618E+01  2.23385E+01  1.87305E+01  1.87255E+01  1.67395E+01  2.57744E+01  2.76407E+01  2.23154E+01
   1.63086E+01  2.09124E+01  2.11351E+01  1.80690E+01  1.65365E+01  1.45968E+01  1.45266E+01  9.94477E+00  1.50490E+01  7.62242E+00
  -2.83342E+00 -5.78558E-01  2.24548E+00 -1.04582E+00  3.37213E+00  6.38302E+00  2.65142E+00  8.27209E+00  8.11559E+00  1.30634E+01
   3.64428E+00  1.74249E+01  9.16135E+00  7.60370E+00  1.39306E+01  9.12322E+00  7.03109E+00  9.66576E+00  1.41917E+01  9.28533E+00
   1.12695E+01  9.12099E+00  9.38684E+00  1.13162E+01  1.48917E+01  7.94066E+00  8.91296E+00  1.18594E+01  1.24801E+01  3.86353E+00
   1.15608E+01  4.52856E+00  1.01033E+01  1.08099E+01  3.77780E+00  4.72155E+00  1.36679E+01  4.80613E+00  1.04043E+01  1.29413E+01
   9.28151E+00  4.30252E+00  3.23149E+00  2.49640E+00  1.36031E+00  8.16758E+00  5.28014E+00  1.38053E+01  3.04324E+00  4.59270E+00
   5.12508E+00  7.46111E+00  8.89770E+00  6.59634E+00  1.08181E+01  5.14846E+00  1.29169E+01  1.18812E+01  8.15695E+00  6.25702E+00
   7.85847E+00  1.03383E+01  2.97688E+00 -4.19917E+00  1.16605E+01  1.32549E+00  2.53836E+00  1.95392E+00  2.83766E+00  3.42439E+00
   2.28291E+00  1.86274E+00  6.73957E+00  3.39098E+00  5.79156E+00  1.09755E+01  5.50164E+00  1.01432E+01  7.38996E+00  4.33715E+00
   6.69840E+00  1.27693E+01  1.02252E+01  4.50748E+00  1.09485E+01  6.16860E+00  1.28525E+01  9.46300E+00  4.79535E+00  1.05096E+01
   7.94615E+00  1.11085E+01  4.17610E+00  9.80065E+00  8.81519E+00  2.27405E+00  7.24847E+00  9.21712E+00  4.44770E+00  1.15175E+01
   6.83373E+00  8.22919E+00  6.10536E+00  3.22911E+00  8.02878E+00  6.09699E+00  6.59190E+00  7.69191E+00
 NY points of the fit to the data follow
   7.77010E+00  7.61497E+00  7.52734E+00  7.60547E+00  7.83584E+00  8.12024E+00  8.57403E+00  9.16623E+00  9.68824E+00  1.00545E+01
   1.02406E+01  1.02271E+01  1.00401E+01  9.74659E+00  9.39060E+00  8.97701E+00  8.51558E+00  8.05496E+00  7.82878E+00  7.84548E+00
   7.93988E+00  8.04257E+00  8.10506E+00  8.01306E+00  7.81461E+00  7.67118E+00  7.61822E+00  7.74852E+00  8.14731E+00  8.72157E+00
   9.28974E+00  9.65890E+00  9.81593E+00  9.79030E+00  9.56575E+00  9.10046E+00  8.51942E+00  7.99215E+00  7.53942E+00  7.23791E+00
   7.16175E+00  7.34251E+00  7.84925E+00  8.62276E+00  9.46665E+00  1.01245E+01  1.04482E+01  1.04606E+01  1.01937E+01  9.73898E+00
   9.23535E+00  8.70911E+00  8.10460E+00  7.44397E+00  6.98363E+00  6.95923E+00  7.24982E+00  7.63908E+00  7.97181E+00  8.18311E+00
   8.24107E+00  8.15670E+00  7.99633E+00  7.82720E+00  7.67016E+00  7.49697E+00  7.35095E+00  7.33828E+00  7.44304E+00  7.62110E+00
   7.81401E+00  7.98186E+00  8.07640E+00  8.07881E+00  8.02019E+00  7.92489E+00  7.80858E+00  7.67219E+00  7.52431E+00  7.42679E+00
   7.37417E+00  7.34837E+00  7.29846E+00  7.18420E+00  6.99456E+00  6.76368E+00  6.53264E+00  6.34221E+00  6.22787E+00  6.20604E+00
   6.25050E+00  6.34277E+00  6.49899E+00  6.71999E+00  6.93513E+00  7.07425E+00  7.15266E+00  7.39920E+00  8.24876E+00  9.39652E+00
   1.04387E+01  1.12540E+01  1.17085E+01  1.17218E+01  1.13946E+01  1.09000E+01  1.02959E+01  9.45353E+00  8.29433E+00  7.16647E+00
   6.69030E+00  6.59841E+00  6.56997E+00  6.56071E+00  6.55301E+00  6.54508E+00  6.53531E+00  6.52828E+00  6.52784E+00  6.54732E+00
   6.62092E+00  6.89307E+00  7.69284E+00  8.80235E+00  9.84446E+00  1.06832E+01  1.12062E+01  1.13145E+01  1.10849E+01  1.06936E+01
   1.01779E+01  9.43616E+00  8.39359E+00  7.30453E+00  6.72225E+00  6.53917E+00  6.46934E+00  6.45916E+00  6.47785E+00  6.51130E+00
   6.57077E+00  6.66186E+00  6.74947E+00  6.81376E+00  6.84994E+00  6.84879E+00  6.82084E+00  6.78521E+00  6.75064E+00  6.71297E+00
   6.65758E+00  6.60151E+00  6.55904E+00  6.54417E+00  6.56173E+00  6.58377E+00  6.59708E+00  6.59726E+00  6.58438E+00  6.56615E+00
   6.54820E+00  6.51475E+00  6.45986E+00  6.39540E+00  6.32507E+00  6.25678E+00  6.22088E+00  6.21302E+00  6.22382E+00  6.25138E+00
   6.27753E+00  6.28118E+00  6.26580E+00  6.23925E+00  6.21782E+00  6.20815E+00  6.19039E+00  6.12873E+00  6.04027E+00  5.99116E+00
   5.99621E+00  6.04283E+00  6.10562E+00  6.16683E+00  6.23200E+00  6.30858E+00  6.41190E+00  6.55160E+00  6.68571E+00  6.73971E+00
   6.69926E+00  6.59092E+00  6.41275E+00  6.18805E+00  5.98765E+00  5.86273E+00  5.83657E+00  5.94000E+00  6.17400E+00  6.50457E+00
   6.89311E+00  7.27606E+00  7.57175E+00  7.67911E+00  7.53568E+00  7.00489E+00  6.23478E+00  5.48400E+00  4.89552E+00  4.61712E+00
   4.74858E+00  5.41610E+00  6.47776E+00  7.58893E+00  8.55643E+00  9.23366E+00  9.41946E+00  8.79193E+00  7.51937E+00  6.09561E+00
   4.83015E+00  3.80612E+00  3.22637E+00  3.41002E+00  4.17207E+00  5.08656E+00  5.99500E+00  6.87507E+00  7.67408E+00  8.13612E+00
   8.11577E+00  7.82407E+00  7.57586E+00  7.41172E+00  7.32902E+00  7.31787E+00  7.37216E+00  7.45283E+00  7.35182E+00  7.09790E+00
   6.84145E+00  6.66223E+00  6.55042E+00  6.48526E+00  6.48576E+00  6.50634E+00  6.51853E+00  6.55751E+00  6.70056E+00  6.95599E+00
   7.36950E+00  8.47009E+00  9.99697E+00  1.14115E+01  1.24723E+01  1.31314E+01  1.33256E+01  1.30975E+01  1.26252E+01  1.20131E+01
   1.11586E+01  9.90368E+00  8.61766E+00  8.03074E+00  7.89899E+00  7.78517E+00  7.58622E+00  7.34859E+00  7.12729E+00  6.95836E+00
   6.85993E+00  6.84931E+00  6.88488E+00  6.90071E+00  6.91610E+00  6.92069E+00  6.90068E+00  6.86155E+00  6.81218E+00  6.74079E+00
   6.65222E+00  6.58366E+00  6.55176E+00  6.53913E+00  6.52313E+00  6.50169E+00  6.48063E+00  6.46336E+00  6.44086E+00  6.41577E+00
   6.39837E+00  6.39091E+00  6.38595E+00  6.38216E+00  6.37539E+00  6.36605E+00  6.35463E+00  6.33714E+00  6.31355E+00  6.29468E+00
   6.28381E+00  6.27853E+00  6.27754E+00  6.28133E+00  6.29099E+00  6.30445E+00  6.31613E+00  6.32717E+00  6.33979E+00  6.35456E+00
   6.37304E+00  6.39672E+00  6.42653E+00  6.46372E+00  6.50993E+00  6.56728E+00  6.63845E+00  6.72673E+00  6.83620E+00  6.97190E+00
   7.13998E+00  7.34759E+00  7.60328E+00  7.91685E+00  8.29932E+00  8.76274E+00  9.32007E+00  9.98460E+00  1.07695E+01  1.16866E+01
   1.27460E+01  1.39546E+01  1.53154E+01  1.68262E+01  1.84792E+01  2.02597E+01  2.21464E+01  2.41122E+01  2.61257E+01  2.81555E+01
   3.01785E+01  3.22088E+01  3.43587E+01  3.64588E+01  3.79484E+01  3.86924E+01  3.86935E+01  3.79377E+01  3.65066E+01  3.45916E+01
   3.26540E+01  3.10047E+01  2.94852E+01  2.81670E+01  2.73826E+01  2.69540E+01  2.62389E+01  2.52217E+01  2.40692E+01  2.28216E+01
   2.13142E+01  1.93970E+01  1.74677E+01  1.59337E+01  1.46814E+01  1.36275E+01  1.27342E+01  1.19770E+01  1.13372E+01  1.07987E+01
   1.03474E+01  9.97034E+00  9.65648E+00  9.39601E+00  9.18076E+00  9.00385E+00  8.85964E+00  8.74341E+00  8.65140E+00  8.58068E+00
   8.52910E+00  8.49500E+00  8.47716E+00  8.47459E+00  8.48661E+00  8.51273E+00  8.55265E+00  8.60603E+00  8.67251E+00  8.75158E+00
   8.84265E+00  8.94499E+00  9.05767E+00  9.17945E+00  9.30880E+00  9.44388E+00  9.58262E+00  9.72269E+00  9.86160E+00  9.99659E+00
   1.01248E+01  1.02434E+01  1.03496E+01  1.04409E+01  1.05150E+01  1.05699E+01  1.06041E+01  1.06166E+01  1.06068E+01  1.05749E+01
   1.05214E+01  1.04474E+01  1.03544E+01  1.02444E+01  1.01195E+01  9.98223E+00  9.83505E+00  9.68046E+00  9.52092E+00  9.35878E+00
   9.19620E+00  9.03506E+00  8.87700E+00  8.72334E+00  8.57518E+00  8.43334E+00  8.29842E+00  8.17074E+00  8.05047E+00  7.93757E+00
   7.83194E+00  7.73336E+00  7.64153E+00  7.55608E+00  7.47660E+00  7.40267E+00  7.33394E+00  7.26998E+00  7.21044E+00  7.15491E+00
   7.10306E+00  7.05456E+00  7.00916E+00  6.96657E+00  6.92657E+00  6.88889E+00  6.85334E+00  6.81975E+00  6.78797E+00  6.75785E+00
   6.72924E+00  6.70200E+00  6.67605E+00  6.65128E+00  6.62763E+00  6.60499E+00  6.58329E+00  6.56244E+00  6.54241E+00  6.52314E+00
   6.50459E+00  6.48668E+00  6.46939E+00  6.45265E+00  6.43648E+00  6.42080E+00  6.40562E+00  6.39087E+00  6.37653E+00  6.36257E+00
   6.34901E+00  6.33580E+00  6.32293E+00  6.31035E+00  6.29807E+00  6.28607E+00  6.27436E+00  6.26289E+00  6.25166E+00  6.24063E+00
   6.22983E+00  6.21922E+00  6.20883E+00  6.19860E+00  6.18855E+00  6.17864E+00  6.16889E+00  6.15928E+00  6.14982E+00  6.14048E+00
   6.13125E+00  6.12212E+00  6.11310E+00  6.10417E+00  6.09534E+00  6.08656E+00  6.07786E+00  6.06920E+00
 NY background values follow
     6.549E+00    6.547E+00    6.546E+00    6.544E+00    6.543E+00    6.541E+00    6.540E+00    6.539E+00    6.537E+00    6.536E+00
     6.534E+00    6.533E+00    6.531E+00    6.530E+00    6.528E+00    6.527E+00    6.525E+00    6.524E+00    6.522E+00    6.521E+00
     6.519E+00    6.518E+00    6.516E+00    6.514E+00    6.513E+00    6.511E+00    6.510E+00    6.508E+00    6.507E+00    6.505E+00
     6.504E+00    6.502E+00    6.501E+00    6.499E+00    6.497E+00    6.496E+00    6.494E+00    6.493E+00    6.491E+00    6.490E+00
     6.488E+00    6.486E+00    6.485E+00    6.483E+00    6.482E+00    6.480E+00    6.478E+00    6.477E+00    6.475E+00    6.474E+00
     6.472E+00    6.470E+00    6.469E+00    6.467E+00    6.466E+00    6.464E+00    6.462E+00    6.461E+00    6.459E+00    6.457E+00
     6.456E+00    6.454E+00    6.453E+00    6.451E+00    6.449E+00    6.448E+00    6.446E+00    6.444E+00    6.443E+00    6.441E+00
     6.439E+00    6.438E+00    6.436E+00    6.434E+00    6.433E+00    6.431E+00    6.429E+00    6.427E+00    6.426E+00    6.424E+00
     6.422E+00    6.421E+00    6.419E+00    6.417E+00    6.416E+00    6.414E+00    6.412E+00    6.410E+00    6.409E+00    6.407E+00
     6.405E+00    6.404E+00    6.402E+00    6.400E+00    6.398E+00    6.397E+00    6.395E+00    6.393E+00    6.391E+00    6.390E+00
     6.388E+00    6.386E+00    6.384E+00    6.383E+00    6.381E+00    6.379E+00    6.377E+00    6.375E+00    6.374E+00    6.372E+00
     6.370E+00    6.368E+00    6.366E+00    6.365E+00    6.363E+00    6.361E+00    6.359E+00    6.357E+00    6.356E+00    6.354E+00
     6.352E+00    6.350E+00    6.348E+00    6.347E+00    6.345E+00    6.343E+00    6.341E+00    6.339E+00    6.337E+00    6.336E+00
     6.334E+00    6.332E+00    6.330E+00    6.328E+00    6.326E+00    6.325E+00    6.323E+00    6.321E+00    6.319E+00    6.317E+00
     6.315E+00    6.313E+00    6.311E+00    6.310E+00    6.308E+00    6.306E+00    6.304E+00    6.302E+00    6.300E+00    6.298E+00
     6.296E+00    6.294E+00    6.293E+00    6.291E+00    6.289E+00    6.287E+00    6.285E+00    6.283E+00    6.281E+00    6.279E+00
     6.277E+00    6.275E+00    6.273E+00    6.271E+00    6.269E+00    6.268E+00    6.266E+00    6.264E+00    6.262E+00    6.260E+00
     6.258E+00    6.256E+00    6.254E+00    6.252E+00    6.250E+00    6.248E+00    6.246E+00    6.244E+00    6.242E+00    6.240E+00
     6.238E+00    6.236E+00    6.234E+00    6.232E+00    6.230E+00    6.228E+00    6.226E+00    6.224E+00    6.222E+00    6.220E+00
     6.218E+00    6.216E+00    6.214E+00    6.212E+00    6.210E+00    6.208E+00    6.206E+00    6.204E+00    6.202E+00    6.200E+00
     6.198E+00    6.196E+00    6.194E+00    6.192E+00    6.190E+00    6.188E+00    6.186E+00    6.184E+00    6.182E+00    6.180E+00
     6.178E+00    6.175E+00    6.173E+00    6.171E+00    6.169E+00    6.167E+00    6.165E+00    6.163E+00    6.161E+00    6.159E+00
     6.157E+00    6.155E+00    6.153E+00    6.151E+00    6.148E+00    6.146E+00    6.144E+00    6.142E+00    6.140E+00    6.138E+00
     6.136E+00    6.134E+00    6.132E+00    6.130E+00    6.127E+00    6.125E+00    6.123E+00    6.121E+00    6.119E+00    6.117E+00
     6.115E+00    6.113E+00    6.110E+00    6.108E+00    6.106E+00    6.104E+00    6.102E+00    6.100E+00    6.097E+00    6.095E+00
     6.093E+00    6.091E+00    6.089E+00    6.087E+00    6.085E+00    6.082E+00    6.080E+00    6.078E+00    6.076E+00    6.074E+00
     6.071E+00    6.069E+00    6.067E+00    6.065E+00    6.063E+00    6.060E+00    6.058E+00    6.056E+00    6.054E+00    6.052E+00
     6.049E+00    6.047E+00    6.045E+00    6.043E+00    6.041E+00    6.038E+00    6.036E+00    6.034E+00    6.032E+00    6.029E+00
     6.027E+00    6.025E+00    6.023E+00    6.021E+00    6.018E+00    6.016E+00    6.014E+00    6.012E+00    6.009E+00    6.007E+00
     6.005E+00    6.003E+00    6.000E+00    5.998E+00    5.996E+00    5.994E+00    5.991E+00    5.989E+00    5.987E+00    5.984E+00
     5.982E+00    5.980E+00    5.978E+00    5.975E+00    5.973E+00    5.971E+00    5.968E+00    5.966E+00    5.964E+00    5.962E+00
     5.959E+00    5.957E+00    5.955E+00    5.952E+00    5.950E+00    5.948E+00    5.945E+00    5.943E+00    5.941E+00    5.938E+00
     5.936E+00    5.934E+00    5.931E+00    5.929E+00    5.927E+00    5.924E+00    5.922E+00    5.920E+00    5.917E+00    5.915E+00
     5.913E+00    5.910E+00    5.908E+00    5.906E+00    5.903E+00    5.901E+00    5.899E+00    5.896E+00    5.894E+00    5.891E+00
     5.889E+00    5.887E+00    5.884E+00    5.882E+00    5.880E+00    5.877E+00    5.875E+00    5.872E+00    5.870E+00    5.868E+00
     5.865E+00    5.863E+00    5.860E+00    5.858E+00    5.856E+00    5.853E+00    5.851E+00    5.848E+00    5.846E+00    5.844E+00
     5.841E+00    5.839E+00    5.836E+00    5.834E+00    5.831E+00    5.829E+00    5.827E+00    5.824E+00    5.822E+00    5.819E+00
     5.817E+00    5.814E+00    5.812E+00    5.810E+00    5.807E+00    5.805E+00    5.802E+00    5.800E+00    5.797E+00    5.795E+00
     5.792E+00    5.790E+00    5.787E+00    5.785E+00    5.783E+00    5.780E+00    5.778E+00    5.775E+00    5.773E+00    5.770E+00
     5.768E+00    5.765E+00    5.763E+00    5.760E+00    5.758E+00    5.755E+00    5.753E+00    5.750E+00    5.748E+00    5.745E+00
     5.743E+00    5.740E+00    5.738E+00    5.735E+00    5.733E+00    5.730E+00    5.728E+00    5.725E+00    5.723E+00    5.720E+00
     5.718E+00    5.715E+00    5.713E+00    5.710E+00    5.708E+00    5.705E+00    5.702E+00    5.700E+00    5.697E+00    5.695E+00
     5.692E+00    5.690E+00    5.687E+00    5.685E+00    5.682E+00    5.680E+00    5.677E+00    5.674E+00    5.672E+00    5.669E+00
     5.667E+00    5.664E+00    5.662E+00    5.659E+00    5.656E+00    5.654E+00    5.651E+00    5.649E+00    5.646E+00    5.644E+00
     5.641E+00    5.638E+00    5.636E+00    5.633E+00    5.631E+00    5.628E+00    5.625E+00    5.623E+00    5.620E+00    5.618E+00
     5.615E+00    5.612E+00    5.610E+00    5.607E+00    5.605E+00    5.602E+00    5.599E+00    5.597E+00    5.594E+00    5.592E+00
     5.589E+00    5.586E+00    5.584E+00    5.581E+00    5.578E+00    5.576E+00    5.573E+00    5.570E+00    5.568E+00    5.565E+00
     5.563E+00    5.560E+00    5.557E+00    5.555E+00    5.552E+00    5.549E+00    5.547E+00    5.544E+00    5.541E+00    5.539E+00
     5.536E+00    5.533E+00    5.531E+00    5.528E+00    5.525E+00    5.523E+00    5.520E+00    5.517E+00    5.515E+00    5.512E+00
     5.509E+00    5.507E+00    5.504E+00    5.501E+00    5.499E+00    5.496E+00    5.493E+00    5.491E+00
 Asp      Conc. = 2.52E+01
