 LCModel (Version 6.3-1L) Copyright: S.W. Provencher.          Ref.: Magn. Reson. Med. 30:672-679 (1993).                
 Slice#3 Row#12 Col#8  PD_05_press_2_raw_act
 36 lines in following concentration table = NCONC+1
    Conc.  %SD /Cr+PCr  Metabolite                                         
   68.090  52%   1.204 Ala                                                 
   11.808 118%   0.209 Asp                                                 
    0.000 999%   0.000 Cr                                                  
   56.546  35%   1.000 PCr                                                 
    8.072 103%   0.143 GABA                                                
    7.110 118%   0.126 Glc                                                 
   93.449  70%   1.653 Gln                                                 
    0.000 999%   0.000 Glu                                                 
    0.000 999%   0.000 GPC                                                 
   25.048  30%   0.443 PCh                                                 
    0.000 999%   0.000 GSH                                                 
    0.000 999%   0.000 Ins                                                 
    0.000 999%   0.000 Lac                                                 
  149.067  18%   2.636 NAA                                                 
    0.000 999%   0.000 NAAG                                                
    3.703  74% 6.5E-02 Scyllo                                              
   13.623 101%   0.241 Tau                                                 
    9.485 153%   0.168 -CrCH2                                              
   25.048  30%   0.443 GPC+PCh                                             
  149.067  18%   2.636 NAA+NAAG                                            
   56.546  35%   1.000 Cr+PCr                                              
   93.449  70%   1.653 Glu+Gln                                             
    0.000 999%   0.000 Lip13a                                              
  496.171  13%   8.775 Lip13b                                              
  147.362  36%   2.606 Lip09                                               
   30.494 204%   0.539 MM09                                                
   78.280  50%   1.384 Lip20                                               
   19.231 526%   0.340 MM20                                                
    6.000 512%   0.106 MM12                                                
    0.000 999%   0.000 MM14                                                
   70.517  85%   1.247 MM17                                                
  496.171  13%   8.775 Lip13a+Lip13b                                       
  502.171  13%   8.881 MM14+Lip13a+Lip13b+MM12                             
  177.856  34%   3.145 MM09+Lip09                                          
   97.512 104%   1.724 MM20+Lip20                                          
   6 lines in following misc. output table
  FWHM = 0.031 ppm    S/N =   2                                            
  Data shift =-0.015 ppm                                                   
  Ph:  -3 deg     -48.2 deg/ppm                                            
  alphaB,S = 8.5E+01,   1.3E+01                                            
   14 spline knots.   Ns = 5(1)                                            
   1 inflections.     2 extrema                                            
  498 points on ppm-axis = NY
      4.000000     3.992357     3.984714     3.977070     3.969427     3.961784     3.954141     3.946497     3.938854     3.931211
      3.923568     3.915925     3.908281     3.900638     3.892995     3.885352     3.877708     3.870065     3.862422     3.854779
      3.847136     3.839492     3.831849     3.824206     3.816563     3.808919     3.801276     3.793633     3.785990     3.778347
      3.770703     3.763060     3.755417     3.747774     3.740130     3.732487     3.724844     3.717201     3.709558     3.701914
      3.694271     3.686628     3.678985     3.671341     3.663698     3.656055     3.648412     3.640769     3.633125     3.625482
      3.617839     3.610196     3.602552     3.594909     3.587266     3.579623     3.571980     3.564336     3.556693     3.549050
      3.541407     3.533763     3.526120     3.518477     3.510834     3.503191     3.495547     3.487904     3.480261     3.472618
      3.464974     3.457331     3.449688     3.442045     3.434402     3.426758     3.419115     3.411472     3.403829     3.396185
      3.388542     3.380899     3.373256     3.365613     3.357969     3.350326     3.342683     3.335040     3.327396     3.319753
      3.312110     3.304467     3.296824     3.289180     3.281537     3.273894     3.266251     3.258607     3.250964     3.243321
      3.235678     3.228034     3.220391     3.212748     3.205105     3.197462     3.189818     3.182175     3.174532     3.166889
      3.159245     3.151602     3.143959     3.136316     3.128673     3.121029     3.113386     3.105743     3.098100     3.090456
      3.082813     3.075170     3.067527     3.059884     3.052240     3.044597     3.036954     3.029311     3.021667     3.014024
      3.006381     2.998738     2.991095     2.983451     2.975808     2.968165     2.960522     2.952878     2.945235     2.937592
      2.929949     2.922306     2.914662     2.907019     2.899376     2.891733     2.884089     2.876446     2.868803     2.861160
      2.853517     2.845873     2.838230     2.830587     2.822944     2.815300     2.807657     2.800014     2.792371     2.784728
      2.777084     2.769441     2.761798     2.754155     2.746511     2.738868     2.731225     2.723582     2.715939     2.708295
      2.700652     2.693009     2.685366     2.677722     2.670079     2.662436     2.654793     2.647150     2.639506     2.631863
      2.624220     2.616577     2.608933     2.601290     2.593647     2.586004     2.578361     2.570717     2.563074     2.555431
      2.547788     2.540144     2.532501     2.524858     2.517215     2.509572     2.501928     2.494285     2.486642     2.478999
      2.471355     2.463712     2.456069     2.448426     2.440783     2.433139     2.425496     2.417853     2.410210     2.402566
      2.394923     2.387280     2.379637     2.371994     2.364350     2.356707     2.349064     2.341421     2.333777     2.326134
      2.318491     2.310848     2.303205     2.295561     2.287918     2.280275     2.272632     2.264988     2.257345     2.249702
      2.242059     2.234416     2.226772     2.219129     2.211486     2.203843     2.196199     2.188556     2.180913     2.173270
      2.165627     2.157983     2.150340     2.142697     2.135054     2.127410     2.119767     2.112124     2.104481     2.096838
      2.089194     2.081551     2.073908     2.066265     2.058621     2.050978     2.043335     2.035692     2.028049     2.020405
      2.012762     2.005119     1.997476     1.989833     1.982190     1.974546     1.966903     1.959260     1.951617     1.943974
      1.936331     1.928688     1.921045     1.913402     1.905759     1.898115     1.890472     1.882829     1.875186     1.867543
      1.859900     1.852257     1.844614     1.836971     1.829327     1.821684     1.814041     1.806398     1.798755     1.791112
      1.783469     1.775826     1.768183     1.760540     1.752896     1.745253     1.737610     1.729967     1.722324     1.714681
      1.707038     1.699395     1.691752     1.684108     1.676465     1.668822     1.661179     1.653536     1.645893     1.638250
      1.630607     1.622964     1.615321     1.607677     1.600034     1.592391     1.584748     1.577105     1.569462     1.561819
      1.554176     1.546533     1.538890     1.531246     1.523603     1.515960     1.508317     1.500674     1.493031     1.485388
      1.477745     1.470102     1.462458     1.454815     1.447172     1.439529     1.431886     1.424243     1.416600     1.408957
      1.401314     1.393671     1.386027     1.378384     1.370741     1.363098     1.355455     1.347812     1.340169     1.332526
      1.324883     1.317240     1.309596     1.301953     1.294310     1.286667     1.279024     1.271381     1.263738     1.256095
      1.248452     1.240808     1.233165     1.225522     1.217879     1.210236     1.202593     1.194950     1.187307     1.179664
      1.172021     1.164377     1.156734     1.149091     1.141448     1.133805     1.126162     1.118519     1.110876     1.103233
      1.095590     1.087946     1.080303     1.072660     1.065017     1.057374     1.049731     1.042088     1.034445     1.026802
      1.019158     1.011515     1.003872     0.996229     0.988586     0.980943     0.973300     0.965657     0.958014     0.950371
      0.942727     0.935084     0.927441     0.919798     0.912155     0.904512     0.896869     0.889226     0.881583     0.873940
      0.866296     0.858653     0.851010     0.843367     0.835724     0.828081     0.820438     0.812795     0.805152     0.797508
      0.789865     0.782222     0.774579     0.766936     0.759293     0.751650     0.744007     0.736364     0.728721     0.721077
      0.713434     0.705791     0.698148     0.690505     0.682862     0.675219     0.667576     0.659933     0.652290     0.644646
      0.637003     0.629360     0.621717     0.614074     0.606431     0.598788     0.591145     0.583502     0.575858     0.568215
      0.560572     0.552929     0.545286     0.537643     0.530000     0.522357     0.514714     0.507071     0.499427     0.491784
      0.484141     0.476498     0.468855     0.461212     0.453569     0.445925     0.438282     0.430639     0.422996     0.415353
      0.407710     0.400067     0.392424     0.384780     0.377137     0.369494     0.361851     0.354208     0.346565     0.338922
      0.331278     0.323635     0.315992     0.308349     0.300706     0.293063     0.285420     0.277777     0.270133     0.262490
      0.254847     0.247204     0.239561     0.231918     0.224275     0.216631     0.208988     0.201345
 NY phased data points follow
  -7.18088E+00 -4.49999E+00 -5.65144E+00 -8.38222E-01 -3.66132E+00 -6.21885E+00 -6.94741E+00 -9.14491E-02 -3.53642E+00 -1.75240E+00
  -2.62935E+00 -3.56028E+00 -2.44150E+00 -3.38789E+00 -3.99579E+00 -2.86764E+00 -4.81502E+00 -5.31637E+00 -7.05227E+00 -3.64930E+00
  -4.08448E+00 -2.16302E+00 -1.66862E+00 -6.19024E+00 -2.67866E+00 -5.09946E+00 -3.40721E+00 -1.06744E+01 -6.00864E+00 -2.82011E+00
  -7.14011E+00 -3.40330E+00 -1.04471E+00 -3.53474E+00 -3.74092E+00 -3.55883E+00 -7.43319E+00 -3.50058E+00 -2.28370E+00 -8.28039E+00
  -2.05970E-01 -2.83569E+00 -4.13292E+00 -2.15026E+00 -4.83868E+00 -1.28081E+00 -4.16556E+00 -4.20478E+00 -2.39840E+00 -4.42203E+00
  -1.23425E+00 -6.82605E+00 -2.22217E+00 -5.00172E+00 -1.70433E+00 -5.72526E+00 -6.32860E+00 -5.39223E+00  2.29131E-01 -1.05662E+00
  -3.47457E+00 -7.09480E+00 -1.05970E+00 -5.76611E-01 -3.84969E+00 -3.96768E+00 -2.31661E+00 -2.53796E+00 -1.37727E+00 -3.30442E+00
  -3.10707E+00 -1.75533E+00 -3.66413E+00 -9.87637E-01 -3.07924E+00 -2.85396E+00 -2.20494E+00 -9.66928E-01 -5.52356E+00 -2.80903E+00
  -2.33436E+00 -2.12417E+00 -6.68538E-01 -1.44558E+00 -5.32810E-01 -3.25792E-01 -8.77925E-01 -5.70507E-01 -1.38864E+00 -4.15124E+00
   1.76053E+00 -5.61758E+00 -2.99305E+00 -1.05533E+00  8.48677E-02 -1.12819E+00 -3.60309E+00 -5.17411E+00 -3.02855E+00 -4.05647E+00
  -2.65653E+00 -6.44738E-01 -1.74594E+00  2.88865E+00  3.15476E+00  1.14029E-01 -2.02601E+00 -1.11057E+00 -1.52574E+00  1.60301E+00
  -2.35478E+00 -1.64091E+00 -2.45186E+00 -6.16797E+00 -4.96956E+00 -9.36897E-01 -5.60405E-02 -2.17395E+00 -6.42808E-01 -3.10149E+00
  -5.22348E+00 -1.51370E+00 -2.34191E+00 -1.29354E+00 -1.47355E+00 -2.11973E+00 -2.06157E+00  2.84315E+00  3.00500E+00  7.35159E-01
  -1.68528E+00 -1.96545E+00  7.25323E-01 -7.03327E-01 -6.58043E-01 -8.04739E-01 -3.23815E+00 -4.43442E+00 -7.44179E-01 -2.59154E+00
  -1.18470E+00 -4.07964E+00  2.91711E-01  3.82504E-01 -3.52140E+00 -2.64241E-01 -3.43701E+00 -2.30655E+00 -3.16628E+00 -9.27764E-02
  -3.20477E+00  1.75293E+00 -1.21360E+00  8.16943E-03 -3.52656E+00 -1.26159E+00 -7.81952E-01  4.96037E-01 -2.19509E+00  7.80772E-01
  -3.61851E+00 -2.38667E+00  5.97741E-01 -2.58620E+00 -1.26101E+00 -1.22619E-01 -4.07363E+00 -7.25028E-01 -1.92118E+00  1.47422E+00
  -1.40241E-01 -2.16518E+00 -2.16740E+00 -1.82535E+00  3.24701E-02 -3.82508E+00 -1.29221E+00  8.42692E-01 -7.95110E-01 -2.33899E+00
   2.78552E-02 -1.39201E+00 -3.30805E+00 -1.45966E+00 -1.94048E+00 -3.02093E-02 -3.82949E-01 -2.27170E+00  1.08540E+00  2.01215E-01
   1.63917E+00 -1.82863E+00  5.42762E-01  1.76728E+00  3.36068E-01  8.70624E-01 -1.70408E-01  2.14916E+00 -1.81233E+00 -2.87191E+00
  -7.44349E-01  1.11301E+00 -5.69805E-01 -4.75800E+00 -1.89313E+00 -2.76642E+00 -2.05592E-01  9.39549E-01  7.91744E-01 -6.29346E+00
  -3.94437E+00 -2.41294E+00 -2.03163E+00 -1.54340E+00  3.09453E-01  7.31989E-01 -3.48217E+00 -1.29357E+00 -3.14321E-01  1.12751E+00
  -3.05107E+00 -2.87430E+00  2.81387E+00  1.27872E+00 -2.51325E+00 -7.31631E-01  9.84994E-03 -3.48292E-01 -2.47680E+00 -5.70901E-02
   1.42604E+00 -3.07023E-01  2.34508E+00  1.76608E+00 -2.05225E-01 -6.99391E-01 -2.48949E+00 -9.30917E-01  1.43143E+00  2.14458E+00
  -2.36420E+00 -7.39902E-01  1.49816E+00 -1.99855E+00  1.37372E+00 -3.25283E+00 -2.92183E+00 -1.80619E-01  1.21069E+00  3.97179E-01
  -1.89397E+00 -2.50044E+00  3.69538E-01 -3.98095E+00 -2.05143E+00 -1.37043E+00 -2.52243E+00 -9.18031E-01  2.18063E+00  2.69049E+00
   8.79030E+00  7.88002E+00  4.58157E+00  6.27257E+00  4.90023E+00 -1.19910E+00  3.62117E+00 -1.18430E+00  2.45481E-01  1.66984E+00
   6.71110E+00 -1.60985E+00  1.32573E+00  1.96727E+00  1.27433E+00  3.04334E+00  2.14204E+00  1.40187E+00  4.73015E-01  1.69119E+00
   6.94454E-01  1.42461E+00 -1.76883E+00  2.81485E-02 -1.04578E-01  1.14169E+00 -4.06351E+00  2.59694E+00  1.03132E+00 -1.59858E+00
  -5.40381E-01  3.79333E+00  3.10978E+00 -9.26089E-01 -5.02290E-02  2.20410E+00  1.79773E+00  7.53612E-01  1.90219E+00  1.74871E+00
   4.46721E+00  3.36875E-01  7.52674E-01  4.23274E-01  7.41170E-01  5.88689E-01 -4.15945E-01  7.63588E-01  7.11590E-01 -1.07403E+00
  -5.20054E-01  2.91392E+00  1.82083E+00 -1.23760E+00  8.72280E-02  1.08304E+00  1.29237E+00 -6.38183E-04  9.30010E-02  4.33850E-01
   1.39545E+00  9.11274E-01 -1.00964E+00  1.35770E-01 -1.40029E+00  2.68894E+00  6.17923E-01 -3.25855E+00 -3.65275E+00 -2.40827E+00
  -1.58522E+00 -1.94006E+00 -2.82077E+00  1.24508E+00 -5.43621E-01 -2.04451E+00  8.74017E-01  2.18245E+00  2.72721E+00  1.93077E+00
   2.82256E+00  4.46344E+00  8.17597E-01  4.63988E+00 -7.21691E-01  3.50644E+00  2.34286E+00  1.40842E+00  5.35635E+00  3.81236E+00
   5.61056E+00  1.02395E+00  8.58858E+00  9.16504E+00  8.53809E+00  6.73084E+00  3.81196E+00  6.51458E+00  2.90834E+00  2.32806E+00
   5.21296E+00  9.03400E-01  6.21600E+00  4.21128E+00  3.53677E+00  4.30806E+00  3.13428E+00  1.32280E+00 -7.68982E-01  1.79375E+00
  -1.29916E+00 -1.10177E-01  1.68617E+00 -2.22316E+00 -1.37897E+00 -2.59311E+00  1.05696E+00 -1.84510E+00  1.20909E+00  3.77098E+00
   2.86355E+00  3.51607E-01  9.56452E-01  4.53550E+00  1.86882E+00  3.14803E+00  1.35464E+00  7.57310E+00  4.69834E+00  3.19101E+00
   1.78122E+00  2.35821E+00 -5.14399E-01  3.60500E+00  7.46053E-01 -1.29108E-01  4.59480E+00  9.28177E-01  3.22793E+00  1.82839E+00
   1.52158E+00  7.63285E-01 -1.64792E+00  3.49251E+00  1.10938E+00  2.22281E+00  2.48589E+00  1.64321E+00  3.77089E+00  5.11580E+00
   2.49203E+00  2.15790E+00  1.11124E+00  3.55392E+00  2.55201E+00  1.36364E+00  1.72728E+00  2.58449E+00  3.88681E+00  5.33998E+00
   7.58633E+00  1.60491E+00  3.41894E-01  2.97786E+00  1.58847E+00  1.31537E+00  3.55780E+00  2.18469E+00 -7.84239E-01  7.53659E-01
   1.35916E+00 -9.95292E-01  1.19339E+00  4.67502E+00  8.56928E-01 -1.13897E+00 -3.78965E-01  5.31613E-01  4.31453E+00 -3.55269E-01
  -8.35019E-01 -1.87208E-01  2.59152E+00 -3.91140E-01  3.49052E+00  5.77638E-01  1.12225E-01 -5.93803E-01  1.86523E+00 -3.04073E-01
   2.89947E+00  3.13280E-02  2.25647E+00  2.66360E+00  6.16870E+00 -1.04526E-01  2.54380E+00  9.72927E-01  6.62178E+00  6.09878E+00
   4.23568E+00  1.03908E-01  2.20424E+00  3.37103E+00 -6.21947E-01  3.97424E+00  1.76309E-01  2.70840E+00  1.96914E+00  3.42100E+00
   2.05081E+00  7.37416E-02  9.32404E-01  1.07066E+00  1.98890E-01  3.77543E-01  4.15724E-01 -3.36126E-01  4.18284E+00  1.47499E+00
  -3.76103E-01  1.91330E+00  1.23801E+00  1.04078E+00  3.65139E+00  5.85150E-01  4.10391E-01  7.46147E-01  4.93469E-01  2.69080E+00
   2.10632E-01  3.02749E+00  1.72914E+00  1.71681E+00 -4.59629E-01  6.30439E-01  2.23435E+00  1.18552E+00
 NY points of the fit to the data follow
  -3.61342E+00 -3.60160E+00 -3.58967E+00 -3.58912E+00 -3.67857E+00 -3.75820E+00 -3.57480E+00 -3.09421E+00 -2.46922E+00 -1.97667E+00
  -1.85844E+00 -2.08362E+00 -2.42522E+00 -2.72434E+00 -2.95956E+00 -3.17379E+00 -3.34332E+00 -3.43087E+00 -3.46288E+00 -3.44455E+00
  -3.38001E+00 -3.20896E+00 -2.96205E+00 -2.77025E+00 -2.74577E+00 -2.93261E+00 -3.25168E+00 -3.58348E+00 -3.81311E+00 -3.83139E+00
  -3.62074E+00 -3.25374E+00 -2.85581E+00 -2.61733E+00 -2.63508E+00 -2.80355E+00 -2.98672E+00 -3.11049E+00 -3.15403E+00 -3.14096E+00
  -3.10196E+00 -3.07001E+00 -3.05624E+00 -3.05004E+00 -3.04071E+00 -3.03654E+00 -3.02082E+00 -3.00353E+00 -3.00043E+00 -2.99858E+00
  -2.99014E+00 -2.96750E+00 -2.93170E+00 -2.89568E+00 -2.87006E+00 -2.85748E+00 -2.85552E+00 -2.85552E+00 -2.85483E+00 -2.85172E+00
  -2.84385E+00 -2.83482E+00 -2.82470E+00 -2.80650E+00 -2.78368E+00 -2.75801E+00 -2.73383E+00 -2.72137E+00 -2.72126E+00 -2.72599E+00
  -2.73675E+00 -2.74521E+00 -2.72644E+00 -2.67445E+00 -2.60206E+00 -2.53773E+00 -2.51037E+00 -2.53164E+00 -2.57878E+00 -2.61856E+00
  -2.63672E+00 -2.65182E+00 -2.64021E+00 -2.55766E+00 -2.41542E+00 -2.25816E+00 -2.15121E+00 -2.14091E+00 -2.20006E+00 -2.26619E+00
  -2.31374E+00 -2.35208E+00 -2.40126E+00 -2.45610E+00 -2.50022E+00 -2.50973E+00 -2.47875E+00 -2.45623E+00 -2.62213E+00 -2.82622E+00
  -2.44438E+00 -1.33082E+00  1.55189E-01  1.34377E+00  1.63473E+00  1.06379E+00  1.78268E-01 -6.12376E-01 -1.19820E+00 -1.65349E+00
  -1.96745E+00 -2.06832E+00 -2.10004E+00 -2.11263E+00 -2.11713E+00 -2.11375E+00 -2.10800E+00 -2.10426E+00 -2.10072E+00 -2.09787E+00
  -2.10184E+00 -2.16081E+00 -2.38783E+00 -2.44473E+00 -1.93581E+00 -9.19691E-01  2.20680E-01  9.39486E-01  9.13663E-01  3.58961E-01
  -3.06351E-01 -8.61773E-01 -1.27473E+00 -1.60972E+00 -1.78996E+00 -1.83854E+00 -1.84986E+00 -1.84360E+00 -1.82603E+00 -1.80729E+00
  -1.79518E+00 -1.79063E+00 -1.78425E+00 -1.76384E+00 -1.73265E+00 -1.70256E+00 -1.68172E+00 -1.67207E+00 -1.66719E+00 -1.66111E+00
  -1.65207E+00 -1.64009E+00 -1.62672E+00 -1.61163E+00 -1.59444E+00 -1.57221E+00 -1.53510E+00 -1.50710E+00 -1.52615E+00 -1.59847E+00
  -1.70144E+00 -1.75927E+00 -1.71680E+00 -1.60373E+00 -1.48912E+00 -1.43038E+00 -1.44020E+00 -1.48126E+00 -1.52327E+00 -1.55574E+00
  -1.57451E+00 -1.58021E+00 -1.58182E+00 -1.62499E+00 -1.70116E+00 -1.75923E+00 -1.74549E+00 -1.66213E+00 -1.58018E+00 -1.55599E+00
  -1.58157E+00 -1.59738E+00 -1.55418E+00 -1.49489E+00 -1.49216E+00 -1.52391E+00 -1.53993E+00 -1.49008E+00 -1.37172E+00 -1.23591E+00
  -1.14285E+00 -1.10736E+00 -1.12160E+00 -1.15364E+00 -1.17943E+00 -1.20079E+00 -1.23406E+00 -1.28592E+00 -1.31659E+00 -1.27054E+00
  -1.11789E+00 -8.76178E-01 -6.03692E-01 -3.85128E-01 -2.61050E-01 -2.45157E-01 -4.47345E-01 -8.98031E-01 -1.41649E+00 -1.80880E+00
  -1.94816E+00 -1.81419E+00 -1.54005E+00 -1.26397E+00 -1.02518E+00 -8.27073E-01 -6.75304E-01 -6.01771E-01 -5.84670E-01 -5.69797E-01
  -5.50420E-01 -5.22529E-01 -4.81252E-01 -4.39199E-01 -4.12122E-01 -4.05500E-01 -4.13945E-01 -4.33677E-01 -4.64662E-01 -4.99703E-01
  -5.08798E-01 -4.63111E-01 -4.38845E-01 -5.10635E-01 -6.61510E-01 -8.12467E-01 -8.53309E-01 -6.93115E-01 -3.53852E-01 -2.14705E-03
   2.23813E-01  2.57401E-01  1.01818E-01 -1.68370E-01 -4.25439E-01 -6.07856E-01 -7.11287E-01 -7.24312E-01 -6.32722E-01 -4.50787E-01
  -2.36269E-01 -3.15870E-02  1.19958E-01  1.84899E-01  1.27808E-01 -3.10377E-01 -8.19866E-01 -1.22316E-01  2.05772E+00  4.95527E+00
   7.24052E+00  7.72132E+00  6.46560E+00  4.58662E+00  2.93282E+00  1.73290E+00  8.28160E-01  2.00391E-01  4.86444E-03 -5.55728E-02
  -8.37922E-02 -9.50570E-02 -9.50408E-02 -8.54904E-02 -6.87037E-02 -4.87638E-02 -3.00208E-02 -1.72738E-02 -1.06029E-02 -6.52738E-03
  -3.08773E-03  9.24253E-04  8.03353E-03  2.13971E-02  4.24465E-02  6.96260E-02  1.00330E-01  1.32713E-01  1.65604E-01  1.99024E-01
   2.32495E-01  2.65243E-01  2.97443E-01  3.29590E-01  3.61787E-01  3.94082E-01  4.26393E-01  4.58337E-01  4.89032E-01  5.17633E-01
   5.43743E-01  5.66777E-01  5.86556E-01  6.03069E-01  6.16303E-01  6.26298E-01  6.33216E-01  6.37383E-01  6.39278E-01  6.39419E-01
   6.38314E-01  6.36526E-01  6.34721E-01  6.33671E-01  6.34087E-01  6.36565E-01  6.41636E-01  6.49822E-01  6.61552E-01  6.76575E-01
   6.91422E-01  6.92555E-01  7.35679E-01  1.02898E+00  1.48614E+00  1.82478E+00  1.80325E+00  1.34347E+00  6.54792E-01  3.28927E-02
  -5.24233E-01 -9.27758E-01 -9.82017E-01 -5.87786E-01  2.21256E-01  1.07322E+00  1.62270E+00  1.82166E+00  1.81983E+00  1.76031E+00
   1.71125E+00  1.66139E+00  1.69164E+00  1.82479E+00  2.03977E+00  2.33304E+00  2.70502E+00  3.15292E+00  3.66664E+00  4.22647E+00
   4.80238E+00  5.35547E+00  5.84163E+00  6.21692E+00  6.44401E+00  6.49823E+00  6.37198E+00  6.07617E+00  5.63859E+00  5.09925E+00
   4.50412E+00  3.89851E+00  3.32146E+00  2.80197E+00  2.35756E+00  1.99482E+00  1.71154E+00  1.49959E+00  1.34767E+00  1.24370E+00
   1.17633E+00  1.13589E+00  1.11469E+00  1.10703E+00  1.10888E+00  1.11754E+00  1.13123E+00  1.14879E+00  1.16955E+00  1.19317E+00
   1.21952E+00  1.24859E+00  1.28041E+00  1.31507E+00  1.35268E+00  1.39341E+00  1.43744E+00  1.48488E+00  1.53576E+00  1.59007E+00
   1.64773E+00  1.70858E+00  1.77232E+00  1.83851E+00  1.90651E+00  1.97557E+00  2.04483E+00  2.11330E+00  2.17987E+00  2.24333E+00
   2.30243E+00  2.35598E+00  2.40286E+00  2.44209E+00  2.47281E+00  2.49438E+00  2.50640E+00  2.50879E+00  2.50171E+00  2.48563E+00
   2.46121E+00  2.42931E+00  2.39101E+00  2.34753E+00  2.30013E+00  2.25009E+00  2.19862E+00  2.14688E+00  2.09591E+00  2.04665E+00
   1.99986E+00  1.95611E+00  1.91581E+00  1.87924E+00  1.84656E+00  1.81780E+00  1.79291E+00  1.77171E+00  1.75398E+00  1.73949E+00
   1.72798E+00  1.71920E+00  1.71286E+00  1.70869E+00  1.70642E+00  1.70585E+00  1.70678E+00  1.70903E+00  1.71242E+00  1.71678E+00
   1.72198E+00  1.72794E+00  1.73457E+00  1.74179E+00  1.74950E+00  1.75762E+00  1.76612E+00  1.77498E+00  1.78414E+00  1.79358E+00
   1.80323E+00  1.81307E+00  1.82310E+00  1.83332E+00  1.84370E+00  1.85420E+00  1.86481E+00  1.87551E+00  1.88632E+00  1.89724E+00
   1.90824E+00  1.91930E+00  1.93041E+00  1.94158E+00  1.95283E+00  1.96413E+00  1.97548E+00  1.98686E+00  1.99826E+00  2.00970E+00
   2.02119E+00  2.03273E+00  2.04427E+00  2.05583E+00  2.06740E+00  2.07901E+00  2.09066E+00  2.10232E+00  2.11399E+00  2.12566E+00
   2.13735E+00  2.14906E+00  2.16081E+00  2.17256E+00  2.18430E+00  2.19605E+00  2.20782E+00  2.21961E+00  2.23143E+00  2.24323E+00
   2.25504E+00  2.26685E+00  2.27870E+00  2.29057E+00  2.30244E+00  2.31431E+00  2.32618E+00  2.33808E+00
 NY background values follow
    -3.575E+00   -3.563E+00   -3.551E+00   -3.540E+00   -3.528E+00   -3.516E+00   -3.504E+00   -3.492E+00   -3.480E+00   -3.468E+00
    -3.457E+00   -3.445E+00   -3.433E+00   -3.421E+00   -3.409E+00   -3.397E+00   -3.385E+00   -3.373E+00   -3.361E+00   -3.349E+00
    -3.338E+00   -3.326E+00   -3.314E+00   -3.302E+00   -3.290E+00   -3.278E+00   -3.266E+00   -3.254E+00   -3.242E+00   -3.230E+00
    -3.218E+00   -3.206E+00   -3.194E+00   -3.183E+00   -3.171E+00   -3.159E+00   -3.147E+00   -3.135E+00   -3.123E+00   -3.111E+00
    -3.099E+00   -3.087E+00   -3.075E+00   -3.063E+00   -3.051E+00   -3.039E+00   -3.027E+00   -3.015E+00   -3.003E+00   -2.991E+00
    -2.979E+00   -2.967E+00   -2.955E+00   -2.943E+00   -2.931E+00   -2.919E+00   -2.907E+00   -2.895E+00   -2.883E+00   -2.871E+00
    -2.859E+00   -2.847E+00   -2.835E+00   -2.823E+00   -2.811E+00   -2.799E+00   -2.787E+00   -2.775E+00   -2.763E+00   -2.751E+00
    -2.739E+00   -2.727E+00   -2.715E+00   -2.703E+00   -2.691E+00   -2.679E+00   -2.667E+00   -2.655E+00   -2.643E+00   -2.631E+00
    -2.619E+00   -2.607E+00   -2.595E+00   -2.583E+00   -2.571E+00   -2.559E+00   -2.547E+00   -2.534E+00   -2.522E+00   -2.510E+00
    -2.498E+00   -2.486E+00   -2.474E+00   -2.462E+00   -2.450E+00   -2.438E+00   -2.426E+00   -2.414E+00   -2.402E+00   -2.390E+00
    -2.378E+00   -2.366E+00   -2.353E+00   -2.341E+00   -2.329E+00   -2.317E+00   -2.305E+00   -2.293E+00   -2.281E+00   -2.269E+00
    -2.257E+00   -2.245E+00   -2.233E+00   -2.220E+00   -2.208E+00   -2.196E+00   -2.184E+00   -2.172E+00   -2.160E+00   -2.148E+00
    -2.136E+00   -2.124E+00   -2.112E+00   -2.099E+00   -2.087E+00   -2.075E+00   -2.063E+00   -2.051E+00   -2.039E+00   -2.027E+00
    -2.015E+00   -2.002E+00   -1.990E+00   -1.978E+00   -1.966E+00   -1.954E+00   -1.942E+00   -1.930E+00   -1.918E+00   -1.905E+00
    -1.893E+00   -1.881E+00   -1.869E+00   -1.857E+00   -1.845E+00   -1.833E+00   -1.821E+00   -1.808E+00   -1.796E+00   -1.784E+00
    -1.772E+00   -1.760E+00   -1.748E+00   -1.736E+00   -1.723E+00   -1.711E+00   -1.699E+00   -1.687E+00   -1.675E+00   -1.663E+00
    -1.651E+00   -1.638E+00   -1.626E+00   -1.614E+00   -1.602E+00   -1.590E+00   -1.578E+00   -1.565E+00   -1.553E+00   -1.541E+00
    -1.529E+00   -1.517E+00   -1.505E+00   -1.493E+00   -1.480E+00   -1.468E+00   -1.456E+00   -1.444E+00   -1.432E+00   -1.420E+00
    -1.407E+00   -1.395E+00   -1.383E+00   -1.371E+00   -1.359E+00   -1.347E+00   -1.334E+00   -1.322E+00   -1.310E+00   -1.298E+00
    -1.286E+00   -1.274E+00   -1.261E+00   -1.249E+00   -1.237E+00   -1.225E+00   -1.213E+00   -1.201E+00   -1.188E+00   -1.176E+00
    -1.164E+00   -1.152E+00   -1.140E+00   -1.128E+00   -1.115E+00   -1.103E+00   -1.091E+00   -1.079E+00   -1.067E+00   -1.055E+00
    -1.042E+00   -1.030E+00   -1.018E+00   -1.006E+00   -9.938E-01   -9.816E-01   -9.695E-01   -9.573E-01   -9.451E-01   -9.330E-01
    -9.208E-01   -9.086E-01   -8.964E-01   -8.843E-01   -8.721E-01   -8.599E-01   -8.478E-01   -8.356E-01   -8.234E-01   -8.113E-01
    -7.991E-01   -7.869E-01   -7.748E-01   -7.626E-01   -7.504E-01   -7.383E-01   -7.261E-01   -7.139E-01   -7.018E-01   -6.896E-01
    -6.774E-01   -6.653E-01   -6.531E-01   -6.410E-01   -6.288E-01   -6.166E-01   -6.045E-01   -5.923E-01   -5.801E-01   -5.680E-01
    -5.558E-01   -5.437E-01   -5.315E-01   -5.193E-01   -5.072E-01   -4.950E-01   -4.829E-01   -4.707E-01   -4.586E-01   -4.464E-01
    -4.342E-01   -4.221E-01   -4.099E-01   -3.978E-01   -3.856E-01   -3.735E-01   -3.613E-01   -3.492E-01   -3.370E-01   -3.249E-01
    -3.127E-01   -3.006E-01   -2.884E-01   -2.763E-01   -2.641E-01   -2.520E-01   -2.399E-01   -2.277E-01   -2.156E-01   -2.034E-01
    -1.913E-01   -1.792E-01   -1.670E-01   -1.549E-01   -1.427E-01   -1.306E-01   -1.185E-01   -1.063E-01   -9.422E-02   -8.208E-02
    -6.995E-02   -5.783E-02   -4.570E-02   -3.357E-02   -2.145E-02   -9.321E-03    2.803E-03    1.493E-02    2.705E-02    3.917E-02
     5.129E-02    6.340E-02    7.552E-02    8.763E-02    9.975E-02    1.119E-01    1.240E-01    1.361E-01    1.482E-01    1.603E-01
     1.724E-01    1.845E-01    1.966E-01    2.087E-01    2.208E-01    2.329E-01    2.450E-01    2.571E-01    2.692E-01    2.813E-01
     2.934E-01    3.055E-01    3.176E-01    3.297E-01    3.418E-01    3.538E-01    3.659E-01    3.780E-01    3.901E-01    4.022E-01
     4.142E-01    4.263E-01    4.384E-01    4.505E-01    4.625E-01    4.746E-01    4.867E-01    4.987E-01    5.108E-01    5.229E-01
     5.349E-01    5.470E-01    5.590E-01    5.711E-01    5.831E-01    5.952E-01    6.073E-01    6.193E-01    6.313E-01    6.434E-01
     6.554E-01    6.675E-01    6.795E-01    6.916E-01    7.036E-01    7.156E-01    7.277E-01    7.397E-01    7.517E-01    7.637E-01
     7.758E-01    7.878E-01    7.998E-01    8.118E-01    8.238E-01    8.358E-01    8.479E-01    8.599E-01    8.719E-01    8.839E-01
     8.959E-01    9.079E-01    9.199E-01    9.319E-01    9.439E-01    9.559E-01    9.679E-01    9.798E-01    9.918E-01    1.004E+00
     1.016E+00    1.028E+00    1.040E+00    1.052E+00    1.064E+00    1.076E+00    1.088E+00    1.100E+00    1.112E+00    1.124E+00
     1.135E+00    1.147E+00    1.159E+00    1.171E+00    1.183E+00    1.195E+00    1.207E+00    1.219E+00    1.231E+00    1.243E+00
     1.255E+00    1.267E+00    1.279E+00    1.291E+00    1.303E+00    1.315E+00    1.326E+00    1.338E+00    1.350E+00    1.362E+00
     1.374E+00    1.386E+00    1.398E+00    1.410E+00    1.422E+00    1.434E+00    1.445E+00    1.457E+00    1.469E+00    1.481E+00
     1.493E+00    1.505E+00    1.517E+00    1.529E+00    1.540E+00    1.552E+00    1.564E+00    1.576E+00    1.588E+00    1.600E+00
     1.612E+00    1.623E+00    1.635E+00    1.647E+00    1.659E+00    1.671E+00    1.683E+00    1.695E+00    1.706E+00    1.718E+00
     1.730E+00    1.742E+00    1.754E+00    1.765E+00    1.777E+00    1.789E+00    1.801E+00    1.813E+00    1.824E+00    1.836E+00
     1.848E+00    1.860E+00    1.872E+00    1.883E+00    1.895E+00    1.907E+00    1.919E+00    1.930E+00    1.942E+00    1.954E+00
     1.966E+00    1.977E+00    1.989E+00    2.001E+00    2.013E+00    2.024E+00    2.036E+00    2.048E+00    2.060E+00    2.071E+00
     2.083E+00    2.095E+00    2.106E+00    2.118E+00    2.130E+00    2.142E+00    2.153E+00    2.165E+00    2.177E+00    2.188E+00
     2.200E+00    2.212E+00    2.223E+00    2.235E+00    2.247E+00    2.258E+00    2.270E+00    2.282E+00    2.293E+00    2.305E+00
     2.317E+00    2.328E+00    2.340E+00    2.352E+00    2.363E+00    2.375E+00    2.387E+00    2.398E+00
 Ala      Conc. = 6.81E+01
