 LCModel (Version 6.3-1L) Copyright: S.W. Provencher.          Ref.: Magn. Reson. Med. 30:672-679 (1993).                
 Slice#3 Row#10 Col#4  PD_05_press_2_raw_act
 36 lines in following concentration table = NCONC+1
    Conc.  %SD /Cr+PCr  Metabolite                                         
  216.065  84%   0.270 Ala                                                 
  278.132  55%   0.348 Asp                                                 
    0.000 999%   0.000 Cr                                                  
  799.092   9%   1.000 PCr                                                 
   21.436 443% 2.7E-02 GABA                                                
    0.000 999%   0.000 Glc                                                 
  312.886 122%   0.392 Gln                                                 
    1.996 999% 2.5E-03 Glu                                                 
  224.515  12%   0.281 GPC                                                 
    0.000 999%   0.000 PCh                                                 
  674.568  16%   0.844 GSH                                                 
 1.20E+03  28%   1.506 Ins                                                 
    0.000 999%   0.000 Lac                                                 
 1.24E+03   6%   1.554 NAA                                                 
    0.000 999%   0.000 NAAG                                                
    7.084 346% 8.9E-03 Scyllo                                              
    0.000 999%   0.000 Tau                                                 
  272.782  45%   0.341 -CrCH2                                              
  224.515  12%   0.281 GPC+PCh                                             
 1.24E+03   6%   1.554 NAA+NAAG                                            
  799.092   9%   1.000 Cr+PCr                                              
  314.882 208%   0.394 Glu+Gln                                             
    0.000 999%   0.000 Lip13a                                              
   68.419 167% 8.6E-02 Lip13b                                              
   30.223 269% 3.8E-02 Lip09                                               
  720.402  23%   0.902 MM09                                                
    0.737 999% 9.2E-04 Lip20                                               
    0.000 999%   0.000 MM20                                                
  152.617  99%   0.191 MM12                                                
 2.23E+03  12%   2.787 MM14                                                
    0.000 999%   0.000 MM17                                                
   68.419 167% 8.6E-02 Lip13a+Lip13b                                       
 2.45E+03  14%   3.063 MM14+Lip13a+Lip13b+MM12                             
  750.625  21%   0.939 MM09+Lip09                                          
    0.737 999% 9.2E-04 MM20+Lip20                                          
   6 lines in following misc. output table
  FWHM = 0.061 ppm    S/N =   4                                            
  Data shift =-0.008 ppm                                                   
  Ph:   7 deg      -6.8 deg/ppm                                            
  alphaB,S = 1.2E+01,   1.2E+02                                            
   14 spline knots.   Ns =10(1)                                            
  (14) 4 infls.   (17) 1 extrs.                                            
  498 points on ppm-axis = NY
      4.000000     3.992357     3.984714     3.977070     3.969427     3.961784     3.954141     3.946497     3.938854     3.931211
      3.923568     3.915925     3.908281     3.900638     3.892995     3.885352     3.877708     3.870065     3.862422     3.854779
      3.847136     3.839492     3.831849     3.824206     3.816563     3.808919     3.801276     3.793633     3.785990     3.778347
      3.770703     3.763060     3.755417     3.747774     3.740130     3.732487     3.724844     3.717201     3.709558     3.701914
      3.694271     3.686628     3.678985     3.671341     3.663698     3.656055     3.648412     3.640769     3.633125     3.625482
      3.617839     3.610196     3.602552     3.594909     3.587266     3.579623     3.571980     3.564336     3.556693     3.549050
      3.541407     3.533763     3.526120     3.518477     3.510834     3.503191     3.495547     3.487904     3.480261     3.472618
      3.464974     3.457331     3.449688     3.442045     3.434402     3.426758     3.419115     3.411472     3.403829     3.396185
      3.388542     3.380899     3.373256     3.365613     3.357969     3.350326     3.342683     3.335040     3.327396     3.319753
      3.312110     3.304467     3.296824     3.289180     3.281537     3.273894     3.266251     3.258607     3.250964     3.243321
      3.235678     3.228034     3.220391     3.212748     3.205105     3.197462     3.189818     3.182175     3.174532     3.166889
      3.159245     3.151602     3.143959     3.136316     3.128673     3.121029     3.113386     3.105743     3.098100     3.090456
      3.082813     3.075170     3.067527     3.059884     3.052240     3.044597     3.036954     3.029311     3.021667     3.014024
      3.006381     2.998738     2.991095     2.983451     2.975808     2.968165     2.960522     2.952878     2.945235     2.937592
      2.929949     2.922306     2.914662     2.907019     2.899376     2.891733     2.884089     2.876446     2.868803     2.861160
      2.853517     2.845873     2.838230     2.830587     2.822944     2.815300     2.807657     2.800014     2.792371     2.784728
      2.777084     2.769441     2.761798     2.754155     2.746511     2.738868     2.731225     2.723582     2.715939     2.708295
      2.700652     2.693009     2.685366     2.677722     2.670079     2.662436     2.654793     2.647150     2.639506     2.631863
      2.624220     2.616577     2.608933     2.601290     2.593647     2.586004     2.578361     2.570717     2.563074     2.555431
      2.547788     2.540144     2.532501     2.524858     2.517215     2.509572     2.501928     2.494285     2.486642     2.478999
      2.471355     2.463712     2.456069     2.448426     2.440783     2.433139     2.425496     2.417853     2.410210     2.402566
      2.394923     2.387280     2.379637     2.371994     2.364350     2.356707     2.349064     2.341421     2.333777     2.326134
      2.318491     2.310848     2.303205     2.295561     2.287918     2.280275     2.272632     2.264988     2.257345     2.249702
      2.242059     2.234416     2.226772     2.219129     2.211486     2.203843     2.196199     2.188556     2.180913     2.173270
      2.165627     2.157983     2.150340     2.142697     2.135054     2.127410     2.119767     2.112124     2.104481     2.096838
      2.089194     2.081551     2.073908     2.066265     2.058621     2.050978     2.043335     2.035692     2.028049     2.020405
      2.012762     2.005119     1.997476     1.989833     1.982190     1.974546     1.966903     1.959260     1.951617     1.943974
      1.936331     1.928688     1.921045     1.913402     1.905759     1.898115     1.890472     1.882829     1.875186     1.867543
      1.859900     1.852257     1.844614     1.836971     1.829327     1.821684     1.814041     1.806398     1.798755     1.791112
      1.783469     1.775826     1.768183     1.760540     1.752896     1.745253     1.737610     1.729967     1.722324     1.714681
      1.707038     1.699395     1.691752     1.684108     1.676465     1.668822     1.661179     1.653536     1.645893     1.638250
      1.630607     1.622964     1.615321     1.607677     1.600034     1.592391     1.584748     1.577105     1.569462     1.561819
      1.554176     1.546533     1.538890     1.531246     1.523603     1.515960     1.508317     1.500674     1.493031     1.485388
      1.477745     1.470102     1.462458     1.454815     1.447172     1.439529     1.431886     1.424243     1.416600     1.408957
      1.401314     1.393671     1.386027     1.378384     1.370741     1.363098     1.355455     1.347812     1.340169     1.332526
      1.324883     1.317240     1.309596     1.301953     1.294310     1.286667     1.279024     1.271381     1.263738     1.256095
      1.248452     1.240808     1.233165     1.225522     1.217879     1.210236     1.202593     1.194950     1.187307     1.179664
      1.172021     1.164377     1.156734     1.149091     1.141448     1.133805     1.126162     1.118519     1.110876     1.103233
      1.095590     1.087946     1.080303     1.072660     1.065017     1.057374     1.049731     1.042088     1.034445     1.026802
      1.019158     1.011515     1.003872     0.996229     0.988586     0.980943     0.973300     0.965657     0.958014     0.950371
      0.942727     0.935084     0.927441     0.919798     0.912155     0.904512     0.896869     0.889226     0.881583     0.873940
      0.866296     0.858653     0.851010     0.843367     0.835724     0.828081     0.820438     0.812795     0.805152     0.797508
      0.789865     0.782222     0.774579     0.766936     0.759293     0.751650     0.744007     0.736364     0.728721     0.721077
      0.713434     0.705791     0.698148     0.690505     0.682862     0.675219     0.667576     0.659933     0.652290     0.644646
      0.637003     0.629360     0.621717     0.614074     0.606431     0.598788     0.591145     0.583502     0.575858     0.568215
      0.560572     0.552929     0.545286     0.537643     0.530000     0.522357     0.514714     0.507071     0.499427     0.491784
      0.484141     0.476498     0.468855     0.461212     0.453569     0.445925     0.438282     0.430639     0.422996     0.415353
      0.407710     0.400067     0.392424     0.384780     0.377137     0.369494     0.361851     0.354208     0.346565     0.338922
      0.331278     0.323635     0.315992     0.308349     0.300706     0.293063     0.285420     0.277777     0.270133     0.262490
      0.254847     0.247204     0.239561     0.231918     0.224275     0.216631     0.208988     0.201345
 NY phased data points follow
   7.53195E+01  7.21321E+01  7.68613E+01  7.06716E+01  7.43404E+01  7.55741E+01  7.14546E+01  6.93926E+01  7.89811E+01  7.67714E+01
   7.54215E+01  7.37049E+01  7.67929E+01  7.70728E+01  7.06792E+01  6.88279E+01  6.90170E+01  7.04192E+01  6.76532E+01  6.08869E+01
   6.89588E+01  6.52697E+01  6.21971E+01  6.53908E+01  5.96269E+01  6.76242E+01  6.99569E+01  7.06875E+01  6.95685E+01  7.33442E+01
   6.75444E+01  7.42948E+01  7.74300E+01  7.80578E+01  7.53874E+01  7.53640E+01  7.32021E+01  7.65685E+01  7.37095E+01  7.68382E+01
   7.30464E+01  7.81088E+01  7.33892E+01  7.10228E+01  7.71122E+01  7.11616E+01  6.81190E+01  7.65108E+01  7.79731E+01  7.34530E+01
   7.24287E+01  7.16129E+01  7.08631E+01  7.08663E+01  7.02050E+01  6.71007E+01  6.63502E+01  6.95057E+01  6.18728E+01  6.82818E+01
   6.93956E+01  6.54575E+01  6.30524E+01  6.19988E+01  5.90910E+01  5.83492E+01  5.80997E+01  5.62761E+01  5.78279E+01  6.02204E+01
   6.37375E+01  6.04769E+01  5.99236E+01  5.47154E+01  5.40392E+01  5.72289E+01  5.33727E+01  5.62825E+01  5.82382E+01  5.90101E+01
   5.39296E+01  5.90832E+01  5.09761E+01  5.81362E+01  5.84961E+01  6.14803E+01  5.12561E+01  5.90421E+01  5.77840E+01  5.82247E+01
   5.88524E+01  5.45122E+01  5.67435E+01  6.22157E+01  6.08502E+01  5.77254E+01  6.16799E+01  5.91736E+01  5.79142E+01  6.33347E+01
   6.45550E+01  6.31682E+01  6.75241E+01  7.55579E+01  7.06072E+01  7.76210E+01  6.83251E+01  7.08624E+01  6.32040E+01  6.47624E+01
   6.29965E+01  6.00892E+01  6.10377E+01  5.81352E+01  6.13458E+01  5.81541E+01  5.96658E+01  6.17061E+01  5.90039E+01  5.59139E+01
   6.03607E+01  5.66887E+01  6.38381E+01  6.05829E+01  6.58130E+01  7.24032E+01  7.59683E+01  7.51978E+01  7.96536E+01  7.56440E+01
   7.17665E+01  7.21453E+01  6.49958E+01  6.95770E+01  6.94970E+01  5.99378E+01  5.87744E+01  6.14697E+01  5.80796E+01  6.29749E+01
   5.82811E+01  5.63037E+01  5.67701E+01  5.20376E+01  5.83419E+01  5.55743E+01  5.50011E+01  5.72849E+01  5.35004E+01  5.17385E+01
   5.57014E+01  5.35601E+01  5.58397E+01  5.01670E+01  4.42339E+01  5.55821E+01  5.24034E+01  4.99183E+01  4.99856E+01  4.68434E+01
   5.01113E+01  4.73493E+01  4.45340E+01  5.28673E+01  4.93305E+01  5.40421E+01  5.19624E+01  4.91279E+01  4.67836E+01  4.66953E+01
   5.43073E+01  5.27633E+01  5.32529E+01  5.77745E+01  5.14114E+01  4.69751E+01  5.27029E+01  5.08697E+01  4.98071E+01  4.99569E+01
   5.14956E+01  5.10264E+01  4.63557E+01  4.85980E+01  4.64971E+01  5.06512E+01  4.73389E+01  4.96327E+01  4.92040E+01  5.02028E+01
   5.48597E+01  5.59230E+01  5.30142E+01  4.62168E+01  5.82739E+01  5.71394E+01  5.28567E+01  5.16311E+01  4.57412E+01  5.07378E+01
   5.33389E+01  4.71964E+01  4.76771E+01  5.18023E+01  5.27564E+01  5.33364E+01  5.07451E+01  4.44972E+01  4.81766E+01  4.36609E+01
   4.66936E+01  4.76466E+01  5.13013E+01  4.27568E+01  4.68568E+01  4.88500E+01  4.74614E+01  4.70353E+01  5.05192E+01  4.79746E+01
   5.07878E+01  4.82869E+01  5.07449E+01  4.61804E+01  4.43429E+01  4.59826E+01  4.89771E+01  5.00119E+01  4.42505E+01  4.69650E+01
   4.64801E+01  4.72361E+01  5.38213E+01  4.48273E+01  4.33253E+01  4.18794E+01  4.63185E+01  4.21575E+01  4.94807E+01  4.19979E+01
   4.45455E+01  4.07408E+01  3.74573E+01  4.12883E+01  3.61266E+01  4.23070E+01  4.24005E+01  4.04504E+01  4.37971E+01  4.10077E+01
   4.00855E+01  4.33065E+01  4.77906E+01  4.17645E+01  4.69057E+01  4.56525E+01  5.47701E+01  5.62837E+01  6.27855E+01  7.27151E+01
   7.65228E+01  7.79034E+01  7.94526E+01  6.50345E+01  5.95334E+01  5.35962E+01  5.92585E+01  5.29667E+01  5.08520E+01  4.52611E+01
   4.15766E+01  3.86685E+01  4.06882E+01  4.51281E+01  3.80704E+01  3.84021E+01  4.00896E+01  4.43408E+01  3.75105E+01  3.80396E+01
   3.52398E+01  3.96421E+01  3.74612E+01  3.91492E+01  3.64223E+01  3.30800E+01  3.03611E+01  3.58231E+01  3.14590E+01  3.59154E+01
   3.87570E+01  3.38262E+01  3.47842E+01  4.10275E+01  3.03010E+01  4.17336E+01  3.49241E+01  3.86721E+01  3.34799E+01  4.26804E+01
   3.67068E+01  3.75916E+01  3.73652E+01  4.00196E+01  4.54481E+01  3.73044E+01  3.68220E+01  3.85389E+01  3.81495E+01  4.42899E+01
   4.11938E+01  4.82923E+01  4.57246E+01  4.83011E+01  5.20134E+01  4.39909E+01  4.20409E+01  4.59947E+01  4.69354E+01  5.03136E+01
   5.39294E+01  5.45617E+01  5.43479E+01  4.44139E+01  4.77144E+01  5.19062E+01  5.76625E+01  5.39641E+01  4.85877E+01  4.89788E+01
   4.97840E+01  4.72337E+01  4.19320E+01  4.29001E+01  4.33476E+01  4.18253E+01  4.18941E+01  4.17530E+01  4.22143E+01  4.24791E+01
   4.37877E+01  3.81364E+01  3.12555E+01  3.30293E+01  3.71161E+01  3.19653E+01  3.56174E+01  3.07328E+01  3.32438E+01  3.01792E+01
   3.60921E+01  3.06988E+01  3.73319E+01  3.03520E+01  3.46709E+01  3.35534E+01  3.67314E+01  3.17249E+01  3.78226E+01  2.98792E+01
   3.84710E+01  3.32846E+01  3.27250E+01  2.90626E+01  2.94148E+01  2.97184E+01  3.13802E+01  2.86781E+01  3.39034E+01  3.14111E+01
   3.24897E+01  3.24920E+01  2.80680E+01  2.87366E+01  3.13292E+01  2.82994E+01  3.32332E+01  3.55658E+01  3.03651E+01  3.06063E+01
   3.23976E+01  3.46235E+01  2.46164E+01  3.34176E+01  3.44483E+01  2.88817E+01  3.39883E+01  2.45250E+01  2.70161E+01  3.22075E+01
   3.23875E+01  3.11920E+01  3.41973E+01  3.11184E+01  3.04051E+01  3.19717E+01  2.89747E+01  3.02904E+01  3.32736E+01  2.81502E+01
   3.08315E+01  2.71408E+01  2.96305E+01  2.98101E+01  3.29300E+01  3.65300E+01  3.31365E+01  3.30327E+01  3.46623E+01  3.54043E+01
   3.43356E+01  3.14565E+01  3.22967E+01  3.20193E+01  2.83492E+01  3.67764E+01  2.88536E+01  3.06937E+01  3.05749E+01  2.84105E+01
   2.90230E+01  2.63876E+01  2.82267E+01  3.72726E+01  3.17875E+01  2.82120E+01  2.64135E+01  3.24169E+01  2.98907E+01  3.21061E+01
   3.02118E+01  2.38285E+01  2.86472E+01  2.76012E+01  2.58030E+01  2.50255E+01  3.19306E+01  2.75145E+01  2.35118E+01  2.60889E+01
   1.98504E+01  2.98917E+01  1.98930E+01  2.29158E+01  2.55925E+01  2.01366E+01  2.64799E+01  2.92212E+01  2.74935E+01  2.24379E+01
   2.42745E+01  2.51815E+01  2.95053E+01  2.18331E+01  2.17365E+01  2.08886E+01  2.02569E+01  2.08717E+01  2.43452E+01  2.39526E+01
   1.39177E+01  2.35366E+01  1.96905E+01  1.73738E+01  2.26752E+01  2.24707E+01  2.17303E+01  1.75065E+01  2.30142E+01  2.15487E+01
   1.73890E+01  1.78481E+01  2.63900E+01  1.80790E+01  1.73455E+01  2.57800E+01  1.55235E+01  1.75188E+01  2.32466E+01  2.11431E+01
   1.72278E+01  1.98083E+01  1.80728E+01  1.53919E+01  1.88605E+01  2.52866E+01  2.12668E+01  1.80003E+01  1.39662E+01  1.89797E+01
   2.59272E+01  2.36025E+01  2.03429E+01  1.98017E+01  1.84869E+01  1.62352E+01  1.90855E+01  2.11899E+01
 NY points of the fit to the data follow
   7.05881E+01  7.01969E+01  6.99677E+01  6.99919E+01  7.03833E+01  7.12172E+01  7.24535E+01  7.39772E+01  7.54628E+01  7.64455E+01
   7.66178E+01  7.59822E+01  7.48600E+01  7.36732E+01  7.26780E+01  7.18555E+01  7.10260E+01  7.00705E+01  6.90226E+01  6.80148E+01
   6.72903E+01  6.71111E+01  6.72218E+01  6.73034E+01  6.72879E+01  6.73061E+01  6.76035E+01  6.84644E+01  7.01062E+01  7.25130E+01
   7.52489E+01  7.75544E+01  7.87267E+01  7.84859E+01  7.71081E+01  7.52650E+01  7.36134E+01  7.24324E+01  7.15359E+01  7.05668E+01
   6.93967E+01  6.82026E+01  6.73567E+01  6.72614E+01  6.78617E+01  6.88550E+01  6.99684E+01  7.08479E+01  7.11502E+01  7.07313E+01
   6.97364E+01  6.84952E+01  6.73556E+01  6.64998E+01  6.59234E+01  6.55200E+01  6.51951E+01  6.49467E+01  6.48465E+01  6.49426E+01
   6.51161E+01  6.51486E+01  6.49304E+01  6.44995E+01  6.39893E+01  6.35563E+01  6.32950E+01  6.32096E+01  6.32372E+01  6.32933E+01
   6.33305E+01  6.33528E+01  6.33507E+01  6.32986E+01  6.31782E+01  6.29870E+01  6.27511E+01  6.24860E+01  6.21961E+01  6.18861E+01
   6.15534E+01  6.11931E+01  6.07897E+01  6.03406E+01  5.98456E+01  5.92752E+01  5.86397E+01  5.79982E+01  5.74454E+01  5.70828E+01
   5.69606E+01  5.70512E+01  5.73024E+01  5.77842E+01  5.83950E+01  5.89124E+01  5.93645E+01  5.99541E+01  6.09099E+01  6.24117E+01
   6.45726E+01  6.73467E+01  7.03111E+01  7.26696E+01  7.36672E+01  7.30141E+01  7.10780E+01  6.86773E+01  6.65433E+01  6.49110E+01
   6.35514E+01  6.21473E+01  6.05974E+01  5.90177E+01  5.76742E+01  5.69188E+01  5.67557E+01  5.70328E+01  5.74581E+01  5.79074E+01
   5.85522E+01  5.96455E+01  6.14102E+01  6.39801E+01  6.73674E+01  7.12636E+01  7.48256E+01  7.70355E+01  7.72872E+01  7.56978E+01
   7.31047E+01  7.05316E+01  6.85101E+01  6.69066E+01  6.51822E+01  6.29667E+01  6.03324E+01  5.77214E+01  5.58193E+01  5.50414E+01
   5.50203E+01  5.53909E+01  5.58388E+01  5.61276E+01  5.61742E+01  5.60304E+01  5.58192E+01  5.56291E+01  5.54270E+01  5.51668E+01
   5.48227E+01  5.43798E+01  5.38857E+01  5.34071E+01  5.29740E+01  5.26238E+01  5.23197E+01  5.20297E+01  5.17377E+01  5.14301E+01
   5.11260E+01  5.08843E+01  5.07600E+01  5.07548E+01  5.08040E+01  5.08156E+01  5.07222E+01  5.05330E+01  5.03199E+01  5.01342E+01
   4.99727E+01  4.97913E+01  4.95551E+01  4.92590E+01  4.89337E+01  4.86215E+01  4.83497E+01  4.81318E+01  4.79586E+01  4.78064E+01
   4.76399E+01  4.74684E+01  4.73381E+01  4.72831E+01  4.72923E+01  4.73366E+01  4.74416E+01  4.76780E+01  4.80787E+01  4.86429E+01
   4.93253E+01  4.99612E+01  5.03473E+01  5.03626E+01  5.00356E+01  4.94711E+01  4.88018E+01  4.81793E+01  4.77412E+01  4.76069E+01
   4.78319E+01  4.83378E+01  4.89266E+01  4.93667E+01  4.95272E+01  4.94042E+01  4.90712E+01  4.86200E+01  4.81301E+01  4.76597E+01
   4.72234E+01  4.68440E+01  4.65913E+01  4.64762E+01  4.64560E+01  4.65041E+01  4.66066E+01  4.67398E+01  4.68826E+01  4.70119E+01
   4.71123E+01  4.71655E+01  4.71419E+01  4.70533E+01  4.69329E+01  4.67715E+01  4.65634E+01  4.63115E+01  4.60246E+01  4.57042E+01
   4.53181E+01  4.48909E+01  4.45300E+01  4.43503E+01  4.44190E+01  4.47133E+01  4.51279E+01  4.54971E+01  4.56141E+01  4.53334E+01
   4.46578E+01  4.37407E+01  4.28259E+01  4.21356E+01  4.17759E+01  4.17396E+01  4.19499E+01  4.22688E+01  4.25755E+01  4.29046E+01
   4.36272E+01  4.47403E+01  4.58320E+01  4.69695E+01  4.85253E+01  5.08555E+01  5.42117E+01  5.86744E+01  6.40663E+01  6.95612E+01
   7.36575E+01  7.49852E+01  7.30990E+01  6.88083E+01  6.37599E+01  5.93565E+01  5.60280E+01  5.33060E+01  5.05552E+01  4.75837E+01
   4.46373E+01  4.22208E+01  4.09551E+01  4.05558E+01  4.03512E+01  4.01958E+01  4.00608E+01  3.99355E+01  3.98148E+01  3.96967E+01
   3.95807E+01  3.94673E+01  3.93568E+01  3.92509E+01  3.91501E+01  3.90544E+01  3.89632E+01  3.88753E+01  3.87905E+01  3.87086E+01
   3.86298E+01  3.85544E+01  3.84836E+01  3.84183E+01  3.83601E+01  3.83107E+01  3.82726E+01  3.82487E+01  3.82427E+01  3.82586E+01
   3.83012E+01  3.83758E+01  3.84880E+01  3.86436E+01  3.88488E+01  3.91098E+01  3.94325E+01  3.98222E+01  4.02830E+01  4.08175E+01
   4.14263E+01  4.21079E+01  4.28580E+01  4.36695E+01  4.45328E+01  4.54368E+01  4.63710E+01  4.73281E+01  4.82647E+01  4.91291E+01
   4.99166E+01  5.06279E+01  5.12421E+01  5.17183E+01  5.20006E+01  5.20449E+01  5.17934E+01  5.11539E+01  5.01165E+01  4.87998E+01
   4.74019E+01  4.61146E+01  4.50431E+01  4.42037E+01  4.35542E+01  4.30120E+01  4.24787E+01  4.18638E+01  4.11283E+01  4.03149E+01
   3.94741E+01  3.86589E+01  3.79183E+01  3.72386E+01  3.65899E+01  3.59610E+01  3.53685E+01  3.48739E+01  3.45193E+01  3.42695E+01
   3.40958E+01  3.39783E+01  3.38980E+01  3.38368E+01  3.37771E+01  3.37044E+01  3.36080E+01  3.34827E+01  3.33285E+01  3.31502E+01
   3.29560E+01  3.27556E+01  3.25581E+01  3.23708E+01  3.21982E+01  3.20423E+01  3.19025E+01  3.17768E+01  3.16625E+01  3.15566E+01
   3.14565E+01  3.13604E+01  3.12673E+01  3.11766E+01  3.10883E+01  3.10027E+01  3.09204E+01  3.08423E+01  3.07691E+01  3.07018E+01
   3.06414E+01  3.05889E+01  3.05451E+01  3.05114E+01  3.04887E+01  3.04782E+01  3.04810E+01  3.04983E+01  3.05312E+01  3.05807E+01
   3.06477E+01  3.07327E+01  3.08359E+01  3.09571E+01  3.10955E+01  3.12498E+01  3.14175E+01  3.15959E+01  3.17809E+01  3.19681E+01
   3.21519E+01  3.23266E+01  3.24856E+01  3.26224E+01  3.27307E+01  3.28044E+01  3.28381E+01  3.28277E+01  3.27700E+01  3.26633E+01
   3.25074E+01  3.23037E+01  3.20552E+01  3.17660E+01  3.14413E+01  3.10874E+01  3.07108E+01  3.03185E+01  2.99173E+01  2.95136E+01
   2.91132E+01  2.87212E+01  2.83419E+01  2.79785E+01  2.76335E+01  2.73083E+01  2.70036E+01  2.67195E+01  2.64555E+01  2.62107E+01
   2.59838E+01  2.57733E+01  2.55778E+01  2.53957E+01  2.52256E+01  2.50658E+01  2.49152E+01  2.47725E+01  2.46365E+01  2.45065E+01
   2.43814E+01  2.42607E+01  2.41437E+01  2.40298E+01  2.39186E+01  2.38098E+01  2.37030E+01  2.35980E+01  2.34944E+01  2.33922E+01
   2.32911E+01  2.31910E+01  2.30919E+01  2.29935E+01  2.28958E+01  2.27987E+01  2.27022E+01  2.26061E+01  2.25106E+01  2.24154E+01
   2.23205E+01  2.22261E+01  2.21319E+01  2.20380E+01  2.19443E+01  2.18509E+01  2.17577E+01  2.16647E+01  2.15718E+01  2.14792E+01
   2.13867E+01  2.12944E+01  2.12022E+01  2.11102E+01  2.10183E+01  2.09265E+01  2.08348E+01  2.07433E+01  2.06519E+01  2.05607E+01
   2.04695E+01  2.03785E+01  2.02875E+01  2.01968E+01  2.01061E+01  2.00156E+01  1.99252E+01  1.98350E+01  1.97448E+01  1.96549E+01
   1.95651E+01  1.94755E+01  1.93860E+01  1.92967E+01  1.92076E+01  1.91188E+01  1.90302E+01  1.89419E+01
 NY background values follow
     6.700E+01    6.691E+01    6.681E+01    6.672E+01    6.663E+01    6.653E+01    6.644E+01    6.634E+01    6.625E+01    6.615E+01
     6.606E+01    6.596E+01    6.587E+01    6.577E+01    6.568E+01    6.558E+01    6.549E+01    6.539E+01    6.530E+01    6.520E+01
     6.511E+01    6.501E+01    6.492E+01    6.482E+01    6.473E+01    6.463E+01    6.453E+01    6.444E+01    6.434E+01    6.425E+01
     6.415E+01    6.405E+01    6.396E+01    6.386E+01    6.377E+01    6.367E+01    6.357E+01    6.348E+01    6.338E+01    6.329E+01
     6.319E+01    6.309E+01    6.300E+01    6.290E+01    6.281E+01    6.271E+01    6.261E+01    6.252E+01    6.242E+01    6.232E+01
     6.223E+01    6.213E+01    6.203E+01    6.194E+01    6.184E+01    6.175E+01    6.165E+01    6.155E+01    6.146E+01    6.136E+01
     6.126E+01    6.117E+01    6.107E+01    6.098E+01    6.088E+01    6.078E+01    6.069E+01    6.059E+01    6.050E+01    6.040E+01
     6.030E+01    6.021E+01    6.011E+01    6.002E+01    5.992E+01    5.983E+01    5.973E+01    5.963E+01    5.954E+01    5.944E+01
     5.935E+01    5.925E+01    5.916E+01    5.907E+01    5.897E+01    5.888E+01    5.878E+01    5.869E+01    5.859E+01    5.850E+01
     5.841E+01    5.831E+01    5.822E+01    5.812E+01    5.803E+01    5.794E+01    5.785E+01    5.775E+01    5.766E+01    5.757E+01
     5.747E+01    5.738E+01    5.729E+01    5.720E+01    5.710E+01    5.701E+01    5.692E+01    5.683E+01    5.673E+01    5.664E+01
     5.655E+01    5.646E+01    5.637E+01    5.627E+01    5.618E+01    5.609E+01    5.600E+01    5.591E+01    5.582E+01    5.572E+01
     5.563E+01    5.554E+01    5.545E+01    5.536E+01    5.526E+01    5.517E+01    5.508E+01    5.499E+01    5.490E+01    5.480E+01
     5.471E+01    5.462E+01    5.453E+01    5.444E+01    5.434E+01    5.425E+01    5.416E+01    5.407E+01    5.397E+01    5.388E+01
     5.379E+01    5.369E+01    5.360E+01    5.351E+01    5.341E+01    5.332E+01    5.323E+01    5.313E+01    5.304E+01    5.295E+01
     5.285E+01    5.276E+01    5.266E+01    5.257E+01    5.247E+01    5.238E+01    5.228E+01    5.219E+01    5.209E+01    5.200E+01
     5.190E+01    5.181E+01    5.171E+01    5.161E+01    5.152E+01    5.142E+01    5.132E+01    5.123E+01    5.113E+01    5.103E+01
     5.094E+01    5.084E+01    5.074E+01    5.064E+01    5.054E+01    5.044E+01    5.035E+01    5.025E+01    5.015E+01    5.005E+01
     4.995E+01    4.985E+01    4.975E+01    4.965E+01    4.955E+01    4.944E+01    4.934E+01    4.924E+01    4.914E+01    4.904E+01
     4.894E+01    4.883E+01    4.873E+01    4.863E+01    4.852E+01    4.842E+01    4.832E+01    4.821E+01    4.811E+01    4.801E+01
     4.790E+01    4.780E+01    4.769E+01    4.759E+01    4.748E+01    4.738E+01    4.727E+01    4.717E+01    4.706E+01    4.695E+01
     4.685E+01    4.674E+01    4.664E+01    4.653E+01    4.642E+01    4.632E+01    4.621E+01    4.610E+01    4.599E+01    4.589E+01
     4.578E+01    4.567E+01    4.556E+01    4.546E+01    4.535E+01    4.524E+01    4.513E+01    4.502E+01    4.492E+01    4.481E+01
     4.470E+01    4.459E+01    4.448E+01    4.437E+01    4.426E+01    4.416E+01    4.405E+01    4.394E+01    4.383E+01    4.372E+01
     4.361E+01    4.350E+01    4.339E+01    4.328E+01    4.317E+01    4.307E+01    4.296E+01    4.285E+01    4.274E+01    4.263E+01
     4.252E+01    4.241E+01    4.231E+01    4.220E+01    4.209E+01    4.198E+01    4.187E+01    4.176E+01    4.166E+01    4.155E+01
     4.144E+01    4.133E+01    4.123E+01    4.112E+01    4.101E+01    4.091E+01    4.080E+01    4.069E+01    4.059E+01    4.048E+01
     4.037E+01    4.027E+01    4.016E+01    4.006E+01    3.995E+01    3.985E+01    3.974E+01    3.964E+01    3.953E+01    3.943E+01
     3.933E+01    3.922E+01    3.912E+01    3.902E+01    3.891E+01    3.881E+01    3.871E+01    3.861E+01    3.850E+01    3.840E+01
     3.830E+01    3.820E+01    3.810E+01    3.800E+01    3.789E+01    3.779E+01    3.769E+01    3.759E+01    3.749E+01    3.739E+01
     3.729E+01    3.719E+01    3.709E+01    3.699E+01    3.690E+01    3.680E+01    3.670E+01    3.660E+01    3.650E+01    3.640E+01
     3.630E+01    3.621E+01    3.611E+01    3.601E+01    3.591E+01    3.582E+01    3.572E+01    3.562E+01    3.553E+01    3.543E+01
     3.533E+01    3.524E+01    3.514E+01    3.505E+01    3.495E+01    3.486E+01    3.476E+01    3.466E+01    3.457E+01    3.448E+01
     3.438E+01    3.429E+01    3.419E+01    3.410E+01    3.400E+01    3.391E+01    3.382E+01    3.372E+01    3.363E+01    3.354E+01
     3.344E+01    3.335E+01    3.326E+01    3.316E+01    3.307E+01    3.298E+01    3.289E+01    3.279E+01    3.270E+01    3.261E+01
     3.252E+01    3.243E+01    3.233E+01    3.224E+01    3.215E+01    3.206E+01    3.197E+01    3.188E+01    3.179E+01    3.170E+01
     3.161E+01    3.152E+01    3.143E+01    3.134E+01    3.125E+01    3.116E+01    3.107E+01    3.098E+01    3.089E+01    3.080E+01
     3.071E+01    3.062E+01    3.053E+01    3.044E+01    3.035E+01    3.026E+01    3.017E+01    3.008E+01    2.999E+01    2.990E+01
     2.982E+01    2.973E+01    2.964E+01    2.955E+01    2.946E+01    2.937E+01    2.928E+01    2.919E+01    2.911E+01    2.902E+01
     2.893E+01    2.884E+01    2.875E+01    2.866E+01    2.858E+01    2.849E+01    2.840E+01    2.831E+01    2.822E+01    2.813E+01
     2.804E+01    2.796E+01    2.787E+01    2.778E+01    2.769E+01    2.760E+01    2.751E+01    2.742E+01    2.734E+01    2.725E+01
     2.716E+01    2.707E+01    2.698E+01    2.689E+01    2.680E+01    2.671E+01    2.662E+01    2.653E+01    2.645E+01    2.636E+01
     2.627E+01    2.618E+01    2.609E+01    2.600E+01    2.591E+01    2.582E+01    2.573E+01    2.564E+01    2.555E+01    2.546E+01
     2.537E+01    2.528E+01    2.519E+01    2.510E+01    2.501E+01    2.492E+01    2.483E+01    2.474E+01    2.465E+01    2.456E+01
     2.447E+01    2.438E+01    2.429E+01    2.420E+01    2.411E+01    2.402E+01    2.393E+01    2.384E+01    2.375E+01    2.366E+01
     2.357E+01    2.348E+01    2.339E+01    2.330E+01    2.321E+01    2.311E+01    2.302E+01    2.293E+01    2.284E+01    2.275E+01
     2.266E+01    2.257E+01    2.248E+01    2.239E+01    2.230E+01    2.220E+01    2.211E+01    2.202E+01    2.193E+01    2.184E+01
     2.175E+01    2.166E+01    2.157E+01    2.147E+01    2.138E+01    2.129E+01    2.120E+01    2.111E+01    2.102E+01    2.093E+01
     2.084E+01    2.074E+01    2.065E+01    2.056E+01    2.047E+01    2.038E+01    2.029E+01    2.020E+01    2.011E+01    2.002E+01
     1.992E+01    1.983E+01    1.974E+01    1.965E+01    1.956E+01    1.947E+01    1.938E+01    1.929E+01
 Ala      Conc. = 2.16E+02
