 LCModel (Version 6.3-1L) Copyright: S.W. Provencher.          Ref.: Magn. Reson. Med. 30:672-679 (1993).                
 Slice#1 Row#11 Col#3  PD_05_press_2_raw_act
 36 lines in following concentration table = NCONC+1
    Conc.  %SD /Cr+PCr  Metabolite                                         
 3.80E+03  35%   0.000 Ala                                                 
    2.426 553%   0.000 Asp                                                 
    0.000 999%   0.000 Cr                                                  
    0.000 999%   0.000 PCr                                                 
    1.439 560%   0.000 GABA                                                
    1.495 540%   0.000 Glc                                                 
 2.45E+03  29%   0.000 Gln                                                 
 1.81E+03  49%   0.000 Glu                                                 
   16.286 160%   0.000 GPC                                                 
    0.000 999%   0.000 PCh                                                 
    0.000 999%   0.000 GSH                                                 
   48.258 628%   0.000 Ins                                                 
 2.70E+03  36%   0.000 Lac                                                 
    0.000 999%   0.000 NAA                                                 
    0.000 999%   0.000 NAAG                                                
    0.939 287%   0.000 Scyllo                                              
    3.194 418%   0.000 Tau                                                 
    0.000 999%   0.000 -CrCH2                                              
   16.286 160%   0.000 GPC+PCh                                             
    0.000 999%   0.000 NAA+NAAG                                            
    0.000 999%   0.000 Cr+PCr                                              
 4.27E+03  33%   0.000 Glu+Gln                                             
    0.000 999%   0.000 Lip13a                                              
  446.282  29%   0.000 Lip13b                                              
  118.929  29%   0.000 Lip09                                               
    0.000 999%   0.000 MM09                                                
   66.942  29%   0.000 Lip20                                               
 2.35E+03  15%   0.000 MM20                                                
    0.000 999%   0.000 MM12                                                
 9.87E+03  14%   0.000 MM14                                                
 1.74E+03  39%   0.000 MM17                                                
  446.282  29%   0.000 Lip13a+Lip13b                                       
 1.03E+04  13%   0.000 MM14+Lip13a+Lip13b+MM12                             
  118.929  29%   0.000 MM09+Lip09                                          
 2.41E+03  14%   0.000 MM20+Lip20                                          
   6 lines in following misc. output table
  FWHM = 0.153 ppm    S/N =  11                                            
  Data shift = 0.092 ppm                                                   
  Ph: 110 deg      85.5 deg/ppm                                            
  alphaB,S = 2.1E-01,   2.0E+02                                            
    8 spline knots.   Ns = 9(2)                                            
   4 inflections.     1 extrema                                            
  498 points on ppm-axis = NY
      4.000000     3.992357     3.984714     3.977070     3.969427     3.961784     3.954141     3.946497     3.938854     3.931211
      3.923568     3.915925     3.908281     3.900638     3.892995     3.885352     3.877708     3.870065     3.862422     3.854779
      3.847136     3.839492     3.831849     3.824206     3.816563     3.808919     3.801276     3.793633     3.785990     3.778347
      3.770703     3.763060     3.755417     3.747774     3.740130     3.732487     3.724844     3.717201     3.709558     3.701914
      3.694271     3.686628     3.678985     3.671341     3.663698     3.656055     3.648412     3.640769     3.633125     3.625482
      3.617839     3.610196     3.602552     3.594909     3.587266     3.579623     3.571980     3.564336     3.556693     3.549050
      3.541407     3.533763     3.526120     3.518477     3.510834     3.503191     3.495547     3.487904     3.480261     3.472618
      3.464974     3.457331     3.449688     3.442045     3.434402     3.426758     3.419115     3.411472     3.403829     3.396185
      3.388542     3.380899     3.373256     3.365613     3.357969     3.350326     3.342683     3.335040     3.327396     3.319753
      3.312110     3.304467     3.296824     3.289180     3.281537     3.273894     3.266251     3.258607     3.250964     3.243321
      3.235678     3.228034     3.220391     3.212748     3.205105     3.197462     3.189818     3.182175     3.174532     3.166889
      3.159245     3.151602     3.143959     3.136316     3.128673     3.121029     3.113386     3.105743     3.098100     3.090456
      3.082813     3.075170     3.067527     3.059884     3.052240     3.044597     3.036954     3.029311     3.021667     3.014024
      3.006381     2.998738     2.991095     2.983451     2.975808     2.968165     2.960522     2.952878     2.945235     2.937592
      2.929949     2.922306     2.914662     2.907019     2.899376     2.891733     2.884089     2.876446     2.868803     2.861160
      2.853517     2.845873     2.838230     2.830587     2.822944     2.815300     2.807657     2.800014     2.792371     2.784728
      2.777084     2.769441     2.761798     2.754155     2.746511     2.738868     2.731225     2.723582     2.715939     2.708295
      2.700652     2.693009     2.685366     2.677722     2.670079     2.662436     2.654793     2.647150     2.639506     2.631863
      2.624220     2.616577     2.608933     2.601290     2.593647     2.586004     2.578361     2.570717     2.563074     2.555431
      2.547788     2.540144     2.532501     2.524858     2.517215     2.509572     2.501928     2.494285     2.486642     2.478999
      2.471355     2.463712     2.456069     2.448426     2.440783     2.433139     2.425496     2.417853     2.410210     2.402566
      2.394923     2.387280     2.379637     2.371994     2.364350     2.356707     2.349064     2.341421     2.333777     2.326134
      2.318491     2.310848     2.303205     2.295561     2.287918     2.280275     2.272632     2.264988     2.257345     2.249702
      2.242059     2.234416     2.226772     2.219129     2.211486     2.203843     2.196199     2.188556     2.180913     2.173270
      2.165627     2.157983     2.150340     2.142697     2.135054     2.127410     2.119767     2.112124     2.104481     2.096838
      2.089194     2.081551     2.073908     2.066265     2.058621     2.050978     2.043335     2.035692     2.028049     2.020405
      2.012762     2.005119     1.997476     1.989833     1.982190     1.974546     1.966903     1.959260     1.951617     1.943974
      1.936331     1.928688     1.921045     1.913402     1.905759     1.898115     1.890472     1.882829     1.875186     1.867543
      1.859900     1.852257     1.844614     1.836971     1.829327     1.821684     1.814041     1.806398     1.798755     1.791112
      1.783469     1.775826     1.768183     1.760540     1.752896     1.745253     1.737610     1.729967     1.722324     1.714681
      1.707038     1.699395     1.691752     1.684108     1.676465     1.668822     1.661179     1.653536     1.645893     1.638250
      1.630607     1.622964     1.615321     1.607677     1.600034     1.592391     1.584748     1.577105     1.569462     1.561819
      1.554176     1.546533     1.538890     1.531246     1.523603     1.515960     1.508317     1.500674     1.493031     1.485388
      1.477745     1.470102     1.462458     1.454815     1.447172     1.439529     1.431886     1.424243     1.416600     1.408957
      1.401314     1.393671     1.386027     1.378384     1.370741     1.363098     1.355455     1.347812     1.340169     1.332526
      1.324883     1.317240     1.309596     1.301953     1.294310     1.286667     1.279024     1.271381     1.263738     1.256095
      1.248452     1.240808     1.233165     1.225522     1.217879     1.210236     1.202593     1.194950     1.187307     1.179664
      1.172021     1.164377     1.156734     1.149091     1.141448     1.133805     1.126162     1.118519     1.110876     1.103233
      1.095590     1.087946     1.080303     1.072660     1.065017     1.057374     1.049731     1.042088     1.034445     1.026802
      1.019158     1.011515     1.003872     0.996229     0.988586     0.980943     0.973300     0.965657     0.958014     0.950371
      0.942727     0.935084     0.927441     0.919798     0.912155     0.904512     0.896869     0.889226     0.881583     0.873940
      0.866296     0.858653     0.851010     0.843367     0.835724     0.828081     0.820438     0.812795     0.805152     0.797508
      0.789865     0.782222     0.774579     0.766936     0.759293     0.751650     0.744007     0.736364     0.728721     0.721077
      0.713434     0.705791     0.698148     0.690505     0.682862     0.675219     0.667576     0.659933     0.652290     0.644646
      0.637003     0.629360     0.621717     0.614074     0.606431     0.598788     0.591145     0.583502     0.575858     0.568215
      0.560572     0.552929     0.545286     0.537643     0.530000     0.522357     0.514714     0.507071     0.499427     0.491784
      0.484141     0.476498     0.468855     0.461212     0.453569     0.445925     0.438282     0.430639     0.422996     0.415353
      0.407710     0.400067     0.392424     0.384780     0.377137     0.369494     0.361851     0.354208     0.346565     0.338922
      0.331278     0.323635     0.315992     0.308349     0.300706     0.293063     0.285420     0.277777     0.270133     0.262490
      0.254847     0.247204     0.239561     0.231918     0.224275     0.216631     0.208988     0.201345
 NY phased data points follow
  -1.41451E+01 -1.73153E+01 -1.30620E+01 -1.82113E+01 -1.73255E+01 -1.73533E+01 -1.71829E+01 -1.73359E+01 -2.11983E+01 -2.09864E+01
  -1.94759E+01 -2.02449E+01 -2.26429E+01 -2.11558E+01 -1.86126E+01 -2.15223E+01 -1.79305E+01 -2.08787E+01 -2.07557E+01 -2.02316E+01
  -1.67608E+01 -1.79936E+01 -1.93222E+01 -2.15309E+01 -2.22070E+01 -2.17190E+01 -1.66180E+01 -1.73250E+01 -2.05828E+01 -2.20986E+01
  -1.99521E+01 -1.84036E+01 -1.94497E+01 -2.01824E+01 -2.10812E+01 -1.62306E+01 -1.97759E+01 -1.82006E+01 -2.07969E+01 -2.03194E+01
  -2.17690E+01 -2.06078E+01 -2.29611E+01 -2.16712E+01 -2.00381E+01 -2.11918E+01 -2.22717E+01 -2.07940E+01 -1.95404E+01 -2.04820E+01
  -2.21313E+01 -2.18007E+01 -2.14298E+01 -1.91390E+01 -2.18753E+01 -2.29187E+01 -2.34894E+01 -1.94319E+01 -2.05633E+01 -2.45375E+01
  -2.61852E+01 -2.08690E+01 -1.97682E+01 -1.91625E+01 -2.32142E+01 -2.05911E+01 -2.22511E+01 -2.47508E+01 -1.87443E+01 -2.31222E+01
  -2.07134E+01 -1.56816E+01 -1.99048E+01 -1.83790E+01 -1.90751E+01 -1.77190E+01 -1.79241E+01 -1.83270E+01 -2.04261E+01 -2.01566E+01
  -2.35376E+01 -2.17357E+01 -1.90736E+01 -2.24302E+01 -1.90934E+01 -1.80227E+01 -2.12541E+01 -2.02207E+01 -1.74755E+01 -1.86178E+01
  -1.84575E+01 -1.70020E+01 -1.68175E+01 -1.79703E+01 -1.82243E+01 -1.71727E+01 -1.88426E+01 -1.95444E+01 -2.06513E+01 -1.95664E+01
  -2.20006E+01 -1.66881E+01 -1.78722E+01 -2.02764E+01 -2.30832E+01 -1.77039E+01 -1.94232E+01 -1.99558E+01 -2.08276E+01 -1.78572E+01
  -2.02581E+01 -1.96373E+01 -1.81179E+01 -1.73766E+01 -1.10199E+01 -1.48581E+01 -1.14398E+01 -1.27037E+01 -1.45149E+01 -1.66322E+01
  -1.39388E+01 -1.90471E+01 -2.21701E+01 -1.65328E+01 -1.94470E+01 -1.79346E+01 -1.63997E+01 -1.77423E+01 -1.44951E+01 -1.92891E+01
  -1.58255E+01 -1.60677E+01 -1.54213E+01 -1.40722E+01 -1.34935E+01 -1.60940E+01 -1.45631E+01 -9.99793E+00 -1.41640E+01 -1.24570E+01
  -1.45974E+01 -9.14718E+00 -1.70460E+01 -1.47447E+01 -1.51282E+01 -1.29724E+01 -1.40997E+01 -1.24223E+01 -1.13246E+01 -1.45250E+01
  -1.23319E+01 -1.57473E+01 -1.31851E+01 -1.62241E+01 -1.64995E+01 -1.33821E+01 -1.47972E+01 -1.36848E+01 -1.31530E+01 -1.42604E+01
  -1.30966E+01 -1.19918E+01 -1.21894E+01 -1.13651E+01 -1.11625E+01 -9.65410E+00 -1.50919E+01 -1.26615E+01 -7.88086E+00 -1.11323E+01
  -9.14998E+00 -1.25045E+01 -7.53561E+00 -1.24804E+01 -1.15230E+01 -9.74320E+00 -1.26169E+01 -6.30757E+00 -1.19608E+01 -1.21723E+01
  -1.15365E+01 -9.39972E+00 -1.12321E+01 -9.84079E+00 -1.01721E+01 -7.48621E+00 -8.72527E+00 -1.19556E+01 -8.19972E+00 -9.42457E+00
  -1.07669E+01 -1.02572E+01 -8.89217E+00 -8.28202E+00 -9.36052E+00 -7.35941E+00 -8.04235E+00 -6.70845E+00 -8.06822E+00 -3.02220E+00
  -5.15128E+00 -6.13342E+00 -6.62361E+00 -8.01387E+00 -4.40951E+00 -2.56561E+00 -7.54245E+00 -6.15637E+00 -6.00745E+00 -5.63673E+00
  -7.55742E+00 -3.67926E+00 -4.78924E+00 -3.39445E+00 -6.71724E+00 -3.18220E+00 -3.50551E+00 -1.31258E+00 -3.88646E+00 -1.89396E+00
  -2.16865E+00 -2.50809E+00 -2.74462E+00 -2.88278E+00 -5.24211E+00 -3.28121E+00 -5.77531E+00 -2.38610E+00 -4.72322E+00 -3.20014E+00
  -3.38609E+00 -7.83084E-01  2.70866E-01 -1.17333E+00  2.65659E+00 -3.61394E+00 -1.09301E+00 -6.66657E+00 -2.47863E+00 -3.09645E+00
  -4.04117E+00 -2.63136E+00 -3.70357E-01 -1.02992E+00 -1.26569E+00  5.89332E-01  8.24843E-01 -2.66747E+00 -1.78769E+00 -6.60458E+00
  -7.12326E+00 -1.02166E+01 -9.30431E+00 -1.23809E+01 -9.84074E+00 -8.06637E+00 -6.37661E+00 -5.31664E+00 -6.22582E+00 -4.76843E+00
  -9.83952E+00 -5.47599E+00 -3.70059E+00 -2.75762E+00 -4.62007E+00 -2.42814E+00 -4.90678E+00 -3.15738E+00 -2.53153E+00 -4.17425E+00
  -5.85911E+00 -5.18499E+00 -6.72596E+00 -9.32693E+00 -3.03935E+00 -5.93026E+00 -3.95258E+00 -3.69716E+00 -2.00406E+00 -9.33669E+00
  -6.56812E+00 -8.09331E+00 -5.38259E+00 -2.51160E+00 -4.75789E+00 -1.11705E+00 -3.08288E+00 -6.26355E-01 -6.96175E-01 -1.54402E+00
  -1.09025E+00 -1.53582E+00 -1.16394E+00 -3.41300E+00  4.76200E-01  2.60680E-01  1.05454E+00  9.01213E-01 -1.34504E-01 -3.38853E-01
   1.60174E+00  4.35104E+00  4.43844E+00  1.10781E+01  6.91331E+00  8.51834E+00  1.02303E+01  1.09843E+01  1.29855E+01  1.28188E+01
   1.42742E+01  1.74996E+01  1.91702E+01  2.09495E+01  2.30736E+01  2.22404E+01  2.52238E+01  2.86892E+01  3.10054E+01  3.06507E+01
   3.42998E+01  3.49116E+01  3.48533E+01  3.40063E+01  3.40841E+01  3.58581E+01  3.30090E+01  3.49006E+01  3.15140E+01  3.34133E+01
   3.12830E+01  2.72540E+01  2.69780E+01  2.55187E+01  2.18747E+01  1.87658E+01  1.50274E+01  1.30375E+01  1.42247E+01  1.00734E+01
   9.86627E+00  3.92486E+00  4.31968E+00  9.23391E-01 -8.61674E-01 -7.76685E+00 -4.12968E+00 -8.45286E+00 -9.13469E+00 -1.10418E+01
  -1.24345E+01 -9.59615E+00 -9.43529E+00 -1.28040E+01 -1.60802E+01 -1.52764E+01 -1.30085E+01 -1.51902E+01 -1.05125E+01 -1.55528E+01
  -1.73955E+01 -1.45009E+01 -1.36642E+01 -1.66219E+01 -1.62790E+01 -1.52278E+01 -1.65283E+01 -1.51241E+01 -1.08598E+01 -1.58551E+01
  -1.56675E+01 -1.15403E+01 -1.55787E+01 -1.24522E+01 -1.18914E+01 -1.10028E+01 -1.32621E+01 -1.22596E+01 -9.39408E+00 -1.08786E+01
  -1.35984E+01 -9.63868E+00 -1.00635E+01 -9.53266E+00 -8.49690E+00 -7.26607E+00 -8.59401E+00 -9.30761E+00 -5.37339E+00 -1.17460E+01
  -6.07100E+00 -3.82159E+00 -2.80441E+00 -4.00517E+00 -4.91541E+00 -2.96894E+00 -2.53950E+00 -6.48568E-01 -2.91407E+00 -7.53074E-01
  -8.67496E-01 -9.21248E-01  3.33863E-01 -1.17394E+00  3.01410E+00  5.98229E+00  3.01843E+00  6.65798E+00  4.44070E+00  4.96677E+00
   6.80223E+00  6.07010E+00  6.08592E+00  7.38423E+00  8.55277E+00  7.70380E+00  1.13591E+01  1.23978E+01  1.12768E+01  1.24119E+01
   1.12631E+01  8.20349E+00  1.19045E+01  1.05599E+01  1.10314E+01  1.16271E+01  1.12002E+01  1.39699E+01  1.55472E+01  1.52609E+01
   1.10068E+01  1.34064E+01  1.14543E+01  1.40670E+01  1.33166E+01  1.46511E+01  1.48606E+01  1.31162E+01  1.30486E+01  1.65198E+01
   1.63247E+01  1.46879E+01  1.72306E+01  1.36684E+01  1.47041E+01  1.27741E+01  1.47957E+01  1.63059E+01  1.65409E+01  1.43244E+01
   1.42501E+01  1.57747E+01  1.64297E+01  1.27873E+01  1.25469E+01  1.72856E+01  1.54721E+01  1.41103E+01  1.47170E+01  1.51799E+01
   1.42577E+01  1.31297E+01  1.40486E+01  9.31668E+00  9.60810E+00  1.26818E+01  1.33751E+01  1.16541E+01  1.16684E+01  1.15194E+01
   8.76416E+00  1.10187E+01  8.58576E+00  1.12041E+01  1.12353E+01  8.18083E+00  8.71027E+00  7.00914E+00  9.49434E+00  1.04815E+01
   9.17180E+00  9.47666E+00  1.07635E+01  1.03376E+01  8.85621E+00  3.85871E+00  8.37127E+00  5.07315E+00  5.43281E+00  8.06830E+00
   3.42805E+00  7.02947E+00  5.68879E+00  2.04116E+00  5.19128E+00  5.06454E+00  7.83729E+00  3.14928E+00
 NY points of the fit to the data follow
  -1.87219E+01 -1.79419E+01 -1.86546E+01 -1.79149E+01 -1.84136E+01 -1.77542E+01 -1.82189E+01 -1.77424E+01 -1.84336E+01 -1.81077E+01
  -1.88561E+01 -1.84229E+01 -1.90881E+01 -1.83117E+01 -1.89023E+01 -1.78976E+01 -1.87065E+01 -1.77593E+01 -1.89800E+01 -1.80707E+01
  -1.95738E+01 -1.84300E+01 -2.00206E+01 -1.86248E+01 -2.01363E+01 -1.86207E+01 -2.01537E+01 -1.87427E+01 -2.03581E+01 -1.91093E+01
  -2.06701E+01 -1.95124E+01 -2.08289E+01 -1.97182E+01 -2.06740E+01 -1.97204E+01 -2.04541E+01 -1.98510E+01 -2.05092E+01 -2.02544E+01
  -2.08662E+01 -2.07664E+01 -2.12217E+01 -2.11438E+01 -2.12699E+01 -2.11872E+01 -2.11308E+01 -2.11978E+01 -2.13172E+01 -2.15328E+01
  -2.17080E+01 -2.19145E+01 -2.19779E+01 -2.20051E+01 -2.18487E+01 -2.17409E+01 -2.16112E+01 -2.16111E+01 -2.15562E+01 -2.16045E+01
  -2.15736E+01 -2.15652E+01 -2.15527E+01 -2.15164E+01 -2.14785E+01 -2.14265E+01 -2.13780E+01 -2.13169E+01 -2.12608E+01 -2.11957E+01
  -2.11366E+01 -2.10707E+01 -2.10088E+01 -2.09415E+01 -2.08757E+01 -2.08066E+01 -2.07362E+01 -2.06647E+01 -2.05881E+01 -2.05137E+01
  -2.04286E+01 -2.03474E+01 -2.02514E+01 -2.01582E+01 -2.00413E+01 -1.99401E+01 -1.98279E+01 -1.97197E+01 -1.96118E+01 -1.94941E+01
  -1.93892E+01 -1.92583E+01 -1.91544E+01 -1.90088E+01 -1.89108E+01 -1.87535E+01 -1.86751E+01 -1.85093E+01 -1.84571E+01 -1.82845E+01
  -1.82559E+01 -1.80754E+01 -1.80608E+01 -1.78735E+01 -1.78704E+01 -1.76798E+01 -1.76878E+01 -1.74975E+01 -1.75079E+01 -1.73217E+01
  -1.73239E+01 -1.71409E+01 -1.71190E+01 -1.69403E+01 -1.68905E+01 -1.67195E+01 -1.66477E+01 -1.64891E+01 -1.64040E+01 -1.62626E+01
  -1.61741E+01 -1.60486E+01 -1.59496E+01 -1.58369E+01 -1.57292E+01 -1.56342E+01 -1.55484E+01 -1.54717E+01 -1.54019E+01 -1.53391E+01
  -1.52811E+01 -1.52283E+01 -1.51782E+01 -1.51312E+01 -1.50847E+01 -1.50392E+01 -1.49923E+01 -1.49441E+01 -1.48929E+01 -1.48386E+01
  -1.47798E+01 -1.47167E+01 -1.46481E+01 -1.45741E+01 -1.44942E+01 -1.44082E+01 -1.43168E+01 -1.42190E+01 -1.41164E+01 -1.40075E+01
  -1.38947E+01 -1.37760E+01 -1.36546E+01 -1.35277E+01 -1.33988E+01 -1.32650E+01 -1.31307E+01 -1.29917E+01 -1.28538E+01 -1.27115E+01
  -1.25716E+01 -1.24273E+01 -1.22858E+01 -1.21404E+01 -1.19976E+01 -1.18518E+01 -1.17082E+01 -1.15634E+01 -1.14215E+01 -1.12780E+01
  -1.11389E+01 -1.10010E+01 -1.08653E+01 -1.07348E+01 -1.06065E+01 -1.04965E+01 -1.04002E+01 -1.02958E+01 -1.02479E+01 -1.01285E+01
  -1.00844E+01 -9.92940E+00 -9.86034E+00 -9.61535E+00 -9.51685E+00 -9.24122E+00 -9.18842E+00 -8.85520E+00 -8.90583E+00 -8.57900E+00
  -8.74550E+00 -8.44506E+00 -8.75795E+00 -8.19190E+00 -8.46888E+00 -7.70402E+00 -8.00780E+00 -7.08880E+00 -7.45985E+00 -6.57305E+00
  -7.16074E+00 -6.27566E+00 -7.03094E+00 -6.07520E+00 -6.91661E+00 -5.83692E+00 -6.58085E+00 -5.40357E+00 -6.11075E+00 -5.00263E+00
  -5.74334E+00 -4.71298E+00 -5.42781E+00 -4.44895E+00 -5.02270E+00 -4.07558E+00 -4.48190E+00 -3.64541E+00 -4.00953E+00 -3.29400E+00
  -3.65854E+00 -3.04328E+00 -3.44329E+00 -2.85474E+00 -3.31762E+00 -2.81849E+00 -3.21300E+00 -2.69359E+00 -3.02383E+00 -2.63412E+00
  -2.97425E+00 -2.72330E+00 -3.13237E+00 -2.85024E+00 -3.11329E+00 -2.95609E+00 -3.01634E+00 -3.01329E+00 -2.83763E+00 -3.05191E+00
  -2.73396E+00 -3.15642E+00 -2.73193E+00 -3.38971E+00 -2.88715E+00 -3.75401E+00 -3.09317E+00 -4.05515E+00 -3.37615E+00 -4.34596E+00
  -3.67620E+00 -4.57068E+00 -3.97065E+00 -4.75422E+00 -4.26177E+00 -4.99485E+00 -4.67291E+00 -5.39615E+00 -5.28206E+00 -5.84997E+00
  -5.77352E+00 -6.13825E+00 -6.12553E+00 -6.33064E+00 -6.41802E+00 -6.59817E+00 -6.68489E+00 -6.77584E+00 -6.87904E+00 -6.87790E+00
  -6.95086E+00 -6.86018E+00 -6.87925E+00 -6.66788E+00 -6.59308E+00 -6.28124E+00 -6.11210E+00 -5.74579E+00 -5.53143E+00 -5.14838E+00
  -4.88909E+00 -4.49622E+00 -4.15521E+00 -3.73601E+00 -3.33650E+00 -2.91894E+00 -2.48412E+00 -2.08365E+00 -1.65521E+00 -1.26366E+00
  -8.54573E-01 -4.85913E-01 -1.02706E-01  2.51270E-01  6.23775E-01  9.91864E-01  1.39014E+00  1.80271E+00  2.26075E+00  2.76171E+00
   3.33014E+00  3.97466E+00  4.71524E+00  5.56818E+00  6.55619E+00  7.69695E+00  9.01992E+00  1.05564E+01  1.23655E+01  1.43507E+01
   1.57666E+01  1.77259E+01  1.89902E+01  2.10205E+01  2.21812E+01  2.42732E+01  2.53730E+01  2.81959E+01  2.93001E+01  3.20208E+01
   3.24704E+01  3.45758E+01  3.42122E+01  3.55180E+01  3.45270E+01  3.52078E+01  3.39868E+01  3.42777E+01  3.30076E+01  3.27073E+01
   3.08241E+01  2.91035E+01  2.69997E+01  2.40318E+01  2.20519E+01  1.83590E+01  1.71282E+01  1.37706E+01  1.32303E+01  9.67403E+00
   9.16625E+00  5.09909E+00  4.38668E+00 -1.80056E-01 -1.01474E+00 -5.31536E+00 -5.50140E+00 -8.54137E+00 -8.09618E+00 -1.00363E+01
  -9.86664E+00 -1.16010E+01 -1.13940E+01 -1.32118E+01 -1.31731E+01 -1.47231E+01 -1.45787E+01 -1.51565E+01 -1.46706E+01 -1.51566E+01
  -1.47541E+01 -1.52670E+01 -1.49289E+01 -1.55178E+01 -1.51729E+01 -1.56533E+01 -1.50124E+01 -1.49937E+01 -1.41625E+01 -1.37489E+01
  -1.32606E+01 -1.30876E+01 -1.27254E+01 -1.28030E+01 -1.25139E+01 -1.25296E+01 -1.21146E+01 -1.15456E+01 -1.09353E+01 -1.03121E+01
  -9.68640E+00 -9.06319E+00 -8.44490E+00 -7.83278E+00 -7.22755E+00 -6.62960E+00 -6.03919E+00 -5.45638E+00 -4.88119E+00 -4.31362E+00
  -3.75371E+00 -3.20155E+00 -2.65728E+00 -2.12103E+00 -1.59297E+00 -1.07335E+00 -5.62473E-01 -6.07070E-02  4.31563E-01  9.13972E-01
   1.38618E+00  1.84784E+00  2.29860E+00  2.73817E+00  3.16632E+00  3.58293E+00  3.98794E+00  4.38138E+00  4.76338E+00  5.13415E+00
   5.49403E+00  5.84345E+00  6.18289E+00  6.51285E+00  6.83388E+00  7.14654E+00  7.45139E+00  7.74895E+00  8.03969E+00  8.32400E+00
   8.60221E+00  8.87458E+00  9.14130E+00  9.40248E+00  9.65814E+00  9.90823E+00  1.01527E+01  1.03913E+01  1.06240E+01  1.08505E+01
   1.10706E+01  1.12841E+01  1.14906E+01  1.16901E+01  1.18822E+01  1.20668E+01  1.22435E+01  1.24122E+01  1.25728E+01  1.27249E+01
   1.28685E+01  1.30033E+01  1.31292E+01  1.32461E+01  1.33539E+01  1.34523E+01  1.35413E+01  1.36207E+01  1.36904E+01  1.37504E+01
   1.38004E+01  1.38403E+01  1.38702E+01  1.38898E+01  1.38990E+01  1.38977E+01  1.38858E+01  1.38633E+01  1.38300E+01  1.37858E+01
   1.37305E+01  1.36642E+01  1.35866E+01  1.34977E+01  1.33974E+01  1.32855E+01  1.31620E+01  1.30267E+01  1.28796E+01  1.27205E+01
   1.25493E+01  1.23659E+01  1.21703E+01  1.19623E+01  1.17418E+01  1.15086E+01  1.12628E+01  1.10042E+01  1.07326E+01  1.04480E+01
   1.01504E+01  9.83945E+00  9.51523E+00  9.17760E+00  8.82647E+00  8.46175E+00  8.08334E+00  7.69116E+00  7.28513E+00  6.86518E+00
   6.43125E+00  5.98327E+00  5.52121E+00  5.04503E+00  4.55472E+00  4.05030E+00  3.53181E+00  2.99937E+00
 NY background values follow
    -2.374E+01   -2.381E+01   -2.387E+01   -2.393E+01   -2.399E+01   -2.405E+01   -2.411E+01   -2.416E+01   -2.422E+01   -2.427E+01
    -2.433E+01   -2.438E+01   -2.443E+01   -2.448E+01   -2.453E+01   -2.458E+01   -2.462E+01   -2.467E+01   -2.471E+01   -2.475E+01
    -2.480E+01   -2.484E+01   -2.488E+01   -2.492E+01   -2.495E+01   -2.499E+01   -2.503E+01   -2.506E+01   -2.509E+01   -2.513E+01
    -2.516E+01   -2.519E+01   -2.521E+01   -2.524E+01   -2.527E+01   -2.529E+01   -2.532E+01   -2.534E+01   -2.536E+01   -2.538E+01
    -2.540E+01   -2.542E+01   -2.544E+01   -2.545E+01   -2.547E+01   -2.548E+01   -2.549E+01   -2.550E+01   -2.551E+01   -2.552E+01
    -2.553E+01   -2.553E+01   -2.554E+01   -2.554E+01   -2.554E+01   -2.555E+01   -2.555E+01   -2.554E+01   -2.554E+01   -2.554E+01
    -2.553E+01   -2.552E+01   -2.552E+01   -2.551E+01   -2.550E+01   -2.548E+01   -2.547E+01   -2.545E+01   -2.544E+01   -2.542E+01
    -2.540E+01   -2.538E+01   -2.536E+01   -2.534E+01   -2.531E+01   -2.528E+01   -2.526E+01   -2.523E+01   -2.520E+01   -2.516E+01
    -2.513E+01   -2.509E+01   -2.506E+01   -2.502E+01   -2.498E+01   -2.494E+01   -2.490E+01   -2.485E+01   -2.480E+01   -2.476E+01
    -2.471E+01   -2.466E+01   -2.460E+01   -2.455E+01   -2.449E+01   -2.443E+01   -2.437E+01   -2.431E+01   -2.425E+01   -2.419E+01
    -2.412E+01   -2.405E+01   -2.398E+01   -2.391E+01   -2.384E+01   -2.376E+01   -2.368E+01   -2.361E+01   -2.353E+01   -2.344E+01
    -2.336E+01   -2.328E+01   -2.319E+01   -2.311E+01   -2.302E+01   -2.293E+01   -2.284E+01   -2.275E+01   -2.265E+01   -2.256E+01
    -2.246E+01   -2.237E+01   -2.227E+01   -2.217E+01   -2.207E+01   -2.197E+01   -2.187E+01   -2.177E+01   -2.167E+01   -2.157E+01
    -2.147E+01   -2.136E+01   -2.126E+01   -2.116E+01   -2.105E+01   -2.095E+01   -2.084E+01   -2.073E+01   -2.063E+01   -2.052E+01
    -2.042E+01   -2.031E+01   -2.021E+01   -2.010E+01   -2.000E+01   -1.989E+01   -1.978E+01   -1.968E+01   -1.958E+01   -1.947E+01
    -1.937E+01   -1.927E+01   -1.916E+01   -1.906E+01   -1.896E+01   -1.886E+01   -1.876E+01   -1.867E+01   -1.857E+01   -1.847E+01
    -1.838E+01   -1.828E+01   -1.819E+01   -1.810E+01   -1.801E+01   -1.792E+01   -1.784E+01   -1.775E+01   -1.767E+01   -1.759E+01
    -1.751E+01   -1.743E+01   -1.735E+01   -1.728E+01   -1.721E+01   -1.714E+01   -1.707E+01   -1.701E+01   -1.695E+01   -1.689E+01
    -1.683E+01   -1.677E+01   -1.672E+01   -1.667E+01   -1.662E+01   -1.658E+01   -1.654E+01   -1.650E+01   -1.647E+01   -1.644E+01
    -1.641E+01   -1.639E+01   -1.636E+01   -1.635E+01   -1.633E+01   -1.632E+01   -1.632E+01   -1.632E+01   -1.632E+01   -1.632E+01
    -1.633E+01   -1.635E+01   -1.637E+01   -1.639E+01   -1.641E+01   -1.644E+01   -1.648E+01   -1.651E+01   -1.655E+01   -1.660E+01
    -1.664E+01   -1.669E+01   -1.675E+01   -1.681E+01   -1.687E+01   -1.693E+01   -1.699E+01   -1.706E+01   -1.714E+01   -1.721E+01
    -1.729E+01   -1.737E+01   -1.745E+01   -1.753E+01   -1.762E+01   -1.771E+01   -1.780E+01   -1.789E+01   -1.798E+01   -1.808E+01
    -1.818E+01   -1.828E+01   -1.838E+01   -1.848E+01   -1.858E+01   -1.869E+01   -1.879E+01   -1.890E+01   -1.901E+01   -1.911E+01
    -1.922E+01   -1.933E+01   -1.944E+01   -1.955E+01   -1.966E+01   -1.977E+01   -1.988E+01   -1.999E+01   -2.010E+01   -2.021E+01
    -2.032E+01   -2.042E+01   -2.053E+01   -2.064E+01   -2.074E+01   -2.085E+01   -2.095E+01   -2.105E+01   -2.115E+01   -2.125E+01
    -2.135E+01   -2.144E+01   -2.153E+01   -2.162E+01   -2.171E+01   -2.180E+01   -2.188E+01   -2.196E+01   -2.204E+01   -2.212E+01
    -2.219E+01   -2.226E+01   -2.232E+01   -2.238E+01   -2.244E+01   -2.249E+01   -2.254E+01   -2.259E+01   -2.263E+01   -2.267E+01
    -2.270E+01   -2.273E+01   -2.276E+01   -2.277E+01   -2.279E+01   -2.280E+01   -2.280E+01   -2.280E+01   -2.279E+01   -2.277E+01
    -2.275E+01   -2.273E+01   -2.269E+01   -2.265E+01   -2.261E+01   -2.256E+01   -2.250E+01   -2.243E+01   -2.235E+01   -2.227E+01
    -2.218E+01   -2.209E+01   -2.198E+01   -2.187E+01   -2.175E+01   -2.163E+01   -2.150E+01   -2.136E+01   -2.121E+01   -2.106E+01
    -2.090E+01   -2.073E+01   -2.056E+01   -2.038E+01   -2.020E+01   -2.001E+01   -1.981E+01   -1.960E+01   -1.939E+01   -1.918E+01
    -1.896E+01   -1.873E+01   -1.850E+01   -1.826E+01   -1.801E+01   -1.777E+01   -1.751E+01   -1.725E+01   -1.699E+01   -1.672E+01
    -1.644E+01   -1.616E+01   -1.588E+01   -1.559E+01   -1.529E+01   -1.500E+01   -1.469E+01   -1.439E+01   -1.408E+01   -1.376E+01
    -1.345E+01   -1.312E+01   -1.280E+01   -1.247E+01   -1.214E+01   -1.180E+01   -1.146E+01   -1.112E+01   -1.077E+01   -1.042E+01
    -1.007E+01   -9.719E+00   -9.363E+00   -9.004E+00   -8.643E+00   -8.280E+00   -7.915E+00   -7.548E+00   -7.178E+00   -6.808E+00
    -6.435E+00   -6.061E+00   -5.686E+00   -5.309E+00   -4.932E+00   -4.553E+00   -4.174E+00   -3.794E+00   -3.413E+00   -3.032E+00
    -2.650E+00   -2.268E+00   -1.886E+00   -1.504E+00   -1.123E+00   -7.413E-01   -3.603E-01    2.006E-02    3.997E-01    7.786E-01
     1.156E+00    1.533E+00    1.909E+00    2.283E+00    2.655E+00    3.026E+00    3.395E+00    3.762E+00    4.128E+00    4.490E+00
     4.851E+00    5.209E+00    5.564E+00    5.917E+00    6.266E+00    6.613E+00    6.956E+00    7.296E+00    7.632E+00    7.965E+00
     8.293E+00    8.618E+00    8.939E+00    9.256E+00    9.569E+00    9.878E+00    1.018E+01    1.048E+01    1.078E+01    1.107E+01
     1.135E+01    1.163E+01    1.191E+01    1.218E+01    1.244E+01    1.270E+01    1.296E+01    1.321E+01    1.345E+01    1.369E+01
     1.392E+01    1.415E+01    1.437E+01    1.458E+01    1.479E+01    1.499E+01    1.518E+01    1.537E+01    1.555E+01    1.572E+01
     1.589E+01    1.605E+01    1.620E+01    1.635E+01    1.648E+01    1.661E+01    1.674E+01    1.685E+01    1.696E+01    1.706E+01
     1.715E+01    1.723E+01    1.730E+01    1.737E+01    1.742E+01    1.747E+01    1.751E+01    1.754E+01    1.756E+01    1.758E+01
     1.758E+01    1.757E+01    1.756E+01    1.753E+01    1.750E+01    1.745E+01    1.740E+01    1.733E+01    1.725E+01    1.717E+01
     1.707E+01    1.696E+01    1.685E+01    1.672E+01    1.658E+01    1.643E+01    1.627E+01    1.609E+01    1.591E+01    1.571E+01
     1.550E+01    1.528E+01    1.505E+01    1.481E+01    1.455E+01    1.428E+01    1.400E+01    1.371E+01    1.341E+01    1.309E+01
     1.276E+01    1.241E+01    1.205E+01    1.168E+01    1.130E+01    1.090E+01    1.049E+01    1.006E+01    9.624E+00    9.171E+00
     8.703E+00    8.222E+00    7.726E+00    7.215E+00    6.690E+00    6.150E+00    5.595E+00    5.025E+00
 Ala      Conc. = 3.80E+03
