 LCModel (Version 6.3-1L) Copyright: S.W. Provencher.          Ref.: Magn. Reson. Med. 30:672-679 (1993).                
 Slice#3 Row#4 Col#1  PD_05_press_2_raw_act
 36 lines in following concentration table = NCONC+1
    Conc.  %SD /Cr+PCr  Metabolite                                         
    0.000 999%   0.000 Ala                                                 
   43.072 114%   0.155 Asp                                                 
    0.000 999%   0.000 Cr                                                  
  277.003  19%   1.000 PCr                                                 
   27.323 107% 9.9E-02 GABA                                                
   21.082 140% 7.6E-02 Glc                                                 
    0.000 999%   0.000 Gln                                                 
  599.946  29%   2.166 Glu                                                 
   22.268 289% 8.0E-02 GPC                                                 
   60.741 108%   0.219 PCh                                                 
   57.294  94%   0.207 GSH                                                 
    0.000 999%   0.000 Ins                                                 
  179.551  44%   0.648 Lac                                                 
  263.203  20%   0.950 NAA                                                 
    0.000 999%   0.000 NAAG                                                
    8.575 108% 3.1E-02 Scyllo                                              
   47.486 102%   0.171 Tau                                                 
   65.459  94%   0.236 -CrCH2                                              
   83.010  22%   0.300 GPC+PCh                                             
  263.203  20%   0.950 NAA+NAAG                                            
  277.003  19%   1.000 Cr+PCr                                              
  599.946  29%   2.166 Glu+Gln                                             
    0.000 999%   0.000 Lip13a                                              
    0.000 999%   0.000 Lip13b                                              
 5.44E-03 999% 2.0E-05 Lip09                                               
  801.709  23%   2.894 MM09                                                
    0.000 999%   0.000 Lip20                                               
    0.000 999%   0.000 MM20                                                
    0.000 999%   0.000 MM12                                                
 1.34E+03  28%   4.838 MM14                                                
 2.42E+03  12%   8.735+MM17                                                
    0.000 999%   0.000 Lip13a+Lip13b                                       
 1.34E+03  28%   4.838 MM14+Lip13a+Lip13b+MM12                             
  801.715  23%   2.894 MM09+Lip09                                          
    0.000 999%   0.000 MM20+Lip20                                          
   6 lines in following misc. output table
  FWHM = 0.038 ppm    S/N =   2                                            
  Data shift = 0.031 ppm                                                   
  Ph:  86 deg      -0.2 deg/ppm                                            
  alphaB,S = 5.1E-01,   6.1E+00                                            
   14 spline knots.   Ns = 5(1)                                            
   1 inflections.     2 extrema                                            
  498 points on ppm-axis = NY
      4.000000     3.992357     3.984714     3.977070     3.969427     3.961784     3.954141     3.946497     3.938854     3.931211
      3.923568     3.915925     3.908281     3.900638     3.892995     3.885352     3.877708     3.870065     3.862422     3.854779
      3.847136     3.839492     3.831849     3.824206     3.816563     3.808919     3.801276     3.793633     3.785990     3.778347
      3.770703     3.763060     3.755417     3.747774     3.740130     3.732487     3.724844     3.717201     3.709558     3.701914
      3.694271     3.686628     3.678985     3.671341     3.663698     3.656055     3.648412     3.640769     3.633125     3.625482
      3.617839     3.610196     3.602552     3.594909     3.587266     3.579623     3.571980     3.564336     3.556693     3.549050
      3.541407     3.533763     3.526120     3.518477     3.510834     3.503191     3.495547     3.487904     3.480261     3.472618
      3.464974     3.457331     3.449688     3.442045     3.434402     3.426758     3.419115     3.411472     3.403829     3.396185
      3.388542     3.380899     3.373256     3.365613     3.357969     3.350326     3.342683     3.335040     3.327396     3.319753
      3.312110     3.304467     3.296824     3.289180     3.281537     3.273894     3.266251     3.258607     3.250964     3.243321
      3.235678     3.228034     3.220391     3.212748     3.205105     3.197462     3.189818     3.182175     3.174532     3.166889
      3.159245     3.151602     3.143959     3.136316     3.128673     3.121029     3.113386     3.105743     3.098100     3.090456
      3.082813     3.075170     3.067527     3.059884     3.052240     3.044597     3.036954     3.029311     3.021667     3.014024
      3.006381     2.998738     2.991095     2.983451     2.975808     2.968165     2.960522     2.952878     2.945235     2.937592
      2.929949     2.922306     2.914662     2.907019     2.899376     2.891733     2.884089     2.876446     2.868803     2.861160
      2.853517     2.845873     2.838230     2.830587     2.822944     2.815300     2.807657     2.800014     2.792371     2.784728
      2.777084     2.769441     2.761798     2.754155     2.746511     2.738868     2.731225     2.723582     2.715939     2.708295
      2.700652     2.693009     2.685366     2.677722     2.670079     2.662436     2.654793     2.647150     2.639506     2.631863
      2.624220     2.616577     2.608933     2.601290     2.593647     2.586004     2.578361     2.570717     2.563074     2.555431
      2.547788     2.540144     2.532501     2.524858     2.517215     2.509572     2.501928     2.494285     2.486642     2.478999
      2.471355     2.463712     2.456069     2.448426     2.440783     2.433139     2.425496     2.417853     2.410210     2.402566
      2.394923     2.387280     2.379637     2.371994     2.364350     2.356707     2.349064     2.341421     2.333777     2.326134
      2.318491     2.310848     2.303205     2.295561     2.287918     2.280275     2.272632     2.264988     2.257345     2.249702
      2.242059     2.234416     2.226772     2.219129     2.211486     2.203843     2.196199     2.188556     2.180913     2.173270
      2.165627     2.157983     2.150340     2.142697     2.135054     2.127410     2.119767     2.112124     2.104481     2.096838
      2.089194     2.081551     2.073908     2.066265     2.058621     2.050978     2.043335     2.035692     2.028049     2.020405
      2.012762     2.005119     1.997476     1.989833     1.982190     1.974546     1.966903     1.959260     1.951617     1.943974
      1.936331     1.928688     1.921045     1.913402     1.905759     1.898115     1.890472     1.882829     1.875186     1.867543
      1.859900     1.852257     1.844614     1.836971     1.829327     1.821684     1.814041     1.806398     1.798755     1.791112
      1.783469     1.775826     1.768183     1.760540     1.752896     1.745253     1.737610     1.729967     1.722324     1.714681
      1.707038     1.699395     1.691752     1.684108     1.676465     1.668822     1.661179     1.653536     1.645893     1.638250
      1.630607     1.622964     1.615321     1.607677     1.600034     1.592391     1.584748     1.577105     1.569462     1.561819
      1.554176     1.546533     1.538890     1.531246     1.523603     1.515960     1.508317     1.500674     1.493031     1.485388
      1.477745     1.470102     1.462458     1.454815     1.447172     1.439529     1.431886     1.424243     1.416600     1.408957
      1.401314     1.393671     1.386027     1.378384     1.370741     1.363098     1.355455     1.347812     1.340169     1.332526
      1.324883     1.317240     1.309596     1.301953     1.294310     1.286667     1.279024     1.271381     1.263738     1.256095
      1.248452     1.240808     1.233165     1.225522     1.217879     1.210236     1.202593     1.194950     1.187307     1.179664
      1.172021     1.164377     1.156734     1.149091     1.141448     1.133805     1.126162     1.118519     1.110876     1.103233
      1.095590     1.087946     1.080303     1.072660     1.065017     1.057374     1.049731     1.042088     1.034445     1.026802
      1.019158     1.011515     1.003872     0.996229     0.988586     0.980943     0.973300     0.965657     0.958014     0.950371
      0.942727     0.935084     0.927441     0.919798     0.912155     0.904512     0.896869     0.889226     0.881583     0.873940
      0.866296     0.858653     0.851010     0.843367     0.835724     0.828081     0.820438     0.812795     0.805152     0.797508
      0.789865     0.782222     0.774579     0.766936     0.759293     0.751650     0.744007     0.736364     0.728721     0.721077
      0.713434     0.705791     0.698148     0.690505     0.682862     0.675219     0.667576     0.659933     0.652290     0.644646
      0.637003     0.629360     0.621717     0.614074     0.606431     0.598788     0.591145     0.583502     0.575858     0.568215
      0.560572     0.552929     0.545286     0.537643     0.530000     0.522357     0.514714     0.507071     0.499427     0.491784
      0.484141     0.476498     0.468855     0.461212     0.453569     0.445925     0.438282     0.430639     0.422996     0.415353
      0.407710     0.400067     0.392424     0.384780     0.377137     0.369494     0.361851     0.354208     0.346565     0.338922
      0.331278     0.323635     0.315992     0.308349     0.300706     0.293063     0.285420     0.277777     0.270133     0.262490
      0.254847     0.247204     0.239561     0.231918     0.224275     0.216631     0.208988     0.201345
 NY phased data points follow
   2.23955E+02  2.22250E+02  2.20978E+02  2.21138E+02  2.18992E+02  2.11568E+02  2.09296E+02  2.07917E+02  2.06821E+02  2.07418E+02
   2.17762E+02  2.05580E+02  2.00093E+02  1.98538E+02  1.93480E+02  1.93961E+02  1.90600E+02  1.97314E+02  1.94517E+02  1.89707E+02
   1.89006E+02  1.86384E+02  1.81333E+02  1.80804E+02  1.77966E+02  1.83017E+02  1.76621E+02  1.73790E+02  1.80232E+02  1.80751E+02
   1.70927E+02  1.69759E+02  1.70885E+02  1.71280E+02  1.77066E+02  1.74153E+02  1.65253E+02  1.66165E+02  1.64133E+02  1.67273E+02
   1.58239E+02  1.64872E+02  1.64434E+02  1.57484E+02  1.52600E+02  1.57184E+02  1.57066E+02  1.52224E+02  1.54648E+02  1.50560E+02
   1.46096E+02  1.50620E+02  1.44510E+02  1.46695E+02  1.39561E+02  1.44225E+02  1.48261E+02  1.42665E+02  1.42649E+02  1.41468E+02
   1.37061E+02  1.27778E+02  1.33644E+02  1.38360E+02  1.34650E+02  1.32293E+02  1.31324E+02  1.27001E+02  1.34276E+02  1.25113E+02
   1.26534E+02  1.25211E+02  1.24159E+02  1.29222E+02  1.28060E+02  1.27351E+02  1.25803E+02  1.27542E+02  1.24122E+02  1.23312E+02
   1.24213E+02  1.22076E+02  1.19409E+02  1.21661E+02  1.20479E+02  1.23704E+02  1.18360E+02  1.21421E+02  1.16609E+02  1.13413E+02
   1.21795E+02  1.13048E+02  1.10068E+02  1.12409E+02  1.10141E+02  1.12717E+02  1.11443E+02  1.08954E+02  1.12732E+02  1.10012E+02
   1.18110E+02  1.07442E+02  1.20596E+02  1.21101E+02  1.19241E+02  1.11445E+02  1.20595E+02  1.13077E+02  1.11649E+02  1.08278E+02
   1.09181E+02  1.08991E+02  1.11369E+02  1.08186E+02  9.64150E+01  9.86909E+01  1.04665E+02  1.01254E+02  1.03326E+02  1.01529E+02
   1.00682E+02  9.59909E+01  1.02169E+02  8.92107E+01  1.01615E+02  1.05243E+02  1.12272E+02  1.08021E+02  1.04950E+02  1.09884E+02
   1.04582E+02  1.08213E+02  9.33282E+01  9.97852E+01  9.58849E+01  9.16417E+01  9.11667E+01  8.60911E+01  8.96139E+01  8.62141E+01
   9.04987E+01  9.18774E+01  8.53793E+01  9.23640E+01  9.29876E+01  9.44633E+01  9.51106E+01  9.02064E+01  9.15445E+01  8.41687E+01
   8.73675E+01  9.18398E+01  8.28998E+01  8.80267E+01  8.25013E+01  8.54366E+01  8.70948E+01  8.59948E+01  8.70559E+01  7.98664E+01
   8.69442E+01  8.73244E+01  8.15105E+01  8.53390E+01  8.42799E+01  8.32205E+01  7.87609E+01  8.13471E+01  8.25851E+01  8.65961E+01
   8.27439E+01  8.70917E+01  8.04110E+01  7.84460E+01  8.05932E+01  8.18839E+01  8.08048E+01  8.10917E+01  7.73539E+01  8.17173E+01
   8.12411E+01  8.00480E+01  8.36187E+01  8.28367E+01  7.10472E+01  7.48935E+01  7.56564E+01  7.49843E+01  8.43382E+01  7.44382E+01
   7.45013E+01  8.11923E+01  7.82445E+01  8.21916E+01  7.21869E+01  8.08631E+01  7.41830E+01  7.48727E+01  8.10279E+01  7.47371E+01
   7.45510E+01  7.49280E+01  7.81266E+01  7.22951E+01  7.22929E+01  7.22590E+01  6.99940E+01  7.53563E+01  7.34107E+01  6.86064E+01
   6.67162E+01  6.96597E+01  7.18391E+01  6.50051E+01  7.19242E+01  6.87523E+01  7.68012E+01  7.64650E+01  7.61145E+01  7.79000E+01
   6.48596E+01  6.47337E+01  6.09193E+01  5.95270E+01  5.93713E+01  5.75520E+01  7.35889E+01  6.55864E+01  6.58172E+01  6.79482E+01
   6.09160E+01  5.15082E+01  6.46695E+01  5.77851E+01  5.50458E+01  5.56857E+01  5.38254E+01  5.07414E+01  6.03729E+01  6.07759E+01
   5.10423E+01  5.60145E+01  5.73250E+01  5.61384E+01  5.28785E+01  5.45760E+01  6.24207E+01  5.97710E+01  5.70734E+01  5.83252E+01
   5.75010E+01  6.38844E+01  5.88641E+01  5.52735E+01  5.83727E+01  5.66121E+01  5.07897E+01  5.53694E+01  6.05362E+01  6.41012E+01
   6.83866E+01  7.10312E+01  7.03125E+01  7.15960E+01  6.43677E+01  5.86393E+01  5.90655E+01  5.97388E+01  5.88771E+01  6.14158E+01
   5.69506E+01  5.32517E+01  5.51722E+01  6.17400E+01  5.33221E+01  6.06850E+01  6.64164E+01  5.67028E+01  5.60408E+01  6.03267E+01
   5.81129E+01  4.79090E+01  5.47047E+01  6.11343E+01  5.24280E+01  6.07007E+01  5.80452E+01  6.05450E+01  5.98732E+01  6.03281E+01
   6.29552E+01  6.45631E+01  5.92264E+01  6.16284E+01  5.65190E+01  6.66956E+01  6.35499E+01  6.87957E+01  6.44626E+01  5.96236E+01
   6.52295E+01  5.70770E+01  6.95532E+01  6.27254E+01  6.01154E+01  5.98397E+01  6.13605E+01  5.39873E+01  6.17039E+01  6.36859E+01
   6.73144E+01  6.58987E+01  5.61011E+01  6.26522E+01  6.51116E+01  6.61129E+01  5.55448E+01  5.92334E+01  5.83389E+01  5.66469E+01
   5.39228E+01  5.18091E+01  5.36711E+01  5.09021E+01  5.02327E+01  4.09786E+01  4.94148E+01  4.57613E+01  4.94147E+01  4.89090E+01
   4.42829E+01  4.63246E+01  5.33683E+01  4.54506E+01  5.21494E+01  4.31627E+01  4.23795E+01  4.19976E+01  4.29622E+01  4.69739E+01
   4.28178E+01  4.53710E+01  4.56514E+01  3.60283E+01  4.90326E+01  4.19149E+01  3.87152E+01  4.48085E+01  3.97010E+01  3.65268E+01
   3.13273E+01  2.85192E+01  3.68637E+01  3.05773E+01  2.60745E+01  2.95813E+01  3.68559E+01  3.78294E+01  3.13953E+01  3.59805E+01
   3.40283E+01  3.28577E+01  3.52284E+01  3.25717E+01  2.59605E+01  3.63841E+01  2.99871E+01  2.81006E+01  2.92819E+01  2.12224E+01
   2.74982E+01  2.92871E+01  2.99867E+01  2.48566E+01  2.07843E+01  3.60294E+01  3.20651E+01  2.45340E+01  2.83553E+01  2.32385E+01
   3.23812E+01  3.66921E+01  3.11143E+01  2.89412E+01  3.52806E+01  3.65707E+01  3.18685E+01  3.59936E+01  2.90779E+01  3.41173E+01
   3.95772E+01  3.32840E+01  4.06273E+01  2.94918E+01  3.41635E+01  3.68118E+01  3.53210E+01  4.00601E+01  3.09398E+01  3.94083E+01
   4.27352E+01  4.04790E+01  4.00728E+01  3.98704E+01  3.09340E+01  4.13036E+01  3.72816E+01  3.30315E+01  3.50366E+01  3.45549E+01
   3.71911E+01  3.54329E+01  3.58645E+01  3.06618E+01  3.57749E+01  3.89791E+01  3.46992E+01  3.85562E+01  3.57042E+01  3.24898E+01
   3.10772E+01  3.83493E+01  4.17003E+01  3.72016E+01  3.60643E+01  3.81181E+01  3.54164E+01  3.35015E+01  3.70709E+01  3.52383E+01
   3.51385E+01  3.69807E+01  3.24466E+01  3.16998E+01  3.42880E+01  3.47182E+01  3.33678E+01  2.67979E+01  3.89195E+01  2.88905E+01
   2.61716E+01  3.37810E+01  3.25140E+01  2.89502E+01  3.50159E+01  2.89793E+01  3.33365E+01  3.27998E+01  3.00414E+01  3.06908E+01
   3.35020E+01  3.33175E+01  3.12103E+01  3.31057E+01  2.87933E+01  3.10856E+01  2.71119E+01  3.33770E+01  3.75127E+01  2.13642E+01
   3.08989E+01  3.16074E+01  2.99628E+01  3.63167E+01  3.31192E+01  3.21961E+01  3.24199E+01  3.59125E+01  3.17412E+01  3.34472E+01
   3.35147E+01  3.19713E+01  2.59097E+01  2.87648E+01  2.50167E+01  2.28918E+01  3.12157E+01  3.44816E+01  3.02457E+01  3.40102E+01
   2.57299E+01  3.52049E+01  2.74364E+01  2.62214E+01  3.22841E+01  2.70500E+01  2.17570E+01  2.85328E+01  3.04912E+01  3.26924E+01
   2.56826E+01  2.78431E+01  2.96299E+01  3.16492E+01  2.79839E+01  2.69013E+01  2.40844E+01  3.14373E+01
 NY points of the fit to the data follow
   2.15875E+02  2.14514E+02  2.13168E+02  2.11696E+02  2.09823E+02  2.08162E+02  2.08043E+02  2.09025E+02  2.09874E+02  2.09838E+02
   2.08890E+02  2.07014E+02  2.04113E+02  2.00865E+02  1.97887E+02  1.95531E+02  1.93779E+02  1.92243E+02  1.90759E+02  1.89349E+02
   1.88000E+02  1.86648E+02  1.85313E+02  1.84228E+02  1.83361E+02  1.82080E+02  1.80307E+02  1.78625E+02  1.77185E+02  1.75846E+02
   1.74763E+02  1.74304E+02  1.74237E+02  1.73829E+02  1.72781E+02  1.70911E+02  1.68340E+02  1.65675E+02  1.63422E+02  1.61844E+02
   1.60830E+02  1.60171E+02  1.59605E+02  1.58844E+02  1.57817E+02  1.56548E+02  1.55172E+02  1.53866E+02  1.52649E+02  1.51482E+02
   1.50358E+02  1.49278E+02  1.48232E+02  1.47197E+02  1.46169E+02  1.45126E+02  1.44067E+02  1.43011E+02  1.41966E+02  1.40941E+02
   1.39942E+02  1.38966E+02  1.38014E+02  1.37101E+02  1.36220E+02  1.35345E+02  1.34482E+02  1.33606E+02  1.32699E+02  1.31775E+02
   1.30840E+02  1.29905E+02  1.29053E+02  1.28357E+02  1.27739E+02  1.27096E+02  1.26373E+02  1.25549E+02  1.24628E+02  1.23685E+02
   1.22793E+02  1.21941E+02  1.21173E+02  1.20627E+02  1.20260E+02  1.19885E+02  1.19383E+02  1.18747E+02  1.18026E+02  1.17243E+02
   1.16422E+02  1.15585E+02  1.14760E+02  1.13973E+02  1.13206E+02  1.12511E+02  1.11946E+02  1.11330E+02  1.10202E+02  1.08898E+02
   1.09445E+02  1.12525E+02  1.16191E+02  1.18700E+02  1.19516E+02  1.18797E+02  1.16367E+02  1.12731E+02  1.09125E+02  1.06374E+02
   1.04821E+02  1.04029E+02  1.03448E+02  1.02921E+02  1.02429E+02  1.01973E+02  1.01537E+02  1.01087E+02  1.00627E+02  1.00162E+02
   9.96356E+01  9.87308E+01  9.70909E+01  9.64094E+01  9.90806E+01  1.03649E+02  1.07652E+02  1.09745E+02  1.10031E+02  1.08438E+02
   1.04969E+02  1.01063E+02  9.77337E+01  9.56160E+01  9.45486E+01  9.37784E+01  9.30446E+01  9.24078E+01  9.19663E+01  9.17288E+01
   9.16132E+01  9.15270E+01  9.13848E+01  9.11743E+01  9.08839E+01  9.05159E+01  9.01265E+01  8.97425E+01  8.93705E+01  8.90007E+01
   8.86352E+01  8.82793E+01  8.79287E+01  8.75938E+01  8.72818E+01  8.69999E+01  8.67542E+01  8.64987E+01  8.61485E+01  8.57031E+01
   8.52260E+01  8.48091E+01  8.45238E+01  8.43274E+01  8.41687E+01  8.39956E+01  8.37778E+01  8.34909E+01  8.31260E+01  8.27418E+01
   8.23797E+01  8.20634E+01  8.17675E+01  8.13867E+01  8.09175E+01  8.04932E+01  8.01874E+01  7.99591E+01  7.96869E+01  7.93630E+01
   7.90409E+01  7.87444E+01  7.84683E+01  7.81473E+01  7.77411E+01  7.73099E+01  7.69470E+01  7.66946E+01  7.65593E+01  7.65182E+01
   7.65022E+01  7.64101E+01  7.61834E+01  7.58529E+01  7.54353E+01  7.49100E+01  7.43727E+01  7.39053E+01  7.35130E+01  7.31291E+01
   7.27786E+01  7.25721E+01  7.25068E+01  7.25600E+01  7.25461E+01  7.23823E+01  7.21181E+01  7.15515E+01  7.06699E+01  6.95243E+01
   6.82841E+01  6.71347E+01  6.64933E+01  6.72529E+01  6.91216E+01  7.09871E+01  7.21156E+01  7.23232E+01  7.15667E+01  6.92454E+01
   6.54873E+01  6.17331E+01  5.94067E+01  5.88067E+01  5.94808E+01  6.10258E+01  6.30859E+01  6.49683E+01  6.59649E+01  6.59197E+01
   6.51974E+01  6.43268E+01  6.35864E+01  6.30571E+01  6.28800E+01  6.30401E+01  6.33129E+01  6.33797E+01  6.30652E+01  6.24296E+01
   6.14399E+01  6.03411E+01  5.95562E+01  5.93450E+01  5.95633E+01  6.00475E+01  6.07135E+01  6.12004E+01  6.11313E+01  6.04778E+01
   5.96153E+01  5.88957E+01  5.84728E+01  5.83803E+01  5.84615E+01  5.79393E+01  5.67289E+01  5.72581E+01  6.08341E+01  6.53231E+01
   6.87191E+01  7.04812E+01  7.07243E+01  6.89073E+01  6.54564E+01  6.18461E+01  5.90413E+01  5.75145E+01  5.68431E+01  5.63898E+01
   5.60007E+01  5.57499E+01  5.56542E+01  5.56828E+01  5.58020E+01  5.59644E+01  5.61081E+01  5.61710E+01  5.61238E+01  5.60015E+01
   5.58694E+01  5.57781E+01  5.57475E+01  5.57943E+01  5.59277E+01  5.61294E+01  5.63838E+01  5.66848E+01  5.70275E+01  5.74117E+01
   5.78390E+01  5.83099E+01  5.88235E+01  5.93734E+01  5.99505E+01  6.05426E+01  6.11351E+01  6.17120E+01  6.22537E+01  6.27402E+01
   6.31536E+01  6.34775E+01  6.36964E+01  6.37972E+01  6.37705E+01  6.36115E+01  6.33199E+01  6.29001E+01  6.23614E+01  6.17172E+01
   6.09840E+01  6.01802E+01  5.93252E+01  5.84391E+01  5.75412E+01  5.66496E+01  5.57800E+01  5.49453E+01  5.41557E+01  5.34181E+01
   5.27361E+01  5.21102E+01  5.15382E+01  5.10155E+01  5.05356E+01  5.00908E+01  4.96728E+01  4.92726E+01  4.88814E+01  4.84912E+01
   4.80948E+01  4.76863E+01  4.72609E+01  4.68154E+01  4.63479E+01  4.58580E+01  4.53467E+01  4.48162E+01  4.42694E+01  4.37082E+01
   4.31297E+01  4.25091E+01  4.18335E+01  4.15143E+01  4.20434E+01  4.27229E+01  4.26225E+01  4.15834E+01  3.99631E+01  3.79758E+01
   3.54057E+01  3.27790E+01  3.14042E+01  3.16657E+01  3.29545E+01  3.43635E+01  3.55343E+01  3.63409E+01  3.64505E+01  3.59364E+01
   3.50777E+01  3.42240E+01  3.36235E+01  3.32227E+01  3.29196E+01  3.26743E+01  3.24695E+01  3.22960E+01  3.21482E+01  3.20225E+01
   3.19165E+01  3.18285E+01  3.17574E+01  3.17025E+01  3.16634E+01  3.16399E+01  3.16319E+01  3.16398E+01  3.16641E+01  3.17054E+01
   3.17645E+01  3.18423E+01  3.19399E+01  3.20584E+01  3.21991E+01  3.23629E+01  3.25509E+01  3.27636E+01  3.30012E+01  3.32635E+01
   3.35496E+01  3.38577E+01  3.41849E+01  3.45277E+01  3.48814E+01  3.52402E+01  3.55976E+01  3.59462E+01  3.62782E+01  3.65855E+01
   3.68604E+01  3.70955E+01  3.72843E+01  3.74216E+01  3.75036E+01  3.75284E+01  3.74958E+01  3.74076E+01  3.72671E+01  3.70796E+01
   3.68515E+01  3.65901E+01  3.63034E+01  3.59995E+01  3.56861E+01  3.53706E+01  3.50596E+01  3.47588E+01  3.44726E+01  3.42045E+01
   3.39569E+01  3.37310E+01  3.35275E+01  3.33459E+01  3.31854E+01  3.30447E+01  3.29222E+01  3.28161E+01  3.27245E+01  3.26455E+01
   3.25774E+01  3.25186E+01  3.24673E+01  3.24224E+01  3.23825E+01  3.23467E+01  3.23140E+01  3.22835E+01  3.22545E+01  3.22266E+01
   3.21992E+01  3.21718E+01  3.21441E+01  3.21158E+01  3.20866E+01  3.20562E+01  3.20245E+01  3.19912E+01  3.19563E+01  3.19194E+01
   3.18805E+01  3.18395E+01  3.17963E+01  3.17508E+01  3.17030E+01  3.16529E+01  3.16006E+01  3.15461E+01  3.14896E+01  3.14309E+01
   3.13702E+01  3.13075E+01  3.12430E+01  3.11766E+01  3.11084E+01  3.10385E+01  3.09669E+01  3.08938E+01  3.08191E+01  3.07430E+01
   3.06656E+01  3.05868E+01  3.05068E+01  3.04256E+01  3.03433E+01  3.02601E+01  3.01759E+01  3.00908E+01  3.00050E+01  2.99184E+01
   2.98312E+01  2.97435E+01  2.96552E+01  2.95666E+01  2.94776E+01  2.93884E+01  2.92990E+01  2.92095E+01  2.91200E+01  2.90306E+01
   2.89413E+01  2.88522E+01  2.87635E+01  2.86751E+01  2.85871E+01  2.84997E+01  2.84130E+01  2.83269E+01
 NY background values follow
     2.159E+02    2.144E+02    2.130E+02    2.116E+02    2.101E+02    2.087E+02    2.073E+02    2.058E+02    2.044E+02    2.030E+02
     2.016E+02    2.001E+02    1.987E+02    1.973E+02    1.959E+02    1.945E+02    1.931E+02    1.917E+02    1.903E+02    1.889E+02
     1.875E+02    1.861E+02    1.848E+02    1.834E+02    1.820E+02    1.807E+02    1.793E+02    1.780E+02    1.767E+02    1.753E+02
     1.740E+02    1.727E+02    1.714E+02    1.701E+02    1.688E+02    1.676E+02    1.663E+02    1.651E+02    1.638E+02    1.626E+02
     1.614E+02    1.602E+02    1.590E+02    1.578E+02    1.566E+02    1.555E+02    1.543E+02    1.532E+02    1.521E+02    1.510E+02
     1.499E+02    1.488E+02    1.477E+02    1.467E+02    1.456E+02    1.446E+02    1.436E+02    1.426E+02    1.416E+02    1.406E+02
     1.396E+02    1.387E+02    1.377E+02    1.368E+02    1.358E+02    1.349E+02    1.340E+02    1.331E+02    1.323E+02    1.314E+02
     1.305E+02    1.297E+02    1.288E+02    1.280E+02    1.272E+02    1.264E+02    1.256E+02    1.248E+02    1.240E+02    1.233E+02
     1.225E+02    1.218E+02    1.210E+02    1.203E+02    1.196E+02    1.189E+02    1.182E+02    1.175E+02    1.168E+02    1.162E+02
     1.155E+02    1.149E+02    1.142E+02    1.136E+02    1.130E+02    1.123E+02    1.117E+02    1.111E+02    1.105E+02    1.100E+02
     1.094E+02    1.088E+02    1.083E+02    1.077E+02    1.072E+02    1.066E+02    1.061E+02    1.056E+02    1.051E+02    1.046E+02
     1.041E+02    1.036E+02    1.031E+02    1.026E+02    1.021E+02    1.017E+02    1.012E+02    1.007E+02    1.003E+02    9.985E+01
     9.941E+01    9.898E+01    9.856E+01    9.814E+01    9.773E+01    9.732E+01    9.691E+01    9.652E+01    9.612E+01    9.574E+01
     9.535E+01    9.497E+01    9.460E+01    9.423E+01    9.387E+01    9.351E+01    9.315E+01    9.280E+01    9.245E+01    9.211E+01
     9.177E+01    9.143E+01    9.110E+01    9.077E+01    9.044E+01    9.011E+01    8.979E+01    8.947E+01    8.915E+01    8.884E+01
     8.853E+01    8.822E+01    8.791E+01    8.760E+01    8.729E+01    8.699E+01    8.669E+01    8.638E+01    8.608E+01    8.578E+01
     8.548E+01    8.518E+01    8.488E+01    8.458E+01    8.428E+01    8.398E+01    8.368E+01    8.338E+01    8.308E+01    8.278E+01
     8.247E+01    8.217E+01    8.186E+01    8.156E+01    8.125E+01    8.094E+01    8.062E+01    8.031E+01    7.999E+01    7.967E+01
     7.935E+01    7.903E+01    7.870E+01    7.837E+01    7.804E+01    7.770E+01    7.736E+01    7.703E+01    7.668E+01    7.634E+01
     7.600E+01    7.565E+01    7.531E+01    7.496E+01    7.461E+01    7.427E+01    7.392E+01    7.357E+01    7.322E+01    7.287E+01
     7.252E+01    7.218E+01    7.183E+01    7.148E+01    7.114E+01    7.079E+01    7.045E+01    7.011E+01    6.977E+01    6.943E+01
     6.909E+01    6.876E+01    6.843E+01    6.810E+01    6.777E+01    6.745E+01    6.713E+01    6.681E+01    6.650E+01    6.619E+01
     6.588E+01    6.558E+01    6.528E+01    6.499E+01    6.470E+01    6.441E+01    6.413E+01    6.385E+01    6.358E+01    6.332E+01
     6.305E+01    6.280E+01    6.254E+01    6.229E+01    6.205E+01    6.181E+01    6.157E+01    6.134E+01    6.111E+01    6.088E+01
     6.065E+01    6.043E+01    6.022E+01    6.000E+01    5.979E+01    5.958E+01    5.938E+01    5.917E+01    5.897E+01    5.877E+01
     5.858E+01    5.838E+01    5.819E+01    5.800E+01    5.781E+01    5.762E+01    5.744E+01    5.725E+01    5.707E+01    5.688E+01
     5.670E+01    5.652E+01    5.634E+01    5.616E+01    5.598E+01    5.581E+01    5.563E+01    5.545E+01    5.527E+01    5.509E+01
     5.491E+01    5.474E+01    5.456E+01    5.438E+01    5.420E+01    5.402E+01    5.383E+01    5.365E+01    5.347E+01    5.328E+01
     5.310E+01    5.291E+01    5.272E+01    5.253E+01    5.234E+01    5.215E+01    5.195E+01    5.176E+01    5.156E+01    5.136E+01
     5.115E+01    5.095E+01    5.074E+01    5.053E+01    5.032E+01    5.011E+01    4.989E+01    4.967E+01    4.945E+01    4.923E+01
     4.900E+01    4.877E+01    4.853E+01    4.829E+01    4.805E+01    4.781E+01    4.756E+01    4.731E+01    4.706E+01    4.680E+01
     4.654E+01    4.627E+01    4.600E+01    4.572E+01    4.545E+01    4.516E+01    4.487E+01    4.458E+01    4.429E+01    4.399E+01
     4.368E+01    4.338E+01    4.307E+01    4.275E+01    4.244E+01    4.212E+01    4.180E+01    4.148E+01    4.116E+01    4.084E+01
     4.052E+01    4.020E+01    3.987E+01    3.955E+01    3.923E+01    3.891E+01    3.860E+01    3.828E+01    3.797E+01    3.766E+01
     3.735E+01    3.704E+01    3.674E+01    3.644E+01    3.615E+01    3.586E+01    3.558E+01    3.530E+01    3.503E+01    3.476E+01
     3.450E+01    3.424E+01    3.400E+01    3.375E+01    3.352E+01    3.330E+01    3.308E+01    3.287E+01    3.267E+01    3.248E+01
     3.229E+01    3.212E+01    3.196E+01    3.181E+01    3.166E+01    3.153E+01    3.141E+01    3.129E+01    3.119E+01    3.109E+01
     3.100E+01    3.092E+01    3.084E+01    3.078E+01    3.072E+01    3.067E+01    3.062E+01    3.059E+01    3.056E+01    3.053E+01
     3.051E+01    3.050E+01    3.049E+01    3.049E+01    3.049E+01    3.049E+01    3.050E+01    3.052E+01    3.054E+01    3.056E+01
     3.059E+01    3.062E+01    3.065E+01    3.068E+01    3.072E+01    3.076E+01    3.080E+01    3.084E+01    3.089E+01    3.093E+01
     3.098E+01    3.103E+01    3.108E+01    3.112E+01    3.117E+01    3.122E+01    3.127E+01    3.131E+01    3.136E+01    3.141E+01
     3.145E+01    3.149E+01    3.153E+01    3.158E+01    3.162E+01    3.165E+01    3.169E+01    3.173E+01    3.176E+01    3.179E+01
     3.183E+01    3.186E+01    3.189E+01    3.191E+01    3.194E+01    3.196E+01    3.199E+01    3.201E+01    3.203E+01    3.204E+01
     3.206E+01    3.207E+01    3.208E+01    3.209E+01    3.210E+01    3.210E+01    3.211E+01    3.211E+01    3.211E+01    3.210E+01
     3.210E+01    3.209E+01    3.208E+01    3.207E+01    3.205E+01    3.203E+01    3.201E+01    3.199E+01    3.196E+01    3.193E+01
     3.190E+01    3.187E+01    3.183E+01    3.179E+01    3.175E+01    3.170E+01    3.166E+01    3.161E+01    3.155E+01    3.150E+01
     3.144E+01    3.138E+01    3.132E+01    3.125E+01    3.119E+01    3.112E+01    3.105E+01    3.098E+01    3.091E+01    3.083E+01
     3.076E+01    3.068E+01    3.060E+01    3.052E+01    3.044E+01    3.036E+01    3.027E+01    3.019E+01    3.010E+01    3.002E+01
     2.993E+01    2.984E+01    2.976E+01    2.967E+01    2.958E+01    2.949E+01    2.940E+01    2.931E+01    2.922E+01    2.913E+01
     2.904E+01    2.895E+01    2.887E+01    2.878E+01    2.869E+01    2.860E+01    2.851E+01    2.843E+01
 Asp      Conc. = 4.31E+01
